  Pressure (Pa) 22mC5-400 (mol/kg) 2mC6-400 (mol/kg) 33mC5-400 (mol/kg) 23mC5-400 (mol/kg) C7-400 (mol/kg)
    0.1000000000E+01    0.5294113668E-03    0.4762162029E-02    0.5169923611E-03    0.2788763298E-03    0.3418893564E-02
    0.3000000000E+01    0.1568527746E-02    0.1393837147E-01    0.1513281032E-02    0.8262540196E-03    0.1003040348E-01
    0.5000000000E+01    0.2582417674E-02    0.2267709724E-01    0.2462196697E-02    0.1360350463E-02    0.1635777628E-01
    0.7000000000E+01    0.3572267514E-02    0.3100781880E-01    0.3366931994E-02    0.1881790185E-02    0.2242038359E-01
    0.9000000000E+01    0.4539187325E-02    0.3895741949E-01    0.4230398269E-02    0.2391157543E-02    0.2823584555E-01
    0.1100000000E+02    0.5484216988E-02    0.4655046796E-01    0.5055256088E-02    0.2888999956E-02    0.3382022550E-01
    0.1300000000E+02    0.6408331751E-02    0.5380946359E-01    0.5843941836E-02    0.3375830821E-02    0.3918819927E-01
    0.1500000000E+02    0.7312447249E-02    0.6075505111E-01    0.6598690979E-02    0.3852132156E-02    0.4435320272E-01
    0.1700000000E+02    0.8197424062E-02    0.6740620885E-01    0.7321558469E-02    0.4318356997E-02    0.4932756086E-01
    0.1900000000E+02    0.9064071858E-02    0.7378041448E-01    0.8014436701E-02    0.4774931583E-02    0.5412260108E-01
    0.2100000000E+02    0.9913153163E-02    0.7989379114E-01    0.8679071352E-02    0.5222257335E-02    0.5874875275E-01
    0.2300000000E+02    0.1074538680E-01    0.8576123676E-01    0.9317075400E-02    0.5660712672E-02    0.6321563518E-01
    0.2500000000E+02    0.1156145103E-01    0.9139653881E-01    0.9929941547E-02    0.6090654657E-02    0.6753213525E-01
    0.2700000000E+02    0.1236198642E-01    0.9681247624E-01    0.1051905327E-01    0.6512420512E-02    0.7170647643E-01
    0.2900000000E+02    0.1314759846E-01    0.1020209104E+00    0.1108569468E-01    0.6926329003E-02    0.7574627994E-01
    0.3100000000E+02    0.1391886001E-01    0.1070328662E+00    0.1163105929E-01    0.7332681702E-02    0.7965861939E-01
    0.3300000000E+02    0.1467631345E-01    0.1118586049E+00    0.1215625794E-01    0.7731764156E-02    0.8345006948E-01
    0.3500000000E+02    0.1542047278E-01    0.1165076890E+00    0.1266232578E-01    0.8123846958E-02    0.8712674956E-01
    0.3700000000E+02    0.1615182545E-01    0.1209890412E+00    0.1315022871E-01    0.8509186725E-02    0.9069436276E-01
    0.3900000000E+02    0.1687083408E-01    0.1253109971E+00    0.1362086903E-01    0.8888027015E-02    0.9415823106E-01
    0.4100000000E+02    0.1757793807E-01    0.1294813526E+00    0.1407509063E-01    0.9260599154E-02    0.9752332691E-01
    0.4300000000E+02    0.1827355507E-01    0.1335074071E+00    0.1451368361E-01    0.9627123016E-02    0.1007943017E+00
    0.4500000000E+02    0.1895808232E-01    0.1373960025E+00    0.1493738857E-01    0.9987807733E-02    0.1039755116E+00
    0.4700000000E+02    0.1963189790E-01    0.1411535583E+00    0.1534690037E-01    0.1034285236E-01    0.1070710406E+00
    0.4900000000E+02    0.2029536192E-01    0.1447861041E+00    0.1574287165E-01    0.1069244648E-01    0.1100847220E+00
    0.1000000000E+02    0.5014376019E-02    0.4279706069E-01    0.4647495994E-02    0.2641486515E-02    0.3105597284E-01
    0.3000000000E+02    0.1353498846E-01    0.1045507897E+00    0.1136096531E-01    0.7130431617E-02    0.7771796059E-01
    0.5000000000E+02    0.2062331998E-01    0.1465572830E+00    0.1593597278E-01    0.1086525639E-01    0.1115620039E+00
    0.7000000000E+02    0.2671446102E-01    0.1766288737E+00    0.1921819748E-01    0.1407501884E-01    0.1375792884E+00
    0.9000000000E+02    0.3207722957E-01    0.1989568209E+00    0.2166128608E-01    0.1690124695E-01    0.1584293053E+00
    0.1100000000E+03    0.3688764267E-01    0.2159909806E+00    0.2353039823E-01    0.1943661413E-01    0.1756662244E+00
    0.1300000000E+03    0.4126636750E-01    0.2292577589E+00    0.2499075530E-01    0.2174465412E-01    0.1902630505E+00
    0.1500000000E+03    0.4529926403E-01    0.2397565357E+00    0.2615054706E-01    0.2387057537E-01    0.2028623950E+00
    0.1700000000E+03    0.4904933623E-01    0.2481681251E+00    0.2708349090E-01    0.2584755279E-01    0.2139071949E+00
    0.1900000000E+03    0.5256402963E-01    0.2549716619E+00    0.2784147987E-01    0.2770056957E-01    0.2237136199E+00
    0.2100000000E+03    0.5587987122E-01    0.2605136374E+00    0.2846205250E-01    0.2944886011E-01    0.2325140271E+00
    0.2300000000E+03    0.5902552306E-01    0.2650504670E+00    0.2897299846E-01    0.3110751758E-01    0.2404834428E+00
    0.2500000000E+03    0.6202385210E-01    0.2687757052E+00    0.2939530327E-01    0.3268858380E-01    0.2477565259E+00
    0.2700000000E+03    0.6489336993E-01    0.2718379943E+00    0.2974509032E-01    0.3420180724E-01    0.2544387944E+00
    0.2900000000E+03    0.6764925713E-01    0.2743532227E+00    0.3003493650E-01    0.3565518234E-01    0.2606142684E+00
    0.3100000000E+03    0.7030410679E-01    0.2764129566E+00    0.3027478457E-01    0.3705534102E-01    0.2663508027E+00
    0.3300000000E+03    0.7286847393E-01    0.2780904096E+00    0.3047258930E-01    0.3840784201E-01    0.2717038902E+00
    0.3500000000E+03    0.7535128806E-01    0.2794447481E+00    0.3063478337E-01    0.3971738802E-01    0.2767194271E+00
    0.3700000000E+03    0.7776016751E-01    0.2805242468E+00    0.3076661899E-01    0.4098799130E-01    0.2814357577E+00
    0.3900000000E+03    0.8010166195E-01    0.2813686376E+00    0.3087242219E-01    0.4222310133E-01    0.2858852112E+00
    0.4100000000E+03    0.8238144197E-01    0.2820108803E+00    0.3095578456E-01    0.4342570462E-01    0.2900952724E+00
    0.4300000000E+03    0.8460444867E-01    0.2824785148E+00    0.3101970966E-01    0.4459840355E-01    0.2940894849E+00
    0.4500000000E+03    0.8677501306E-01    0.2827947044E+00    0.3106672606E-01    0.4574347918E-01    0.2978881564E+00
    0.4700000000E+03    0.8889695214E-01    0.2829790503E+00    0.3109897556E-01    0.4686294187E-01    0.3015089156E+00
    0.4900000000E+03    0.9097364699E-01    0.2830482325E+00    0.3111828263E-01    0.4795857239E-01    0.3049671550E+00
    0.1000000000E+03    0.3454293793E-01    0.2080244951E+00    0.2265556077E-01    0.1820079033E-01    0.1674287213E+00
    0.3000000000E+03    0.6898860959E-01    0.2754350776E+00    0.3016057271E-01    0.3636154400E-01    0.2635336815E+00
    0.5000000000E+03    0.9199598115E-01    0.2830441781E+00    0.3112357994E-01    0.4849795271E-01    0.3066396178E+00
    0.7000000000E+03    0.1106500832E+00    0.2794815981E+00    0.3083152912E-01    0.5834130182E-01    0.3341116376E+00
    0.9000000000E+03    0.1268491323E+00    0.2727680870E+00    0.3016621803E-01    0.6689138827E-01    0.3541778602E+00
    0.1100000000E+04    0.1413856300E+00    0.2651415216E+00    0.2937834422E-01    0.7456563605E-01    0.3699329708E+00
    0.1300000000E+04    0.1546716747E+00    0.2573874724E+00    0.2855861873E-01    0.8158109869E-01    0.3828681956E+00
    0.1500000000E+04    0.1669526822E+00    0.2498133971E+00    0.2774435805E-01    0.8806702996E-01    0.3938153284E+00
    0.1700000000E+04    0.1783892718E+00    0.2425422615E+00    0.2695186594E-01    0.9410801719E-01    0.4032856414E+00
    0.1900000000E+04    0.1890942821E+00    0.2356184238E+00    0.2618823494E-01    0.9976347991E-01    0.4116159140E+00
    0.2100000000E+04    0.1991515296E+00    0.2290507189E+00    0.2545621658E-01    0.1050775516E+00    0.4190397884E+00
    0.2300000000E+04    0.2086261440E+00    0.2228315408E+00    0.2475641936E-01    0.1100845245E+00    0.4257260161E+00
    0.2500000000E+04    0.2175706376E+00    0.2169458175E+00    0.2408836911E-01    0.1148120459E+00    0.4318004668E+00
    0.2700000000E+04    0.2260286506E+00    0.2113754054E+00    0.2345104660E-01    0.1192830922E+00    0.4373595288E+00
    0.2900000000E+04    0.2340373595E+00    0.2061012895E+00    0.2284317054E-01    0.1235172366E+00    0.4424786489E+00
    0.3100000000E+04    0.2416290769E+00    0.2011046887E+00    0.2226335026E-01    0.1275314921E+00    0.4472179870E+00
    0.3300000000E+04    0.2488323467E+00    0.1963675954E+00    0.2171016943E-01    0.1313408883E+00    0.4516262806E+00
    0.3500000000E+04    0.2556727127E+00    0.1918730191E+00    0.2118223193E-01    0.1349588759E+00    0.4557435611E+00
    0.3700000000E+04    0.2621732707E+00    0.1876050727E+00    0.2067818668E-01    0.1383976176E+00    0.4596031061E+00
    0.3900000000E+04    0.2683550746E+00    0.1835489755E+00    0.2019674033E-01    0.1416682017E+00    0.4632328750E+00
    0.4100000000E+04    0.2742374406E+00    0.1796910140E+00    0.1973666310E-01    0.1447808022E+00    0.4666565807E+00
    0.4300000000E+04    0.2798381807E+00    0.1760184825E+00    0.1929679052E-01    0.1477448020E+00    0.4698945061E+00
    0.4500000000E+04    0.2851737861E+00    0.1725196147E+00    0.1887602297E-01    0.1505688888E+00    0.4729641316E+00
    0.4700000000E+04    0.2902595723E+00    0.1691835146E+00    0.1847332379E-01    0.1532611321E+00    0.4758806273E+00
    0.4900000000E+04    0.2951097990E+00    0.1660000887E+00    0.1808771675E-01    0.1558290455E+00    0.4786572401E+00
    0.1000000000E+04    0.1342940487E+00    0.2690027739E+00    0.2978003679E-01    0.7082158423E-01    0.3624793433E+00
    0.3000000000E+04    0.2378834801E+00    0.2035694472E+00    0.2254984202E-01    0.1255508701E+00    0.4448925132E+00
    0.5000000000E+04    0.2974507696E+00    0.1644626779E+00    0.1790103353E-01    0.1570685875E+00    0.4799967819E+00
    0.7000000000E+04    0.3347031369E+00    0.1397936650E+00    0.1486921396E-01    0.1768078611E+00    0.5016467646E+00
    0.9000000000E+04    0.3591778942E+00    0.1230915186E+00    0.1278798816E-01    0.1897966393E+00    0.5169511375E+00
    0.1100000000E+05    0.3759889187E+00    0.1111060636E+00    0.1129060104E-01    0.1987331640E+00    0.5286027664E+00
    0.1300000000E+05    0.3879996111E+00    0.1020896246E+00    0.1016870720E-01    0.2051293319E+00    0.5379023076E+00
    0.1500000000E+05    0.3968770945E+00    0.9504329915E-01    0.9298959785E-02    0.2098659654E+00    0.5455726709E+00
    0.1700000000E+05    0.4036316568E+00    0.8936431346E-01    0.8605183405E-02    0.2134771778E+00    0.5520548361E+00
    0.1900000000E+05    0.4088994856E+00    0.8467114576E-01    0.8038423787E-02    0.2162995093E+00    0.5576363626E+00
    0.2100000000E+05    0.4130955454E+00    0.8071204745E-01    0.7566063481E-02    0.2185526071E+00    0.5625144553E+00
    0.2300000000E+05    0.4164991981E+00    0.7731477966E-01    0.7165659045E-02    0.2203844324E+00    0.5668298009E+00
    0.2500000000E+05    0.4193038850E+00    0.7435773482E-01    0.6821321195E-02    0.2218975032E+00    0.5706860126E+00
    0.2700000000E+05    0.4216469432E+00    0.7175266522E-01    0.6521513857E-02    0.2231646504E+00    0.5741614269E+00
    0.2900000000E+05    0.4236280692E+00    0.6943397550E-01    0.6257672687E-02    0.2242387780E+00    0.5773165884E+00
    0.3100000000E+05    0.4253210824E+00    0.6735186807E-01    0.6023312473E-02    0.2251590843E+00    0.5801991752E+00
    0.3300000000E+05    0.4267816188E+00    0.6546782718E-01    0.5813435050E-02    0.2259551321E+00    0.5828473448E+00
    0.3500000000E+05    0.4280522818E+00    0.6375156619E-01    0.5624127119E-02    0.2266495751E+00    0.5852920682E+00
    0.3700000000E+05    0.4291661658E+00    0.6217891568E-01    0.5452281096E-02    0.2272600230E+00    0.5875587963E+00
    0.3900000000E+05    0.4301493142E+00    0.6073033169E-01    0.5295397541E-02    0.2278003437E+00    0.5896686742E+00
    0.4100000000E+05    0.4310224643E+00    0.5938982188E-01    0.5151442807E-02    0.2282815877E+00    0.5916394431E+00
    0.4300000000E+05    0.4318023067E+00    0.5814415915E-01    0.5018744802E-02    0.2287126559E+00    0.5934861192E+00
    0.4500000000E+05    0.4325024072E+00    0.5698229689E-01    0.4895915516E-02    0.2291007883E+00    0.5952215139E+00
    0.4700000000E+05    0.4331338922E+00    0.5589492770E-01    0.4781792653E-02    0.2294519274E+00    0.5968566367E+00
    0.4900000000E+05    0.4337059626E+00    0.5487414619E-01    0.4675395105E-02    0.2297709914E+00    0.5984010111E+00
    0.1000000000E+05    0.3683254282E+00    0.1166420246E+00    0.1198195434E-01    0.1946574354E+00    0.5231332338E+00
    0.3000000000E+05    0.4245067565E+00    0.6836597928E-01    0.6137149256E-02    0.2247161223E+00    0.5787893769E+00
    0.5000000000E+05    0.4339721647E+00    0.5438657331E-01    0.4624827649E-02    0.2299198044E+00    0.5991417999E+00
    0.7000000000E+05    0.4375034209E+00    0.4690462488E-01    0.3869513192E-02    0.2319227860E+00    0.6107370108E+00
    0.9000000000E+05    0.4392869753E+00    0.4200586327E-01    0.3395846902E-02    0.2329688486E+00    0.6185196186E+00
    0.1100000000E+06    0.4403441028E+00    0.3845697283E-01    0.3062718666E-02    0.2336107521E+00    0.6242258933E+00
    0.1300000000E+06    0.4410357349E+00    0.3572349370E-01    0.2811683235E-02    0.2340458788E+00    0.6286497796E+00
    0.1500000000E+06    0.4415195705E+00    0.3352930680E-01    0.2613572830E-02    0.2343614039E+00    0.6322142708E+00
    0.1700000000E+06    0.4418747802E+00    0.3171474006E-01    0.2451973115E-02    0.2346015818E+00    0.6351687288E+00
    0.1900000000E+06    0.4421452242E+00    0.3017987943E-01    0.2316835977E-02    0.2347912107E+00    0.6376712024E+00
    0.2100000000E+06    0.4423570573E+00    0.2885843623E-01    0.2201614784E-02    0.2349452507E+00    0.6398274879E+00
    0.2300000000E+06    0.4425267935E+00    0.2770439567E-01    0.2101834072E-02    0.2350732596E+00    0.6417114952E+00
    0.2500000000E+06    0.4426653475E+00    0.2668464315E-01    0.2014314958E-02    0.2351816305E+00    0.6433766649E+00
    0.2700000000E+06    0.4427802075E+00    0.2577463520E-01    0.1936727996E-02    0.2352748024E+00    0.6448627455E+00
    0.2900000000E+06    0.4428766738E+00    0.2495572910E-01    0.1867321389E-02    0.2353559557E+00    0.6462000107E+00
    0.3100000000E+06    0.4429585979E+00    0.2421346710E-01    0.1804748599E-02    0.2354274298E+00    0.6474119869E+00
    0.3300000000E+06    0.4430288428E+00    0.2353643558E-01    0.1747955031E-02    0.2354909851E+00    0.6485172772E+00
    0.3500000000E+06    0.4430895781E+00    0.2291548377E-01    0.1696101230E-02    0.2355479724E+00    0.6495308154E+00
    0.3700000000E+06    0.4431424768E+00    0.2234317525E-01    0.1648509459E-02    0.2355994459E+00    0.6504647494E+00
    0.3900000000E+06    0.4431888486E+00    0.2181339412E-01    0.1604625652E-02    0.2356462412E+00    0.6513290779E+00
    0.4100000000E+06    0.4432297323E+00    0.2132105672E-01    0.1563991790E-02    0.2356890295E+00    0.6521321171E+00
    0.4300000000E+06    0.4432659620E+00    0.2086189696E-01    0.1526225469E-02    0.2357283564E+00    0.6528808490E+00
    0.4500000000E+06    0.4432982147E+00    0.2043230402E-01    0.1491004548E-02    0.2357646702E+00    0.6535811855E+00
    0.4700000000E+06    0.4433270452E+00    0.2002919778E-01    0.1458055444E-02    0.2357983428E+00    0.6542381709E+00
    0.4900000000E+06    0.4433529121E+00    0.1964993222E-01    0.1427144099E-02    0.2358296858E+00    0.6548561396E+00
    0.1000000000E+06    0.4398764730E+00    0.4010487703E-01    0.3216377527E-02    0.2333240291E+00    0.6215702594E+00
    0.3000000000E+06    0.4429192556E+00    0.2457579175E-01    0.1835252483E-02    0.2353927814E+00    0.6468203987E+00
    0.5000000000E+06    0.4433648563E+00    0.1946851248E-01    0.1412388482E-02    0.2358445674E+00    0.6551516840E+00
    0.7000000000E+06    0.4435144056E+00    0.1667013796E-01    0.1187347155E-02    0.2360664656E+00    0.6597049965E+00
    0.9000000000E+06    0.4435774692E+00    0.1483378267E-01    0.1042380058E-02    0.2362066503E+00    0.6626864904E+00
    0.1100000000E+07    0.4436055773E+00    0.1350773486E-01    0.9391128995E-03    0.2363069031E+00    0.6648356965E+00
    0.1300000000E+07    0.4436169534E+00    0.1249116885E-01    0.8607944670E-03    0.2363840503E+00    0.6664809583E+00
    0.1500000000E+07    0.4436194661E+00    0.1167918921E-01    0.7987925180E-03    0.2364463409E+00    0.6677935413E+00
    0.1700000000E+07    0.4436169751E+00    0.1101088079E-01    0.7481474335E-03    0.2364983641E+00    0.6688727783E+00
    0.1900000000E+07    0.4436115482E+00    0.1044809333E-01    0.7057804769E-03    0.2365429094E+00    0.6697808101E+00
    0.2100000000E+07    0.4436043665E+00    0.9965538765E-02    0.6696662749E-03    0.2365817876E+00    0.6705587856E+00
    0.2300000000E+07    0.4435961375E+00    0.9545695801E-02    0.6384107448E-03    0.2366162349E+00    0.6712351897E+00
    0.2500000000E+07    0.4435873006E+00    0.9175984991E-02    0.6110188470E-03    0.2366471300E+00    0.6718304564E+00
    0.2700000000E+07    0.4435781362E+00    0.8847107195E-02    0.5867588765E-03    0.2366751183E+00    0.6723596803E+00
    0.2900000000E+07    0.4435688267E+00    0.8552018162E-02    0.5650791974E-03    0.2367006866E+00    0.6728342878E+00
    0.3100000000E+07    0.4435594920E+00    0.8285269890E-02    0.5455550392E-03    0.2367242108E+00    0.6732631106E+00
    0.3300000000E+07    0.4435502119E+00    0.8042573060E-02    0.5278533191E-03    0.2367459869E+00    0.6736530982E+00
    0.3500000000E+07    0.4435410391E+00    0.7820497823E-02    0.5117086915E-03    0.2367662517E+00    0.6740098046E+00
    0.3700000000E+07    0.4435320079E+00    0.7616264005E-02    0.4969068220E-03    0.2367851975E+00    0.6743377294E+00
    0.3900000000E+07    0.4435231403E+00    0.7427590746E-02    0.4832724457E-03    0.2368029826E+00    0.6746405625E+00
    0.4100000000E+07    0.4435144498E+00    0.7252586650E-02    0.4706606711E-03    0.2368197388E+00    0.6749213625E+00
    0.4300000000E+07    0.4435059438E+00    0.7089668114E-02    0.4589505383E-03    0.2368355768E+00    0.6751826890E+00
    0.4500000000E+07    0.4434976253E+00    0.6937497694E-02    0.4480401704E-03    0.2368505907E+00    0.6754267030E+00
    0.4700000000E+07    0.4434894948E+00    0.6794936917E-02    0.4378430734E-03    0.2368648607E+00    0.6756552435E+00
    0.4900000000E+07    0.4434815503E+00    0.6661009718E-02    0.4282852766E-03    0.2368784562E+00    0.6758698863E+00
    0.1000000000E+07    0.4435943819E+00    0.1412276007E-01    0.9868564538E-03    0.2362604185E+00    0.6638393037E+00
    0.3000000000E+07    0.4435641567E+00    0.8415392633E-02    0.5550703212E-03    0.2367126841E+00    0.6730539504E+00
    0.5000000000E+07    0.4434776469E+00    0.6597015915E-02    0.4237258638E-03    0.2368850201E+00    0.6759724284E+00
    0.7000000000E+07    0.4434082512E+00    0.5615693666E-02    0.3544517035E-03    0.2369920542E+00    0.6775432221E+00
    0.9000000000E+07    0.4433519826E+00    0.4977702291E-02    0.3101147128E-03    0.2370696896E+00    0.6785626917E+00
    0.1100000000E+08    0.4433049534E+00    0.4519983115E-02    0.2786841383E-03    0.2371305903E+00    0.6792931785E+00
    0.1300000000E+08    0.4432646403E+00    0.4170790556E-02    0.2549372821E-03    0.2371806872E+00    0.6798499162E+00
    0.1500000000E+08    0.4432293953E+00    0.3892936864E-02    0.2361953694E-03    0.2372232332E+00    0.6802925574E+00
    0.1700000000E+08    0.4431980995E+00    0.3664955364E-02    0.2209254022E-03    0.2372602047E+00    0.6806555017E+00
    0.1900000000E+08    0.4431699633E+00    0.3473467011E-02    0.2081789674E-03    0.2372928922E+00    0.6809601704E+00
    0.2100000000E+08    0.4431444104E+00    0.3309639308E-02    0.1973339644E-03    0.2373221847E+00    0.6812206951E+00
    0.2300000000E+08    0.4431210079E+00    0.3167373561E-02    0.1879632897E-03    0.2373487206E+00    0.6814468275E+00
    0.2500000000E+08    0.4430994230E+00    0.3042304230E-02    0.1797627828E-03    0.2373729737E+00    0.6816455439E+00
    0.2700000000E+08    0.4430793942E+00    0.2931212587E-02    0.1725092297E-03    0.2373953055E+00    0.6818219857E+00
