  Pressure (Pa) 22mC5-400 (mol/kg) 2mC6-400 (mol/kg) 33mC5-400 (mol/kg) 23mC5-400 (mol/kg) C7-400 (mol/kg)
    0.1000000000E+01    0.5280285687E-03    0.7873097366E-02    0.1923222703E-03    0.1854321579E-03    0.6780858376E-02
    0.3000000000E+01    0.1556569571E-02    0.2269239831E-01    0.5544155559E-03    0.5466383794E-03    0.1958053907E-01
    0.5000000000E+01    0.2550471616E-02    0.3639155458E-01    0.8892571667E-03    0.8956863315E-03    0.3146217872E-01
    0.7000000000E+01    0.3511997377E-02    0.4909160404E-01    0.1199793005E-02    0.1233370120E-02    0.4252786698E-01
    0.9000000000E+01    0.4443207984E-02    0.6089650373E-01    0.1488552913E-02    0.1560413124E-02    0.5286487168E-01
    0.1100000000E+02    0.5345985345E-02    0.7189607784E-01    0.1757722529E-02    0.1877475824E-02    0.6254824809E-01
    0.1300000000E+02    0.6222051542E-02    0.8216837006E-01    0.2009200630E-02    0.2185162615E-02    0.7164291454E-01
    0.1500000000E+02    0.7072985744E-02    0.9178153709E-01    0.2244645266E-02    0.2484027735E-02    0.8020531759E-01
    0.1700000000E+02    0.7900238990E-02    0.1007953850E+00    0.2465511201E-02    0.2774580459E-02    0.8828477871E-01
    0.1900000000E+02    0.8705147169E-02    0.1092626251E+00    0.2673080504E-02    0.3057289646E-02    0.9592459124E-01
    0.2100000000E+02    0.9488942428E-02    0.1172299080E+00    0.2868487736E-02    0.3332587753E-02    0.1031629202E+00
    0.2300000000E+02    0.1025276324E-01    0.1247386794E+00    0.3052740805E-02    0.3600874358E-02    0.1100335452E+00
    0.2500000000E+02    0.1099766334E-01    0.1318258950E+00    0.3226738356E-02    0.3862519298E-02    0.1165664774E+00
    0.2700000000E+02    0.1172461956E-01    0.1385246182E+00    0.3391284340E-02    0.4117865430E-02    0.1227884746E+00
    0.2900000000E+02    0.1243453895E-01    0.1448645247E+00    0.3547100294E-02    0.4367231107E-02    0.1287234742E+00
    0.3100000000E+02    0.1312826494E-01    0.1508723300E+00    0.3694835747E-02    0.4610912368E-02    0.1343929585E+00
    0.3300000000E+02    0.1380658300E-01    0.1565721527E+00    0.3835077061E-02    0.4849184902E-02    0.1398162639E+00
    0.3500000000E+02    0.1447022562E-01    0.1619858254E+00    0.3968355003E-02    0.5082305806E-02    0.1450108453E+00
    0.3700000000E+02    0.1511987681E-01    0.1671331616E+00    0.4095151237E-02    0.5310515160E-02    0.1499925011E+00
    0.3900000000E+02    0.1575617611E-01    0.1720321856E+00    0.4215903921E-02    0.5534037443E-02    0.1547755674E+00
    0.4100000000E+02    0.1637972226E-01    0.1766993318E+00    0.4331012549E-02    0.5753082808E-02    0.1593730852E+00
    0.4300000000E+02    0.1699107646E-01    0.1811496172E+00    0.4440842155E-02    0.5967848238E-02    0.1637969445E+00
    0.4500000000E+02    0.1759076535E-01    0.1853967922E+00    0.4545726978E-02    0.6178518580E-02    0.1680580101E+00
    0.4700000000E+02    0.1817928366E-01    0.1894534720E+00    0.4645973662E-02    0.6385267491E-02    0.1721662313E+00
    0.4900000000E+02    0.1875709671E-01    0.1933312523E+00    0.4741864065E-02    0.6588258294E-02    0.1761307369E+00
    0.1000000000E+02    0.4898039654E-02    0.6649182680E-01    0.1625461699E-02    0.1720152996E-02    0.5778398971E-01
    0.3000000000E+02    0.1278337573E-01    0.1479083756E+00    0.3621940050E-02    0.4489764604E-02    0.1315901502E+00
    0.5000000000E+02    0.1904212666E-01    0.1952064253E+00    0.4788257578E-02    0.6688392809E-02    0.1780617457E+00
    0.7000000000E+02    0.2427461367E-01    0.2255082725E+00    0.5540670677E-02    0.8526747361E-02    0.2108539946E+00
    0.9000000000E+02    0.2880742393E-01    0.2461401044E+00    0.6057267116E-02    0.1011946484E-01    0.2357033049E+00
    0.1100000000E+03    0.3283549010E-01    0.2607719231E+00    0.6427281571E-02    0.1153497252E-01    0.2554691229E+00
    0.1300000000E+03    0.3648344497E-01    0.2714451118E+00    0.6700374791E-02    0.1281702210E-01    0.2717498787E+00
    0.1500000000E+03    0.3983531929E-01    0.2793838352E+00    0.6906348301E-02    0.1399511328E-01    0.2855159781E+00
    0.1700000000E+03    0.4295021409E-01    0.2853651672E+00    0.7064136314E-02    0.1508999469E-01    0.2973945025E+00
    0.1900000000E+03    0.4587115268E-01    0.2899049099E+00    0.7186320113E-02    0.1611677103E-01    0.3078109849E+00
    0.2100000000E+03    0.4863036257E-01    0.2933580112E+00    0.7281567923E-02    0.1708675711E-01    0.3170657805E+00
    0.2300000000E+03    0.5125257343E-01    0.2959761035E+00    0.7356033221E-02    0.1800863556E-01    0.3253778607E+00
    0.2500000000E+03    0.5375715624E-01    0.2979420867E+00    0.7414195420E-02    0.1888920773E-01    0.3329112429E+00
    0.2700000000E+03    0.5615955680E-01    0.2993917593E+00    0.7459385875E-02    0.1973389692E-01    0.3397916347E+00
    0.2900000000E+03    0.5847228354E-01    0.3004278124E+00    0.7494128309E-02    0.2054709517E-01    0.3461172990E+00
    0.3100000000E+03    0.6070560520E-01    0.3011291488E+00    0.7520365634E-02    0.2133240817E-01    0.3519663711E+00
    0.3300000000E+03    0.6286805430E-01    0.3015572476E+00    0.7539614926E-02    0.2209283203E-01    0.3574019177E+00
    0.3500000000E+03    0.6496679739E-01    0.3017606081E+00    0.7553075701E-02    0.2283088325E-01    0.3624755200E+00
    0.3700000000E+03    0.6700791215E-01    0.3017779134E+00    0.7561707034E-02    0.2354869602E-01    0.3672298629E+00
    0.3900000000E+03    0.6899659779E-01    0.3016403221E+00    0.7566283480E-02    0.2424809609E-01    0.3717006421E+00
    0.4100000000E+03    0.7093733727E-01    0.3013731553E+00    0.7567436247E-02    0.2493065769E-01    0.3759179908E+00
    0.4300000000E+03    0.7283402370E-01    0.3009971548E+00    0.7565683942E-02    0.2559774794E-01    0.3799075645E+00
    0.4500000000E+03    0.7469006013E-01    0.3005294349E+00    0.7561455841E-02    0.2625056192E-01    0.3836913757E+00
    0.4700000000E+03    0.7650843917E-01    0.2999842095E+00    0.7555109688E-02    0.2689015054E-01    0.3872884445E+00
    0.4900000000E+03    0.7829180694E-01    0.2993733549E+00    0.7546945473E-02    0.2751744307E-01    0.3907153121E+00
    0.1000000000E+03    0.3087555566E-01    0.2540529256E+00    0.6256873576E-02    0.1084621252E-01    0.2461021208E+00
    0.3000000000E+03    0.5959830090E-01    0.3008161290E+00    0.7508206764E-02    0.2094303749E-01    0.3490971620E+00
    0.5000000000E+03    0.7917110681E-01    0.2990464987E+00    0.7542262243E-02    0.2782673999E-01    0.3923695138E+00
    0.7000000000E+03    0.9537386065E-01    0.2908001983E+00    0.7397534581E-02    0.3352687065E-01    0.4192398507E+00
    0.9000000000E+03    0.1096903114E+00    0.2814554951E+00    0.7212170409E-02    0.3856450624E-01    0.4384724742E+00
    0.1100000000E+04    0.1227404474E+00    0.2722305407E+00    0.7019822050E-02    0.4315739023E-01    0.4533074960E+00
    0.1300000000E+04    0.1348481414E+00    0.2634458287E+00    0.6830761470E-02    0.4741926828E-01    0.4652950414E+00
    0.1500000000E+04    0.1462063517E+00    0.2551699005E+00    0.6648306020E-02    0.5141790582E-01    0.4752950856E+00
    0.1700000000E+04    0.1569405927E+00    0.2473923869E+00    0.6473367954E-02    0.5519737981E-01    0.4838333604E+00
    0.1900000000E+04    0.1671378794E+00    0.2400787846E+00    0.6305966072E-02    0.5878824488E-01    0.4912541715E+00
    0.2100000000E+04    0.1768615723E+00    0.2331893760E+00    0.6145788207E-02    0.6221274753E-01    0.4977949234E+00
    0.2300000000E+04    0.1861596730E+00    0.2266858775E+00    0.5992415012E-02    0.6548773982E-01    0.5036259966E+00
    0.2500000000E+04    0.1950697711E+00    0.2205335669E+00    0.5845411362E-02    0.6862641716E-01    0.5088736528E+00
    0.2700000000E+04    0.2036221503E+00    0.2147016980E+00    0.5704362769E-02    0.7163940922E-01    0.5136339485E+00
    0.2900000000E+04    0.2118418186E+00    0.2091632790E+00    0.5568888136E-02    0.7453549310E-01    0.5179815815E+00
    0.3100000000E+04    0.2197498810E+00    0.2038946482E+00    0.5438642273E-02    0.7732207550E-01    0.5219757301E+00
    0.3300000000E+04    0.2273644929E+00    0.1988750170E+00    0.5313314134E-02    0.8000552761E-01    0.5256640323E+00
    0.3500000000E+04    0.2347015383E+00    0.1940860477E+00    0.5192623472E-02    0.8259142326E-01    0.5290853722E+00
    0.3700000000E+04    0.2417751207E+00    0.1895114837E+00    0.5076317122E-02    0.8508471137E-01    0.5322718776E+00
    0.3900000000E+04    0.2485979248E+00    0.1851368369E+00    0.4964165454E-02    0.8748984311E-01    0.5352503807E+00
    0.4100000000E+04    0.2551814876E+00    0.1809491258E+00    0.4855959186E-02    0.8981086680E-01    0.5380435075E+00
    0.4300000000E+04    0.2615364022E+00    0.1769366576E+00    0.4751506623E-02    0.9205149979E-01    0.5406705015E+00
    0.4500000000E+04    0.2676724748E+00    0.1730888475E+00    0.4650631303E-02    0.9421518342E-01    0.5431478571E+00
    0.4700000000E+04    0.2735988456E+00    0.1693960681E+00    0.4553170009E-02    0.9630512547E-01    0.5454898123E+00
    0.4900000000E+04    0.2793240833E+00    0.1658495245E+00    0.4458971097E-02    0.9832433335E-01    0.5477087361E+00
    0.1000000000E+04    0.1163492077E+00    0.2767985016E+00    0.7115970676E-02    0.4090795131E-01    0.4463199934E+00
    0.3000000000E+04    0.2158336057E+00    0.2064966015E+00    0.5503131813E-02    0.7594205269E-01    0.5200196308E+00
    0.5000000000E+04    0.2821138173E+00    0.1641285441E+00    0.4413050462E-02    0.9930830352E-01    0.5487754927E+00
    0.7000000000E+04    0.3291030754E+00    0.1357296033E+00    0.3635804794E-02    0.1158899641E+00    0.5656795434E+00
    0.9000000000E+04    0.3630865474E+00    0.1156700543E+00    0.3065524786E-02    0.1278940958E+00    0.5772470642E+00
    0.1100000000E+05    0.3881270981E+00    0.1009748399E+00    0.2637572112E-02    0.1367485867E+00    0.5858432889E+00
    0.1300000000E+05    0.4069450956E+00    0.8987659910E-01    0.2309484109E-02    0.1434101794E+00    0.5925750106E+00
    0.1500000000E+05    0.4213675510E+00    0.8126854191E-01    0.2052775778E-02    0.1485218029E+00    0.5980420800E+00
    0.1700000000E+05    0.4326299732E+00    0.7443332809E-01    0.1848067260E-02    0.1525184595E+00    0.6026028380E+00
    0.1900000000E+05    0.4415783607E+00    0.6889258222E-01    0.1681967831E-02    0.1556981523E+00    0.6064868274E+00
    0.2100000000E+05    0.4488012089E+00    0.6431894309E-01    0.1545066029E-02    0.1582682723E+00    0.6098490475E+00
    0.2300000000E+05    0.4547149614E+00    0.6048298655E-01    0.1430629410E-02    0.1603756424E+00    0.6127985798E+00
    0.2500000000E+05    0.4596194477E+00    0.5722034853E-01    0.1333757189E-02    0.1621260172E+00    0.6154147930E+00
    0.2700000000E+05    0.4637341862E+00    0.5441086901E-01    0.1250821594E-02    0.1635968579E+00    0.6177570454E+00
    0.2900000000E+05    0.4672224725E+00    0.5196506018E-01    0.1179094346E-02    0.1648458113E+00    0.6198707658E+00
    0.3100000000E+05    0.4702076028E+00    0.4981513739E-01    0.1116493060E-02    0.1659164227E+00    0.6217914111E+00
    0.3300000000E+05    0.4727839707E+00    0.4790895353E-01    0.1061406354E-02    0.1668420446E+00    0.6235471275E+00
    0.3500000000E+05    0.4750247769E+00    0.4620581890E-01    0.1012571359E-02    0.1676485530E+00    0.6251605901E+00
    0.3700000000E+05    0.4769874659E+00    0.4467356931E-01    0.9689866363E-03    0.1683562633E+00    0.6266503039E+00
    0.3900000000E+05    0.4787176154E+00    0.4328647555E-01    0.9298493887E-03    0.1689813019E+00    0.6280315455E+00
    0.4100000000E+05    0.4802517575E+00    0.4202373002E-01    0.8945095575E-03    0.1695366007E+00    0.6293170560E+00
    0.4300000000E+05    0.4816194506E+00    0.4086833536E-01    0.8624358482E-03    0.1700326283E+00    0.6305175601E+00
    0.4500000000E+05    0.4828448204E+00    0.3980627755E-01    0.8331902738E-03    0.1704779330E+00    0.6316421604E+00
    0.4700000000E+05    0.4839477186E+00    0.3882590301E-01    0.8064088689E-03    0.1708795527E+00    0.6326986411E+00
    0.4900000000E+05    0.4849446036E+00    0.3791744400E-01    0.7817869223E-03    0.1712433251E+00    0.6336937051E+00
    0.1000000000E+05    0.3765293573E+00    0.1077822787E+00    0.2836812408E-02    0.1326463631E+00    0.5818305653E+00
    0.3000000000E+05    0.4687714588E+00    0.5085668240E-01    0.1146763066E-02    0.1654011228E+00    0.6208533171E+00
    0.5000000000E+05    0.4854076763E+00    0.3748755434E-01    0.7702038614E-03    0.1714125746E+00    0.6341700515E+00
    0.7000000000E+05    0.4914841868E+00    0.3120569546E-01    0.6066452573E-03    0.1736562740E+00    0.6415465763E+00
    0.9000000000E+05    0.4944857686E+00    0.2738804288E-01    0.5133025313E-03    0.1747917246E+00    0.6464156996E+00
    0.1100000000E+06    0.4962336963E+00    0.2474915870E-01    0.4518311082E-03    0.1754702643E+00    0.6499451658E+00
    0.1300000000E+06    0.4973621252E+00    0.2278051554E-01    0.4076757622E-03    0.1759202888E+00    0.6526583032E+00
    0.1500000000E+06    0.4981437664E+00    0.2123629836E-01    0.3740719289E-03    0.1762407615E+00    0.6548299263E+00
    0.1700000000E+06    0.4987135345E+00    0.1998128535E-01    0.3474279019E-03    0.1764810331E+00    0.6566202555E+00
    0.1900000000E+06    0.4991452000E+00    0.1893406607E-01    0.3256480493E-03    0.1766683138E+00    0.6581299411E+00
    0.2100000000E+06    0.4994822494E+00    0.1804225539E-01    0.3074206934E-03    0.1768187822E+00    0.6594258640E+00
    0.2300000000E+06    0.4997518637E+00    0.1727037931E-01    0.2918790487E-03    0.1769426408E+00    0.6605544582E+00
    0.2500000000E+06    0.4999718489E+00    0.1659342511E-01    0.2784250551E-03    0.1770466337E+00    0.6615491190E+00
    0.2700000000E+06    0.5001543263E+00    0.1599316868E-01    0.2666313114E-03    0.1771353946E+00    0.6624345696E+00
    0.2900000000E+06    0.5003078166E+00    0.1545596712E-01    0.2561833492E-03    0.1772122112E+00    0.6632295625E+00
    0.3100000000E+06    0.5004384743E+00    0.1497137151E-01    0.2468440465E-03    0.1772794812E+00    0.6639486176E+00
    0.3300000000E+06    0.5005508496E+00    0.1453122196E-01    0.2384308213E-03    0.1773389939E+00    0.6646031781E+00
    0.3500000000E+06    0.5006483751E+00    0.1412903829E-01    0.2308005238E-03    0.1773921125E+00    0.6652024028E+00
    0.3700000000E+06    0.5007336865E+00    0.1375959843E-01    0.2238391390E-03    0.1774398939E+00    0.6657537218E+00
    0.3900000000E+06    0.5008088392E+00    0.1341863960E-01    0.2174545906E-03    0.1774831705E+00    0.6662632351E+00
    0.4100000000E+06    0.5008754590E+00    0.1310264218E-01    0.2115716022E-03    0.1775226068E+00    0.6667360049E+00
    0.4300000000E+06    0.5009348472E+00    0.1280867039E-01    0.2061279547E-03    0.1775587405E+00    0.6671762721E+00
    0.4500000000E+06    0.5009880575E+00    0.1253425291E-01    0.2010717146E-03    0.1775920109E+00    0.6675876205E+00
    0.4700000000E+06    0.5010359516E+00    0.1227729216E-01    0.1963591474E-03    0.1776227810E+00    0.6679731024E+00
    0.4900000000E+06    0.5010792407E+00    0.1203599436E-01    0.1919531265E-03    0.1776513534E+00    0.6683353361E+00
    0.1000000000E+06    0.4954637461E+00    0.2596221409E-01    0.4797678038E-03    0.1751691654E+00    0.6483068131E+00
    0.3000000000E+06    0.5003756843E+00    0.1520764896E-01    0.2513875991E-03    0.1772469160E+00    0.6635978056E+00
    0.5000000000E+06    0.5010993473E+00    0.1192072792E-01    0.1898549672E-03    0.1776648966E+00    0.6685084535E+00
    0.7000000000E+06    0.5013620797E+00    0.1015496046E-01    0.1582380843E-03    0.1778651553E+00    0.6711657733E+00
    0.9000000000E+06    0.5014882843E+00    0.9007763589E-02    0.1382195605E-03    0.1779901800E+00    0.6728959637E+00
    0.1100000000E+07    0.5015575789E+00    0.8184545102E-02    0.1241078601E-03    0.1780789829E+00    0.6741384692E+00
    0.1300000000E+07    0.5015984405E+00    0.7556221304E-02    0.1134812763E-03    0.1781470186E+00    0.6750870244E+00
    0.1500000000E+07    0.5016233985E+00    0.7055998774E-02    0.1051121021E-03    0.1782017838E+00    0.6758421829E+00
    0.1700000000E+07    0.5016387503E+00    0.6645347788E-02    0.9830302632E-04    0.1782474183E+00    0.6764620477E+00
    0.1900000000E+07    0.5016479705E+00    0.6300259970E-02    0.9262488551E-04    0.1782864250E+00    0.6769828597E+00
    0.2100000000E+07    0.5016531128E+00    0.6004885113E-02    0.8779723278E-04    0.1783204217E+00    0.6774285592E+00
    0.2300000000E+07    0.5016554573E+00    0.5748277106E-02    0.8362806950E-04    0.1783505094E+00    0.6778156855E+00
    0.2500000000E+07    0.5016558364E+00    0.5522598715E-02    0.7998096089E-04    0.1783774687E+00    0.6781560826E+00
    0.2700000000E+07    0.5016548096E+00    0.5322069943E-02    0.7675595238E-04    0.1784018714E+00    0.6784584866E+00
    0.2900000000E+07    0.5016527640E+00    0.5142321201E-02    0.7387792703E-04    0.1784241484E+00    0.6787295023E+00
    0.3100000000E+07    0.5016499737E+00    0.4979979052E-02    0.7128920238E-04    0.1784446317E+00    0.6789742284E+00
    0.3300000000E+07    0.5016466364E+00    0.4832391694E-02    0.6894465573E-04    0.1784635823E+00    0.6791966730E+00
    0.3500000000E+07    0.5016428971E+00    0.4697441653E-02    0.6680841717E-04    0.1784812088E+00    0.6794000363E+00
    0.3700000000E+07    0.5016388639E+00    0.4573414709E-02    0.6485156759E-04    0.1784976807E+00    0.6795869089E+00
    0.3900000000E+07    0.5016346179E+00    0.4458906128E-02    0.6305049953E-04    0.1785131372E+00    0.6797594135E+00
    0.4100000000E+07    0.5016302211E+00    0.4352752250E-02    0.6138572681E-04    0.1785276940E+00    0.6799193084E+00
    0.4300000000E+07    0.5016257207E+00    0.4253979721E-02    0.5984100447E-04    0.1785414483E+00    0.6800680639E+00
    0.4500000000E+07    0.5016211534E+00    0.4161767208E-02    0.5840266789E-04    0.1785544827E+00    0.6802069211E+00
    0.4700000000E+07    0.5016165475E+00    0.4075416143E-02    0.5705912939E-04    0.1785668677E+00    0.6803369349E+00
    0.4900000000E+07    0.5016119251E+00    0.3994328063E-02    0.5580048973E-04    0.1785786639E+00    0.6804590093E+00
    0.1000000000E+07    0.5015276942E+00    0.8565836424E-02    0.1306175358E-03    0.1780378655E+00    0.6735629155E+00
    0.3000000000E+07    0.5016514481E+00    0.5059154424E-02    0.7255047193E-04    0.1784345965E+00    0.6788548793E+00
    0.5000000000E+07    0.5016096132E+00    0.3955593550E-02    0.5520029911E-04    0.1785843580E+00    0.6805173171E+00
    0.7000000000E+07    0.5015651138E+00    0.3362528538E-02    0.4609876475E-04    0.1786771091E+00    0.6814096131E+00
    0.9000000000E+07    0.5015257907E+00    0.2977864240E-02    0.4029036152E-04    0.1787442753E+00    0.6819878616E+00
    0.1100000000E+08    0.5014914939E+00    0.2702324373E-02    0.3618042924E-04    0.1787969046E+00    0.6824018009E+00
    0.1300000000E+08    0.5014613283E+00    0.2492356227E-02    0.3307935371E-04    0.1788401609E+00    0.6827170712E+00
    0.1500000000E+08    0.5014344929E+00    0.2325431261E-02    0.3063433013E-04    0.1788768727E+00    0.6829676058E+00
    0.1700000000E+08    0.5014103627E+00    0.2188564736E-02    0.2864383482E-04    0.1789087569E+00    0.6831729527E+00
    0.1900000000E+08    0.5013884598E+00    0.2073673702E-02    0.2698337234E-04    0.1789369335E+00    0.6833452755E+00
    0.2100000000E+08    0.5013684169E+00    0.1975427256E-02    0.2557137629E-04    0.1789621736E+00    0.6834925933E+00
    0.2300000000E+08    0.5013499477E+00    0.1890147521E-02    0.2435190094E-04    0.1789850304E+00    0.6836204369E+00
    0.2500000000E+08    0.5013328260E+00    0.1815203670E-02    0.2328513702E-04    0.1790059145E+00    0.6837327613E+00
    0.2700000000E+08    0.5013168700E+00    0.1748657162E-02    0.2234189003E-04    0.1790251388E+00    0.6838324800E+00
