  Pressure (Pa) 22mC5-400 (mol/kg) 2mC6-400 (mol/kg) 33mC5-400 (mol/kg) 23mC5-400 (mol/kg) C7-400 (mol/kg)
    0.1000000000E+01    0.5285850055E-03    0.6323962626E-02    0.1287297631E-03    0.5568825608E-03    0.5108259116E-02
    0.3000000000E+01    0.1561358316E-02    0.1836663906E-01    0.3739073760E-03    0.1644959117E-02    0.1487464954E-01
    0.5000000000E+01    0.2563205339E-02    0.2966273213E-01    0.6039354184E-03    0.2700471567E-02    0.2408673767E-01
    0.7000000000E+01    0.3535913925E-02    0.4027731556E-01    0.8201346703E-03    0.3725302221E-02    0.3279376284E-01
    0.9000000000E+01    0.4481131176E-02    0.5026807348E-01    0.1023675835E-02    0.4721185219E-02    0.4103921008E-01
    0.1100000000E+02    0.5400377228E-02    0.5968632940E-01    0.1215600449E-02    0.5689721033E-02    0.4886163125E-01
    0.1300000000E+02    0.6295057426E-02    0.6857790656E-01    0.1396838363E-02    0.6632389290E-02    0.5629532914E-01
    0.1500000000E+02    0.7166473128E-02    0.7698385136E-01    0.1568222442E-02    0.7550560140E-02    0.6337093055E-01
    0.1700000000E+02    0.8015831287E-02    0.8494104463E-01    0.1730500981E-02    0.8445504346E-02    0.7011586879E-01
    0.1900000000E+02    0.8844252999E-02    0.9248272076E-01    0.1884348254E-02    0.9318402282E-02    0.7655479202E-01
    0.2100000000E+02    0.9652781120E-02    0.9963891048E-01    0.2030373502E-02    0.1017035195E-01    0.8270991019E-01
    0.2300000000E+02    0.1044238709E-01    0.1064368203E+00    0.2169128646E-02    0.1100237617E-01    0.8860129136E-01
    0.2500000000E+02    0.1121397705E-01    0.1129011588E+00    0.2301114907E-02    0.1181542902E-01    0.9424711563E-01
    0.2700000000E+02    0.1196839732E-01    0.1190544185E+00    0.2426788535E-02    0.1261040157E-01    0.9966389370E-01
    0.2900000000E+02    0.1270643935E-01    0.1249171201E+00    0.2546565767E-02    0.1338812715E-01    0.1048666556E+00
    0.3100000000E+02    0.1342884417E-01    0.1305080251E+00    0.2660827137E-02    0.1414938601E-01    0.1098691145E+00
    0.3300000000E+02    0.1413630642E-01    0.1358443208E+00    0.2769921247E-02    0.1489490953E-01    0.1146838086E+00
    0.3500000000E+02    0.1482947799E-01    0.1409417832E+00    0.2874168058E-02    0.1562538411E-01    0.1193222261E+00
    0.3700000000E+02    0.1550897131E-01    0.1458149190E+00    0.2973861782E-02    0.1634145460E-01    0.1237949130E+00
    0.3900000000E+02    0.1617536237E-01    0.1504770914E+00    0.3069273431E-02    0.1704372748E-01    0.1281115692E+00
    0.4100000000E+02    0.1682919343E-01    0.1549406308E+00    0.3160653070E-02    0.1773277369E-01    0.1322811323E+00
    0.4300000000E+02    0.1747097548E-01    0.1592169330E+00    0.3248231801E-02    0.1840913132E-01    0.1363118517E+00
    0.4500000000E+02    0.1810119057E-01    0.1633165463E+00    0.3332223535E-02    0.1907330791E-01    0.1402113542E+00
    0.4700000000E+02    0.1872029381E-01    0.1672492489E+00    0.3412826564E-02    0.1972578267E-01    0.1439867024E+00
    0.4900000000E+02    0.1932871528E-01    0.1710241179E+00    0.3490224964E-02    0.2036700847E-01    0.1476444462E+00
    0.1000000000E+02    0.4943910210E-02    0.5504578041E-01    0.1121029662E-02    0.5208776354E-02    0.4500106262E-01
    0.3000000000E+02    0.1306955195E-01    0.1277454381E+00    0.2604363439E-02    0.1377076811E-01    0.1073921133E+00
    0.5000000000E+02    0.1962904835E-01    0.1728550252E+00    0.3527776375E-02    0.2068353779E-01    0.1494311347E+00
    0.7000000000E+02    0.2516294640E-01    0.2029496094E+00    0.4146306149E-02    0.2651624661E-01    0.1802599529E+00
    0.9000000000E+02    0.2998004384E-01    0.2240084668E+00    0.4581203991E-02    0.3159405484E-01    0.2041837330E+00
    0.1100000000E+03    0.3427102261E-01    0.2392374587E+00    0.4897485337E-02    0.3611775704E-01    0.2235118221E+00
    0.1300000000E+03    0.3816082050E-01    0.2505069870E+00    0.5133091371E-02    0.4021892207E-01    0.2396022109E+00
    0.1500000000E+03    0.4173521358E-01    0.2589792906E+00    0.5311607035E-02    0.4398788173E-01    0.2533101159E+00
    0.1700000000E+03    0.4505535818E-01    0.2654128137E+00    0.5448430873E-02    0.4748904254E-01    0.2652035451E+00
    0.1900000000E+03    0.4816623772E-01    0.2703222944E+00    0.5554019905E-02    0.5076977995E-01    0.2756761307E+00
    0.2100000000E+03    0.5110181648E-01    0.2740684884E+00    0.5635708275E-02    0.5386586525E-01    0.2850103068E+00
    0.2300000000E+03    0.5388831584E-01    0.2769111151E+00    0.5698780450E-02    0.5680491558E-01    0.2934146730E+00
    0.2500000000E+03    0.5654637103E-01    0.2790414616E+00    0.5747132174E-02    0.5960866501E-01    0.3010471137E+00
    0.2700000000E+03    0.5909249400E-01    0.2806031949E+00    0.5783692438E-02    0.6229450512E-01    0.3080296590E+00
    0.2900000000E+03    0.6154009183E-01    0.2817060634E+00    0.5810701319E-02    0.6487655748E-01    0.3144583545E+00
    0.3100000000E+03    0.6390019215E-01    0.2824351594E+00    0.5829897857E-02    0.6736643759E-01    0.3204100034E+00
    0.3300000000E+03    0.6618197038E-01    0.2828573287E+00    0.5842650091E-02    0.6977381015E-01    0.3259468855E+00
    0.3500000000E+03    0.6839313989E-01    0.2830256986E+00    0.5850046947E-02    0.7210679992E-01    0.3311201343E+00
    0.3700000000E+03    0.7054024535E-01    0.2829829345E+00    0.5852964359E-02    0.7437230074E-01    0.3359721996E+00
    0.3900000000E+03    0.7262888668E-01    0.2827636217E+00    0.5852113637E-02    0.7657621137E-01    0.3405386747E+00
    0.4100000000E+03    0.7466389214E-01    0.2823960330E+00    0.5848077373E-02    0.7872361773E-01    0.3448496733E+00
    0.4300000000E+03    0.7664945374E-01    0.2819034581E+00    0.5841336461E-02    0.8081893560E-01    0.3489308816E+00
    0.4500000000E+03    0.7858923446E-01    0.2813052150E+00    0.5832290671E-02    0.8286602351E-01    0.3528043728E+00
    0.4700000000E+03    0.8048645381E-01    0.2806174290E+00    0.5821274492E-02    0.8486827288E-01    0.3564892441E+00
    0.4900000000E+03    0.8234395698E-01    0.2798536383E+00    0.5808569460E-02    0.8682868080E-01    0.3600021220E+00
    0.1000000000E+03    0.3218234018E-01    0.2322131012E+00    0.4751360600E-02    0.3391573599E-01    0.2143219589E+00
    0.3000000000E+03    0.6273046743E-01    0.2821127879E+00    0.5821183160E-02    0.6613237470E-01    0.3174896218E+00
    0.5000000000E+03    0.8325861579E-01    0.2794468835E+00    0.5801659552E-02    0.8779403777E-01    0.3616986843E+00
    0.7000000000E+03    0.9995478298E-01    0.2693257349E+00    0.5616830082E-02    0.1054186568E+00    0.3893419121E+00
    0.9000000000E+03    0.1144099288E+00    0.2579619210E+00    0.5397492358E-02    0.1206821370E+00    0.4092444743E+00
    0.1100000000E+04    0.1272874847E+00    0.2468271202E+00    0.5176320952E-02    0.1342833027E+00    0.4246795597E+00
    0.1300000000E+04    0.1389377362E+00    0.2363275588E+00    0.4963384900E-02    0.1465910919E+00    0.4372141973E+00
    0.1500000000E+04    0.1495752224E+00    0.2265578028E+00    0.4761864457E-02    0.1578314436E+00    0.4477183889E+00
    0.1700000000E+04    0.1593458731E+00    0.2175091662E+00    0.4572492010E-02    0.1681580283E+00    0.4567246169E+00
    0.1900000000E+04    0.1683569991E+00    0.2091381039E+00    0.4395057524E-02    0.1776838427E+00    0.4645821469E+00
    0.2100000000E+04    0.1766922824E+00    0.2013910482E+00    0.4228983131E-02    0.1864970027E+00    0.4715322422E+00
    0.2300000000E+04    0.1844199086E+00    0.1942138778E+00    0.4073560402E-02    0.1946693093E+00    0.4777484001E+00
    0.2500000000E+04    0.1915972680E+00    0.1875554878E+00    0.3928053164E-02    0.2022612006E+00    0.4833594641E+00
    0.2700000000E+04    0.1982738204E+00    0.1813689760E+00    0.3791742854E-02    0.2093247681E+00    0.4884636676E+00
    0.2900000000E+04    0.2044929239E+00    0.1756118450E+00    0.3663948045E-02    0.2159056830E+00    0.4931375687E+00
    0.3100000000E+04    0.2102930556E+00    0.1702458053E+00    0.3544031920E-02    0.2220444798E+00    0.4974419513E+00
    0.3300000000E+04    0.2157086601E+00    0.1652364329E+00    0.3431404026E-02    0.2277774504E+00    0.5014258512E+00
    0.3500000000E+04    0.2207707661E+00    0.1605527910E+00    0.3325519297E-02    0.2331372917E+00    0.5051293778E+00
    0.3700000000E+04    0.2255074504E+00    0.1561670608E+00    0.3225875817E-02    0.2381535947E+00    0.5085857389E+00
    0.3900000000E+04    0.2299442029E+00    0.1520542028E+00    0.3132012053E-02    0.2428532270E+00    0.5118227245E+00
    0.4100000000E+04    0.2341042203E+00    0.1481916503E+00    0.3043503924E-02    0.2472606427E+00    0.5148638130E+00
    0.4300000000E+04    0.2380086515E+00    0.1445590379E+00    0.2959961892E-02    0.2513981398E+00    0.5177290105E+00
    0.4500000000E+04    0.2416768057E+00    0.1411379613E+00    0.2881028182E-02    0.2552860794E+00    0.5204354960E+00
    0.4700000000E+04    0.2451263332E+00    0.1379117647E+00    0.2806374147E-02    0.2589430754E+00    0.5229981240E+00
    0.4900000000E+04    0.2483733837E+00    0.1348653540E+00    0.2735697830E-02    0.2623861612E+00    0.5254298210E+00
    0.1000000000E+04    0.1210196048E+00    0.2523289015E+00    0.5286254388E-02    0.1276628070E+00    0.4173994745E+00
    0.3000000000E+04    0.2074431220E+00    0.1728821764E+00    0.3603043135E-02    0.2190279870E+00    0.4953326475E+00
    0.5000000000E+04    0.2499256513E+00    0.1334052373E+00    0.2701763688E-02    0.2640324153E+00    0.5266001616E+00
    0.7000000000E+04    0.2733271104E+00    0.1109192226E+00    0.2175521514E-02    0.2888778461E+00    0.5452620996E+00
    0.9000000000E+04    0.2874029604E+00    0.9659981705E-01    0.1839381278E-02    0.3038588873E+00    0.5581665943E+00
    0.1100000000E+05    0.2965075847E+00    0.8668653213E-01    0.1608441817E-02    0.3135750984E+00    0.5678324780E+00
    0.1300000000E+05    0.3027490524E+00    0.7938255402E-01    0.1440468714E-02    0.3202552255E+00    0.5754495975E+00
    0.1500000000E+05    0.3072305937E+00    0.7374247870E-01    0.1312729213E-02    0.3250666625E+00    0.5816677077E+00
    0.1700000000E+05    0.3105706212E+00    0.6922771725E-01    0.1212111337E-02    0.3286643576E+00    0.5868774611E+00
    0.1900000000E+05    0.3131366532E+00    0.6551076794E-01    0.1130596034E-02    0.3314378875E+00    0.5913305080E+00
    0.2100000000E+05    0.3151581475E+00    0.6238150143E-01    0.1063031491E-02    0.3336307046E+00    0.5951976255E+00
    0.2300000000E+05    0.3167844682E+00    0.5969895090E-01    0.1005967716E-02    0.3354014316E+00    0.5985995367E+00
    0.2500000000E+05    0.3181163587E+00    0.5736494824E-01    0.9570115958E-03    0.3368571606E+00    0.6016244346E+00
    0.2700000000E+05    0.3192238714E+00    0.5530893457E-01    0.9144524080E-03    0.3380724331E+00    0.6043385173E+00
    0.2900000000E+05    0.3201570195E+00    0.5347880765E-01    0.8770350967E-03    0.3391005219E+00    0.6067926155E+00
    0.3100000000E+05    0.3209523399E+00    0.5183518895E-01    0.8438179172E-03    0.3399803865E+00    0.6090265219E+00
    0.3300000000E+05    0.3216370693E+00    0.5034770948E-01    0.8140801487E-03    0.3407411010E+00    0.6110719117E+00
    0.3500000000E+05    0.3222318775E+00    0.4899253121E-01    0.7872605555E-03    0.3414047541E+00    0.6129543673E+00
    0.3700000000E+05    0.3227527025E+00    0.4775064937E-01    0.7629153131E-03    0.3419883970E+00    0.6146948151E+00
    0.3900000000E+05    0.3232120094E+00    0.4660670226E-01    0.7406885940E-03    0.3425053812E+00    0.6163105678E+00
    0.4100000000E+05    0.3236196735E+00    0.4554811954E-01    0.7202915887E-03    0.3429662966E+00    0.6178160938E+00
    0.4300000000E+05    0.3239836089E+00    0.4456450122E-01    0.7014872708E-03    0.3433796403E+00    0.6192235941E+00
    0.4500000000E+05    0.3243102258E+00    0.4364715736E-01    0.6840791524E-03    0.3437523029E+00    0.6205434423E+00
    0.4700000000E+05    0.3246047657E+00    0.4278876151E-01    0.6679028604E-03    0.3440899261E+00    0.6217845241E+00
    0.4900000000E+05    0.3248715528E+00    0.4198308643E-01    0.6528197408E-03    0.3443971700E+00    0.6229545022E+00
    0.1000000000E+05    0.2924120341E+00    0.9123275560E-01    0.1714034178E-02    0.3092010723E+00    0.5633120960E+00
    0.3000000000E+05    0.3205700253E+00    0.5263576027E-01    0.8599508782E-03    0.3395569732E+00    0.6079349499E+00
    0.5000000000E+05    0.3249956870E+00    0.4159832246E-01    0.6456505901E-03    0.3445406382E+00    0.6235149401E+00
    0.7000000000E+05    0.3266419820E+00    0.3570276595E-01    0.5385381170E-03    0.3464863630E+00    0.6322232610E+00
    0.9000000000E+05    0.3274723084E+00    0.3185736965E-01    0.4713920356E-03    0.3475189880E+00    0.6380018758E+00
    0.1100000000E+06    0.3279624116E+00    0.2908253868E-01    0.4242277295E-03    0.3481614211E+00    0.6422056893E+00
    0.1300000000E+06    0.3282808294E+00    0.2695297617E-01    0.3887427367E-03    0.3486019019E+00    0.6454458241E+00
    0.1500000000E+06    0.3285014724E+00    0.2524904141E-01    0.3607857014E-03    0.3489243531E+00    0.6480446636E+00
    0.1700000000E+06    0.3286615704E+00    0.2384390191E-01    0.3380182801E-03    0.3491717665E+00    0.6501908148E+00
    0.1900000000E+06    0.3287818025E+00    0.2265834146E-01    0.3190086962E-03    0.3493684343E+00    0.6520030887E+00
    0.2100000000E+06    0.3288745220E+00    0.2163991078E-01    0.3028242830E-03    0.3495291224E+00    0.6535606141E+00
    0.2300000000E+06    0.3289475368E+00    0.2075227705E-01    0.2888277393E-03    0.3496633296E+00    0.6549184341E+00
    0.2500000000E+06    0.3290060091E+00    0.1996934620E-01    0.2765666838E-03    0.3497774482E+00    0.6561162009E+00
    0.2700000000E+06    0.3290534797E+00    0.1927181569E-01    0.2657098620E-03    0.3498759419E+00    0.6571833123E+00
    0.2900000000E+06    0.3290924525E+00    0.1864505082E-01    0.2560083621E-03    0.3499620252E+00    0.6581420950E+00
    0.3100000000E+06    0.3291247450E+00    0.1807772202E-01    0.2472710141E-03    0.3500380733E+00    0.6590098556E+00
    0.3300000000E+06    0.3291517054E+00    0.1756089993E-01    0.2393482212E-03    0.3501058812E+00    0.6598002479E+00
    0.3500000000E+06    0.3291743534E+00    0.1708743675E-01    0.2321210053E-03    0.3501668315E+00    0.6605242096E+00
    0.3700000000E+06    0.3291934734E+00    0.1665153230E-01    0.2254933876E-03    0.3502220075E+00    0.6611906217E+00
    0.3900000000E+06    0.3292096774E+00    0.1624842300E-01    0.2193869679E-03    0.3502722705E+00    0.6618067811E+00
    0.4100000000E+06    0.3292234496E+00    0.1587415447E-01    0.2137369876E-03    0.3503183144E+00    0.6623787473E+00
    0.4300000000E+06    0.3292351773E+00    0.1552541242E-01    0.2084894209E-03    0.3503607048E+00    0.6629116002E+00
    0.4500000000E+06    0.3292451735E+00    0.1519939493E-01    0.2035987901E-03    0.3503999080E+00    0.6634096354E+00
    0.4700000000E+06    0.3292536940E+00    0.1489371458E-01    0.1990265007E-03    0.3504363115E+00    0.6638765132E+00
    0.4900000000E+06    0.3292609491E+00    0.1460632257E-01    0.1947395573E-03    0.3504702409E+00    0.6643153752E+00
    0.1000000000E+06    0.3277459532E+00    0.3036970624E-01    0.4459739981E-03    0.3478734789E+00    0.6402527329E+00
    0.3000000000E+06    0.3291093405E+00    0.1835456290E-01    0.2515293450E-03    0.3500011802E+00    0.6585864268E+00
    0.5000000000E+06    0.3292641580E+00    0.1446892213E-01    0.1926940588E-03    0.3504863655E+00    0.6645251630E+00
    0.7000000000E+06    0.3292918973E+00    0.1235549012E-01    0.1615710294E-03    0.3507278963E+00    0.6677493163E+00
    0.9000000000E+06    0.3292870845E+00    0.1097473454E-01    0.1415983466E-03    0.3508814623E+00    0.6698525906E+00
    0.1100000000E+07    0.3292714375E+00    0.9980719424E-02    0.1274090503E-03    0.3509916779E+00    0.6713649963E+00
    0.1300000000E+07    0.3292519854E+00    0.9220425592E-02    0.1166696787E-03    0.3510766775E+00    0.6725207224E+00
    0.1500000000E+07    0.3292314358E+00    0.8614223347E-02    0.1081813765E-03    0.3511454058E+00    0.6734415145E+00
    0.1700000000E+07    0.3292109316E+00    0.8116002296E-02    0.1012569937E-03    0.3512028605E+00    0.6741978069E+00
    0.1900000000E+07    0.3291909705E+00    0.7696950833E-02    0.9547081149E-04    0.3512520893E+00    0.6748335750E+00
    0.2100000000E+07    0.3291717607E+00    0.7338007635E-02    0.9054322865E-04    0.3512950753E+00    0.6753778920E+00
    0.2300000000E+07    0.3291533736E+00    0.7025987158E-02    0.8628206494E-04    0.3513331749E+00    0.6758508567E+00
    0.2500000000E+07    0.3291358144E+00    0.6751436075E-02    0.8255031828E-04    0.3513673539E+00    0.6762668711E+00
    0.2700000000E+07    0.3291190564E+00    0.6507374733E-02    0.7924735275E-04    0.3513983224E+00    0.6766365632E+00
    0.2900000000E+07    0.3291030583E+00    0.6288521656E-02    0.7629737136E-04    0.3514266167E+00    0.6769679715E+00
    0.3100000000E+07    0.3290877732E+00    0.6090796118E-02    0.7364205927E-04    0.3514526511E+00    0.6772673048E+00
    0.3300000000E+07    0.3290731535E+00    0.5910988078E-02    0.7123572470E-04    0.3514767521E+00    0.6775394449E+00
    0.3500000000E+07    0.3290591530E+00    0.5746532732E-02    0.6904199377E-04    0.3514991812E+00    0.6777882912E+00
    0.3700000000E+07    0.3290457281E+00    0.5595352591E-02    0.6703150437E-04    0.3515201507E+00    0.6780170013E+00
    0.3900000000E+07    0.3290328383E+00    0.5455744407E-02    0.6518026090E-04    0.3515398357E+00    0.6782281631E+00
    0.4100000000E+07    0.3290204463E+00    0.5326296622E-02    0.6346843719E-04    0.3515583816E+00    0.6784239207E+00
    0.4300000000E+07    0.3290085180E+00    0.5205828055E-02    0.6187949018E-04    0.3515759111E+00    0.6786060679E+00
    0.4500000000E+07    0.3289970220E+00    0.5093341648E-02    0.6039949334E-04    0.3515925279E+00    0.6787761185E+00
    0.4700000000E+07    0.3289859299E+00    0.4987989093E-02    0.5901662827E-04    0.3516083211E+00    0.6789353601E+00
    0.4900000000E+07    0.3289752157E+00    0.4889043425E-02    0.5772079190E-04    0.3516233674E+00    0.6790848960E+00
    0.1000000000E+07    0.3292800177E+00    0.1044142912E-01    0.1339651642E-03    0.3509405370E+00    0.6706642128E+00
    0.3000000000E+07    0.3290953296E+00    0.6187235937E-02    0.7493598857E-04    0.3514398942E+00    0.6771213160E+00
    0.5000000000E+07    0.3289699927E+00    0.4841773799E-02    0.5710274439E-04    0.3516306316E+00    0.6791563269E+00
    0.7000000000E+07    0.3288805727E+00    0.4117647847E-02    0.4772139258E-04    0.3517490614E+00    0.6802499662E+00
    0.9000000000E+07    0.3288113163E+00    0.3647608796E-02    0.4172613311E-04    0.3518349277E+00    0.6809592252E+00
    0.1100000000E+08    0.3287548439E+00    0.3310742907E-02    0.3748040492E-04    0.3519022606E+00    0.6814672126E+00
    0.1300000000E+08    0.3287071809E+00    0.3053949437E-02    0.3427501803E-04    0.3519576313E+00    0.6818542650E+00
    0.1500000000E+08    0.3286659523E+00    0.2849741673E-02    0.3174667917E-04    0.3520046435E+00    0.6821619381E+00
    0.1700000000E+08    0.3286296282E+00    0.2682269014E-02    0.2968768350E-04    0.3520454865E+00    0.6824141823E+00
    0.1900000000E+08    0.3285971657E+00    0.2541660605E-02    0.2796962910E-04    0.3520815896E+00    0.6826259059E+00
    0.2100000000E+08    0.3285678224E+00    0.2421404290E-02    0.2650834513E-04    0.3521139372E+00    0.6828069408E+00
    0.2300000000E+08    0.3285410513E+00    0.2317006041E-02    0.2524607456E-04    0.3521432359E+00    0.6829640697E+00
    0.2500000000E+08    0.3285164375E+00    0.2225250504E-02    0.2414170458E-04    0.3521700104E+00    0.6831021443E+00
    0.2700000000E+08    0.3284936590E+00    0.2143767972E-02    0.2316507566E-04    0.3521946605E+00    0.6832247392E+00
