  Pressure (Pa) 22mC5-400 (mol/kg) 2mC6-400 (mol/kg) 33mC5-400 (mol/kg) 23mC5-400 (mol/kg) C7-400 (mol/kg)
    0.1000000000E+01    0.5296646148E-03    0.3964910658E-02    0.2582696478E-03    0.6510227185E-03    0.5122048295E-02
    0.3000000000E+01    0.1570730780E-02    0.1158479214E-01    0.7546985631E-03    0.1930633967E-02    0.1499149828E-01
    0.5000000000E+01    0.2588336022E-02    0.1881667614E-01    0.1225953180E-02    0.3181425888E-02    0.2439288507E-01
    0.7000000000E+01    0.3583492321E-02    0.2568831032E-01    0.1673834649E-02    0.4404641446E-02    0.3336067729E-01
    0.9000000000E+01    0.4557152145E-02    0.3222483158E-01    0.2099974483E-02    0.5601450511E-02    0.4192599619E-01
    0.1100000000E+02    0.5510212807E-02    0.3844906991E-01    0.2505854319E-02    0.6772955217E-02    0.5011701408E-01
    0.1300000000E+02    0.6443520448E-02    0.4438181022E-01    0.2892822942E-02    0.7920194849E-02    0.5795929704E-01
    0.1500000000E+02    0.7357873673E-02    0.5004201908E-01    0.3262111030E-02    0.9044150315E-02    0.6547610092E-01
    0.1700000000E+02    0.8254026891E-02    0.5544704161E-01    0.3614843950E-02    0.1014574824E-01    0.7268862775E-01
    0.1900000000E+02    0.9132693360E-02    0.6061277307E-01    0.3952052919E-02    0.1122586469E-01    0.7961624870E-01
    0.2100000000E+02    0.9994547994E-02    0.6555380896E-01    0.4274684754E-02    0.1228532868E-01    0.8627669857E-01
    0.2300000000E+02    0.1084022994E-01    0.7028357662E-01    0.4583610428E-02    0.1332492526E-01    0.9268624594E-01
    0.2500000000E+02    0.1167034495E-01    0.7481445104E-01    0.4879632594E-02    0.1434539847E-01    0.9885984242E-01
    0.2700000000E+02    0.1248546754E-01    0.7915785700E-01    0.5163492226E-02    0.1534745401E-01    0.1048112541E+00
    0.2900000000E+02    0.1328614305E-01    0.8332435949E-01    0.5435874488E-02    0.1633176171E-01    0.1105531775E+00
    0.3100000000E+02    0.1407288947E-01    0.8732374380E-01    0.5697413942E-02    0.1729895782E-01    0.1160973420E+00
    0.3300000000E+02    0.1484619913E-01    0.9116508688E-01    0.5948699179E-02    0.1824964711E-01    0.1214546008E+00
    0.3500000000E+02    0.1560654037E-01    0.9485682078E-01    0.6190276944E-02    0.1918440482E-01    0.1266350120E+00
    0.3700000000E+02    0.1635435891E-01    0.9840678943E-01    0.6422655820E-02    0.2010377847E-01    0.1316479102E+00
    0.3900000000E+02    0.1709007930E-01    0.1018222995E+00    0.6646309532E-02    0.2100828955E-01    0.1365019712E+00
    0.4100000000E+02    0.1781410615E-01    0.1051101658E+00    0.6861679901E-02    0.2189843504E-01    0.1412052694E+00
    0.4300000000E+02    0.1852682528E-01    0.1082767525E+00    0.7069179509E-02    0.2277468888E-01    0.1457653293E+00
    0.4500000000E+02    0.1922860486E-01    0.1113280100E+00    0.7269194095E-02    0.2363750331E-01    0.1501891722E+00
    0.4700000000E+02    0.1991979640E-01    0.1142695081E+00    0.7462084717E-02    0.2448731010E-01    0.1544833575E+00
    0.4900000000E+02    0.2060073570E-01    0.1171064661E+00    0.7648189706E-02    0.2532452174E-01    0.1586540205E+00
    0.1000000000E+02    0.5036203333E-02    0.3537464194E-01    0.2305359671E-02    0.6190299535E-02    0.4606663748E-01
    0.3000000000E+02    0.1368122604E-01    0.8534435828E-01    0.5567961752E-02    0.1681746020E-01    0.1133492818E+00
    0.5000000000E+02    0.2093746161E-01    0.1184872846E+00    0.7738797543E-02    0.2573852827E-01    0.1606948410E+00
    0.7000000000E+02    0.2720471748E-01    0.1416568978E+00    0.9262221216E-02    0.3344460428E-01    0.1962443569E+00
    0.9000000000E+02    0.3273752053E-01    0.1584446852E+00    0.1037101459E-01    0.4024834708E-01    0.2241859100E+00
    0.1100000000E+03    0.3770628867E-01    0.1709180993E+00    0.1119916928E-01    0.4635910431E-01    0.2469041984E+00
    0.1300000000E+03    0.4222985235E-01    0.1803513941E+00    0.1182928048E-01    0.5192285646E-01    0.2658623772E+00
    0.1500000000E+03    0.4639388472E-01    0.1875719224E+00    0.1231499225E-01    0.5704485417E-01    0.2820112067E+00
    0.1700000000E+03    0.5026190504E-01    0.1931394225E+00    0.1269261358E-01    0.6180313381E-01    0.2959972689E+00
    0.1900000000E+03    0.5388213940E-01    0.1974454253E+00    0.1298755737E-01    0.6625694490E-01    0.3082768664E+00
    0.2100000000E+03    0.5729195852E-01    0.2007714772E+00    0.1321811112E-01    0.7045220129E-01    0.3191820580E+00
    0.2300000000E+03    0.6052084000E-01    0.2033248064E+00    0.1339774655E-01    0.7442512004E-01    0.3289608214E+00
    0.2500000000E+03    0.6359240043E-01    0.2052610063E+00    0.1353658856E-01    0.7820471776E-01    0.3378024818E+00
    0.2700000000E+03    0.6652582313E-01    0.2066989287E+00    0.1364237965E-01    0.8181456452E-01    0.3458543708E+00
    0.2900000000E+03    0.6933688268E-01    0.2077307341E+00    0.1372113091E-01    0.8527404243E-01    0.3532330668E+00
    0.3100000000E+03    0.7203869403E-01    0.2084288374E+00    0.1377757188E-01    0.8859926595E-01    0.3600321762E+00
    0.3300000000E+03    0.7464226951E-01    0.2088508096E+00    0.1381546817E-01    0.9180376623E-01    0.3663278435E+00
    0.3500000000E+03    0.7715693937E-01    0.2090429018E+00    0.1383784986E-01    0.9489900771E-01    0.3721827306E+00
    0.3700000000E+03    0.7959067364E-01    0.2090426217E+00    0.1384717847E-01    0.9789478356E-01    0.3776489443E+00
    0.3900000000E+03    0.8195033150E-01    0.2088806446E+00    0.1384547093E-01    0.1007995221E+00    0.3827702230E+00
    0.4100000000E+03    0.8424185684E-01    0.2085822510E+00    0.1383439281E-01    0.1036205270E+00    0.3875835945E+00
    0.4300000000E+03    0.8647043305E-01    0.2081684205E+00    0.1381532933E-01    0.1063641674E+00    0.3921206503E+00
    0.4500000000E+03    0.8864060693E-01    0.2076566741E+00    0.1378944006E-01    0.1090360305E+00    0.3964085350E+00
    0.4700000000E+03    0.9075638853E-01    0.2070617291E+00    0.1375770145E-01    0.1116410437E+00    0.4004707250E+00
    0.4900000000E+03    0.9282133249E-01    0.2063960135E+00    0.1372094024E-01    0.1141835749E+00    0.4043276461E+00
    0.1000000000E+03    0.3528403643E-01    0.1651276517E+00    0.1081414168E-01    0.4338006354E-01    0.2360910876E+00
    0.3000000000E+03    0.7070071232E-01    0.2081175993E+00    0.1375188527E-01    0.8695253649E-01    0.3566999542E+00
    0.5000000000E+03    0.9383574329E-01    0.2060399764E+00    0.1370090023E-01    0.1154326422E+00    0.4061848036E+00
    0.7000000000E+03    0.1120692675E+00    0.1970686206E+00    0.1316158453E-01    0.1378885144E+00    0.4359089272E+00
    0.9000000000E+03    0.1274078381E+00    0.1869771445E+00    0.1252313072E-01    0.1567857775E+00    0.4566502246E+00
    0.1100000000E+04    0.1407074241E+00    0.1771765620E+00    0.1188601372E-01    0.1731761990E+00    0.4723385934E+00
    0.1300000000E+04    0.1524315589E+00    0.1680550335E+00    0.1128120027E-01    0.1876293143E+00    0.4848192815E+00
    0.1500000000E+04    0.1628726600E+00    0.1596940554E+00    0.1071788677E-01    0.2005044025E+00    0.4950979626E+00
    0.1700000000E+04    0.1722354107E+00    0.1520723446E+00    0.1019740920E-01    0.2120529529E+00    0.5037797835E+00
    0.1900000000E+04    0.1806737302E+00    0.1451343259E+00    0.9718082548E-02    0.2224640951E+00    0.5112555799E+00
    0.2100000000E+04    0.1883092044E+00    0.1388154995E+00    0.9277092380E-02    0.2318872439E+00    0.5177915557E+00
    0.2300000000E+04    0.1952411669E+00    0.1330522482E+00    0.8871291718E-02    0.2404444846E+00    0.5235766969E+00
    0.2500000000E+04    0.2015526667E+00    0.1277855314E+00    0.8497549811E-02    0.2482379023E+00    0.5287497021E+00
    0.2700000000E+04    0.2073142556E+00    0.1229620453E+00    0.8152903748E-02    0.2553542338E+00    0.5334151746E+00
    0.2900000000E+04    0.2125865476E+00    0.1185343126E+00    0.7834618724E-02    0.2618680095E+00    0.5376538186E+00
    0.3100000000E+04    0.2174220432E+00    0.1144603290E+00    0.7540204662E-02    0.2678437936E+00    0.5415291126E+00
    0.3300000000E+04    0.2218664926E+00    0.1107030483E+00    0.7267411820E-02    0.2733378569E+00    0.5450918198E+00
    0.3500000000E+04    0.2259599509E+00    0.1072298338E+00    0.7014216616E-02    0.2783994729E+00    0.5483831239E+00
    0.3700000000E+04    0.2297376197E+00    0.1040119305E+00    0.6778803360E-02    0.2830719510E+00    0.5514368601E+00
    0.3900000000E+04    0.2332305340E+00    0.1010239824E+00    0.6559544855E-02    0.2873934793E+00    0.5542811387E+00
    0.4100000000E+04    0.2364661306E+00    0.9824360210E-01    0.6354983376E-02    0.2913978232E+00    0.5569395467E+00
    0.4300000000E+04    0.2394687257E+00    0.9565099138E-01    0.6163812774E-02    0.2951149115E+00    0.5594320520E+00
    0.4500000000E+04    0.2422599190E+00    0.9322861089E-01    0.5984862021E-02    0.2985713331E+00    0.5617756959E+00
    0.4700000000E+04    0.2448589386E+00    0.9096089269E-01    0.5817080330E-02    0.3017907603E+00    0.5639851272E+00
    0.4900000000E+04    0.2472829366E+00    0.8883399136E-01    0.5659523792E-02    0.3047943122E+00    0.5660730225E+00
    0.1000000000E+04    0.1342779948E+00    0.1820048780E+00    0.1220167824E-01    0.1652519418E+00    0.4649827970E+00
    0.3000000000E+04    0.2150558909E+00    0.1164555273E+00    0.7684573928E-02    0.2649194559E+00    0.5396334557E+00
    0.5000000000E+04    0.2484341582E+00    0.8781943767E-01    0.5584311252E-02    0.3062211143E+00    0.5670748995E+00
    0.7000000000E+04    0.2652328723E+00    0.7254860926E-01    0.4451134344E-02    0.3270732079E+00    0.5827893016E+00
    0.9000000000E+04    0.2748969733E+00    0.6309242329E-01    0.3754639433E-02    0.3391111687E+00    0.5933710511E+00
    0.1100000000E+05    0.2810156962E+00    0.5661372354E-01    0.3284650036E-02    0.3467618431E+00    0.6011466821E+00
    0.1300000000E+05    0.2851710431E+00    0.5185271083E-01    0.2945430380E-02    0.3519786389E+00    0.6071842493E+00
    0.1500000000E+05    0.2881459385E+00    0.4817358544E-01    0.2688104867E-02    0.3557293993E+00    0.6120545397E+00
    0.1700000000E+05    0.2903644852E+00    0.4522252950E-01    0.2485380828E-02    0.3585390152E+00    0.6160948626E+00
    0.1900000000E+05    0.2920734113E+00    0.4278713163E-01    0.2320898309E-02    0.3607132222E+00    0.6195194289E+00
    0.2100000000E+05    0.2934247301E+00    0.4073198373E-01    0.2184276754E-02    0.3624406266E+00    0.6224718595E+00
    0.2300000000E+05    0.2945165985E+00    0.3896648585E-01    0.2068616858E-02    0.3638431717E+00    0.6250526233E+00
    0.2500000000E+05    0.2954149163E+00    0.3742756584E-01    0.1969153551E-02    0.3650028363E+00    0.6273344460E+00
    0.2700000000E+05    0.2961654039E+00    0.3606984265E-01    0.1882487978E-02    0.3659765740E+00    0.6293714723E+00
    0.2900000000E+05    0.2968006821E+00    0.3485974388E-01    0.1806128491E-02    0.3668050777E+00    0.6312049743E+00
    0.3100000000E+05    0.2973445939E+00    0.3377183777E-01    0.1738205060E-02    0.3675181328E+00    0.6328670487E+00
    0.3300000000E+05    0.2978149369E+00    0.3278646242E-01    0.1677285302E-02    0.3681380054E+00    0.6343830913E+00
    0.3500000000E+05    0.2982252429E+00    0.3188814511E-01    0.1622252349E-02    0.3686816499E+00    0.6357734996E+00
    0.3700000000E+05    0.2985859700E+00    0.3106451944E-01    0.1572221584E-02    0.3691621894E+00    0.6370548746E+00
    0.3900000000E+05    0.2989053186E+00    0.3030556552E-01    0.1526482538E-02    0.3695899298E+00    0.6382408857E+00
    0.4100000000E+05    0.2991898031E+00    0.2960306548E-01    0.1484457483E-02    0.3699730711E+00    0.6393429066E+00
    0.4300000000E+05    0.2994446596E+00    0.2895020582E-01    0.1445671379E-02    0.3703182145E+00    0.6403704898E+00
    0.4500000000E+05    0.2996741414E+00    0.2834128209E-01    0.1409729679E-02    0.3706307309E+00    0.6413317261E+00
    0.4700000000E+05    0.2998817371E+00    0.2777147608E-01    0.1376301703E-02    0.3709150326E+00    0.6422335208E+00
    0.4900000000E+05    0.3000703333E+00    0.2723668558E-01    0.1345108000E-02    0.3711747766E+00    0.6430818090E+00
    0.1000000000E+05    0.2782736308E+00    0.5958069812E-01    0.3498883777E-02    0.3433295366E+00    0.5975262534E+00
    0.3000000000E+05    0.2970828292E+00    0.3430185934E-01    0.1771210386E-02    0.3671744987E+00    0.6320557186E+00
    0.5000000000E+05    0.3001582750E+00    0.2698130189E-01    0.1330273238E-02    0.3712964144E+00    0.6434875198E+00
    0.7000000000E+05    0.3013373660E+00    0.2307171433E-01    0.1108102970E-02    0.3729715796E+00    0.6497391155E+00
    0.9000000000E+05    0.3019423487E+00    0.2052869343E-01    0.9684902870E-03    0.3738842593E+00    0.6538332385E+00
    0.1100000000E+06    0.3023028910E+00    0.1869913262E-01    0.8703845494E-03    0.3744626050E+00    0.6567845207E+00
    0.1300000000E+06    0.3025382645E+00    0.1729888701E-01    0.7966023884E-03    0.3748645674E+00    0.6590437117E+00
    0.1500000000E+06    0.3027016029E+00    0.1618124146E-01    0.7385154289E-03    0.3751619096E+00    0.6608459930E+00
    0.1700000000E+06    0.3028199948E+00    0.1526156916E-01    0.6912518911E-03    0.3753919516E+00    0.6623277889E+00
    0.1900000000E+06    0.3029086281E+00    0.1448709246E-01    0.6518248126E-03    0.3755760412E+00    0.6635744501E+00
    0.2100000000E+06    0.3029766438E+00    0.1382292294E-01    0.6182871644E-03    0.3757272882E+00    0.6646424963E+00
    0.2300000000E+06    0.3030298537E+00    0.1324493131E-01    0.5893081741E-03    0.3758541990E+00    0.6655710534E+00
    0.2500000000E+06    0.3030721184E+00    0.1273581500E-01    0.5639432118E-03    0.3759625412E+00    0.6663881883E+00
    0.2700000000E+06    0.3031060961E+00    0.1228279382E-01    0.5415006991E-03    0.3760563681E+00    0.6671146334E+00
    0.2900000000E+06    0.3031336723E+00    0.1187619183E-01    0.5214611199E-03    0.3761386149E+00    0.6677660828E+00
    0.3100000000E+06    0.3031562185E+00    0.1150852830E-01    0.5034256206E-03    0.3762114619E+00    0.6683546662E+00
    0.3300000000E+06    0.3031747542E+00    0.1117391469E-01    0.4870822141E-03    0.3762765638E+00    0.6688899279E+00
    0.3500000000E+06    0.3031900514E+00    0.1086764289E-01    0.4721828794E-03    0.3763352002E+00    0.6693794955E+00
    0.3700000000E+06    0.3032027045E+00    0.1058589670E-01    0.4585276323E-03    0.3763883775E+00    0.6698295483E+00
    0.3900000000E+06    0.3032131774E+00    0.1032554523E-01    0.4459531920E-03    0.3764368983E+00    0.6702451534E+00
    0.4100000000E+06    0.3032218373E+00    0.1008399201E-01    0.4343247526E-03    0.3764814111E+00    0.6706305109E+00
    0.4300000000E+06    0.3032289778E+00    0.9859062899E-02    0.4235299032E-03    0.3765224463E+00    0.6709891356E+00
    0.4500000000E+06    0.3032348364E+00    0.9648921485E-02    0.4134740625E-03    0.3765604416E+00    0.6713239948E+00
    0.4700000000E+06    0.3032396065E+00    0.9452004347E-02    0.4040770014E-03    0.3765957624E+00    0.6716376135E+00
    0.4900000000E+06    0.3032434476E+00    0.9266970886E-02    0.3952701606E-03    0.3766287156E+00    0.6719321554E+00
    0.1000000000E+06    0.3021433569E+00    0.1954715853E-01    0.9156169160E-03    0.3742022867E+00    0.6554162848E+00
    0.3000000000E+06    0.3031455036E+00    0.1168789255E-01    0.5122140855E-03    0.3761760997E+00    0.6680675846E+00
    0.5000000000E+06    0.3032450619E+00    0.9178542674E-02    0.3910693139E-03    0.3766443873E+00    0.6720728661E+00
    0.7000000000E+06    0.3032511842E+00    0.7821280991E-02    0.3272603842E-03    0.3768799381E+00    0.6742282029E+00
    0.9000000000E+06    0.3032349845E+00    0.6937533832E-02    0.2864257791E-03    0.3770304055E+00    0.6756269197E+00
    0.1100000000E+07    0.3032123636E+00    0.6302800329E-02    0.2574731252E-03    0.3771386767E+00    0.6766291011E+00
    0.1300000000E+07    0.3031882305E+00    0.5818155318E-02    0.2355931311E-03    0.3772223103E+00    0.6773928898E+00
    0.1500000000E+07    0.3031643392E+00    0.5432262571E-02    0.2183202643E-03    0.3772900060E+00    0.6780001423E+00
    0.1700000000E+07    0.3031413414E+00    0.5115459604E-02    0.2042437945E-03    0.3773466397E+00    0.6784980582E+00
    0.1900000000E+07    0.3031194565E+00    0.4849244485E-02    0.1924909633E-03    0.3773951915E+00    0.6789160282E+00
    0.2100000000E+07    0.3030987234E+00    0.4621394378E-02    0.1824892583E-03    0.3774376036E+00    0.6792734402E+00
    0.2300000000E+07    0.3030791049E+00    0.4423464640E-02    0.1738455802E-03    0.3774752066E+00    0.6795836725E+00
    0.2500000000E+07    0.3030605331E+00    0.4249407355E-02    0.1662799496E-03    0.3775089486E+00    0.6798562958E+00
    0.2700000000E+07    0.3030429306E+00    0.4094761344E-02    0.1595868705E-03    0.3775395273E+00    0.6800983630E+00
    0.2900000000E+07    0.3030262197E+00    0.3956153631E-02    0.1536116784E-03    0.3775674700E+00    0.6803152021E+00
    0.3100000000E+07    0.3030103271E+00    0.3830980015E-02    0.1482354577E-03    0.3775931845E+00    0.6805109233E+00
    0.3300000000E+07    0.3029951848E+00    0.3717193301E-02    0.1433650884E-03    0.3776169921E+00    0.6806887556E+00
    0.3500000000E+07    0.3029807315E+00    0.3613158779E-02    0.1389264798E-03    0.3776391503E+00    0.6808512755E+00
    0.3700000000E+07    0.3029669117E+00    0.3517553065E-02    0.1348598527E-03    0.3776598683E+00    0.6810005677E+00
    0.3900000000E+07    0.3029536753E+00    0.3429291717E-02    0.1311163759E-03    0.3776793185E+00    0.6811383394E+00
    0.4100000000E+07    0.3029409777E+00    0.3347476429E-02    0.1276557196E-03    0.3776976444E+00    0.6812660043E+00
    0.4300000000E+07    0.3029287786E+00    0.3271355831E-02    0.1244442456E-03    0.3777149668E+00    0.6813847440E+00
    0.4500000000E+07    0.3029170419E+00    0.3200295929E-02    0.1214536461E-03    0.3777313883E+00    0.6814955553E+00
    0.4700000000E+07    0.3029057348E+00    0.3133757518E-02    0.1186599067E-03    0.3777469964E+00    0.6815992855E+00
    0.4900000000E+07    0.3028948280E+00    0.3071278682E-02    0.1160425050E-03    0.3777618669E+00    0.6816966602E+00
    0.1000000000E+07    0.3032240532E+00    0.6596833800E-02    0.2708444820E-03    0.3770884118E+00    0.6761651091E+00
    0.3000000000E+07    0.3030181755E+00    0.3892026614E-02    0.1508550297E-03    0.3775805840E+00    0.6804154831E+00
    0.5000000000E+07    0.3028895163E+00    0.3041434958E-02    0.1147943154E-03    0.3777690464E+00    0.6817431630E+00
    0.7000000000E+07    0.3027990056E+00    0.2584620316E-02    0.9586220559E-04    0.3778861099E+00    0.6824542141E+00
    0.9000000000E+07    0.3027293267E+00    0.2288461406E-02    0.8377757922E-04    0.3779709980E+00    0.6829144029E+00
    0.1100000000E+08    0.3026727026E+00    0.2076388296E-02    0.7522629006E-04    0.3780375686E+00    0.6832435287E+00
    0.1300000000E+08    0.3026250166E+00    0.1914823912E-02    0.6877414281E-04    0.3780923146E+00    0.6834940300E+00
    0.1500000000E+08    0.3025838319E+00    0.1786405758E-02    0.6368716354E-04    0.3781387978E+00    0.6836929864E+00
    0.1700000000E+08    0.3025475881E+00    0.1681129442E-02    0.5954603053E-04    0.3781791821E+00    0.6838559849E+00
    0.1900000000E+08    0.3025152261E+00    0.1592768729E-02    0.5609167538E-04    0.3782148802E+00    0.6839927180E+00
    0.2100000000E+08    0.3024859946E+00    0.1517218083E-02    0.5315435493E-04    0.3782468652E+00    0.6841095723E+00
    0.2300000000E+08    0.3024593409E+00    0.1451645521E-02    0.5061764155E-04    0.3782758358E+00    0.6842109504E+00
    0.2500000000E+08    0.3024348470E+00    0.1394025594E-02    0.4839868868E-04    0.3783023106E+00    0.6842999995E+00
    0.2700000000E+08    0.3024121889E+00    0.1342866043E-02    0.4643674058E-04    0.3783266851E+00    0.6843790372E+00
