  Pressure (Pa) 22mC5-400 (mol/kg) 2mC6-400 (mol/kg) 33mC5-400 (mol/kg) 23mC5-400 (mol/kg) C7-400 (mol/kg)
    0.1000000000E+01    0.5304753967E-03    0.2370049442E-02    0.1286617401E-03    0.7451643923E-03    0.1018908348E-01
    0.3000000000E+01    0.1577834458E-02    0.6876204225E-02    0.3733828109E-03    0.2216413233E-02    0.2951637719E-01
    0.5000000000E+01    0.2607552838E-02    0.1109617837E-01    0.6026912465E-03    0.3662898165E-02    0.4756186705E-01
    0.7000000000E+01    0.3620186528E-02    0.1505728890E-01    0.8180620379E-03    0.5085399584E-02    0.6445216691E-01
    0.9000000000E+01    0.4616267645E-02    0.1878336068E-01    0.1020781109E-02    0.6484664377E-02    0.8029764483E-01
    0.1100000000E+02    0.5596305705E-02    0.2229527382E-01    0.1211975003E-02    0.7861407714E-02    0.9519495247E-01
    0.1300000000E+02    0.6560788821E-02    0.2561141095E-01    0.1392635136E-02    0.9216314721E-02    0.1092290959E+00
    0.1500000000E+02    0.7510184818E-02    0.2874802517E-01    0.1563637744E-02    0.1055004206E-01    0.1224751418E+00
    0.1700000000E+02    0.8444942289E-02    0.3171954459E-01    0.1725760382E-02    0.1186321938E-01    0.1349996324E+00
    0.1900000000E+02    0.9365491578E-02    0.3453882582E-01    0.1879695665E-02    0.1315645074E-01    0.1468617651E+00
    0.2100000000E+02    0.1027224570E-01    0.3721736613E-01    0.2026062755E-02    0.1443031587E-01    0.1581143809E+00
    0.2300000000E+02    0.1116560123E-01    0.3976548199E-01    0.2165417034E-02    0.1568537142E-01    0.1688047978E+00
    0.2500000000E+02    0.1204593910E-01    0.4219246000E-01    0.2298258271E-02    0.1692215207E-01    0.1789755161E+00
    0.2700000000E+02    0.1291362536E-01    0.4450668506E-01    0.2425037561E-02    0.1814117167E-01    0.1886648182E+00
    0.2900000000E+02    0.1376901194E-01    0.4671574972E-01    0.2546163245E-02    0.1934292419E-01    0.1979072807E+00
    0.3100000000E+02    0.1461243730E-01    0.4882654793E-01    0.2662005973E-02    0.2052788471E-01    0.2067342138E+00
    0.3300000000E+02    0.1544422709E-01    0.5084535554E-01    0.2772903069E-02    0.2169651035E-01    0.2151740395E+00
    0.3500000000E+02    0.1626469472E-01    0.5277789991E-01    0.2879162284E-02    0.2284924105E-01    0.2232526182E+00
    0.3700000000E+02    0.1707414201E-01    0.5462942017E-01    0.2981065061E-02    0.2398650044E-01    0.2309935322E+00
    0.3900000000E+02    0.1787285964E-01    0.5640471962E-01    0.3078869360E-02    0.2510869657E-01    0.2384183320E+00
    0.4100000000E+02    0.1866112771E-01    0.5810821147E-01    0.3172812133E-02    0.2621622263E-01    0.2455467515E+00
    0.4300000000E+02    0.1943921624E-01    0.5974395881E-01    0.3263111482E-02    0.2730945761E-01    0.2523968961E+00
    0.4500000000E+02    0.2020738558E-01    0.6131570973E-01    0.3349968555E-02    0.2838876697E-01    0.2589854083E+00
    0.4700000000E+02    0.2096588684E-01    0.6282692825E-01    0.3433569212E-02    0.2945450324E-01    0.2653276129E+00
    0.4900000000E+02    0.2171496237E-01    0.6428082155E-01    0.3514085503E-02    0.3050700656E-01    0.2714376457E+00
    0.1000000000E+02    0.5108261062E-02    0.2056488429E-01    0.1117753825E-02    0.7175807722E-02    0.8785925569E-01
    0.3000000000E+02    0.1419219913E-01    0.4778302627E-01    0.2604723161E-02    0.1993747447E-01    0.2023708484E+00
    0.5000000000E+02    0.2208603890E-01    0.6498720928E-01    0.3553237321E-02    0.3102839892E-01    0.2744097183E+00
    0.7000000000E+02    0.2906553560E-01    0.7672478608E-01    0.4207553566E-02    0.4083565824E-01    0.3243589274E+00
    0.9000000000E+02    0.3532449751E-01    0.8509709315E-01    0.4680312502E-02    0.4963130973E-01    0.3612842788E+00
    0.1100000000E+03    0.4100334789E-01    0.9123220056E-01    0.5031933082E-02    0.5761247766E-01    0.3898486465E+00
    0.1300000000E+03    0.4620648832E-01    0.9579950680E-01    0.5298274574E-02    0.6492572355E-01    0.4127040152E+00
    0.1500000000E+03    0.5101327680E-01    0.9922540350E-01    0.5502201322E-02    0.7168245495E-01    0.4314745448E+00
    0.1700000000E+03    0.5548520561E-01    0.1017960939E+00    0.5659085628E-02    0.7796900038E-01    0.4472131123E+00
    0.1900000000E+03    0.5967073266E-01    0.1037115438E+00    0.5779691180E-02    0.8385339096E-01    0.4606337341E+00
    0.2100000000E+03    0.6360861703E-01    0.1051159565E+00    0.5871800293E-02    0.8939004250E-01    0.4722387008E+00
    0.2300000000E+03    0.6733027389E-01    0.1061160165E+00    0.5941187624E-02    0.9462306103E-01    0.4823922596E+00
    0.2500000000E+03    0.7086147033E-01    0.1067923356E+00    0.5992230977E-02    0.9958862348E-01    0.4913654011E+00
    0.2700000000E+03    0.7422356859E-01    0.1072069147E+00    0.6028309610E-02    0.1043167228E+00    0.4993641909E+00
    0.2900000000E+03    0.7743445202E-01    0.1074081666E+00    0.6052072475E-02    0.1088324678E+00    0.5065483115E+00
    0.3100000000E+03    0.8050922487E-01    0.1074343899E+00    0.6065623880E-02    0.1131570658E+00    0.5130435580E+00
    0.3300000000E+03    0.8346074807E-01    0.1073162283E+00    0.6070655036E-02    0.1173085743E+00    0.5189504766E+00
    0.3500000000E+03    0.8630005437E-01    0.1070784463E+00    0.6068539161E-02    0.1213024842E+00    0.5243504722E+00
    0.3700000000E+03    0.8903667363E-01    0.1067412345E+00    0.6060401483E-02    0.1251521763E+00    0.5293102130E+00
    0.3900000000E+03    0.9167889023E-01    0.1063211846E+00    0.6047171558E-02    0.1288692828E+00    0.5338848638E+00
    0.4100000000E+03    0.9423394862E-01    0.1058320266E+00    0.6029622949E-02    0.1324639757E+00    0.5381204974E+00
    0.4300000000E+03    0.9670821900E-01    0.1052851942E+00    0.6008403668E-02    0.1359451996E+00    0.5420559194E+00
    0.4500000000E+03    0.9910733186E-01    0.1046902632E+00    0.5984059820E-02    0.1393208604E+00    0.5457240669E+00
    0.4700000000E+03    0.1014362880E+00    0.1040552938E+00    0.5957054140E-02    0.1425979799E+00    0.5491530934E+00
    0.4900000000E+03    0.1036995492E+00    0.1033871022E+00    0.5927780674E-02    0.1457828232E+00    0.5523672197E+00
    0.1000000000E+03    0.3822921920E-01    0.8839503475E-01    0.4868626696E-02    0.5371357220E-01    0.3764139687E+00
    0.3000000000E+03    0.7898800125E-01    0.1074410857E+00    0.6060010487E-02    0.1110174653E+00    0.5098752496E+00
    0.5000000000E+03    0.1048078099E+00    0.1030423921E+00    0.5912400813E-02    0.1473424185E+00    0.5539003576E+00
    0.7000000000E+03    0.1243081170E+00    0.9542552866E-01    0.5546163585E-02    0.1747907867E+00    0.5771442045E+00
    0.9000000000E+03    0.1400647692E+00    0.8772483899E-01    0.5148646804E-02    0.1969794674E+00    0.5919100947E+00
    0.1100000000E+04    0.1532274529E+00    0.8064721454E-01    0.4768464206E-02    0.2155228434E+00    0.6022861016E+00
    0.1300000000E+04    0.1644385356E+00    0.7432783754E-01    0.4419210312E-02    0.2313229654E+00    0.6100582452E+00
    0.1500000000E+04    0.1741108200E+00    0.6873941060E-01    0.4103350661E-02    0.2449595674E+00    0.6161428700E+00
    0.1700000000E+04    0.1825344271E+00    0.6380868200E-01    0.3819456645E-02    0.2568401420E+00    0.6210632539E+00
    0.1900000000E+04    0.1899254255E+00    0.5945430295E-01    0.3564779256E-02    0.2672682174E+00    0.6251420873E+00
    0.2100000000E+04    0.1964510028E+00    0.5559959971E-01    0.3336253286E-02    0.2764786939E+00    0.6285902497E+00
    0.2300000000E+04    0.2022439234E+00    0.5217646434E-01    0.3130902335E-02    0.2846581395E+00    0.6315519541E+00
    0.2500000000E+04    0.2074115621E+00    0.4912593839E-01    0.2945994958E-02    0.2919574692E+00    0.6341294944E+00
    0.2700000000E+04    0.2120419377E+00    0.4639758338E-01    0.2779092250E-02    0.2985004152E+00    0.6363976447E+00
    0.2900000000E+04    0.2162079580E+00    0.4394846756E-01    0.2628047450E-02    0.3043894840E+00    0.6384124568E+00
    0.3100000000E+04    0.2199705229E+00    0.4174210291E-01    0.2490985194E-02    0.3097103144E+00    0.6402168571E+00
    0.3300000000E+04    0.2233808635E+00    0.3974746151E-01    0.2366273357E-02    0.3145349600E+00    0.6418443314E+00
    0.3500000000E+04    0.2264823418E+00    0.3793811304E-01    0.2252493615E-02    0.3189244168E+00    0.6433214229E+00
    0.3700000000E+04    0.2293118609E+00    0.3629148894E-01    0.2148413502E-02    0.3229306036E+00    0.6446694700E+00
    0.3900000000E+04    0.2319009838E+00    0.3478826308E-01    0.2052961120E-02    0.3265979327E+00    0.6459058416E+00
    0.4100000000E+04    0.2342768304E+00    0.3341183466E-01    0.1965202848E-02    0.3299645706E+00    0.6470448337E+00
    0.4300000000E+04    0.2364628032E+00    0.3214789773E-01    0.1884323969E-02    0.3330634571E+00    0.6480983306E+00
    0.4500000000E+04    0.2384791786E+00    0.3098408343E-01    0.1809612007E-02    0.3359231361E+00    0.6490763011E+00
    0.4700000000E+04    0.2403435916E+00    0.2990966244E-01    0.1740442453E-02    0.3385684369E+00    0.6499871756E+00
    0.4900000000E+04    0.2420714358E+00    0.2891529721E-01    0.1676266584E-02    0.3410210359E+00    0.6508381369E+00
    0.1000000000E+04    0.1469228873E+00    0.8409349264E-01    0.4955133690E-02    0.2066401599E+00    0.5975057062E+00
    0.3000000000E+04    0.2181362671E+00    0.4281699782E-01    0.2557875865E-02    0.3071161400E+00    0.6393386781E+00
    0.5000000000E+04    0.2428884251E+00    0.2844554651E-01    0.1645897940E-02    0.3421811004E+00    0.6512431102E+00
    0.7000000000E+04    0.2545787688E+00    0.2173973775E-01    0.1209662323E-02    0.3588161794E+00    0.6573170537E+00
    0.9000000000E+04    0.2611593692E+00    0.1794490624E-01    0.9623120415E-03    0.3682256394E+00    0.6611237355E+00
    0.1100000000E+05    0.2653052602E+00    0.1551359647E-01    0.8051889207E-03    0.3741842660E+00    0.6637828006E+00
    0.1300000000E+05    0.2681271914E+00    0.1381891193E-01    0.6971573783E-03    0.3782618499E+00    0.6657698182E+00
    0.1500000000E+05    0.2701584362E+00    0.1256460350E-01    0.6184714634E-03    0.3812132299E+00    0.6673246722E+00
    0.1700000000E+05    0.2716834643E+00    0.1159405446E-01    0.5586096613E-03    0.3834417162E+00    0.6685828212E+00
    0.1900000000E+05    0.2728665967E+00    0.1081714011E-01    0.5115001938E-03    0.3851806627E+00    0.6696271519E+00
    0.2100000000E+05    0.2738088350E+00    0.1017845478E-01    0.4734125284E-03    0.3865737462E+00    0.6705115322E+00
    0.2300000000E+05    0.2745754276E+00    0.9642089123E-02    0.4419360467E-03    0.3877139450E+00    0.6712726530E+00
    0.2500000000E+05    0.2752102768E+00    0.9183744750E-02    0.4154471974E-03    0.3886639303E+00    0.6719364648E+00
    0.2700000000E+05    0.2757439407E+00    0.8786381207E-02    0.3928140713E-03    0.3894674027E+00    0.6725218971E+00
    0.2900000000E+05    0.2761983064E+00    0.8437682739E-02    0.3732240957E-03    0.3901557203E+00    0.6730431192E+00
    0.3100000000E+05    0.2765894403E+00    0.8128516922E-02    0.3560791344E-03    0.3907519441E+00    0.6735109719E+00
    0.3300000000E+05    0.2769293879E+00    0.7851960482E-02    0.3409292380E-03    0.3912733965E+00    0.6739339072E+00
    0.3500000000E+05    0.2772273496E+00    0.7602663044E-02    0.3274294501E-03    0.3917333333E+00    0.6743186225E+00
    0.3700000000E+05    0.2774904677E+00    0.7376419535E-02    0.3153108533E-03    0.3921420650E+00    0.6746705022E+00
    0.3900000000E+05    0.2777243680E+00    0.7169875479E-02    0.3043606778E-03    0.3925077286E+00    0.6749939296E+00
    0.4100000000E+05    0.2779335390E+00    0.6980319320E-02    0.2944083369E-03    0.3928368289E+00    0.6752925141E+00
    0.4300000000E+05    0.2781216042E+00    0.6805533125E-02    0.2853154296E-03    0.3931346272E+00    0.6755692575E+00
    0.4500000000E+05    0.2782915189E+00    0.6643683344E-02    0.2769684578E-03    0.3934054235E+00    0.6758266792E+00
    0.4700000000E+05    0.2784457171E+00    0.6493239567E-02    0.2692734366E-03    0.3936527660E+00    0.6760669115E+00
    0.4900000000E+05    0.2785862206E+00    0.6352913228E-02    0.2621518477E-03    0.3938796081E+00    0.6762917725E+00
    0.1000000000E+05    0.2634473547E+00    0.1660946433E-01    0.8757786542E-03    0.3715101555E+00    0.6625589354E+00
    0.3000000000E+05    0.2764009464E+00    0.8278634015E-02    0.3643769911E-03    0.3904641497E+00    0.6732831411E+00
    0.5000000000E+05    0.2786518769E+00    0.6286195788E-02    0.2587850096E-03    0.3939861317E+00    0.6763989353E+00
    0.7000000000E+05    0.2795415447E+00    0.5287372859E-02    0.2098794052E-03    0.3954744772E+00    0.6780194042E+00
    0.9000000000E+05    0.2800054568E+00    0.4658614588E-02    0.1805548157E-03    0.3963049218E+00    0.6790498770E+00
    0.1100000000E+06    0.2802843873E+00    0.4215378366E-02    0.1605603831E-03    0.3968397675E+00    0.6797779499E+00
    0.1300000000E+06    0.2804672982E+00    0.3880883469E-02    0.1458374391E-03    0.3972159291E+00    0.6803270684E+00
    0.1500000000E+06    0.2805944183E+00    0.3616651434E-02    0.1344266912E-03    0.3974967230E+00    0.6807600815E+00
    0.1700000000E+06    0.2806864871E+00    0.3400961157E-02    0.1252540982E-03    0.3977155304E+00    0.6811127700E+00
    0.1900000000E+06    0.2807552326E+00    0.3220486779E-02    0.1176761782E-03    0.3978916568E+00    0.6814071861E+00
    0.2100000000E+06    0.2808077609E+00    0.3066532772E-02    0.1112812015E-03    0.3980370654E+00    0.6816577536E+00
    0.2300000000E+06    0.2808486140E+00    0.2933148249E-02    0.1057920268E-03    0.3981595780E+00    0.6818743532E+00
    0.2500000000E+06    0.2808808223E+00    0.2816103183E-02    0.1010144365E-03    0.3982645321E+00    0.6820640097E+00
    0.2700000000E+06    0.2809064791E+00    0.2712296245E-02    0.9680778604E-04    0.3983557003E+00    0.6822318714E+00
    0.2900000000E+06    0.2809270736E+00    0.2619394320E-02    0.9306741430E-04    0.3984358278E+00    0.6823818086E+00
    0.3100000000E+06    0.2809436912E+00    0.2535603589E-02    0.8971362666E-04    0.3985069626E+00    0.6825167942E+00
    0.3300000000E+06    0.2809571401E+00    0.2459518909E-02    0.8668453521E-04    0.3985706652E+00    0.6826391545E+00
    0.3500000000E+06    0.2809680332E+00    0.2390021667E-02    0.8393125615E-04    0.3986281466E+00    0.6827507390E+00
    0.3700000000E+06    0.2809768427E+00    0.2326208669E-02    0.8141459974E-04    0.3986803619E+00    0.6828530396E+00
    0.3900000000E+06    0.2809839376E+00    0.2267341503E-02    0.7910273404E-04    0.3987280754E+00    0.6829472742E+00
    0.4100000000E+06    0.2809896097E+00    0.2212809738E-02    0.7696950141E-04    0.3987719061E+00    0.6830344485E+00
    0.4300000000E+06    0.2809940928E+00    0.2162103705E-02    0.7499318263E-04    0.3988123614E+00    0.6831154011E+00
    0.4500000000E+06    0.2809975754E+00    0.2114794048E-02    0.7315557460E-04    0.3988498613E+00    0.6831908376E+00
    0.4700000000E+06    0.2810002117E+00    0.2070516125E-02    0.7144129176E-04    0.3988847565E+00    0.6832613565E+00
    0.4900000000E+06    0.2810021281E+00    0.2028957969E-02    0.6983722987E-04    0.3989173427E+00    0.6833274693E+00
    0.1000000000E+06    0.2801607530E+00    0.4419923195E-02    0.1697182607E-03    0.3965981368E+00    0.6794419315E+00
    0.3000000000E+06    0.2809358236E+00    0.2576455605E-02    0.9134641761E-04    0.3984724123E+00    0.6824510121E+00
    0.5000000000E+06    0.2810028499E+00    0.2009113360E-02    0.6907295603E-04    0.3989328499E+00    0.6833590133E+00
    0.7000000000E+06    0.2809974134E+00    0.1705807649E-02    0.5753020290E-04    0.3991666588E+00    0.6838389789E+00
    0.9000000000E+06    0.2809757598E+00    0.1509572760E-02    0.5020568455E-04    0.3993166409E+00    0.6841472394E+00
    0.1100000000E+07    0.2809501895E+00    0.1369218899E-02    0.4504024621E-04    0.3994247948E+00    0.6843665554E+00
    0.1300000000E+07    0.2809243397E+00    0.1262375629E-02    0.4115135769E-04    0.3995084349E+00    0.6845328315E+00
    0.1500000000E+07    0.2808994119E+00    0.1177499169E-02    0.3809002062E-04    0.3995761784E+00    0.6846644921E+00
    0.1700000000E+07    0.2808757829E+00    0.1107947131E-02    0.3560074104E-04    0.3996328700E+00    0.6847720910E+00
    0.1900000000E+07    0.2808535221E+00    0.1049589770E-02    0.3352612231E-04    0.3996814776E+00    0.6848621654E+00
    0.2100000000E+07    0.2808325808E+00    0.9997060348E-03    0.3176326234E-04    0.3997239387E+00    0.6849390092E+00
    0.2300000000E+07    0.2808128676E+00    0.9564200817E-03    0.3024170108E-04    0.3997615823E+00    0.6850055743E+00
    0.2500000000E+07    0.2807942799E+00    0.9183909541E-03    0.2891137040E-04    0.3997953567E+00    0.6850639661E+00
    0.2700000000E+07    0.2807767171E+00    0.8846310930E-03    0.2773559449E-04    0.3998259599E+00    0.6851157315E+00
    0.2900000000E+07    0.2807600856E+00    0.8543948788E-03    0.2668681684E-04    0.3998539201E+00    0.6851620366E+00
    0.3100000000E+07    0.2807443008E+00    0.8271073472E-03    0.2574388215E-04    0.3998796457E+00    0.6852037788E+00
    0.3300000000E+07    0.2807292870E+00    0.8023170127E-03    0.2489024617E-04    0.3999034589E+00    0.6852416618E+00
    0.3500000000E+07    0.2807149769E+00    0.7796637174E-03    0.2411276118E-04    0.3999256177E+00    0.6852762462E+00
    0.3700000000E+07    0.2807013108E+00    0.7588561579E-03    0.2340083044E-04    0.3999463322E+00    0.6853079848E+00
    0.3900000000E+07    0.2806882357E+00    0.7396558235E-03    0.2274580628E-04    0.3999657751E+00    0.6853372478E+00
    0.4100000000E+07    0.2806757042E+00    0.7218652915E-03    0.2214055291E-04    0.3999840905E+00    0.6853643415E+00
    0.4300000000E+07    0.2806636745E+00    0.7053195460E-03    0.2157912334E-04    0.4000013995E+00    0.6853895214E+00
    0.4500000000E+07    0.2806521089E+00    0.6898794397E-03    0.2105651669E-04    0.4000178050E+00    0.6854130028E+00
    0.4700000000E+07    0.2806409738E+00    0.6754266994E-03    0.2056849347E-04    0.4000333950E+00    0.6854349687E+00
    0.4900000000E+07    0.2806302390E+00    0.6618600622E-03    0.2011143298E-04    0.4000482455E+00    0.6854555755E+00
    0.1000000000E+07    0.2809631461E+00    0.1434176164E-02    0.4742302922E-04    0.3993745640E+00    0.6842651771E+00
    0.3000000000E+07    0.2807520923E+00    0.8404132053E-03    0.2620324478E-04    0.3998670403E+00    0.6851834302E+00
    0.5000000000E+07    0.2806250130E+00    0.6553812810E-03    0.1989352360E-04    0.4000554144E+00    0.6854654121E+00
    0.7000000000E+07    0.2805361259E+00    0.5563298828E-03    0.1659261130E-04    0.4001722082E+00    0.6856154488E+00
    0.9000000000E+07    0.2804678445E+00    0.4922317544E-03    0.1448974299E-04    0.4002567808E+00    0.6857121760E+00
    0.1100000000E+08    0.2804124151E+00    0.4463891239E-03    0.1300365560E-04    0.4003230309E+00    0.6857811688E+00
    0.1300000000E+08    0.2803657628E+00    0.4114962552E-03    0.1188342728E-04    0.4003774650E+00    0.6858335733E+00
    0.1500000000E+08    0.2803254853E+00    0.3837813455E-03    0.1100086196E-04    0.4004236494E+00    0.6858751273E+00
    0.1700000000E+08    0.2802900479E+00    0.3610736380E-03    0.1028281333E-04    0.4004637493E+00    0.6859091257E+00
    0.1900000000E+08    0.2802584105E+00    0.3420234328E-03    0.9684134409E-05    0.4004991772E+00    0.6859376134E+00
    0.2100000000E+08    0.2802298362E+00    0.3257414327E-03    0.9175268454E-05    0.4005309053E+00    0.6859619356E+00
    0.2300000000E+08    0.2802037834E+00    0.3116146001E-03    0.8735956008E-05    0.4005596315E+00    0.6859830184E+00
    0.2500000000E+08    0.2801798426E+00    0.2992047304E-03    0.8351789274E-05    0.4005858733E+00    0.6860015231E+00
    0.2700000000E+08    0.2801576965E+00    0.2881891287E-03    0.8012207488E-05    0.4006100252E+00    0.6860179360E+00
