  Pressure (Pa) 22mC5-400 (mol/kg) 2mC6-400 (mol/kg) 33mC5-400 (mol/kg) 23mC5-400 (mol/kg) C7-400 (mol/kg)
    0.1000000000E+01    0.5304273190E-03    0.3132550128E-02    0.1275554387E-03    0.2794112482E-03    0.1679986223E-01
    0.3000000000E+01    0.1577418074E-02    0.8944134253E-02    0.3643778245E-03    0.8309349709E-03    0.4770005208E-01
    0.5000000000E+01    0.2606439713E-02    0.1422889607E-01    0.5799679889E-03    0.1372998648E-02    0.7546756023E-01
    0.7000000000E+01    0.3618086662E-02    0.1906379987E-01    0.7774398304E-03    0.1905915186E-02    0.1005653016E+00
    0.9000000000E+01    0.4612926421E-02    0.2351105124E-01    0.9593082031E-03    0.2429983317E-02    0.1233688084E+00
    0.1100000000E+02    0.5591501085E-02    0.2762148221E-01    0.1127626582E-02    0.2945488401E-02    0.1441859512E+00
    0.1300000000E+02    0.6554328775E-02    0.3143704790E-01    0.1284088549E-02    0.3452703179E-02    0.1632715471E+00
    0.1500000000E+02    0.7501904958E-02    0.3499269446E-01    0.1430103698E-02    0.3951888468E-02    0.1808383376E+00
    0.1700000000E+02    0.8434703692E-02    0.3831777529E-01    0.1566855152E-02    0.4443293817E-02    0.1970653471E+00
    0.1900000000E+02    0.9353178783E-02    0.4143713753E-01    0.1695343675E-02    0.4927158114E-02    0.2121043238E+00
    0.2100000000E+02    0.1025776487E-01    0.4437196505E-01    0.1816421879E-02    0.5403710158E-02    0.2260847566E+00
    0.2300000000E+02    0.1114887845E-01    0.4714043891E-01    0.1930821007E-02    0.5873169195E-02    0.2391178235E+00
    0.2500000000E+02    0.1202691880E-01    0.4975825987E-01    0.2039172125E-02    0.6335745416E-02    0.2512995273E+00
    0.2700000000E+02    0.1289226891E-01    0.5223906531E-01    0.2142023007E-02    0.6791640426E-02    0.2627132069E+00
    0.2900000000E+02    0.1374529626E-01    0.5459476455E-01    0.2239851716E-02    0.7241047688E-02    0.2734315664E+00
    0.3100000000E+02    0.1458635369E-01    0.5683581067E-01    0.2333077613E-02    0.7684152929E-02    0.2835183244E+00
    0.3300000000E+02    0.1541578006E-01    0.5897142235E-01    0.2422070323E-02    0.8121134535E-02    0.2930295662E+00
    0.3500000000E+02    0.1623390096E-01    0.6100976611E-01    0.2507157111E-02    0.8552163912E-02    0.3020148578E+00
    0.3700000000E+02    0.1704102940E-01    0.6295810701E-01    0.2588628970E-02    0.8977405831E-02    0.3105181701E+00
    0.3900000000E+02    0.1783746637E-01    0.6482293397E-01    0.2666745681E-02    0.9397018747E-02    0.3185786507E+00
    0.4100000000E+02    0.1862350148E-01    0.6661006455E-01    0.2741740046E-02    0.9811155110E-02    0.3262312701E+00
    0.4300000000E+02    0.1939941343E-01    0.6832473300E-01    0.2813821437E-02    0.1021996164E-01    0.3335073669E+00
    0.4500000000E+02    0.2016547058E-01    0.6997166472E-01    0.2883178804E-02    0.1062357962E-01    0.3404351101E+00
    0.4700000000E+02    0.2092193142E-01    0.7155513934E-01    0.2949983211E-02    0.1102214512E-01    0.3470398915E+00
    0.4900000000E+02    0.2166904503E-01    0.7307904462E-01    0.3014390013E-02    0.1141578926E-01    0.3533446617E+00
    0.1000000000E+02    0.5104213961E-02    0.2560556348E-01    0.1045047852E-02    0.2688788906E-02    0.1340086493E+00
    0.3000000000E+02    0.1416729972E-01    0.5572901646E-01    0.2287015842E-02    0.7463376744E-02    0.2785502254E+00
    0.5000000000E+02    0.2203917198E-01    0.7381977799E-01    0.3045739025E-02    0.1161080549E-01    0.3563911189E+00
    0.7000000000E+02    0.2900503760E-01    0.8622129076E-01    0.3575366319E-02    0.1528121643E-01    0.4057115806E+00
    0.9000000000E+02    0.3526261825E-01    0.9530748814E-01    0.3970695895E-02    0.1857869935E-01    0.4400861000E+00
    0.1100000000E+03    0.4095367383E-01    0.1022256318E+00    0.4277543703E-02    0.2157788538E-01    0.4655933669E+00
    0.1300000000E+03    0.4618274385E-01    0.1076222526E+00    0.4521790332E-02    0.2433381205E-01    0.4853785757E+00
    0.1500000000E+03    0.5102878624E-01    0.1118997601E+00    0.4719605036E-02    0.2688804986E-01    0.5012399294E+00
    0.1700000000E+03    0.5555267699E-01    0.1153262246E+00    0.4881808195E-02    0.2927265008E-01    0.5142837747E+00
    0.1900000000E+03    0.5980219787E-01    0.1180891453E+00    0.5016005531E-02    0.3151277047E-01    0.5252302049E+00
    0.2100000000E+03    0.6381544585E-01    0.1203245418E+00    0.5127743005E-02    0.3362846997E-01    0.5345692827E+00
    0.2300000000E+03    0.6762322031E-01    0.1221339251E+00    0.5221181319E-02    0.3563596553E-01    0.5426468197E+00
    0.2500000000E+03    0.7125073029E-01    0.1235947928E+00    0.5299513778E-02    0.3754853078E-01    0.5497142676E+00
    0.2700000000E+03    0.7471883876E-01    0.1247674241E+00    0.5365237462E-02    0.3937715120E-01    0.5559591425E+00
    0.2900000000E+03    0.7804498490E-01    0.1256994465E+00    0.5420335923E-02    0.4113100957E-01    0.5615243287E+00
    0.3100000000E+03    0.8124387821E-01    0.1264289980E+00    0.5466406080E-02    0.4281785145E-01    0.5665207481E+00
    0.3300000000E+03    0.8432802807E-01    0.1269869749E+00    0.5504748653E-02    0.4444426399E-01    0.5710359193E+00
    0.3500000000E+03    0.8730815300E-01    0.1273986632E+00    0.5536434004E-02    0.4601589138E-01    0.5751398898E+00
    0.3700000000E+03    0.9019350048E-01    0.1276849453E+00    0.5562350980E-02    0.4753760324E-01    0.5788894380E+00
    0.3900000000E+03    0.9299209949E-01    0.1278632065E+00    0.5583243733E-02    0.4901362760E-01    0.5823311104E+00
    0.4100000000E+03    0.9571096203E-01    0.1279480267E+00    0.5599739875E-02    0.5044765699E-01    0.5855034553E+00
    0.4300000000E+03    0.9835624513E-01    0.1279517136E+00    0.5612372275E-02    0.5184293374E-01    0.5884386910E+00
    0.4500000000E+03    0.1009333824E+00    0.1278847199E+00    0.5621596132E-02    0.5320231927E-01    0.5911639704E+00
    0.4700000000E+03    0.1034471917E+00    0.1277559712E+00    0.5627802477E-02    0.5452835066E-01    0.5937023520E+00
    0.4900000000E+03    0.1059019632E+00    0.1275731284E+00    0.5631328964E-02    0.5582328730E-01    0.5960735535E+00
    0.1000000000E+03    0.3817171753E-01    0.9898951785E-01    0.4133258552E-02    0.2011176564E-01    0.4537083272E+00
    0.3000000000E+03    0.7965951005E-01    0.1260874519E+00    0.5444412172E-02    0.4198237151E-01    0.5640876955E+00
    0.5000000000E+03    0.1071084246E+00    0.1274635221E+00    0.5632180353E-02    0.5645973486E-01    0.5972018582E+00
    0.7000000000E+03    0.1288865734E+00    0.1236343172E+00    0.5562524808E-02    0.6795034091E-01    0.6140899228E+00
    0.9000000000E+03    0.1474353723E+00    0.1183665664E+00    0.5405898900E-02    0.7773991374E-01    0.6246051774E+00
    0.1100000000E+04    0.1637967973E+00    0.1127683946E+00    0.5216754765E-02    0.8637720218E-01    0.6318947165E+00
    0.1300000000E+04    0.1785174558E+00    0.1072373237E+00    0.5016883231E-02    0.9415006718E-01    0.6373009379E+00
    0.1500000000E+04    0.1919252717E+00    0.1019278591E+00    0.4816205201E-02    0.1012311965E+00    0.6415009710E+00
    0.1700000000E+04    0.2042368524E+00    0.9689827631E-01    0.4619579803E-02    0.1077346521E+00    0.6448764810E+00
    0.1900000000E+04    0.2156061012E+00    0.9216510094E-01    0.4429455535E-02    0.1137414737E+00    0.6476603848E+00
    0.2100000000E+04    0.2261487592E+00    0.8772579289E-01    0.4247037452E-02    0.1193126050E+00    0.6500035925E+00
    0.2300000000E+04    0.2359558438E+00    0.8356900172E-01    0.4072850836E-02    0.1244959713E+00    0.6520085677E+00
    0.2500000000E+04    0.2451014893E+00    0.7967948733E-01    0.3907033925E-02    0.1293306089E+00    0.6537475498E+00
    0.2700000000E+04    0.2536477628E+00    0.7604057950E-01    0.3749499095E-02    0.1338492017E+00    0.6552730715E+00
    0.2900000000E+04    0.2616477544E+00    0.7263543590E-01    0.3600025938E-02    0.1380797081E+00    0.6566243382E+00
    0.3100000000E+04    0.2691476377E+00    0.6944768682E-01    0.3458317120E-02    0.1420464460E+00    0.6578312602E+00
    0.3300000000E+04    0.2761880911E+00    0.6646175595E-01    0.3324032957E-02    0.1457708412E+00    0.6589170933E+00
    0.3500000000E+04    0.2828053116E+00    0.6366300541E-01    0.3196813299E-02    0.1492719606E+00    0.6599002193E+00
    0.3700000000E+04    0.2890317583E+00    0.6103778425E-01    0.3076291594E-02    0.1525669044E+00    0.6607953790E+00
    0.3900000000E+04    0.2948967156E+00    0.5857342342E-01    0.2962103990E-02    0.1556711014E+00    0.6616145451E+00
    0.4100000000E+04    0.3004267294E+00    0.5625820172E-01    0.2853895196E-02    0.1585985392E+00    0.6623675536E+00
    0.4300000000E+04    0.3056459540E+00    0.5408129661E-01    0.2751322193E-02    0.1613619468E+00    0.6630625673E+00
    0.4500000000E+04    0.3105764350E+00    0.5203272791E-01    0.2654056484E-02    0.1639729427E+00    0.6637064233E+00
    0.4700000000E+04    0.3152383427E+00    0.5010329922E-01    0.2561785357E-02    0.1664421586E+00    0.6643048958E+00
    0.4900000000E+04    0.3196501702E+00    0.4828453970E-01    0.2474212456E-02    0.1687793428E+00    0.6648628984E+00
    0.1000000000E+04    0.1558482710E+00    0.1155753508E+00    0.5313619707E-02    0.8218087734E-01    0.6285465367E+00
    0.3000000000E+04    0.2654575518E+00    0.7101538147E-01    0.3528221528E-02    0.1400946483E+00    0.6572442569E+00
    0.5000000000E+04    0.3217676663E+00    0.4741419827E-01    0.2432099734E-02    0.1699012499E+00    0.6651280631E+00
    0.7000000000E+04    0.3544481747E+00    0.3422834111E-01    0.1777063278E-02    0.1872320653E+00    0.6690705998E+00
    0.9000000000E+04    0.3749401315E+00    0.2624791856E-01    0.1363841220E-02    0.1981209052E+00    0.6715016328E+00
    0.1100000000E+05    0.3886227975E+00    0.2107592684E-01    0.1088455584E-02    0.2054071575E+00    0.6731773195E+00
    0.1300000000E+05    0.3982362354E+00    0.1753119258E-01    0.8960001286E-03    0.2105382568E+00    0.6744159093E+00
    0.1500000000E+05    0.4052750920E+00    0.1498872830E-01    0.7560570202E-03    0.2143043312E+00    0.6753764136E+00
    0.1700000000E+05    0.4106052430E+00    0.1309604368E-01    0.6508862206E-03    0.2171634501E+00    0.6761477897E+00
    0.1900000000E+05    0.4147550288E+00    0.1164308288E-01    0.5696397086E-03    0.2193953235E+00    0.6767839948E+00
    0.2100000000E+05    0.4180614737E+00    0.1049864235E-01    0.5054007889E-03    0.2211785092E+00    0.6773198138E+00
    0.2300000000E+05    0.4207478953E+00    0.9577409209E-02    0.4535958579E-03    0.2226314125E+00    0.6777787662E+00
    0.2500000000E+05    0.4229671857E+00    0.8821960684E-02    0.4111033828E-03    0.2238351615E+00    0.6781773769E+00
    0.2700000000E+05    0.4248270254E+00    0.8192474155E-02    0.3757332401E-03    0.2248469392E+00    0.6785276277E+00
    0.2900000000E+05    0.4264051454E+00    0.7660604310E-02    0.3459111624E-03    0.2257080578E+00    0.6788384386E+00
    0.3100000000E+05    0.4277588833E+00    0.7205709102E-02    0.3204811706E-03    0.2264490164E+00    0.6791166008E+00
    0.3300000000E+05    0.4289313494E+00    0.6812449895E-02    0.2985782361E-03    0.2270927655E+00    0.6793673852E+00
    0.3500000000E+05    0.4299555104E+00    0.6469222644E-02    0.2795440536E-03    0.2276568708E+00    0.6795949514E+00
    0.3700000000E+05    0.4308569615E+00    0.6167106726E-02    0.2628700188E-03    0.2281549821E+00    0.6798026310E+00
    0.3900000000E+05    0.4316558462E+00    0.5899144874E-02    0.2481578081E-03    0.2285978517E+00    0.6799931269E+00
    0.4100000000E+05    0.4323682138E+00    0.5659839975E-02    0.2350916066E-03    0.2289940541E+00    0.6801686574E+00
    0.4300000000E+05    0.4330069941E+00    0.5444797035E-02    0.2234182039E-03    0.2293505036E+00    0.6803310622E+00
    0.4500000000E+05    0.4335827104E+00    0.5250464214E-02    0.2129325036E-03    0.2296728328E+00    0.6804818812E+00
    0.4700000000E+05    0.4341040061E+00    0.5073942698E-02    0.2034668238E-03    0.2299656728E+00    0.6806224140E+00
    0.4900000000E+05    0.4345780421E+00    0.4912845180E-02    0.1948828905E-03    0.2302328636E+00    0.6807537663E+00
    0.1000000000E+05    0.3824213661E+00    0.2340277196E-01    0.1213126941E-02    0.2021027810E+00    0.6724085442E+00
    0.3000000000E+05    0.4271070900E+00    0.7424596337E-02    0.3327068891E-03    0.2260919753E+00    0.6789812413E+00
    0.5000000000E+05    0.4347992454E+00    0.4837447450E-02    0.1908848866E-03    0.2303578646E+00    0.6808163011E+00
    0.7000000000E+05    0.4377803122E+00    0.3797674815E-02    0.1374103401E-03    0.2320695897E+00    0.6817568481E+00
    0.9000000000E+05    0.4393317718E+00    0.3222538986E-02    0.1096963029E-03    0.2329926848E+00    0.6823499367E+00
    0.1100000000E+06    0.4402735282E+00    0.2849267752E-02    0.9272082964E-04    0.2335734132E+00    0.6827665723E+00
    0.1300000000E+06    0.4409019015E+00    0.2583031727E-02    0.8120132161E-04    0.2339749680E+00    0.6830794491E+00
    0.1500000000E+06    0.4413488802E+00    0.2381069505E-02    0.7282750112E-04    0.2342709133E+00    0.6833253288E+00
    0.1700000000E+06    0.4416818365E+00    0.2221117122E-02    0.6643390580E-04    0.2344992551E+00    0.6835250337E+00
    0.1900000000E+06    0.4419386377E+00    0.2090356195E-02    0.6136995757E-04    0.2346816158E+00    0.6836913452E+00
    0.2100000000E+06    0.4421421540E+00    0.1980837827E-02    0.5724396026E-04    0.2348312148E+00    0.6838325950E+00
    0.2300000000E+06    0.4423069902E+00    0.1887343747E-02    0.5380583182E-04    0.2349565977E+00    0.6839544749E+00
    0.2500000000E+06    0.4424428980E+00    0.1806290399E-02    0.5088824871E-04    0.2350635406E+00    0.6840610212E+00
    0.2700000000E+06    0.4425566304E+00    0.1735125402E-02    0.4837489550E-04    0.2351560922E+00    0.6841551859E+00
    0.2900000000E+06    0.4426530075E+00    0.1671975241E-02    0.4618230365E-04    0.2352371781E+00    0.6842391841E+00
    0.3100000000E+06    0.4427355596E+00    0.1615429520E-02    0.4424894693E-04    0.2353089670E+00    0.6843147142E+00
    0.3300000000E+06    0.4428069295E+00    0.1564403420E-02    0.4252842110E-04    0.2353731025E+00    0.6843831031E+00
    0.3500000000E+06    0.4428691341E+00    0.1518046966E-02    0.4098502659E-04    0.2354308538E+00    0.6844454045E+00
    0.3700000000E+06    0.4429237382E+00    0.1475683403E-02    0.3959082002E-04    0.2354832179E+00    0.6845024670E+00
    0.3900000000E+06    0.4429719739E+00    0.1436766238E-02    0.3832359384E-04    0.2355309891E+00    0.6845549826E+00
    0.4100000000E+06    0.4430148243E+00    0.1400848637E-02    0.3716545936E-04    0.2355748088E+00    0.6846035222E+00
    0.4300000000E+06    0.4430530828E+00    0.1367561173E-02    0.3610183253E-04    0.2356152009E+00    0.6846485613E+00
    0.4500000000E+06    0.4430873967E+00    0.1336595367E-02    0.3512069443E-04    0.2356525978E+00    0.6846904994E+00
    0.4700000000E+06    0.4431182989E+00    0.1307691313E-02    0.3421204326E-04    0.2356873599E+00    0.6847296754E+00
    0.4900000000E+06    0.4431462322E+00    0.1280628254E-02    0.3336748199E-04    0.2357197901E+00    0.6847663784E+00
    0.1000000000E+06    0.4398544667E+00    0.3018461054E-02    0.1003035106E-03    0.2333124495E+00    0.6825745389E+00
    0.3000000000E+06    0.4426958293E+00    0.1642951019E-02    0.4518641491E-04    0.2352741217E+00    0.6842779173E+00
    0.5000000000E+06    0.4431592037E+00    0.1267726986E-02    0.3296697090E-04    0.2357352125E+00    0.6847838816E+00
    0.7000000000E+06    0.4433274680E+00    0.1072112535E-02    0.2705623866E-04    0.2359669759E+00    0.6850494784E+00
    0.9000000000E+06    0.4434053127E+00    0.9468815360E-03    0.2342570832E-04    0.2361149637E+00    0.6852192832E+00
    0.1100000000E+07    0.4434450996E+00    0.8578204967E-03    0.2091320350E-04    0.2362213859E+00    0.6853396818E+00
    0.1300000000E+07    0.4434659252E+00    0.7902614164E-03    0.1904463286E-04    0.2363035269E+00    0.6854307141E+00
    0.1500000000E+07    0.4434762657E+00    0.7367192596E-03    0.1758621390E-04    0.2363699553E+00    0.6855026311E+00
    0.1700000000E+07    0.4434803910E+00    0.6929183097E-03    0.1640775755E-04    0.2364254765E+00    0.6855612899E+00
    0.1900000000E+07    0.4434806508E+00    0.6562137466E-03    0.1543031834E-04    0.2364730287E+00    0.6856103107E+00
    0.2100000000E+07    0.4434784257E+00    0.6248694422E-03    0.1460290219E-04    0.2365145279E+00    0.6856520671E+00
    0.2300000000E+07    0.4434745679E+00    0.5976919624E-03    0.1389092174E-04    0.2365512868E+00    0.6856881881E+00
    0.2500000000E+07    0.4434696247E+00    0.5738300939E-03    0.1326998708E-04    0.2365842411E+00    0.6857198341E+00
    0.2700000000E+07    0.4434639583E+00    0.5526580889E-03    0.1272234435E-04    0.2366140793E+00    0.6857478563E+00
    0.2900000000E+07    0.4434578147E+00    0.5337042027E-03    0.1223472424E-04    0.2366413220E+00    0.6857728958E+00
    0.3100000000E+07    0.4434513641E+00    0.5166051138E-03    0.1179698527E-04    0.2366663715E+00    0.6857954455E+00
    0.3300000000E+07    0.4434447263E+00    0.5010758268E-03    0.1140122678E-04    0.2366895450E+00    0.6858158912E+00
    0.3500000000E+07    0.4434379863E+00    0.4868892001E-03    0.1104119095E-04    0.2367110964E+00    0.6858345403E+00
    0.3700000000E+07    0.4434312055E+00    0.4738616593E-03    0.1071184882E-04    0.2367312322E+00    0.6858516407E+00
    0.3900000000E+07    0.4434244279E+00    0.4618430012E-03    0.1040910689E-04    0.2367501225E+00    0.6858673949E+00
    0.4100000000E+07    0.4434176854E+00    0.4507089718E-03    0.1012959505E-04    0.2367679088E+00    0.6858819703E+00
    0.4300000000E+07    0.4434110011E+00    0.4403557685E-03    0.9870510337E-05    0.2367847102E+00    0.6858955065E+00
    0.4500000000E+07    0.4434043915E+00    0.4306959021E-03    0.9629500022E-05    0.2368006276E+00    0.6859081212E+00
    0.4700000000E+07    0.4433978683E+00    0.4216550396E-03    0.9404572871E-05    0.2368157474E+00    0.6859199141E+00
    0.4900000000E+07    0.4433914395E+00    0.4131695629E-03    0.9194030838E-05    0.2368301443E+00    0.6859309705E+00
    0.1000000000E+07    0.4434283915E+00    0.8989915793E-03    0.2206764891E-04    0.2361719887E+00    0.6852840726E+00
    0.3000000000E+07    0.4434546193E+00    0.5249421799E-03    0.1201015782E-04    0.2366540994E+00    0.6857844556E+00
    0.5000000000E+07    0.4433882623E+00    0.4091176650E-03    0.9093690438E-05    0.2368370922E+00    0.6859362458E+00
    0.7000000000E+07    0.4433301679E+00    0.3471966848E-03    0.7576518412E-05    0.2369500995E+00    0.6860165058E+00
    0.9000000000E+07    0.4432814239E+00    0.3071500504E-03    0.6612426098E-05    0.2370317094E+00    0.6860680230E+00
    0.1100000000E+08    0.4432398887E+00    0.2785186002E-03    0.5932078572E-05    0.2370955102E+00    0.6861046446E+00
    0.1300000000E+08    0.4432038260E+00    0.2567307416E-03    0.5419695897E-05    0.2371478491E+00    0.6861323838E+00
    0.1500000000E+08    0.4431720027E+00    0.2394276665E-03    0.5016275974E-05    0.2371921986E+00    0.6861543276E+00
    0.1700000000E+08    0.4431435427E+00    0.2252523727E-03    0.4688210641E-05    0.2372306638E+00    0.6861722444E+00
    0.1900000000E+08    0.4431178093E+00    0.2133613681E-03    0.4414781863E-05    0.2372646160E+00    0.6861872297E+00
    0.2100000000E+08    0.4430943284E+00    0.2031990101E-03    0.4182438527E-05    0.2372949983E+00    0.6862000028E+00
    0.2300000000E+08    0.4430727380E+00    0.1943823319E-03    0.3981898817E-05    0.2373224866E+00    0.6862110581E+00
    0.2500000000E+08    0.4430527564E+00    0.1866376238E-03    0.3806565656E-05    0.2373475819E+00    0.6862207482E+00
    0.2700000000E+08    0.4430341603E+00    0.1797633483E-03    0.3651605752E-05    0.2373706656E+00    0.6862293320E+00
