  Pressure (Pa) 22mC5-400 (mol/kg) 2mC6-400 (mol/kg) 33mC5-400 (mol/kg) 23mC5-400 (mol/kg) C7-400 (mol/kg)
    0.1000000000E+01    0.5292196052E-03    0.4762235128E-02    0.1938736529E-03    0.7434011883E-03    0.3420202721E-02
    0.3000000000E+01    0.1566853478E-02    0.1393874148E-01    0.5674825768E-03    0.2200995215E-02    0.1004162223E-01
    0.5000000000E+01    0.2577903424E-02    0.2267740906E-01    0.9233013693E-03    0.3621268208E-02    0.1638748344E-01
    0.7000000000E+01    0.3563674636E-02    0.3100717255E-01    0.1262505686E-02    0.5006052299E-02    0.2247595126E-01
    0.9000000000E+01    0.4525385055E-02    0.3895448757E-01    0.1586170420E-02    0.6357057153E-02    0.2832360203E-01
    0.1100000000E+02    0.5464172631E-02    0.4654359099E-01    0.1895280283E-02    0.7675880158E-02    0.3394559450E-01
    0.1300000000E+02    0.6381101861E-02    0.5379672901E-01    0.2190739085E-02    0.8964015599E-02    0.3935581908E-01
    0.1500000000E+02    0.7277169693E-02    0.6073435760E-01    0.2473377877E-02    0.1022286295E-01    0.4456702853E-01
    0.1700000000E+02    0.8153310875E-02    0.6737531911E-01    0.2743962135E-02    0.1145373438E-01    0.4959095285E-01
    0.1900000000E+02    0.9010402788E-02    0.7373699828E-01    0.3003198102E-02    0.1265786153E-01    0.5443840047E-01
    0.2100000000E+02    0.9849269841E-02    0.7983546056E-01    0.3251738408E-02    0.1383640169E-01    0.5911934755E-01
    0.2300000000E+02    0.1067068746E-01    0.8568557479E-01    0.3490187063E-02    0.1499044339E-01    0.6364301720E-01
    0.2500000000E+02    0.1147538574E-01    0.9130112255E-01    0.3719103896E-02    0.1612101154E-01    0.6801794965E-01
    0.2700000000E+02    0.1226405274E-01    0.9669489562E-01    0.3939008519E-02    0.1722907202E-01    0.7225206479E-01
    0.2900000000E+02    0.1303733749E-01    0.1018787832E+00    0.4150383869E-02    0.1831553597E-01    0.7635271792E-01
    0.3100000000E+02    0.1379585283E-01    0.1068638498E+00    0.4353679385E-02    0.1938126368E-01    0.8032674952E-01
    0.3300000000E+02    0.1454017784E-01    0.1116604057E+00    0.4549313856E-02    0.2042706810E-01    0.8418052991E-01
    0.3500000000E+02    0.1527086025E-01    0.1162780698E+00    0.4737677983E-02    0.2145371814E-01    0.8791999927E-01
    0.3700000000E+02    0.1598841854E-01    0.1207258266E+00    0.4919136693E-02    0.2246194165E-01    0.9155070363E-01
    0.3900000000E+02    0.1669334387E-01    0.1250120773E+00    0.5094031221E-02    0.2345242815E-01    0.9507782734E-01
    0.4100000000E+02    0.1738610192E-01    0.1291446864E+00    0.5262680998E-02    0.2442583138E-01    0.9850622227E-01
    0.4300000000E+02    0.1806713454E-01    0.1331310238E+00    0.5425385360E-02    0.2538277165E-01    0.1018404343E+00
    0.4500000000E+02    0.1873686128E-01    0.1369780028E+00    0.5582425097E-02    0.2632383793E-01    0.1050847275E+00
    0.4700000000E+02    0.1939568079E-01    0.1406921148E+00    0.5734063865E-02    0.2724958988E-01    0.1082431052E+00
    0.4900000000E+02    0.2004397215E-01    0.1442794611E+00    0.5880549465E-02    0.2816055968E-01    0.1113193308E+00
    0.1000000000E+02    0.4997576018E-02    0.4279238116E-01    0.1742486426E-02    0.7020395679E-02    0.3116190929E-01
    0.3000000000E+02    0.1341840438E-01    0.1043955078E+00    0.4253014745E-02    0.1885093998E-01    0.7835515273E-01
    0.5000000000E+02    0.2036428318E-01    0.1460274041E+00    0.5951933219E-02    0.2861066048E-01    0.1128277511E+00
    0.7000000000E+02    0.2629679257E-01    0.1755587210E+00    0.7158928222E-02    0.3694754479E-01    0.1394409163E+00
    0.9000000000E+02    0.3149649874E-01    0.1972418222E+00    0.8046709563E-02    0.4425548226E-01    0.1608232164E+00
    0.1100000000E+03    0.3614469818E-01    0.2135703777E+00    0.8716560965E-02    0.5078900672E-01    0.1785268999E+00
    0.1300000000E+03    0.4036432059E-01    0.2260997861E+00    0.9231664067E-02    0.5672071326E-01    0.1935313351E+00
    0.1500000000E+03    0.4424202718E-01    0.2358481830E+00    0.9633383973E-02    0.6217227929E-01    0.2064871774E+00
    0.1700000000E+03    0.4784090443E-01    0.2435084259E+00    0.9949877313E-02    0.6723228451E-01    0.2178449841E+00
    0.1900000000E+03    0.5120813143E-01    0.2495673398E+00    0.1020093407E-01    0.7196697479E-01    0.2279275429E+00
    0.2100000000E+03    0.5437980949E-01    0.2543762761E+00    0.1040084246E-01    0.7642704247E-01    0.2369727713E+00
    0.2300000000E+03    0.5738411436E-01    0.2581946576E+00    0.1056015691E-01    0.8065205190E-01    0.2451603100E+00
    0.2500000000E+03    0.6024341754E-01    0.2612178261E+00    0.1068682878E-01    0.8467341771E-01    0.2526286350E+00
    0.2700000000E+03    0.6297575220E-01    0.2635954025E+00    0.1078695181E-01    0.8851646296E-01    0.2594864266E+00
    0.2900000000E+03    0.6559585005E-01    0.2654437164E+00    0.1086526686E-01    0.9220187496E-01    0.2658203347E+00
    0.3100000000E+03    0.6811589001E-01    0.2668544195E+00    0.1092551173E-01    0.9574675646E-01    0.2717004118E+00
    0.3300000000E+03    0.7054604875E-01    0.2679005764E+00    0.1097066847E-01    0.9916539863E-01    0.2771839978E+00
    0.3500000000E+03    0.7289491227E-01    0.2686410522E+00    0.1100314162E-01    0.1024698590E+00    0.2823185493E+00
    0.3700000000E+03    0.7516978816E-01    0.2691237244E+00    0.1102488874E-01    0.1056703997E+00    0.2871437368E+00
    0.3900000000E+03    0.7737694569E-01    0.2693878702E+00    0.1103751732E-01    0.1087758251E+00    0.2916930226E+00
    0.4100000000E+03    0.7952180273E-01    0.2694659632E+00    0.1104235785E-01    0.1117937438E+00    0.2959948648E+00
    0.4300000000E+03    0.8160907286E-01    0.2693850434E+00    0.1104051950E-01    0.1147307752E+00    0.3000736472E+00
    0.4500000000E+03    0.8364288236E-01    0.2691677733E+00    0.1103293303E-01    0.1175927143E+00    0.3039504064E+00
    0.4700000000E+03    0.8562686413E-01    0.2688332598E+00    0.1102038423E-01    0.1203846628E+00    0.3076434060E+00
    0.4900000000E+03    0.8756423368E-01    0.2683977003E+00    0.1100354020E-01    0.1231111367E+00    0.3111685946E+00
    0.1000000000E+03    0.3388080588E-01    0.2059621867E+00    0.8404277168E-02    0.4760678791E-01    0.1700638894E+00
    0.3000000000E+03    0.6686769968E-01    0.2661988253E+00    0.1089744634E-01    0.9399093050E-01    0.2688132578E+00
    0.5000000000E+03    0.8851634512E-01    0.2681464229E+00    0.1099368871E-01    0.1244510933E+00    0.3128727028E+00
    0.7000000000E+03    0.1056655585E+00    0.2602769615E+00    0.1067300941E-01    0.1485909965E+00    0.3407919319E+00
    0.9000000000E+03    0.1201265729E+00    0.2502491715E+00    0.1025314133E-01    0.1689542396E+00    0.3610924414E+00
    0.1100000000E+04    0.1326722337E+00    0.2400683708E+00    0.9819703944E-02    0.1866261054E+00    0.3769739262E+00
    0.1300000000E+04    0.1437248825E+00    0.2303634292E+00    0.9400996105E-02    0.2021996377E+00    0.3899743253E+00
    0.1500000000E+04    0.1535543747E+00    0.2213278426E+00    0.9006758574E-02    0.2160537525E+00    0.4009492818E+00
    0.1700000000E+04    0.1623521358E+00    0.2129968071E+00    0.8639726782E-02    0.2284572479E+00    0.4104234549E+00
    0.1900000000E+04    0.1702638461E+00    0.2053444839E+00    0.8299762361E-02    0.2396147040E+00    0.4187416736E+00
    0.2100000000E+04    0.1774056992E+00    0.1983222348E+00    0.7985523152E-02    0.2496893128E+00    0.4261426786E+00
    0.2300000000E+04    0.1838733068E+00    0.1918747384E+00    0.7695197015E-02    0.2588153792E+00    0.4327985830E+00
    0.2500000000E+04    0.1897469986E+00    0.1859469918E+00    0.7426841614E-02    0.2671057596E+00    0.4388375453E+00
    0.2700000000E+04    0.1950952217E+00    0.1804872945E+00    0.7178545146E-02    0.2746566324E+00    0.4443575511E+00
    0.2900000000E+04    0.1999768691E+00    0.1754483769E+00    0.6948500861E-02    0.2815507641E+00    0.4494351858E+00
    0.3100000000E+04    0.2044429664E+00    0.1707876569E+00    0.6735038400E-02    0.2878598769E+00    0.4541314335E+00
    0.3300000000E+04    0.2085379531E+00    0.1664670870E+00    0.6536632979E-02    0.2936464448E+00    0.4584956363E+00
    0.3500000000E+04    0.2123006888E+00    0.1624528218E+00    0.6351903226E-02    0.2989651063E+00    0.4625682733E+00
    0.3700000000E+04    0.2157652664E+00    0.1587148205E+00    0.6179603377E-02    0.3038638045E+00    0.4663829561E+00
    0.3900000000E+04    0.2189616815E+00    0.1552264397E+00    0.6018612919E-02    0.3083847271E+00    0.4699678940E+00
    0.4100000000E+04    0.2219163918E+00    0.1519640470E+00    0.5867925391E-02    0.3125650906E+00    0.4733469880E+00
    0.4300000000E+04    0.2246527882E+00    0.1489066650E+00    0.5726637243E-02    0.3164378028E+00    0.4765406613E+00
    0.4500000000E+04    0.2271915962E+00    0.1460356518E+00    0.5593937249E-02    0.3200320250E+00    0.4795664995E+00
    0.4700000000E+04    0.2295512176E+00    0.1433344170E+00    0.5469096708E-02    0.3233736527E+00    0.4824397497E+00
    0.4900000000E+04    0.2317480251E+00    0.1407881722E+00    0.5351460504E-02    0.3264857288E+00    0.4851737156E+00
    0.1000000000E+04    0.1266074919E+00    0.2451228087E+00    0.1003568382E-01    0.1780826001E+00    0.3694669111E+00
    0.3000000000E+04    0.2022589425E+00    0.1730732231E+00    0.6839795626E-02    0.2847743445E+00    0.4518276635E+00
    0.5000000000E+04    0.2327899979E+00    0.1395689878E+00    0.5295157432E-02    0.3279621941E+00    0.4864921714E+00
    0.7000000000E+04    0.2478887832E+00    0.1207741988E+00    0.4432108972E-02    0.3493921582E+00    0.5077562675E+00
    0.9000000000E+04    0.2564764203E+00    0.1085668522E+00    0.3881804588E-02    0.3616264927E+00    0.5227384178E+00
    0.1100000000E+05    0.2618716431E+00    0.9984002769E-01    0.3497095946E-02    0.3693442061E+00    0.5341184131E+00
    0.1300000000E+05    0.2655153220E+00    0.9318661902E-01    0.3210236846E-02    0.3745791866E+00    0.5431852472E+00
    0.1500000000E+05    0.2681129727E+00    0.8788041408E-01    0.2986140973E-02    0.3783285344E+00    0.5506532149E+00
    0.1700000000E+05    0.2700437933E+00    0.8350764146E-01    0.2804890183E-02    0.3811288433E+00    0.5569570480E+00
    0.1900000000E+05    0.2715270846E+00    0.7981395272E-01    0.2654334443E-02    0.3832908456E+00    0.5623797137E+00
    0.2100000000E+05    0.2726973360E+00    0.7663342871E-01    0.2526626228E-02    0.3850053592E+00    0.5671149726E+00
    0.2300000000E+05    0.2736410648E+00    0.7385258397E-01    0.2416457115E-02    0.3863953097E+00    0.5713008753E+00
    0.2500000000E+05    0.2744161788E+00    0.7139075337E-01    0.2320097244E-02    0.3875430914E+00    0.5750389784E+00
    0.2700000000E+05    0.2750627503E+00    0.6918875303E-01    0.2234841637E-02    0.3885058057E+00    0.5784059870E+00
    0.2900000000E+05    0.2756093076E+00    0.6720199293E-01    0.2158675480E-02    0.3893241660E+00    0.5814611315E+00
    0.3100000000E+05    0.2760766634E+00    0.6539611541E-01    0.2090063430E-02    0.3900279204E+00    0.5842510177E+00
    0.3300000000E+05    0.2764803275E+00    0.6374413321E-01    0.2027812294E-02    0.3906392725E+00    0.5868129173E+00
    0.3500000000E+05    0.2768320750E+00    0.6222449300E-01    0.1970978792E-02    0.3911751067E+00    0.5891770619E+00
    0.3700000000E+05    0.2771409944E+00    0.6081972974E-01    0.1918805954E-02    0.3916484765E+00    0.5913682790E+00
    0.3900000000E+05    0.2774142042E+00    0.5951550952E-01    0.1870678220E-02    0.3920696225E+00    0.5934071846E+00
    0.4100000000E+05    0.2776573530E+00    0.5829993448E-01    0.1826089099E-02    0.3924466851E+00    0.5953110658E+00
    0.4300000000E+05    0.2778749767E+00    0.5716302877E-01    0.1784617431E-02    0.3927862119E+00    0.5970945479E+00
    0.4500000000E+05    0.2780707565E+00    0.5609635216E-01    0.1745909679E-02    0.3930935264E+00    0.5987701024E+00
    0.4700000000E+05    0.2782477095E+00    0.5509270516E-01    0.1709666522E-02    0.3933729989E+00    0.6003484423E+00
    0.4900000000E+05    0.2784083299E+00    0.5414590112E-01    0.1675632562E-02    0.3936282491E+00    0.6018388306E+00
    0.1000000000E+05    0.2594580608E+00    0.1038791981E+00    0.3674075642E-02    0.3658876175E+00    0.5287791783E+00
    0.3000000000E+05    0.2758518136E+00    0.6627827709E-01    0.2123506533E-02    0.3896888350E+00    0.5828867144E+00
    0.5000000000E+05    0.2784831790E+00    0.5369211412E-01    0.1659374225E-02    0.3937477554E+00    0.6025536023E+00
    0.7000000000E+05    0.2794830177E+00    0.4661250581E-01    0.1410129389E-02    0.3953917526E+00    0.6137315060E+00
    0.9000000000E+05    0.2799920096E+00    0.4187497098E-01    0.1247837754E-02    0.3962859435E+00    0.6212237732E+00
    0.1100000000E+06    0.2802929690E+00    0.3840297622E-01    0.1131126910E-02    0.3968519677E+00    0.6267122303E+00
    0.1300000000E+06    0.2804878337E+00    0.3571022502E-01    0.1041894087E-02    0.3972450648E+00    0.6309645294E+00
    0.1500000000E+06    0.2806218762E+00    0.3353908726E-01    0.9707627729E-03    0.3975356773E+00    0.6343891272E+00
    0.1700000000E+06    0.2807181131E+00    0.3173810959E-01    0.9123145805E-03    0.3977604056E+00    0.6372265808E+00
    0.1900000000E+06    0.2807894157E+00    0.3021143220E-01    0.8631666853E-03    0.3979401715E+00    0.6396292403E+00
    0.2100000000E+06    0.2808435106E+00    0.2889492788E-01    0.8210815409E-03    0.3980878163E+00    0.6416990233E+00
    0.2300000000E+06    0.2808852981E+00    0.2774380547E-01    0.7845111938E-03    0.3982116684E+00    0.6435070932E+00
    0.2500000000E+06    0.2809180251E+00    0.2672567680E-01    0.7523455718E-03    0.3983173723E+00    0.6451048815E+00
    0.2700000000E+06    0.2809439214E+00    0.2581644644E-01    0.7237648237E-03    0.3984088937E+00    0.6465306282E+00
    0.2900000000E+06    0.2809645648E+00    0.2499775686E-01    0.6981483668E-03    0.3984891036E+00    0.6478134483E+00
    0.3100000000E+06    0.2809810999E+00    0.2425533650E-01    0.6750165544E-03    0.3985601336E+00    0.6489759614E+00
    0.3300000000E+06    0.2809943751E+00    0.2357789590E-01    0.6539919672E-03    0.3986236015E+00    0.6500360489E+00
    0.3500000000E+06    0.2810050314E+00    0.2295636856E-01    0.6347729671E-03    0.3986807578E+00    0.6510080619E+00
    0.3700000000E+06    0.2810135606E+00    0.2238337599E-01    0.6171151696E-03    0.3987325860E+00    0.6519036722E+00
    0.3900000000E+06    0.2810203457E+00    0.2185284260E-01    0.6008181723E-03    0.3987798701E+00    0.6527324847E+00
    0.4100000000E+06    0.2810256890E+00    0.2135971296E-01    0.5857158642E-03    0.3988232437E+00    0.6535024866E+00
    0.4300000000E+06    0.2810298313E+00    0.2089974086E-01    0.5716692249E-03    0.3988632246E+00    0.6542203829E+00
    0.4500000000E+06    0.2810329668E+00    0.2046932950E-01    0.5585608916E-03    0.3989002405E+00    0.6548918501E+00
    0.4700000000E+06    0.2810352535E+00    0.2006540862E-01    0.5462910020E-03    0.3989346478E+00    0.6555217311E+00
    0.4900000000E+06    0.2810368207E+00    0.1968533908E-01    0.5347739730E-03    0.3989667464E+00    0.6561141866E+00
    0.1000000000E+06    0.2801600953E+00    0.4001885716E-01    0.1185212109E-02    0.3965972565E+00    0.6241584700E+00
    0.3000000000E+06    0.2809732872E+00    0.2461777829E-01    0.6862975078E-03    0.3985256550E+00    0.6484085308E+00
    0.5000000000E+06    0.2810373687E+00    0.1950352289E-01    0.5292743087E-03    0.3989820108E+00    0.6563975233E+00
    0.7000000000E+06    0.2810287613E+00    0.1669832688E-01    0.4452562691E-03    0.3992113822E+00    0.6607623723E+00
    0.9000000000E+06    0.2810046046E+00    0.1485712677E-01    0.3910163116E-03    0.3993578570E+00    0.6636202422E+00
    0.1100000000E+07    0.2809770600E+00    0.1352758817E-01    0.3523356538E-03    0.3994632441E+00    0.6656803521E+00
    0.1300000000E+07    0.2809496154E+00    0.1250841452E-01    0.3229809824E-03    0.3995446495E+00    0.6672574803E+00
    0.1500000000E+07    0.2809233682E+00    0.1169442122E-01    0.2997323582E-03    0.3996105450E+00    0.6685157849E+00
    0.1700000000E+07    0.2808986254E+00    0.1102451412E-01    0.2807369305E-03    0.3996656772E+00    0.6695504657E+00
    0.1900000000E+07    0.2808754082E+00    0.1046042805E-01    0.2648433146E-03    0.3997129462E+00    0.6704210734E+00
    0.2100000000E+07    0.2808536340E+00    0.9976798409E-02    0.2512934919E-03    0.3997542423E+00    0.6711670405E+00
    0.2300000000E+07    0.2808331868E+00    0.9556051124E-02    0.2395654193E-03    0.3997908599E+00    0.6718156631E+00
    0.2500000000E+07    0.2808139457E+00    0.9185569271E-02    0.2292863237E-03    0.3998237212E+00    0.6723865224E+00
    0.2700000000E+07    0.2807957962E+00    0.8856026398E-02    0.2201819941E-03    0.3998535051E+00    0.6728940827E+00
    0.2900000000E+07    0.2807786339E+00    0.8560357895E-02    0.2120456457E-03    0.3998807246E+00    0.6733492938E+00
    0.3100000000E+07    0.2807623658E+00    0.8293100286E-02    0.2047180160E-03    0.3999057761E+00    0.6737606190E+00
    0.3300000000E+07    0.2807469095E+00    0.8049952285E-02    0.1980741976E-03    0.3999289723E+00    0.6741347179E+00
    0.3500000000E+07    0.2807321921E+00    0.7827474645E-02    0.1920146699E-03    0.3999505635E+00    0.6744769132E+00
    0.3700000000E+07    0.2807181494E+00    0.7622879710E-02    0.1864590352E-03    0.3999707534E+00    0.6747915170E+00
    0.3900000000E+07    0.2807047245E+00    0.7433880593E-02    0.1813415436E-03    0.3999897096E+00    0.6750820657E+00
    0.4100000000E+07    0.2806918672E+00    0.7258580985E-02    0.1766078352E-03    0.4000075717E+00    0.6753514905E+00
    0.4300000000E+07    0.2806795329E+00    0.7095393243E-02    0.1722125253E-03    0.4000244572E+00    0.6756022447E+00
    0.4500000000E+07    0.2806676816E+00    0.6942976567E-02    0.1681173866E-03    0.4000404657E+00    0.6758363996E+00
    0.4700000000E+07    0.2806562778E+00    0.6800189676E-02    0.1642899622E-03    0.4000556826E+00    0.6760557177E+00
    0.4900000000E+07    0.2806452896E+00    0.6666054136E-02    0.1607024933E-03    0.4000701815E+00    0.6762617095E+00
    0.1000000000E+07    0.2809909481E+00    0.1414422417E-01    0.3702227826E-03    0.3994143187E+00    0.6647252568E+00
    0.3000000000E+07    0.2807703935E+00    0.8423469748E-02    0.2082892318E-03    0.3998935001E+00    0.6735599899E+00
    0.5000000000E+07    0.2806399423E+00    0.6601962186E-02    0.1589911419E-03    0.4000771820E+00    0.6763601224E+00
    0.7000000000E+07    0.2805491684E+00    0.5619250876E-02    0.1329897804E-03    0.4001913647E+00    0.6778679959E+00
    0.9000000000E+07    0.2804796324E+00    0.4980476044E-02    0.1163490647E-03    0.4002742100E+00    0.6788470161E+00
    0.1100000000E+08    0.2804232878E+00    0.4522254227E-02    0.1045530033E-03    0.4003392062E+00    0.6795487443E+00
    0.1300000000E+08    0.2803759280E+00    0.4172711990E-02    0.9564107953E-04    0.4003926757E+00    0.6800837077E+00
    0.1500000000E+08    0.2803350812E+00    0.3894601081E-02    0.8860773118E-04    0.4004380876E+00    0.6805091359E+00
    0.1700000000E+08    0.2802991721E+00    0.3666422496E-02    0.8287751168E-04    0.4004775504E+00    0.6808580375E+00
    0.1900000000E+08    0.2802671353E+00    0.3474778349E-02    0.7809442114E-04    0.4005124411E+00    0.6811509716E+00
    0.2100000000E+08    0.2802382167E+00    0.3310824423E-02    0.7402495198E-04    0.4005437081E+00    0.6814015031E+00
    0.2300000000E+08    0.2802118629E+00    0.3168454353E-02    0.7050879370E-04    0.4005720329E+00    0.6816189938E+00
    0.2500000000E+08    0.2801876558E+00    0.3043297369E-02    0.6743178463E-04    0.4005979211E+00    0.6818101426E+00
    0.2700000000E+08    0.2801652720E+00    0.2932131050E-02    0.6471014700E-04    0.4006217585E+00    0.6819798863E+00
