  Pressure (Pa) 22mC5-400 (mol/kg) 2mC6-400 (mol/kg) 33mC5-400 (mol/kg) 23mC5-400 (mol/kg) C7-400 (mol/kg)
    0.1000000000E+01    0.5307836970E-03    0.1587858361E-02    0.3232311000E-03    0.7455972674E-03    0.6831396411E-02
    0.3000000000E+01    0.1580550764E-02    0.4650276190E-02    0.9467791642E-03    0.2220227134E-02    0.2000519995E-01
    0.5000000000E+01    0.2614940968E-02    0.7570319990E-02    0.1541536164E-02    0.3673271711E-02    0.3256609517E-01
    0.7000000000E+01    0.3634368708E-02    0.1035757208E-01    0.2109443394E-02    0.5105312631E-02    0.4455710614E-01
    0.9000000000E+01    0.4639233177E-02    0.1302074706E-01    0.2652265953E-02    0.6516910184E-02    0.5601729454E-01
    0.1100000000E+02    0.5629919051E-02    0.1556778951E-01    0.3171612596E-02    0.7908604286E-02    0.6698220647E-01
    0.1300000000E+02    0.6606797147E-02    0.1800595858E-01    0.3668952956E-02    0.9280915405E-02    0.7748426006E-01
    0.1500000000E+02    0.7570225043E-02    0.2034190171E-01    0.4145632521E-02    0.1063434543E-01    0.8755308293E-01
    0.1700000000E+02    0.8520547670E-02    0.2258171889E-01    0.4602885703E-02    0.1196937849E-01    0.9721580678E-01
    0.1900000000E+02    0.9458097864E-02    0.2473101899E-01    0.5041847281E-02    0.1328648176E-01    0.1064973255E+00
    0.2100000000E+02    0.1038319690E-01    0.2679496912E-01    0.5463562447E-02    0.1458610617E-01    0.1154205218E+00
    0.2300000000E+02    0.1129615498E-01    0.2877833822E-01    0.5868995647E-02    0.1586868712E-01    0.1240064667E+00
    0.2500000000E+02    0.1219727173E-01    0.3068553546E-01    0.6259038391E-02    0.1713464515E-01    0.1322745962E+00
    0.2700000000E+02    0.1308683662E-01    0.3252064426E-01    0.6634516163E-02    0.1838438660E-01    0.1402428670E+00
    0.2900000000E+02    0.1396512943E-01    0.3428745248E-01    0.6996194551E-02    0.1961830412E-01    0.1479278950E+00
    0.3100000000E+02    0.1483242062E-01    0.3598947929E-01    0.7344784705E-02    0.2083677736E-01    0.1553450789E+00
    0.3300000000E+02    0.1568897174E-01    0.3762999913E-01    0.7680948196E-02    0.2204017343E-01    0.1625087098E+00
    0.3500000000E+02    0.1653503577E-01    0.3921206307E-01    0.8005301362E-02    0.2322884741E-01    0.1694320691E+00
    0.3700000000E+02    0.1737085750E-01    0.4073851803E-01    0.8318419198E-02    0.2440314292E-01    0.1761275170E+00
    0.3900000000E+02    0.1819667386E-01    0.4221202394E-01    0.8620838849E-02    0.2556339248E-01    0.1826065710E+00
    0.4100000000E+02    0.1901271420E-01    0.4363506926E-01    0.8913062745E-02    0.2670991805E-01    0.1888799765E+00
    0.4300000000E+02    0.1981920064E-01    0.4500998485E-01    0.9195561430E-02    0.2784303139E-01    0.1949577713E+00
    0.4500000000E+02    0.2061634831E-01    0.4633895663E-01    0.9468776118E-02    0.2896303446E-01    0.2008493427E+00
    0.4700000000E+02    0.2140436565E-01    0.4762403689E-01    0.9733120991E-02    0.3007021986E-01    0.2065634796E+00
    0.4900000000E+02    0.2218345469E-01    0.4886715463E-01    0.9988985297E-02    0.3116487113E-01    0.2121084198E+00
    0.1000000000E+02    0.5136324945E-02    0.1430831600E-01    0.2914778837E-02    0.7215212192E-02    0.6155956480E-01
    0.3000000000E+02    0.1440013368E-01    0.3514635344E-01    0.7172083201E-02    0.2022944805E-01    0.1516690495E+00
    0.5000000000E+02    0.2256971253E-01    0.4947354898E-01    0.1011385253E-01    0.3170758270E-01    0.2148198753E+00
    0.7000000000E+02    0.2987076780E-01    0.5978708059E-01    0.1224436619E-01    0.4196642501E-01    0.2618110649E+00
    0.9000000000E+02    0.3646887592E-01    0.6743699685E-01    0.1383587799E-01    0.5123839045E-01    0.2983167955E+00
    0.1100000000E+03    0.4248837492E-01    0.7322496511E-01    0.1504992116E-01    0.5969801402E-01    0.3276111035E+00
    0.1300000000E+03    0.4802454519E-01    0.7766052172E-01    0.1598913297E-01    0.6747904550E-01    0.3517195797E+00
    0.1500000000E+03    0.5315170525E-01    0.8108455874E-01    0.1672218903E-01    0.7468581191E-01    0.3719650382E+00
    0.1700000000E+03    0.5792873693E-01    0.8373441421E-01    0.1729692799E-01    0.8140097230E-01    0.3892494627E+00
    0.1900000000E+03    0.6240294501E-01    0.8578066795E-01    0.1774776227E-01    0.8769093503E-01    0.4042099864E+00
    0.2100000000E+03    0.6661280961E-01    0.8734913926E-01    0.1810010417E-01    0.9360972107E-01    0.4173100921E+00
    0.2300000000E+03    0.7058998567E-01    0.8853465159E-01    0.1837313352E-01    0.9920177049E-01    0.4288954338E+00
    0.2500000000E+03    0.7436077962E-01    0.8940997774E-01    0.1858159520E-01    0.1045040152E+00    0.4392293474E+00
    0.2700000000E+03    0.7794725643E-01    0.9003184078E-01    0.1873700470E-01    0.1095474330E+00    0.4485161955E+00
    0.2900000000E+03    0.8136808094E-01    0.9044505049E-01    0.1884847888E-01    0.1143582284E+00    0.4569171589E+00
    0.3100000000E+03    0.8463916520E-01    0.9068542196E-01    0.1892332217E-01    0.1189587415E+00    0.4645611859E+00
    0.3300000000E+03    0.8777417222E-01    0.9078187710E-01    0.1896744874E-01    0.1233681549E+00    0.4715527535E+00
    0.3500000000E+03    0.9078491209E-01    0.9075798515E-01    0.1898569195E-01    0.1276030500E+00    0.4779774757E+00
    0.3700000000E+03    0.9368165651E-01    0.9063310978E-01    0.1898203497E-01    0.1316778484E+00    0.4839062281E+00
    0.3900000000E+03    0.9647339076E-01    0.9042327552E-01    0.1895978500E-01    0.1356051657E+00    0.4893982280E+00
    0.4100000000E+03    0.9916801710E-01    0.9014183039E-01    0.1892170655E-01    0.1393960970E+00    0.4945033683E+00
    0.4300000000E+03    0.1017725204E+00    0.8979995855E-01    0.1887012472E-01    0.1430604495E+00    0.4992640078E+00
    0.4500000000E+03    0.1042931041E+00    0.8940708099E-01    0.1880700589E-01    0.1466069330E+00    0.5037163617E+00
    0.4700000000E+03    0.1067353018E+00    0.8897117176E-01    0.1873402152E-01    0.1500433172E+00    0.5078915923E+00
    0.4900000000E+03    0.1091040708E+00    0.8849900961E-01    0.1865259896E-01    0.1533765624E+00    0.5118166735E+00
    0.1000000000E+03    0.3954442578E-01    0.7052687423E-01    0.1448266017E-01    0.5556058448E-01    0.3137177063E+00
    0.3000000000E+03    0.8302143905E-01    0.9058489213E-01    0.1889008125E-01    0.1166835045E+00    0.4608267604E+00
    0.5000000000E+03    0.1102623303E+00    0.8825117574E-01    0.1860911286E-01    0.1550064889E+00    0.5136928652E+00
    0.7000000000E+03    0.1304522498E+00    0.8242123414E-01    0.1751653381E-01    0.1834254651E+00    0.5424504623E+00
    0.9000000000E+03    0.1464882694E+00    0.7626210602E-01    0.1629419472E-01    0.2060082544E+00    0.5610289130E+00
    0.1100000000E+04    0.1596879653E+00    0.7053139581E-01    0.1512056958E-01    0.2246050002E+00    0.5742331143E+00
    0.1300000000E+04    0.1707899463E+00    0.6539799795E-01    0.1404531161E-01    0.2402529479E+00    0.5842073152E+00
    0.1500000000E+04    0.1802659112E+00    0.6085817984E-01    0.1307733549E-01    0.2536145945E+00    0.5920675971E+00
    0.1700000000E+04    0.1884433903E+00    0.5685682386E-01    0.1221159825E-01    0.2651500217E+00    0.5984581594E+00
    0.1900000000E+04    0.1955626408E+00    0.5332752098E-01    0.1143853807E-01    0.2751967747E+00    0.6037796289E+00
    0.2100000000E+04    0.2018065562E+00    0.5020636911E-01    0.1074767271E-01    0.2840118518E+00    0.6082956334E+00
    0.2300000000E+04    0.2073180267E+00    0.4743636332E-01    0.1012899122E-01    0.2917960749E+00    0.6121875114E+00
    0.2500000000E+04    0.2122108309E+00    0.4496825750E-01    0.9573449378E-02    0.2987093804E+00    0.6155845356E+00
    0.2700000000E+04    0.2165768936E+00    0.4276012014E-01    0.9073087732E-02    0.3048810079E+00    0.6185816153E+00
    0.2900000000E+04    0.2204913500E+00    0.4077646625E-01    0.8620992459E-02    0.3104166103E+00    0.6212501717E+00
    0.3100000000E+04    0.2240162054E+00    0.3898731939E-01    0.8211195918E-02    0.3154033927E+00    0.6236450920E+00
    0.3300000000E+04    0.2272030528E+00    0.3736733995E-01    0.7838560487E-02    0.3199139281E+00    0.6258093260E+00
    0.3500000000E+04    0.2300951324E+00    0.3589506399E-01    0.7498664841E-02    0.3240090501E+00    0.6277770167E+00
    0.3700000000E+04    0.2327289190E+00    0.3455225832E-01    0.7187700450E-02    0.3277400826E+00    0.6295756835E+00
    0.3900000000E+04    0.2351353621E+00    0.3332338250E-01    0.6902380765E-02    0.3311505819E+00    0.6312277809E+00
    0.4100000000E+04    0.2373408656E+00    0.3219514361E-01    0.6639863110E-02    0.3342777130E+00    0.6327518321E+00
    0.4300000000E+04    0.2393680689E+00    0.3115612888E-01    0.6397682254E-02    0.3371533468E+00    0.6341632675E+00
    0.4500000000E+04    0.2412364747E+00    0.3019650306E-01    0.6173694241E-02    0.3398049431E+00    0.6354750560E+00
    0.4700000000E+04    0.2429629581E+00    0.2930775867E-01    0.5966029065E-02    0.3422562655E+00    0.6366981849E+00
    0.4900000000E+04    0.2445621813E+00    0.2848250976E-01    0.5773050816E-02    0.3445279649E+00    0.6378420315E+00
    0.1000000000E+04    0.1533880282E+00    0.7332612373E-01    0.1569669907E-01    0.2157281676E+00    0.5681341197E+00
    0.3000000000E+04    0.2222990360E+00    0.3985926234E-01    0.8411146031E-02    0.3129737629E+00    0.6224789145E+00
    0.5000000000E+04    0.2453181323E+00    0.2809165199E-01    0.5681613708E-02    0.3456021777E+00    0.6383867868E+00
    0.7000000000E+04    0.2561318481E+00    0.2241604338E-01    0.4355096099E-02    0.3610039280E+00    0.6465880098E+00
    0.9000000000E+04    0.2622343208E+00    0.1908273308E-01    0.3584237927E-02    0.3697404046E+00    0.6517569675E+00
    0.1100000000E+05    0.2660957138E+00    0.1687222474E-01    0.3081791425E-02    0.3752984536E+00    0.6553803631E+00
    0.1300000000E+05    0.2687358889E+00    0.1528407832E-01    0.2727725215E-02    0.3791200526E+00    0.6580944495E+00
    0.1500000000E+05    0.2706443120E+00    0.1407752663E-01    0.2463909676E-02    0.3818984122E+00    0.6602218489E+00
    0.1700000000E+05    0.2720825510E+00    0.1312277335E-01    0.2259006355E-02    0.3840046146E+00    0.6619454490E+00
    0.1900000000E+05    0.2732020980E+00    0.1234364658E-01    0.2094695961E-02    0.3856539560E+00    0.6633774932E+00
    0.2100000000E+05    0.2740963439E+00    0.1169241885E-01    0.1959572889E-02    0.3869793987E+00    0.6645911007E+00
    0.2300000000E+05    0.2748258011E+00    0.1113759254E-01    0.1846169066E-02    0.3880672520E+00    0.6656361708E+00
    0.2500000000E+05    0.2754313037E+00    0.1065748860E-01    0.1749389333E-02    0.3889758663E+00    0.6665480519E+00
    0.2700000000E+05    0.2759413529E+00    0.1023665972E-01    0.1665636691E-02    0.3897460450E+00    0.6673525628E+00
    0.2900000000E+05    0.2763764164E+00    0.9863774796E-02    0.1592297612E-02    0.3904071465E+00    0.6680690515E+00
    0.3100000000E+05    0.2767515548E+00    0.9530314936E-02    0.1527425900E-02    0.3909808150E+00    0.6687123351E+00
    0.3300000000E+05    0.2770780860E+00    0.9229738731E-02    0.1469541239E-02    0.3914833476E+00    0.6692939752E+00
    0.3500000000E+05    0.2773646728E+00    0.8956930413E-02    0.1417496681E-02    0.3919272424E+00    0.6698231401E+00
    0.3700000000E+05    0.2776180535E+00    0.8707824595E-02    0.1370389034E-02    0.3923222410E+00    0.6703072052E+00
    0.3900000000E+05    0.2778435458E+00    0.8479144719E-02    0.1327496778E-02    0.3926760456E+00    0.6707521781E+00
    0.4100000000E+05    0.2780453996E+00    0.8268216745E-02    0.1288236108E-02    0.3929948251E+00    0.6711630079E+00
    0.4300000000E+05    0.2782270513E+00    0.8072833842E-02    0.1252129204E-02    0.3932835769E+00    0.6715438124E+00
    0.4500000000E+05    0.2783913081E+00    0.7891156400E-02    0.1218780936E-02    0.3935463921E+00    0.6718980495E+00
    0.4700000000E+05    0.2785404852E+00    0.7721636978E-02    0.1187861490E-02    0.3937866515E+00    0.6722286462E+00
    0.4900000000E+05    0.2786765080E+00    0.7562963175E-02    0.1159093222E-02    0.3940071729E+00    0.6725380994E+00
    0.1000000000E+05    0.2643631251E+00    0.1787738497E-01    0.3309093174E-02    0.3728008057E+00    0.6537113906E+00
    0.3000000000E+05    0.2765706960E+00    0.9692564390E-02    0.1558904963E-02    0.3907037872E+00    0.6683990567E+00
    0.5000000000E+05    0.2787401015E+00    0.7487336474E-02    0.1145440755E-02    0.3941107866E+00    0.6726855791E+00
    0.7000000000E+05    0.2796037588E+00    0.6341373975E-02    0.9432440619E-03    0.3955624364E+00    0.6749157054E+00
    0.9000000000E+05    0.2800554331E+00    0.5607760259E-02    0.8184065107E-03    0.3963756153E+00    0.6763335498E+00
    0.1100000000E+06    0.2803272985E+00    0.5085625249E-02    0.7317292130E-03    0.3969004940E+00    0.6773349571E+00
    0.1300000000E+06    0.2805055862E+00    0.4689162376E-02    0.6671138350E-03    0.3972701341E+00    0.6780899337E+00
    0.1500000000E+06    0.2806294177E+00    0.4374648235E-02    0.6165890149E-03    0.3975462894E+00    0.6786850516E+00
    0.1700000000E+06    0.2807190055E+00    0.4117117626E-02    0.5757025083E-03    0.3977615977E+00    0.6791695980E+00
    0.1900000000E+06    0.2807857967E+00    0.3901127072E-02    0.5417483437E-03    0.3979349682E+00    0.6795739477E+00
    0.2100000000E+06    0.2808367343E+00    0.3716535921E-02    0.5129753794E-03    0.3980781340E+00    0.6799179652E+00
    0.2300000000E+06    0.2808762594E+00    0.3556370283E-02    0.4881940331E-03    0.3981987742E+00    0.6802152569E+00
    0.2500000000E+06    0.2809073364E+00    0.3415653508E-02    0.4665643255E-03    0.3983021333E+00    0.6804754944E+00
    0.2700000000E+06    0.2809320134E+00    0.3290725174E-02    0.4474741049E-03    0.3983919202E+00    0.6807057648E+00
    0.2900000000E+06    0.2809517478E+00    0.3178824222E-02    0.4304653718E-03    0.3984708353E+00    0.6809113951E+00
    0.3100000000E+06    0.2809676019E+00    0.3077823035E-02    0.4151877603E-03    0.3985408938E+00    0.6810964763E+00
    0.3300000000E+06    0.2809803665E+00    0.2986051800E-02    0.4013680908E-03    0.3986036317E+00    0.6812642089E+00
    0.3500000000E+06    0.2809906412E+00    0.2902178997E-02    0.3887898226E-03    0.3986602414E+00    0.6814171376E+00
    0.3700000000E+06    0.2809988879E+00    0.2825127975E-02    0.3772788147E-03    0.3987116634E+00    0.6815573140E+00
    0.3900000000E+06    0.2810054674E+00    0.2754017392E-02    0.3666932285E-03    0.3987586506E+00    0.6816864132E+00
    0.4100000000E+06    0.2810106650E+00    0.2688117837E-02    0.3569162201E-03    0.3988018126E+00    0.6818058179E+00
    0.4300000000E+06    0.2810147092E+00    0.2626819695E-02    0.3478505549E-03    0.3988416494E+00    0.6819166811E+00
    0.4500000000E+06    0.2810177841E+00    0.2569608947E-02    0.3394145754E-03    0.3988785745E+00    0.6820199726E+00
    0.4700000000E+06    0.2810200401E+00    0.2516048696E-02    0.3315391367E-03    0.3989129339E+00    0.6821165151E+00
    0.4900000000E+06    0.2810216007E+00    0.2465764885E-02    0.3241652479E-03    0.3989450186E+00    0.6822070115E+00
    0.1000000000E+06    0.2802067809E+00    0.5327058134E-02    0.7715846849E-03    0.3966632600E+00    0.6768728377E+00
    0.3000000000E+06    0.2809601052E+00    0.3127074636E-02    0.4226287802E-03    0.3985068662E+00    0.6810062866E+00
    0.5000000000E+06    0.2810221528E+00    0.2441749132E-02    0.3206502659E-03    0.3989602868E+00    0.6822501846E+00
    0.7000000000E+06    0.2810141397E+00    0.2074352351E-02    0.2674450831E-03    0.3991904650E+00    0.6829066761E+00
    0.9000000000E+06    0.2809908204E+00    0.1836345010E-02    0.2335782379E-03    0.3993381005E+00    0.6833278496E+00
    0.1100000000E+07    0.2809640509E+00    0.1665984653E-02    0.2096513398E-03    0.3994445656E+00    0.6836272474E+00
    0.1300000000E+07    0.2809372808E+00    0.1536233290E-02    0.1916162684E-03    0.3995269097E+00    0.6838540841E+00
    0.1500000000E+07    0.2809116157E+00    0.1433120794E-02    0.1774071726E-03    0.3995936153E+00    0.6840335955E+00
    0.1700000000E+07    0.2808873775E+00    0.1348601639E-02    0.1658460589E-03    0.3996494496E+00    0.6841802288E+00
    0.1900000000E+07    0.2808646017E+00    0.1277670515E-02    0.1562061202E-03    0.3996973325E+00    0.6843029278E+00
    0.2100000000E+07    0.2808432170E+00    0.1217027854E-02    0.1480116357E-03    0.3997391700E+00    0.6844075646E+00
    0.2300000000E+07    0.2808231165E+00    0.1164398103E-02    0.1409365670E-03    0.3997762691E+00    0.6844981743E+00
    0.2500000000E+07    0.2808041865E+00    0.1118154049E-02    0.1347490632E-03    0.3998095620E+00    0.6845776338E+00
    0.2700000000E+07    0.2807863179E+00    0.1077097001E-02    0.1292791850E-03    0.3998397356E+00    0.6846480564E+00
    0.2900000000E+07    0.2807694110E+00    0.1040321723E-02    0.1243991822E-03    0.3998673089E+00    0.6847110344E+00
    0.3100000000E+07    0.2807533765E+00    0.1007130034E-02    0.1200109369E-03    0.3998926838E+00    0.6847677930E+00
    0.3300000000E+07    0.2807381347E+00    0.9769735970E-03    0.1160376882E-03    0.3999161768E+00    0.6848192928E+00
    0.3500000000E+07    0.2807236154E+00    0.9494149308E-03    0.1124184137E-03    0.3999380419E+00    0.6848662985E+00
    0.3700000000E+07    0.2807097562E+00    0.9241001423E-03    0.1091039166E-03    0.3999584853E+00    0.6849094279E+00
    0.3900000000E+07    0.2806965021E+00    0.9007394405E-03    0.1060540386E-03    0.3999776772E+00    0.6849491860E+00
    0.4100000000E+07    0.2806838043E+00    0.8790929297E-03    0.1032356345E-03    0.3999957592E+00    0.6849859903E+00
    0.4300000000E+07    0.2806716192E+00    0.8589600737E-03    0.1006210752E-03    0.4000128504E+00    0.6850201893E+00
    0.4500000000E+07    0.2806599081E+00    0.8401717581E-03    0.9818712301E-04    0.4000290520E+00    0.6850520766E+00
    0.4700000000E+07    0.2806486364E+00    0.8225842260E-03    0.9591407448E-04    0.4000444505E+00    0.6850819014E+00
    0.4900000000E+07    0.2806377728E+00    0.8060743869E-03    0.9378509960E-04    0.4000591206E+00    0.6851098770E+00
    0.1000000000E+07    0.2809775636E+00    0.1744841911E-02    0.2206928338E-03    0.3993951179E+00    0.6834888791E+00
    0.3000000000E+07    0.2807612899E+00    0.1023315186E-02    0.1221488120E-03    0.3998802497E+00    0.6847401258E+00
    0.5000000000E+07    0.2806324852E+00    0.7981898670E-03    0.9277003665E-04    0.4000662032E+00    0.6851232296E+00
    0.7000000000E+07    0.2805426432E+00    0.6776305640E-03    0.7739019606E-04    0.4001816614E+00    0.6853267823E+00
    0.9000000000E+07    0.2804737295E+00    0.5995986114E-03    0.6758908808E-04    0.4002653519E+00    0.6854578875E+00
    0.1100000000E+08    0.2804178397E+00    0.5437833469E-03    0.6066127187E-04    0.4003309615E+00    0.6855513360E+00
    0.1300000000E+08    0.2803708320E+00    0.5012959227E-03    0.5543827818E-04    0.4003849022E+00    0.6856222769E+00
    0.1500000000E+08    0.2803302687E+00    0.4675463861E-03    0.5132294845E-04    0.4004306910E+00    0.6856785035E+00
    0.1700000000E+08    0.2802945945E+00    0.4398927701E-03    0.4797447972E-04    0.4004704641E+00    0.6857244889E+00
    0.1900000000E+08    0.2802627568E+00    0.4166922262E-03    0.4518248855E-04    0.4005056159E+00    0.6857630077E+00
    0.2100000000E+08    0.2802340097E+00    0.3968622173E-03    0.4280922370E-04    0.4005371066E+00    0.6857958845E+00
    0.2300000000E+08    0.2802078059E+00    0.3796564454E-03    0.4076025463E-04    0.4005656258E+00    0.6858243751E+00
    0.2500000000E+08    0.2801837316E+00    0.3645414198E-03    0.3896841994E-04    0.4005916848E+00    0.6858493756E+00
    0.2700000000E+08    0.2801614663E+00    0.3511242571E-03    0.3738448741E-04    0.4006156739E+00    0.6858715454E+00
