  Pressure (Pa) 22mC5-400 (mol/kg) 2mC6-400 (mol/kg) 33mC5-400 (mol/kg) 23mC5-400 (mol/kg) C7-400 (mol/kg)
    0.1000000000E+01    0.5279242122E-03    0.7903793107E-02    0.2574159777E-03    0.2780933081E-03    0.3406964184E-02
    0.3000000000E+01    0.1555672391E-02    0.2294860972E-01    0.7474486636E-03    0.8194853329E-03    0.9928994249E-02
    0.5000000000E+01    0.2548088171E-02    0.3705344093E-01    0.1206920682E-02    0.1342274956E-02    0.1609127010E-01
    0.7000000000E+01    0.3507524625E-02    0.5030122604E-01    0.1638528777E-02    0.1847700920E-02    0.2192542339E-01
    0.9000000000E+01    0.4436121356E-02    0.6276543688E-01    0.2044661781E-02    0.2336889597E-02    0.2745941322E-01
    0.1100000000E+02    0.5335828563E-02    0.7451139477E-01    0.2427443465E-02    0.2810867657E-02    0.3271804768E-01
    0.1300000000E+02    0.6208427894E-02    0.8559737289E-01    0.2788768390E-02    0.3270573043E-02    0.3772341868E-01
    0.1500000000E+02    0.7055550577E-02    0.9607552389E-01    0.3130332086E-02    0.3716864518E-02    0.4249526653E-01
    0.1700000000E+02    0.7878693246E-02    0.1059926643E+00    0.3453656562E-02    0.4150529991E-02    0.4705128709E-01
    0.1900000000E+02    0.8679231792E-02    0.1153909409E+00    0.3760111986E-02    0.4572293810E-02    0.5140739183E-01
    0.2100000000E+02    0.9458433518E-02    0.1243083997E+00    0.4050935179E-02    0.4982823163E-02    0.5557792908E-01
    0.2300000000E+02    0.1021746785E-01    0.1327794730E+00    0.4327245471E-02    0.5382733711E-02    0.5957587297E-01
    0.2500000000E+02    0.1095741578E-01    0.1408353990E+00    0.4590058335E-02    0.5772594563E-02    0.6341298559E-01
    0.2700000000E+02    0.1167927825E-01    0.1485045838E+00    0.4840297167E-02    0.6152932685E-02    0.6709995652E-01
    0.2900000000E+02    0.1238398356E-01    0.1558129156E+00    0.5078803490E-02    0.6524236801E-02    0.7064652352E-01
    0.3100000000E+02    0.1307239397E-01    0.1627840369E+00    0.5306345834E-02    0.6886960878E-02    0.7406157720E-01
    0.3300000000E+02    0.1374531162E-01    0.1694395836E+00    0.5523627477E-02    0.7241527223E-02    0.7735325205E-01
    0.3500000000E+02    0.1440348376E-01    0.1757993928E+00    0.5731293227E-02    0.7588329254E-02    0.8052900599E-01
    0.3700000000E+02    0.1504760749E-01    0.1818816859E+00    0.5929935365E-02    0.7927733984E-02    0.8359569004E-01
    0.3900000000E+02    0.1567833398E-01    0.1877032297E+00    0.6120098885E-02    0.8260084247E-02    0.8655960945E-01
    0.4100000000E+02    0.1629627227E-01    0.1932794785E+00    0.6302286114E-02    0.8585700703E-02    0.8942657760E-01
    0.4300000000E+02    0.1690199273E-01    0.1986246999E+00    0.6476960804E-02    0.8904883642E-02    0.9220196362E-01
    0.4500000000E+02    0.1749603012E-01    0.2037520864E+00    0.6644551755E-02    0.9217914617E-02    0.9489073448E-01
    0.4700000000E+02    0.1807888639E-01    0.2086738544E+00    0.6805456044E-02    0.9525057913E-02    0.9749749243E-01
    0.4900000000E+02    0.1865103327E-01    0.2134013331E+00    0.6960041901E-02    0.9826561887E-02    0.1000265083E+00
    0.1000000000E+02    0.4889471071E-02    0.6872440182E-01    0.2238848134E-02    0.2575719371E-02    0.3012171005E-01
    0.3000000000E+02    0.1273017415E-01    0.1593392309E+00    0.5193899759E-02    0.6706644242E-02    0.7236996438E-01
    0.5000000000E+02    0.1893323039E-01    0.2156955312E+00    0.7035073237E-02    0.9975272684E-02    0.1012631143E+00
    0.7000000000E+02    0.2410991389E-01    0.2535724093E+00    0.8275264312E-02    0.1270343493E-01    0.1227428702E+00
    0.9000000000E+02    0.2859004698E-01    0.2803945947E+00    0.9155797821E-02    0.1506478886E-01    0.1396246759E+00
    0.1100000000E+03    0.3256933279E-01    0.3001082783E+00    0.9804939002E-02    0.1716238095E-01    0.1534268905E+00
    0.1300000000E+03    0.3617234165E-01    0.3150000369E+00    0.1029701620E-01    0.1906180582E-01    0.1650466697E+00
    0.1500000000E+03    0.3948277264E-01    0.3264834032E+00    0.1067798489E-01    0.2080713836E-01    0.1750514990E+00
    0.1700000000E+03    0.4255933177E-01    0.3354774139E+00    0.1097772987E-01    0.2242929350E-01    0.1838198251E+00
    0.1900000000E+03    0.4544465934E-01    0.3426042785E+00    0.1121648891E-01    0.2395072655E-01    0.1916149196E+00
    0.2100000000E+03    0.4817063696E-01    0.3482994757E+00    0.1140843052E-01    0.2538822760E-01    0.1986263692E+00
    0.2300000000E+03    0.5076169100E-01    0.3528763745E+00    0.1156375390E-01    0.2675466085E-01    0.2049946849E+00
    0.2500000000E+03    0.5323692973E-01    0.3565658493E+00    0.1168997634E-01    0.2806008995E-01    0.2108265708E+00
    0.2700000000E+03    0.5561157226E-01    0.3595414751E+00    0.1179275200E-01    0.2931253047E-01    0.2162047648E+00
    0.2900000000E+03    0.5789793139E-01    0.3619360620E+00    0.1187640936E-01    0.3051846741E-01    0.2211945904E+00
    0.3100000000E+03    0.6010610661E-01    0.3638528068E+00    0.1194431361E-01    0.3168322016E-01    0.2258484418E+00
    0.3300000000E+03    0.6224448344E-01    0.3653729943E+00    0.1199911705E-01    0.3281120544E-01    0.2302089315E+00
    0.3500000000E+03    0.6432010023E-01    0.3665614298E+00    0.1204293564E-01    0.3390613049E-01    0.2343111466E+00
    0.3700000000E+03    0.6633892233E-01    0.3674703426E+00    0.1207747600E-01    0.3497113739E-01    0.2381842981E+00
    0.3900000000E+03    0.6830605009E-01    0.3681422392E+00    0.1210412810E-01    0.3600891268E-01    0.2418529467E+00
    0.4100000000E+03    0.7022587902E-01    0.3686120195E+00    0.1212403414E-01    0.3702177163E-01    0.2453379289E+00
    0.4300000000E+03    0.7210222456E-01    0.3689085682E+00    0.1213814033E-01    0.3801172403E-01    0.2486570655E+00
    0.4500000000E+03    0.7393842051E-01    0.3690559670E+00    0.1214723627E-01    0.3898052596E-01    0.2518257110E+00
    0.4700000000E+03    0.7573739737E-01    0.3690744278E+00    0.1215198537E-01    0.3992972107E-01    0.2548571846E+00
    0.4900000000E+03    0.7750174548E-01    0.3689810189E+00    0.1215294849E-01    0.4086067388E-01    0.2577631120E+00
    0.1000000000E+03    0.3063329508E-01    0.2909702644E+00    0.9503775187E-02    0.1614181572E-01    0.1468445743E+00
    0.3000000000E+03    0.5901123256E-01    0.3629486434E+00    0.1191215051E-01    0.3110569715E-01    0.2235606503E+00
    0.5000000000E+03    0.7837166302E-01    0.3688969806E+00    0.1215216217E-01    0.4131969356E-01    0.2591722342E+00
    0.7000000000E+03    0.9439685105E-01    0.3639186205E+00    0.1202260781E-01    0.4977669946E-01    0.2826947121E+00
    0.9000000000E+03    0.1085375528E+00    0.3560616578E+00    0.1178933919E-01    0.5724093718E-01    0.3003623824E+00
    0.1100000000E+04    0.1213986603E+00    0.3474513712E+00    0.1152402244E-01    0.6403105765E-01    0.3145461491E+00
    0.1300000000E+04    0.1332959470E+00    0.3388035285E+00    0.1125163932E-01    0.7031340265E-01    0.3264065161E+00
    0.1500000000E+04    0.1444177442E+00    0.3303863599E+00    0.1098212319E-01    0.7618717428E-01    0.3366009377E+00
    0.1700000000E+04    0.1548869593E+00    0.3223006797E+00    0.1071965218E-01    0.8171710742E-01    0.3455393835E+00
    0.1900000000E+04    0.1647893083E+00    0.3145782152E+00    0.1046595033E-01    0.8694834353E-01    0.3534954655E+00
    0.2100000000E+04    0.1741877611E+00    0.3072206463E+00    0.1022161935E-01    0.9191404147E-01    0.3606612774E+00
    0.2300000000E+04    0.1831305874E+00    0.3002164642E+00    0.9986726403E-02    0.9663961654E-01    0.3671770758E+00
    0.2500000000E+04    0.1916561353E+00    0.2935486734E+00    0.9761080720E-02    0.1011452579E+00    0.3731485224E+00
    0.2700000000E+04    0.1997958133E+00    0.2871984283E+00    0.9544370015E-02    0.1054475002E+00    0.3786572753E+00
    0.2900000000E+04    0.2075760276E+00    0.2811467670E+00    0.9336229728E-02    0.1095602436E+00    0.3837677959E+00
    0.3100000000E+04    0.2150194803E+00    0.2753754193E+00    0.9136278767E-02    0.1134954381E+00    0.3885318921E+00
    0.3300000000E+04    0.2221460642E+00    0.2698671549E+00    0.8944137920E-02    0.1172635549E+00    0.3929918463E+00
    0.3500000000E+04    0.2289734912E+00    0.2646058992E+00    0.8759439109E-02    0.1208739175E+00    0.3971826290E+00
    0.3700000000E+04    0.2355177443E+00    0.2595767356E+00    0.8581829739E-02    0.1243349393E+00    0.4011335019E+00
    0.3900000000E+04    0.2417934063E+00    0.2547658525E+00    0.8410974401E-02    0.1276542973E+00    0.4048692019E+00
    0.4100000000E+04    0.2478139037E+00    0.2501604672E+00    0.8246555176E-02    0.1308390603E+00    0.4084108327E+00
    0.4300000000E+04    0.2535916894E+00    0.2457487428E+00    0.8088271208E-02    0.1338957848E+00    0.4117765458E+00
    0.4500000000E+04    0.2591383816E+00    0.2415197065E+00    0.7935837934E-02    0.1368305887E+00    0.4149820685E+00
    0.4700000000E+04    0.2644648718E+00    0.2374631720E+00    0.7788986165E-02    0.1396492074E+00    0.4180411184E+00
    0.4900000000E+04    0.2695814079E+00    0.2335696693E+00    0.7647461142E-02    0.1423570383E+00    0.4209657331E+00
    0.1000000000E+04    0.1151042080E+00    0.3517898038E+00    0.1165858601E-01    0.6070769944E-01    0.3078006946E+00
    0.3000000000E+04    0.2113385484E+00    0.2782271573E+00    0.9235254467E-02    0.1115493498E+00    0.3861903107E+00
    0.5000000000E+04    0.2720639865E+00    0.2316812755E+00    0.7578620265E-02    0.1436710113E+00    0.4223809955E+00
    0.7000000000E+04    0.3127866068E+00    0.2006228804E+00    0.6429166898E-02    0.1652371118E+00    0.4456564831E+00
    0.9000000000E+04    0.3408776381E+00    0.1787509547E+00    0.5603828218E-02    0.1801319981E+00    0.4625878774E+00
    0.1100000000E+05    0.3608140202E+00    0.1626454835E+00    0.4991511543E-02    0.1907169099E+00    0.4757601968E+00
    0.1300000000E+05    0.3753677179E+00    0.1503263214E+00    0.4523175144E-02    0.1984548820E+00    0.4864568749E+00
    0.1500000000E+05    0.3862760644E+00    0.1405944464E+00    0.4155012858E-02    0.2042634316E+00    0.4954069996E+00
    0.1700000000E+05    0.3946494570E+00    0.1326948524E+00    0.3858548496E-02    0.2087293048E+00    0.5030634445E+00
    0.1900000000E+05    0.4012146645E+00    0.1261346750E+00    0.3614778405E-02    0.2122367366E+00    0.5097261218E+00
    0.2100000000E+05    0.4064593459E+00    0.1205813592E+00    0.3410682638E-02    0.2150436802E+00    0.5156034921E+00
    0.2300000000E+05    0.4107187491E+00    0.1158036843E+00    0.3237114225E-02    0.2173275599E+00    0.5208460521E+00
    0.2500000000E+05    0.4142286633E+00    0.1116364866E+00    0.3087495417E-02    0.2192132272E+00    0.5255658260E+00
    0.2700000000E+05    0.4171584579E+00    0.1079588973E+00    0.2956993783E-02    0.2207904111E+00    0.5298483291E+00
    0.2900000000E+05    0.4196321622E+00    0.1046805263E+00    0.2841989309E-02    0.2221248546E+00    0.5337602362E+00
    0.3100000000E+05    0.4217422144E+00    0.1017324532E+00    0.2739721873E-02    0.2232655821E+00    0.5373544774E+00
    0.3300000000E+05    0.4235586196E+00    0.9906120554E-01    0.2648053000E-02    0.2242497412E+00    0.5406737296E+00
    0.3500000000E+05    0.4251351729E+00    0.9662464294E-01    0.2565301587E-02    0.2251058936E+00    0.5437528710E+00
    0.3700000000E+05    0.4265137659E+00    0.9438908494E-01    0.2490128510E-02    0.2258562940E+00    0.5466207479E+00
    0.3900000000E+05    0.4277274196E+00    0.9232726802E-01    0.2421454146E-02    0.2265184948E+00    0.5493014710E+00
    0.4100000000E+05    0.4288024538E+00    0.9041686739E-01    0.2358398481E-02    0.2271064947E+00    0.5518153834E+00
    0.4300000000E+05    0.4297600625E+00    0.8863940999E-01    0.2300236965E-02    0.2276315731E+00    0.5541797954E+00
    0.4500000000E+05    0.4306174734E+00    0.8697946360E-01    0.2246367531E-02    0.2281029043E+00    0.5564095498E+00
    0.4700000000E+05    0.4313888119E+00    0.8542402342E-01    0.2196285635E-02    0.2285280152E+00    0.5585174619E+00
    0.4900000000E+05    0.4320857532E+00    0.8396204254E-01    0.2149565150E-02    0.2289131312E+00    0.5605146674E+00
    0.1000000000E+05    0.3516613858E+00    0.1701250145E+00    0.5276102698E-02    0.1858556706E+00    0.4695456093E+00
    0.3000000000E+05    0.4207278280E+00    0.1031688511E+00    0.2789409473E-02    0.2227168773E+00    0.5355941902E+00
    0.5000000000E+05    0.4324094283E+00    0.8326309128E-01    0.2127350006E-02    0.2290923467E+00    0.5614748448E+00
    0.7000000000E+05    0.4366556443E+00    0.7247674794E-01    0.1794524497E-02    0.2314736390E+00    0.5766924752E+00
    0.9000000000E+05    0.4387552256E+00    0.6533895913E-01    0.1584470181E-02    0.2326870086E+00    0.5871119483E+00
    0.1100000000E+06    0.4399792651E+00    0.6012203276E-01    0.1435851086E-02    0.2334173115E+00    0.5948611105E+00
    0.1300000000E+06    0.4407697139E+00    0.5607402639E-01    0.1323249618E-02    0.2339047901E+00    0.6009346002E+00
    0.1500000000E+06    0.4413168886E+00    0.5280438376E-01    0.1233959962E-02    0.2342538804E+00    0.6058711157E+00
    0.1700000000E+06    0.4417151417E+00    0.5008600817E-01    0.1160814914E-02    0.2345168738E+00    0.6099923872E+00
    0.1900000000E+06    0.4420161788E+00    0.4777603590E-01    0.1099415060E-02    0.2347227221E+00    0.6135045215E+00
    0.2100000000E+06    0.4422505416E+00    0.4577920763E-01    0.1046885834E-02    0.2348887087E+00    0.6165467334E+00
    0.2300000000E+06    0.4424373541E+00    0.4402909065E-01    0.1001256444E-02    0.2350257742E+00    0.6192170359E+00
    0.2500000000E+06    0.4425891631E+00    0.4247767109E-01    0.9611231105E-03    0.2351411760E+00    0.6215867787E+00
    0.2700000000E+06    0.4427145204E+00    0.4108922145E-01    0.9254543632E-03    0.2352399168E+00    0.6237093496E+00
    0.2900000000E+06    0.4428194434E+00    0.3983650441E-01    0.8934724910E-03    0.2353255571E+00    0.6256256288E+00
    0.3100000000E+06    0.4429082817E+00    0.3869832536E-01    0.8645782142E-03    0.2354007002E+00    0.6273675387E+00
    0.3300000000E+06    0.4429842527E+00    0.3765789956E-01    0.8383010741E-03    0.2354672945E+00    0.6289604325E+00
    0.3500000000E+06    0.4430497842E+00    0.3670173068E-01    0.8142657489E-03    0.2355268274E+00    0.6304247440E+00
    0.3700000000E+06    0.4431067409E+00    0.3581882086E-01    0.7921685742E-03    0.2355804549E+00    0.6317771566E+00
    0.3900000000E+06    0.4431565768E+00    0.3500010210E-01    0.7717607971E-03    0.2356290893E+00    0.6330314487E+00
    0.4100000000E+06    0.4432004416E+00    0.3423801884E-01    0.7528363906E-03    0.2356734603E+00    0.6341991164E+00
    0.4300000000E+06    0.4432392555E+00    0.3352621641E-01    0.7352230270E-03    0.2357141593E+00    0.6352898400E+00
    0.4500000000E+06    0.4432737631E+00    0.3285930475E-01    0.7187752827E-03    0.2357516704E+00    0.6363118382E+00
    0.4700000000E+06    0.4433045729E+00    0.3223267687E-01    0.7033694513E-03    0.2357863943E+00    0.6372721421E+00
    0.4900000000E+06    0.4433321871E+00    0.3164236757E-01    0.6888995310E-03    0.2358186652E+00    0.6381768075E+00
    0.1000000000E+06    0.4394399734E+00    0.6254966670E-01    0.1504508032E-02    0.2330926315E+00    0.5912429929E+00
    0.3000000000E+06    0.4428656503E+00    0.3925423493E-01    0.8786713707E-03    0.2353643064E+00    0.6265166635E+00
    0.5000000000E+06    0.4433449290E+00    0.3135974086E-01    0.6819864661E-03    0.2358339705E+00    0.6386099438E+00
    0.7000000000E+06    0.4435040540E+00    0.2697906034E-01    0.5760754391E-03    0.2360609560E+00    0.6453227480E+00
    0.9000000000E+06    0.4435711313E+00    0.2408232710E-01    0.5073555450E-03    0.2362032743E+00    0.6497594758E+00
    0.1100000000E+07    0.4436012971E+00    0.2197948368E-01    0.4581556833E-03    0.2363046214E+00    0.6529784605E+00
    0.1300000000E+07    0.4436138680E+00    0.2036103025E-01    0.4207006193E-03    0.2363824042E+00    0.6554546646E+00
    0.1500000000E+07    0.4436171360E+00    0.1906427227E-01    0.3909600795E-03    0.2364450968E+00    0.6574377603E+00
    0.1700000000E+07    0.4436151529E+00    0.1799426049E-01    0.3666078540E-03    0.2364973903E+00    0.6590734271E+00
    0.1900000000E+07    0.4436100839E+00    0.1709129156E-01    0.3461945374E-03    0.2365421263E+00    0.6604532409E+00
    0.2100000000E+07    0.4436031640E+00    0.1631565926E-01    0.3287636574E-03    0.2365811438E+00    0.6616380867E+00
    0.2300000000E+07    0.4435951323E+00    0.1563977473E-01    0.3136551186E-03    0.2366156962E+00    0.6626702559E+00
    0.2500000000E+07    0.4435864477E+00    0.1504378217E-01    0.3003966881E-03    0.2366466725E+00    0.6635801770E+00
    0.2700000000E+07    0.4435774035E+00    0.1451297219E-01    0.2886404079E-03    0.2366747248E+00    0.6643903853E+00
    0.2900000000E+07    0.4435681903E+00    0.1403618107E-01    0.2781234806E-03    0.2367003445E+00    0.6651179796E+00
    0.3100000000E+07    0.4435589342E+00    0.1360476025E-01    0.2686432223E-03    0.2367239106E+00    0.6657762030E+00
    0.3300000000E+07    0.4435497189E+00    0.1321189013E-01    0.2600404690E-03    0.2367457212E+00    0.6663754957E+00
    0.3500000000E+07    0.4435406002E+00    0.1285211005E-01    0.2521882577E-03    0.2367660149E+00    0.6669242155E+00
    0.3700000000E+07    0.4435316146E+00    0.1252098809E-01    0.2449839101E-03    0.2367849850E+00    0.6674291444E+00
    0.3900000000E+07    0.4435227860E+00    0.1221488407E-01    0.2383433713E-03    0.2368027909E+00    0.6678958516E+00
    0.4100000000E+07    0.4435141289E+00    0.1193077614E-01    0.2321970823E-03    0.2368195649E+00    0.6683289595E+00
    0.4300000000E+07    0.4435056517E+00    0.1166613172E-01    0.2264869180E-03    0.2368354183E+00    0.6687323414E+00
    0.4500000000E+07    0.4434973584E+00    0.1141880989E-01    0.2211638801E-03    0.2368504456E+00    0.6691092712E+00
    0.4700000000E+07    0.4434892499E+00    0.1118698668E-01    0.2161863346E-03    0.2368647274E+00    0.6694625374E+00
    0.4900000000E+07    0.4434813248E+00    0.1096909706E-01    0.2115186481E-03    0.2368783333E+00    0.6697945325E+00
    0.1000000000E+07    0.4435892240E+00    0.2295595543E-01    0.4809283519E-03    0.2362576700E+00    0.6514839174E+00
    0.3000000000E+07    0.4435635616E+00    0.1381526213E-01    0.2732645827E-03    0.2367123640E+00    0.6654550542E+00
    0.5000000000E+07    0.4434774303E+00    0.1086494767E-01    0.2092912397E-03    0.2368849019E+00    0.6699532101E+00
    0.7000000000E+07    0.4434081401E+00    0.9264909666E-02    0.1753881978E-03    0.2369919924E+00    0.6723898525E+00
    0.9000000000E+07    0.4433519151E+00    0.8221689753E-02    0.1536288936E-03    0.2370696511E+00    0.6739773621E+00
    0.1100000000E+08    0.4433049081E+00    0.7471788408E-02    0.1381744189E-03    0.2371305638E+00    0.6751179077E+00
    0.1300000000E+08    0.4432646078E+00    0.6898869404E-02    0.1264816859E-03    0.2371806675E+00    0.6759889151E+00
    0.1500000000E+08    0.4432293708E+00    0.6442486121E-02    0.1172432734E-03    0.2372232179E+00    0.6766825202E+00
    0.1700000000E+08    0.4431980804E+00    0.6067681177E-02    0.1097096448E-03    0.2372601923E+00    0.6772519833E+00
    0.1900000000E+08    0.4431699480E+00    0.5752635370E-02    0.1034164288E-03    0.2372928818E+00    0.6777305353E+00
    0.2100000000E+08    0.4431443977E+00    0.5482926746E-02    0.9805867051E-04    0.2373221758E+00    0.6781401340E+00
    0.2300000000E+08    0.4431209973E+00    0.5248586989E-02    0.9342679637E-04    0.2373487128E+00    0.6784959526E+00
    0.2500000000E+08    0.4430994140E+00    0.5042474355E-02    0.8937143291E-04    0.2373729668E+00    0.6788088591E+00
    0.2700000000E+08    0.4430793865E+00    0.4859319172E-02    0.8578287850E-04    0.2373952993E+00    0.6790868709E+00
