  Pressure (Pa) 22mC5-400 (mol/kg) 2mC6-400 (mol/kg) 33mC5-400 (mol/kg) 23mC5-400 (mol/kg) C7-400 (mol/kg)
    0.1000000000E+01    0.5308660264E-03    0.1590955966E-02    0.5829387527E-03    0.4660704570E-03    0.5134740298E-02
    0.3000000000E+01    0.1581281579E-02    0.4676920292E-02    0.1713857423E-02    0.1388282546E-02    0.1510026453E-01
    0.5000000000E+01    0.2616943487E-02    0.7641129754E-02    0.2800417323E-02    0.2297550104E-02    0.2468089772E-01
    0.7000000000E+01    0.3638240986E-02    0.1049049041E-01    0.3845137742E-02    0.3194214592E-02    0.3389939693E-01
    0.9000000000E+01    0.4645549282E-02    0.1323138231E-01    0.4850345729E-02    0.4078605167E-02    0.4277674333E-01
    0.1100000000E+02    0.5639230191E-02    0.1586970953E-01    0.5818194396E-02    0.4951039236E-02    0.5133231265E-01
    0.1300000000E+02    0.6619632729E-02    0.1841094449E-01    0.6750679150E-02    0.5811822983E-02    0.5958402624E-01
    0.1500000000E+02    0.7587093680E-02    0.2086016744E-01    0.7649652121E-02    0.6661251859E-02    0.6754848546E-01
    0.1700000000E+02    0.8541938132E-02    0.2322210158E-01    0.8516835034E-02    0.7499611057E-02    0.7524109137E-01
    0.1900000000E+02    0.9484479983E-02    0.2550114448E-01    0.9353830685E-02    0.8327175952E-02    0.8267615165E-01
    0.2100000000E+02    0.1041502242E-01    0.2770139621E-01    0.1016213323E-01    0.9144212529E-02    0.8986697626E-01
    0.2300000000E+02    0.1133385839E-01    0.2982668451E-01    0.1094313742E-01    0.9950977780E-02    0.9682596320E-01
    0.2500000000E+02    0.1224127101E-01    0.3188058753E-01    0.1169814686E-01    0.1074772008E-01    0.1035646756E+00
    0.2700000000E+02    0.1313753400E-01    0.3386645419E-01    0.1242838150E-01    0.1153467956E-01    0.1100939111E+00
    0.2900000000E+02    0.1402291205E-01    0.3578742262E-01    0.1313498438E-01    0.1231208844E-01    0.1164237644E+00
    0.3100000000E+02    0.1489766122E-01    0.3764643683E-01    0.1381902767E-01    0.1308017135E-01    0.1225636838E+00
    0.3300000000E+02    0.1576202927E-01    0.3944626176E-01    0.1448151824E-01    0.1383914566E-01    0.1285225223E+00
    0.3500000000E+02    0.1661625601E-01    0.4118949699E-01    0.1512340261E-01    0.1458922176E-01    0.1343085838E+00
    0.3700000000E+02    0.1746057362E-01    0.4287858915E-01    0.1574557154E-01    0.1533060332E-01    0.1399296657E+00
    0.3900000000E+02    0.1829520694E-01    0.4451584324E-01    0.1634886410E-01    0.1606348760E-01    0.1453930964E+00
    0.4100000000E+02    0.1912037377E-01    0.4610343292E-01    0.1693407150E-01    0.1678806570E-01    0.1507057710E+00
    0.4300000000E+02    0.1993628516E-01    0.4764340995E-01    0.1750194048E-01    0.1750452275E-01    0.1558741823E+00
    0.4500000000E+02    0.2074314563E-01    0.4913771274E-01    0.1805317648E-01    0.1821303819E-01    0.1609044502E+00
    0.4700000000E+02    0.2154115348E-01    0.5058817428E-01    0.1858844650E-01    0.1891378600E-01    0.1658023482E+00
    0.4900000000E+02    0.2233050099E-01    0.5199652934E-01    0.1910838173E-01    0.1960693485E-01    0.1705733278E+00
    0.1000000000E+02    0.5144071053E-02    0.1456301484E-01    0.5338811746E-02    0.4516297371E-02    0.4709359761E-01
    0.3000000000E+02    0.1446159957E-01    0.3672449716E-01    0.1347976157E-01    0.1269728189E-01    0.1195168992E+00
    0.5000000000E+02    0.2272198561E-01    0.5268543382E-01    0.1936278686E-01    0.1995071099E-01    0.1729128442E+00
    0.7000000000E+02    0.3013957226E-01    0.6460951199E-01    0.2377552154E-01    0.2646462988E-01    0.2141522454E+00
    0.9000000000E+02    0.3687249593E-01    0.7375085965E-01    0.2717409082E-01    0.3237777705E-01    0.2471253024E+00
    0.1100000000E+03    0.4304012331E-01    0.8089126770E-01    0.2984266770E-01    0.3779487972E-01    0.2742045588E+00
    0.1300000000E+03    0.4873435735E-01    0.8654551738E-01    0.3196831523E-01    0.4279657160E-01    0.2969221300E+00
    0.1500000000E+03    0.5402719088E-01    0.9106732453E-01    0.3367956248E-01    0.4744601905E-01    0.3163133816E+00
    0.1700000000E+03    0.5897588670E-01    0.9470814710E-01    0.3506779765E-01    0.5179346548E-01    0.3331043397E+00
    0.1900000000E+03    0.6362661280E-01    0.9765178552E-01    0.3619984504E-01    0.5587942025E-01    0.3478199810E+00
    0.2100000000E+03    0.6801704573E-01    0.1000357295E+00    0.3712571937E-01    0.5973694269E-01    0.3608498634E+00
    0.2300000000E+03    0.7217826941E-01    0.1019648559E+00    0.3788359917E-01    0.6339330789E-01    0.3724895284E+00
    0.2500000000E+03    0.7613618286E-01    0.1035205153E+00    0.3850312414E-01    0.6687124173E-01    0.3829675246E+00
    0.2700000000E+03    0.7991255937E-01    0.1047667304E+00    0.3900764430E-01    0.7018985012E-01    0.3924635737E+00
    0.2900000000E+03    0.8352585415E-01    0.1057545310E+00    0.3941579208E-01    0.7336532762E-01    0.4011210978E+00
    0.3100000000E+03    0.8699182783E-01    0.1065250478E+00    0.3974260471E-01    0.7641150448E-01    0.4090560568E+00
    0.3300000000E+03    0.9032403321E-01    0.1071117653E+00    0.4000034095E-01    0.7934027364E-01    0.4163633075E+00
    0.3500000000E+03    0.9353419908E-01    0.1075421860E+00    0.4019908504E-01    0.8216192760E-01    0.4231212619E+00
    0.3700000000E+03    0.9663253593E-01    0.1078390819E+00    0.4034720027E-01    0.8488542652E-01    0.4293953554E+00
    0.3900000000E+03    0.9962798144E-01    0.1080214444E+00    0.4045167393E-01    0.8751861375E-01    0.4352406660E+00
    0.4100000000E+03    0.1025283993E+00    0.1081052172E+00    0.4051838302E-01    0.9006839019E-01    0.4407039183E+00
    0.4300000000E+03    0.1053407416E+00    0.1081038657E+00    0.4055230105E-01    0.9254085670E-01    0.4458250359E+00
    0.4500000000E+03    0.1080711817E+00    0.1080288247E+00    0.4055766063E-01    0.9494143110E-01    0.4506383571E+00
    0.4700000000E+03    0.1107252253E+00    0.1078898541E+00    0.4053808251E-01    0.9727494486E-01    0.4551735959E+00
    0.4900000000E+03    0.1133078013E+00    0.1076953226E+00    0.4049667885E-01    0.9954572375E-01    0.4594566098E+00
    0.1000000000E+03    0.4002068675E-01    0.7753430267E-01    0.2858622665E-01    0.3514281975E-01    0.2612912674E+00
    0.3000000000E+03    0.8527636226E-01    0.1061646998E+00    0.3958854193E-01    0.7490379424E-01    0.4051725362E+00
    0.5000000000E+03    0.1145736909E+00    0.1075795135E+00    0.4046864673E-01    0.1006588179E+00    0.4615107128E+00
    0.7000000000E+03    0.1370111989E+00    0.1036534228E+00    0.3925210537E-01    0.1203921817E+00    0.4935944578E+00
    0.9000000000E+03    0.1554468250E+00    0.9845700228E-01    0.3747106691E-01    0.1366120354E+00    0.5150019683E+00
    0.1100000000E+04    0.1711485335E+00    0.9313443181E-01    0.3557514019E-01    0.1504311864E+00    0.5306024996E+00
    0.1300000000E+04    0.1848046634E+00    0.8805869833E-01    0.3372205718E-01    0.1624537528E+00    0.5426294795E+00
    0.1500000000E+04    0.1968426344E+00    0.8334812991E-01    0.3196983137E-01    0.1730548666E+00    0.5522710915E+00
    0.1700000000E+04    0.2075540923E+00    0.7902622134E-01    0.3033740265E-01    0.1824905077E+00    0.5602258923E+00
    0.1900000000E+04    0.2171519191E+00    0.7507944927E-01    0.2882718479E-01    0.1909475372E+00    0.5669353182E+00
    0.2100000000E+04    0.2257992308E+00    0.7148038957E-01    0.2743443073E-01    0.1985691466E+00    0.5726939989E+00
    0.2300000000E+04    0.2336254778E+00    0.6819753069E-01    0.2615142828E-01    0.2054689865E+00    0.5777071961E+00
    0.2500000000E+04    0.2407360596E+00    0.6519953137E-01    0.2496947151E-01    0.2117396028E+00    0.5821229393E+00
    0.2700000000E+04    0.2472184337E+00    0.6245701561E-01    0.2387980632E-01    0.2174577977E+00    0.5860510644E+00
    0.2900000000E+04    0.2531462113E+00    0.5994323437E-01    0.2287407766E-01    0.2226882221E+00    0.5895750352E+00
    0.3100000000E+04    0.2585820309E+00    0.5763419859E-01    0.2194452597E-01    0.2274858972E+00    0.5927595743E+00
    0.3300000000E+04    0.2635796547E+00    0.5550856988E-01    0.2108405497E-01    0.2318980536E+00    0.5956557549E+00
    0.3500000000E+04    0.2681855486E+00    0.5354744861E-01    0.2028623323E-01    0.2359655171E+00    0.5983044965E+00
    0.3700000000E+04    0.2724401033E+00    0.5173412782E-01    0.1954526290E-01    0.2397237804E+00    0.6007390233E+00
    0.3900000000E+04    0.2763786006E+00    0.5005384655E-01    0.1885593312E-01    0.2432038510E+00    0.6029866320E+00
    0.4100000000E+04    0.2800319904E+00    0.4849355811E-01    0.1821356795E-01    0.2464329322E+00    0.6050699869E+00
    0.4300000000E+04    0.2834275241E+00    0.4704171967E-01    0.1761397401E-01    0.2494349798E+00    0.6070080840E+00
    0.4500000000E+04    0.2865892784E+00    0.4568810494E-01    0.1705339041E-01    0.2522311612E+00    0.6088169817E+00
    0.4700000000E+04    0.2895385903E+00    0.4442363925E-01    0.1652844235E-01    0.2548402376E+00    0.6105103599E+00
    0.4900000000E+04    0.2922944236E+00    0.4324025544E-01    0.1603609893E-01    0.2572788850E+00    0.6120999551E+00
    0.1000000000E+04    0.1635880198E+00    0.9577903272E-01    0.3652407609E-01    0.1437765887E+00    0.5233535614E+00
    0.3000000000E+04    0.2559220682E+00    0.5876451687E-01    0.2240023900E-01    0.2251380368E+00    0.5912062689E+00
    0.5000000000E+04    0.2936051400E+00    0.4267669251E-01    0.1580129141E-01    0.2584390068E+00    0.6128590557E+00
    0.7000000000E+04    0.3129169913E+00    0.3428239599E-01    0.1228534158E-01    0.2755573937E+00    0.6244550610E+00
    0.9000000000E+04    0.3242549932E+00    0.2919648584E-01    0.1015313906E-01    0.2856408679E+00    0.6319360268E+00
    0.1100000000E+05    0.3315650267E+00    0.2578311684E-01    0.8733996855E-02    0.2921649757E+00    0.6372661194E+00
    0.1300000000E+05    0.3366073318E+00    0.2332163002E-01    0.7723510323E-02    0.2966818422E+00    0.6413076549E+00
    0.1500000000E+05    0.3402656517E+00    0.2145145768E-01    0.6966876114E-02    0.2999715824E+00    0.6445061672E+00
    0.1700000000E+05    0.3430254057E+00    0.1997383161E-01    0.6378048589E-02    0.3024631751E+00    0.6471179462E+00
    0.1900000000E+05    0.3451726165E+00    0.1877060409E-01    0.5905722920E-02    0.3044096762E+00    0.6493021659E+00
    0.2100000000E+05    0.3468855445E+00    0.1776721954E-01    0.5517535138E-02    0.3059689852E+00    0.6511635514E+00
    0.2300000000E+05    0.3482804902E+00    0.1691429687E-01    0.5192107647E-02    0.3072442423E+00    0.6527741786E+00
    0.2500000000E+05    0.3494362649E+00    0.1617779909E-01    0.4914769843E-02    0.3083054263E+00    0.6541854803E+00
    0.2700000000E+05    0.3504080086E+00    0.1553347128E-01    0.4675124973E-02    0.3092015590E+00    0.6554352665E+00
    0.2900000000E+05    0.3512353649E+00    0.1496353550E-01    0.4465600552E-02    0.3099679301E+00    0.6565520331E+00
    0.3100000000E+05    0.3519475130E+00    0.1445464340E-01    0.4280549624E-02    0.3106305477E+00    0.6575577147E+00
    0.3300000000E+05    0.3525663728E+00    0.1399656175E-01    0.4115673999E-02    0.3112089753E+00    0.6584695054E+00
    0.3500000000E+05    0.3531087094E+00    0.1358130181E-01    0.3967642868E-02    0.3117181957E+00    0.6593010978E+00
    0.3700000000E+05    0.3535875497E+00    0.1320252694E-01    0.3833833861E-02    0.3121698667E+00    0.6600635487E+00
    0.3900000000E+05    0.3540131607E+00    0.1285513958E-01    0.3712153097E-02    0.3125731886E+00    0.6607658965E+00
    0.4100000000E+05    0.3543937365E+00    0.1253498725E-01    0.3600907507E-02    0.3129355145E+00    0.6614156109E+00
    0.4300000000E+05    0.3547358923E+00    0.1223864915E-01    0.3498712537E-02    0.3132627890E+00    0.6620189263E+00
    0.4500000000E+05    0.3550450240E+00    0.1196327860E-01    0.3404424297E-02    0.3135598675E+00    0.6625810919E+00
    0.4700000000E+05    0.3553255741E+00    0.1170648500E-01    0.3317088933E-02    0.3138307537E+00    0.6631065632E+00
    0.4900000000E+05    0.3555812323E+00    0.1146624403E-01    0.3235904306E-02    0.3140787771E+00    0.6635991498E+00
    0.1000000000E+05    0.3282739907E+00    0.2733795885E-01    0.9378472634E-02    0.2892248591E+00    0.6348019183E+00
    0.3000000000E+05    0.3516043286E+00    0.1470215970E-01    0.4370310946E-02    0.3103108598E+00    0.6570675906E+00
    0.5000000000E+05    0.3557007119E+00    0.1135178099E-01    0.3197401966E-02    0.3141951055E+00    0.6638341541E+00
    0.7000000000E+05    0.3573221483E+00    0.9619900710E-02    0.2629049251E-02    0.3158094903E+00    0.6674073865E+00
    0.9000000000E+05    0.3581729771E+00    0.8512797943E-02    0.2279797747E-02    0.3166995092E+00    0.6696984914E+00
    0.1100000000E+06    0.3586897191E+00    0.7725015499E-02    0.2037940771E-02    0.3172676407E+00    0.6713258482E+00
    0.1300000000E+06    0.3590330249E+00    0.7126710696E-02    0.1857923635E-02    0.3176644740E+00    0.6725577833E+00
    0.1500000000E+06    0.3592753708E+00    0.6651889636E-02    0.1717297673E-02    0.3179590780E+00    0.6735319273E+00
    0.1700000000E+06    0.3594540831E+00    0.6262922025E-02    0.1603567209E-02    0.3181876190E+00    0.6743270660E+00
    0.1900000000E+06    0.3595902713E+00    0.5936546027E-02    0.1509156389E-02    0.3183708925E+00    0.6749919635E+00
    0.2100000000E+06    0.3596967374E+00    0.5657492152E-02    0.1429171568E-02    0.3185217221E+00    0.6755586242E+00
    0.2300000000E+06    0.3597816774E+00    0.5415260334E-02    0.1360293032E-02    0.3186484558E+00    0.6760490343E+00
    0.2500000000E+06    0.3598505715E+00    0.5202357289E-02    0.1300179203E-02    0.3187567692E+00    0.6764788616E+00
    0.2700000000E+06    0.3599072158E+00    0.5013270847E-02    0.1247125037E-02    0.3188506603E+00    0.6768596124E+00
    0.2900000000E+06    0.3599543189E+00    0.4843842412E-02    0.1199855698E-02    0.3189330299E+00    0.6771999514E+00
    0.3100000000E+06    0.3599938623E+00    0.4690866761E-02    0.1157396459E-02    0.3190060362E+00    0.6775065446E+00
    0.3300000000E+06    0.3600273273E+00    0.4551827747E-02    0.1118987644E-02    0.3190713196E+00    0.6777846150E+00
    0.3500000000E+06    0.3600558415E+00    0.4424718485E-02    0.1084027287E-02    0.3191301504E+00    0.6780383204E+00
    0.3700000000E+06    0.3600802780E+00    0.4307915826E-02    0.1052031421E-02    0.3191835285E+00    0.6782710179E+00
    0.3900000000E+06    0.3601013221E+00    0.4200090724E-02    0.1022605936E-02    0.3192322524E+00    0.6784854509E+00
    0.4100000000E+06    0.3601195188E+00    0.4100142976E-02    0.9954262327E-03    0.3192769678E+00    0.6786838867E+00
    0.4300000000E+06    0.3601353067E+00    0.4007152840E-02    0.9702222217E-03    0.3193182031E+00    0.6788682175E+00
    0.4500000000E+06    0.3601490419E+00    0.3920344617E-02    0.9467671084E-03    0.3193563949E+00    0.6790400364E+00
    0.4700000000E+06    0.3601610169E+00    0.3839058841E-02    0.9248688675E-03    0.3193919077E+00    0.6792006959E+00
    0.4900000000E+06    0.3601714733E+00    0.3762730763E-02    0.9043636837E-03    0.3194250479E+00    0.6793513523E+00
    0.1000000000E+06    0.3584599313E+00    0.8089290762E-02    0.2149091845E-02    0.3170115107E+00    0.6705739248E+00
    0.3000000000E+06    0.3599749333E+00    0.4765468968E-02    0.1178076559E-02    0.3189705908E+00    0.6773571111E+00
    0.5000000000E+06    0.3601761963E+00    0.3726271058E-02    0.8945887290E-03    0.3194408112E+00    0.6794232458E+00
    0.7000000000E+06    0.3602258159E+00    0.3168080979E-02    0.7465768854E-03    0.3196779240E+00    0.6805180018E+00
    0.9000000000E+06    0.3602337631E+00    0.2806032921E-02    0.6523014932E-03    0.3198295456E+00    0.6812218093E+00
    0.1100000000E+07    0.3602265015E+00    0.2546665660E-02    0.5856612500E-03    0.3199387063E+00    0.6817227736E+00
    0.1300000000E+07    0.3602129970E+00    0.2348997424E-02    0.5354093845E-03    0.3200230538E+00    0.6821026643E+00
    0.1500000000E+07    0.3601968955E+00    0.2191832672E-02    0.4958040806E-03    0.3200913414E+00    0.6824034923E+00
    0.1700000000E+07    0.3601798504E+00    0.2062955209E-02    0.4635699924E-03    0.3201484783E+00    0.6826493426E+00
    0.1900000000E+07    0.3601626607E+00    0.1954760238E-02    0.4366855832E-03    0.3201974662E+00    0.6828551420E+00
    0.2100000000E+07    0.3601457244E+00    0.1862231915E-02    0.4138272806E-03    0.3202402624E+00    0.6830306990E+00
    0.2300000000E+07    0.3601292386E+00    0.1781909493E-02    0.3940877160E-03    0.3202782080E+00    0.6831827589E+00
    0.2500000000E+07    0.3601132947E+00    0.1711317279E-02    0.3768214850E-03    0.3203122588E+00    0.6833161332E+00
    0.2700000000E+07    0.3600979273E+00    0.1648630916E-02    0.3615554208E-03    0.3203431183E+00    0.6834343586E+00
    0.2900000000E+07    0.3600831401E+00    0.1592472259E-02    0.3479337514E-03    0.3203713184E+00    0.6835401006E+00
    0.3100000000E+07    0.3600689199E+00    0.1541778093E-02    0.3356831772E-03    0.3203972703E+00    0.6836354112E+00
    0.3300000000E+07    0.3600552446E+00    0.1495713190E-02    0.3245898494E-03    0.3204212980E+00    0.6837218994E+00
    0.3500000000E+07    0.3600420879E+00    0.1453611025E-02    0.3144837387E-03    0.3204436613E+00    0.6838008470E+00
    0.3700000000E+07    0.3600294220E+00    0.1414932318E-02    0.3052277455E-03    0.3204645714E+00    0.6838732894E+00
    0.3900000000E+07    0.3600172189E+00    0.1379235386E-02    0.2967099429E-03    0.3204842021E+00    0.6839400733E+00
    0.4100000000E+07    0.3600054516E+00    0.1346154531E-02    0.2888379390E-03    0.3205026982E+00    0.6840018988E+00
    0.4300000000E+07    0.3599940942E+00    0.1315384008E-02    0.2815347084E-03    0.3205201816E+00    0.6840593504E+00
    0.4500000000E+07    0.3599831223E+00    0.1286665938E-02    0.2747354609E-03    0.3205367557E+00    0.6841129206E+00
    0.4700000000E+07    0.3599725132E+00    0.1259781081E-02    0.2683852549E-03    0.3205525090E+00    0.6841630275E+00
    0.4900000000E+07    0.3599622457E+00    0.1234541689E-02    0.2624371563E-03    0.3205675179E+00    0.6842100288E+00
    0.1000000000E+07    0.3602312803E+00    0.2666746164E-02    0.6164174204E-03    0.3198880230E+00    0.6814911853E+00
    0.3000000000E+07    0.3600759604E+00    0.1566498860E-02    0.3416516249E-03    0.3203845534E+00    0.6835889504E+00
    0.5000000000E+07    0.3599572337E+00    0.1222487582E-02    0.2596010593E-03    0.3205747642E+00    0.6842324628E+00
    0.7000000000E+07    0.3598708607E+00    0.1038119530E-02    0.2166188696E-03    0.3206929178E+00    0.6845744775E+00
    0.9000000000E+07    0.3598034002E+00    0.9187342637E-03    0.1892168403E-03    0.3207785962E+00    0.6847947684E+00
    0.1100000000E+08    0.3597481307E+00    0.8333139183E-03    0.1698427741E-03    0.3208457862E+00    0.6849517759E+00
    0.1300000000E+08    0.3597013397E+00    0.7682763802E-03    0.1552334364E-03    0.3209010410E+00    0.6850709558E+00
    0.1500000000E+08    0.3596607780E+00    0.7166055644E-03    0.1437205761E-03    0.3209479559E+00    0.6851654060E+00
    0.1700000000E+08    0.3596249841E+00    0.6742618668E-03    0.1343518726E-03    0.3209887148E+00    0.6852426444E+00
    0.1900000000E+08    0.3595929556E+00    0.6387327762E-03    0.1265393247E-03    0.3210247439E+00    0.6853073348E+00
    0.2100000000E+08    0.3595639758E+00    0.6083623915E-03    0.1198978676E-03    0.3210570252E+00    0.6853625440E+00
    0.2300000000E+08    0.3595375147E+00    0.5820089596E-03    0.1141634968E-03    0.3210862641E+00    0.6854103829E+00
    0.2500000000E+08    0.3595131695E+00    0.5588561891E-03    0.1091484229E-03    0.3211129839E+00    0.6854523577E+00
    0.2700000000E+08    0.3594906265E+00    0.5383028613E-03    0.1047149739E-03    0.3211375837E+00    0.6854895765E+00
