  Pressure (Pa) 22mC5-400 (mol/kg) 2mC6-400 (mol/kg) 33mC5-400 (mol/kg) 23mC5-400 (mol/kg) C7-400 (mol/kg)
    0.1000000000E+01    0.5302496465E-03    0.3150654505E-02    0.1924234960E-03    0.4655295569E-03    0.1184589406E-01
    0.3000000000E+01    0.1575854663E-02    0.9090320466E-02    0.5553622661E-03    0.1383520171E-02    0.3409186218E-01
    0.5000000000E+01    0.2602192445E-02    0.1459500360E-01    0.8919580581E-03    0.2284605314E-02    0.5460373432E-01
    0.7000000000E+01    0.3609942811E-02    0.1971362392E-01    0.1205181637E-02    0.3169381398E-02    0.7358227624E-01
    0.9000000000E+01    0.4599752803E-02    0.2448777289E-01    0.1497557524E-02    0.4038416086E-02    0.9119820504E-01
    0.1100000000E+02    0.5572238664E-02    0.2895304998E-01    0.1771245523E-02    0.4892250020E-02    0.1075976196E+00
    0.1300000000E+02    0.6527987664E-02    0.3314011660E-01    0.2028104987E-02    0.5731398427E-02    0.1229062934E+00
    0.1500000000E+02    0.7467559807E-02    0.3707553471E-01    0.2269745943E-02    0.6556352614E-02    0.1372330993E+00
    0.1700000000E+02    0.8391489411E-02    0.4078243965E-01    0.2497570096E-02    0.7367581355E-02    0.1506727631E+00
    0.1900000000E+02    0.9300286580E-02    0.4428108435E-01    0.2712803981E-02    0.8165532182E-02    0.1633080957E+00
    0.2100000000E+02    0.1019443858E-01    0.4758928245E-01    0.2916525956E-02    0.8950632594E-02    0.1752118148E+00
    0.2300000000E+02    0.1107441112E-01    0.5072277179E-01    0.3109688333E-02    0.9723291173E-02    0.1864480424E+00
    0.2500000000E+02    0.1194064954E-01    0.5369551446E-01    0.3293135637E-02    0.1048389864E-01    0.1970735427E+00
    0.2700000000E+02    0.1279357993E-01    0.5651994586E-01    0.3467619764E-02    0.1123282881E-01    0.2071387516E+00
    0.2900000000E+02    0.1363361016E-01    0.5920718269E-01    0.3633812632E-02    0.1197043956E-01    0.2166886381E+00
    0.3100000000E+02    0.1446113090E-01    0.6176719763E-01    0.3792316801E-02    0.1269707362E-01    0.2257634286E+00
    0.3300000000E+02    0.1527651646E-01    0.6420896661E-01    0.3943674427E-02    0.1341305940E-01    0.2343992187E+00
    0.3500000000E+02    0.1608012571E-01    0.6654059380E-01    0.4088374854E-02    0.1411871176E-01    0.2426284920E+00
    0.3700000000E+02    0.1687230286E-01    0.6876941794E-01    0.4226861075E-02    0.1481433269E-01    0.2504805637E+00
    0.3900000000E+02    0.1765337818E-01    0.7090210336E-01    0.4359535260E-02    0.1550021198E-01    0.2579819590E+00
    0.4100000000E+02    0.1842366876E-01    0.7294471813E-01    0.4486763497E-02    0.1617662781E-01    0.2651567392E+00
    0.4300000000E+02    0.1918347914E-01    0.7490280143E-01    0.4608879885E-02    0.1684384739E-01    0.2720267826E+00
    0.4500000000E+02    0.1993310193E-01    0.7678142190E-01    0.4726190065E-02    0.1750212744E-01    0.2786120280E+00
    0.4700000000E+02    0.2067281842E-01    0.7858522823E-01    0.4838974298E-02    0.1815171477E-01    0.2849306863E+00
    0.4900000000E+02    0.2140289911E-01    0.8031849337E-01    0.4947490139E-02    0.1879284671E-01    0.2909994246E+00
    0.1000000000E+02    0.5088123887E-02    0.2675699909E-01    0.1636614913E-02    0.4467200368E-02    0.9954168319E-01
    0.3000000000E+02    0.1404891045E-01    0.6050251010E-01    0.3713990599E-02    0.1233510782E-01    0.2212830741E+00
    0.5000000000E+02    0.2176440774E-01    0.8115991512E-01    0.5000222270E-02    0.1911031359E-01    0.2939449002E+00
    0.7000000000E+02    0.2854704992E-01    0.9509399549E-01    0.5879516671E-02    0.2506693813E-01    0.3428453725E+00
    0.9000000000E+02    0.3460924351E-01    0.1050234586E+00    0.6515645497E-02    0.3039134702E-01    0.3783354625E+00
    0.1100000000E+03    0.4010083673E-01    0.1123422289E+00    0.6992537665E-02    0.3521502122E-01    0.4054620943E+00
    0.1300000000E+03    0.4513084474E-01    0.1178536000E+00    0.7358596919E-02    0.3963361642E-01    0.4269923426E+00
    0.1500000000E+03    0.4978066118E-01    0.1220591509E+00    0.7644097146E-02    0.4371855361E-01    0.4445765612E+00
    0.1700000000E+03    0.5411242034E-01    0.1252907669E+00    0.7869116607E-02    0.4752435549E-01    0.4592636045E+00
    0.1900000000E+03    0.5817447363E-01    0.1277778642E+00    0.8047573561E-02    0.5109345125E-01    0.4717539995E+00
    0.2100000000E+03    0.6200508316E-01    0.1296845312E+00    0.8189454805E-02    0.5445941730E-01    0.4825346878E+00
    0.2300000000E+03    0.6563497774E-01    0.1311313895E+00    0.8302127421E-02    0.5764921977E-01    0.4919554343E+00
    0.2500000000E+03    0.6908916177E-01    0.1322091262E+00    0.8391151114E-02    0.6068480177E-01    0.5002744582E+00
    0.2700000000E+03    0.7238822153E-01    0.1329872195E+00    0.8460802465E-02    0.6358422948E-01    0.5076868836E+00
    0.2900000000E+03    0.7554928531E-01    0.1335197602E+00    0.8514425003E-02    0.6636253462E-01    0.5143431341E+00
    0.3100000000E+03    0.7858674059E-01    0.1338494460E+00    0.8554669757E-02    0.6903234380E-01    0.5203612042E+00
    0.3300000000E+03    0.8151277761E-01    0.1340103909E+00    0.8583664665E-02    0.7160435542E-01    0.5258350695E+00
    0.3500000000E+03    0.8433780674E-01    0.1340301419E+00    0.8603136400E-02    0.7408770595E-01    0.5308405884E+00
    0.3700000000E+03    0.8707078281E-01    0.1339311541E+00    0.8614499622E-02    0.7649025453E-01    0.5354397313E+00
    0.3900000000E+03    0.8971946000E-01    0.1337318874E+00    0.8618923432E-02    0.7881880661E-01    0.5396836681E+00
    0.4100000000E+03    0.9229059413E-01    0.1334476322E+00    0.8617381564E-02    0.8107929149E-01    0.5436150596E+00
    0.4300000000E+03    0.9479010470E-01    0.1330911411E+00    0.8610690803E-02    0.8327690450E-01    0.5472697843E+00
    0.4500000000E+03    0.9722320579E-01    0.1326731162E+00    0.8599540712E-02    0.8541622190E-01    0.5506782565E+00
    0.4700000000E+03    0.9959451279E-01    0.1322025900E+00    0.8584516902E-02    0.8750129451E-01    0.5538664464E+00
    0.4900000000E+03    0.1019081298E+00    0.1316872250E+00    0.8566119409E-02    0.8953572445E-01    0.5568566768E+00
    0.1000000000E+03    0.3741877968E-01    0.1089496468E+00    0.6770410327E-02    0.3285912011E-01    0.3927361563E+00
    0.3000000000E+03    0.7708265604E-01    0.1337076534E+00    0.8536075963E-02    0.6771029211E-01    0.5174255842E+00
    0.5000000000E+03    0.1030444654E+00    0.1314148077E+00    0.8555792059E-02    0.9053496726E-01    0.5582836936E+00
    0.7000000000E+03    0.1234562796E+00    0.1247764560E+00    0.8249671151E-02    0.1084876017E+00    0.5799861105E+00
    0.9000000000E+03    0.1406481333E+00    0.1174026824E+00    0.7860360469E-02    0.1236132434E+00    0.5938601256E+00
    0.1100000000E+04    0.1556162917E+00    0.1102154781E+00    0.7456962051E-02    0.1367863018E+00    0.6036644383E+00
    0.1300000000E+04    0.1688915500E+00    0.1034825613E+00    0.7063724667E-02    0.1484726326E+00    0.6110446316E+00
    0.1500000000E+04    0.1808004813E+00    0.9726881567E-01    0.6689790193E-02    0.1589588448E+00    0.6168474653E+00
    0.1700000000E+04    0.1915655320E+00    0.9156830438E-01    0.6338347223E-02    0.1684401607E+00    0.6215579638E+00
    0.1900000000E+04    0.2013498612E+00    0.8634975581E-01    0.6010000313E-02    0.1770597735E+00    0.6254761254E+00
    0.2100000000E+04    0.2102797931E+00    0.8157392250E-01    0.5704174137E-02    0.1849285551E+00    0.6287985657E+00
    0.2300000000E+04    0.2184570621E+00    0.7720058947E-01    0.5419753945E-02    0.1921358022E+00    0.6316601133E+00
    0.2500000000E+04    0.2259659753E+00    0.7319142598E-01    0.5155397432E-02    0.1987555227E+00    0.6341566570E+00
    0.2700000000E+04    0.2328778626E+00    0.6951106414E-01    0.4909693487E-02    0.2048503395E+00    0.6363584652E+00
    0.2900000000E+04    0.2392539940E+00    0.6612739384E-01    0.4681244851E-02    0.2104740504E+00    0.6383183393E+00
    0.3100000000E+04    0.2451475878E+00    0.6301150839E-01    0.4468710960E-02    0.2156733892E+00    0.6400768094E+00
    0.3300000000E+04    0.2506052548E+00    0.6013750043E-01    0.4270829119E-02    0.2204892927E+00    0.6416655624E+00
    0.3500000000E+04    0.2556680778E+00    0.5748220200E-01    0.4086423539E-02    0.2249578475E+00    0.6431097684E+00
    0.3700000000E+04    0.2603724471E+00    0.5502491331E-01    0.3914407469E-02    0.2291110220E+00    0.6444297034E+00
    0.3900000000E+04    0.2647507229E+00    0.5274714148E-01    0.3753781412E-02    0.2329772483E+00    0.6456419035E+00
    0.4100000000E+04    0.2688317761E+00    0.5063235820E-01    0.3603629168E-02    0.2365818955E+00    0.6467600046E+00
    0.4300000000E+04    0.2726414346E+00    0.4866577976E-01    0.3463112737E-02    0.2399476617E+00    0.6477953622E+00
    0.4500000000E+04    0.2762028598E+00    0.4683416985E-01    0.3331466740E-02    0.2430949040E+00    0.6487575180E+00
    0.4700000000E+04    0.2795368658E+00    0.4512566406E-01    0.3207992713E-02    0.2460419184E+00    0.6496545541E+00
    0.4900000000E+04    0.2826621939E+00    0.4352961431E-01    0.3092053527E-02    0.2488051809E+00    0.6504933671E+00
    0.1000000000E+04    0.1483703891E+00    0.1137616004E+00    0.7658371355E-02    0.1304089272E+00    0.5991410634E+00
    0.3000000000E+04    0.2422580542E+00    0.6453766460E-01    0.4573069455E-02    0.2131240843E+00    0.6392205936E+00
    0.5000000000E+04    0.2841519526E+00    0.4277073140E-01    0.3036725850E-02    0.2501226079E+00    0.6508928244E+00
    0.7000000000E+04    0.3063153636E+00    0.3163162542E-01    0.2209628197E-02    0.2697471825E+00    0.6569047828E+00
    0.9000000000E+04    0.3194542155E+00    0.2516011065E-01    0.1716690395E-02    0.2814141984E+00    0.6606928575E+00
    0.1100000000E+05    0.3279313436E+00    0.2102593502E-01    0.1397941818E-02    0.2889649424E+00    0.6633486139E+00
    0.1300000000E+05    0.3337609423E+00    0.1818997013E-01    0.1178400996E-02    0.2941745513E+00    0.6653386729E+00
    0.1500000000E+05    0.3379712269E+00    0.1613570265E-01    0.1019563697E-02    0.2979500816E+00    0.6668994026E+00
    0.1700000000E+05    0.3411312999E+00    0.1458305493E-01    0.9000739577E-03    0.3007940698E+00    0.6681646869E+00
    0.1900000000E+05    0.3435774239E+00    0.1336914345E-01    0.8073101592E-03    0.3030037459E+00    0.6692166465E+00
    0.2100000000E+05    0.3455191807E+00    0.1239368176E-01    0.7334108982E-03    0.3047645553E+00    0.6701087565E+00
    0.2300000000E+05    0.3470930970E+00    0.1159194554E-01    0.6732607230E-03    0.3061974302E+00    0.6708775026E+00
    0.2500000000E+05    0.3483914666E+00    0.1092048139E-01    0.6234059646E-03    0.3073842113E+00    0.6715487277E+00
    0.2700000000E+05    0.3494786732E+00    0.1034912443E-01    0.5814404881E-03    0.3083820543E+00    0.6721413085E+00
    0.2900000000E+05    0.3504008580E+00    0.9856325884E-02    0.5456420266E-03    0.3092319672E+00    0.6726693913E+00
    0.3100000000E+05    0.3511918699E+00    0.9426305564E-02    0.5147485223E-03    0.3099640682E+00    0.6731438115E+00
    0.3300000000E+05    0.3518770520E+00    0.9047254807E-02    0.4878159348E-03    0.3106009342E+00    0.6735730252E+00
    0.3500000000E+05    0.3524757229E+00    0.8710167093E-02    0.4641251720E-03    0.3111597958E+00    0.6739637397E+00
    0.3700000000E+05    0.3530028453E+00    0.8408056302E-02    0.4431195846E-03    0.3116540154E+00    0.6743213517E+00
    0.3900000000E+05    0.3534701742E+00    0.8135421439E-02    0.4243620133E-03    0.3120941035E+00    0.6746502587E+00
    0.4100000000E+05    0.3538870631E+00    0.7887872194E-02    0.4075046618E-03    0.3124884341E+00    0.6749540839E+00
    0.4300000000E+05    0.3542610408E+00    0.7661861921E-02    0.3922675711E-03    0.3128437564E+00    0.6752358433E+00
    0.4500000000E+05    0.3545982310E+00    0.7454493890E-02    0.3784229810E-03    0.3131655669E+00    0.6754980699E+00
    0.4700000000E+05    0.3549036620E+00    0.7263378470E-02    0.3657837942E-03    0.3134583851E+00    0.6757429088E+00
    0.4900000000E+05    0.3551814988E+00    0.7086526330E-02    0.3541949493E-03    0.3137259593E+00    0.6759721901E+00
    0.1000000000E+05    0.3241167973E+00    0.2288339423E-01    0.1541436858E-02    0.2855642792E+00    0.6621252505E+00
    0.3000000000E+05    0.3508110112E+00    0.9634283524E-02    0.5296473361E-03    0.3096111864E+00    0.6729127335E+00
    0.5000000000E+05    0.3553111789E+00    0.7002916458E-02    0.3487530665E-03    0.3138512797E+00    0.6760814968E+00
    0.7000000000E+05    0.3570602009E+00    0.5786227380E-02    0.2725053787E-03    0.3155781503E+00    0.6777374193E+00
    0.9000000000E+05    0.3579696386E+00    0.5051300218E-02    0.2294086603E-03    0.3165198499E+00    0.6787935361E+00
    0.1100000000E+06    0.3585193226E+00    0.4545638649E-02    0.2011703926E-03    0.3171170304E+00    0.6795412579E+00
    0.1300000000E+06    0.3588836320E+00    0.4169958917E-02    0.1809588153E-03    0.3175323845E+00    0.6801060615E+00
    0.1500000000E+06    0.3591405666E+00    0.3876375603E-02    0.1656217039E-03    0.3178398523E+00    0.6805519796E+00
    0.1700000000E+06    0.3593300531E+00    0.3638587883E-02    0.1534918876E-03    0.3180778928E+00    0.6809155337E+00
    0.1900000000E+06    0.3594745704E+00    0.3440785885E-02    0.1435990690E-03    0.3182685096E+00    0.6812192664E+00
    0.2100000000E+06    0.3595877049E+00    0.3272813452E-02    0.1353370568E-03    0.3184252181E+00    0.6814779405E+00
    0.2300000000E+06    0.3596781331E+00    0.3127805284E-02    0.1283058820E-03    0.3185567898E+00    0.6817016800E+00
    0.2500000000E+06    0.3597516447E+00    0.3000929528E-02    0.1222299524E-03    0.3186691735E+00    0.6818976892E+00
    0.2700000000E+06    0.3598122444E+00    0.2888672262E-02    0.1169125663E-03    0.3187665511E+00    0.6820712523E+00
    0.2900000000E+06    0.3598627865E+00    0.2788407750E-02    0.1122091713E-03    0.3188519520E+00    0.6822263446E+00
    0.3100000000E+06    0.3599053574E+00    0.2698128616E-02    0.1080108949E-03    0.3189276267E+00    0.6823660217E+00
    0.3300000000E+06    0.3599415158E+00    0.2616270014E-02    0.1042340006E-03    0.3189952840E+00    0.6824926759E+00
    0.3500000000E+06    0.3599724481E+00    0.2541591357E-02    0.1008129079E-03    0.3190562460E+00    0.6826082103E+00
    0.3700000000E+06    0.3599990724E+00    0.2473094567E-02    0.9769543898E-04    0.3191115523E+00    0.6827141606E+00
    0.3900000000E+06    0.3600221094E+00    0.2409966222E-02    0.9483949969E-04    0.3191620326E+00    0.6828117813E+00
    0.4100000000E+06    0.3600421325E+00    0.2351535739E-02    0.9221071075E-04    0.3192083575E+00    0.6829021085E+00
    0.4300000000E+06    0.3600596028E+00    0.2297244600E-02    0.8978068412E-04    0.3192510755E+00    0.6829860064E+00
    0.4500000000E+06    0.3600748952E+00    0.2246623323E-02    0.8752574700E-04    0.3192906397E+00    0.6830642028E+00
    0.4700000000E+06    0.3600883175E+00    0.2199273967E-02    0.8542598248E-04    0.3193274279E+00    0.6831373149E+00
    0.4900000000E+06    0.3601001242E+00    0.2154856672E-02    0.8346449802E-04    0.3193617581E+00    0.6832058703E+00
    0.1000000000E+06    0.3582751105E+00    0.4777813935E-02    0.2139896934E-03    0.3168481807E+00    0.6791960105E+00
    0.3000000000E+06    0.3598849607E+00    0.2742126581E-02    0.1100526207E-03    0.3188908877E+00    0.6822979474E+00
    0.5000000000E+06    0.3601054894E+00    0.2133654596E-02    0.8253101721E-04    0.3193780873E+00    0.6832385837E+00
    0.7000000000E+06    0.3601647685E+00    0.1810160557E-02    0.6851231993E-04    0.3196237124E+00    0.6837366491E+00
    0.9000000000E+06    0.3601788811E+00    0.1601330432E-02    0.5968561706E-04    0.3197807671E+00    0.6840568287E+00
    0.1100000000E+07    0.3601760295E+00    0.1452141711E-02    0.5348807806E-04    0.3198938137E+00    0.6842847572E+00
    0.1300000000E+07    0.3601658975E+00    0.1338652188E-02    0.4883520494E-04    0.3199811329E+00    0.6844576320E+00
    0.1500000000E+07    0.3601524919E+00    0.1248537129E-02    0.4517952390E-04    0.3200517957E+00    0.6845945573E+00
    0.1700000000E+07    0.3601376705E+00    0.1174715822E-02    0.4221113791E-04    0.3201108917E+00    0.6847064832E+00
    0.1900000000E+07    0.3601223591E+00    0.1112790712E-02    0.3973985576E-04    0.3201615343E+00    0.6848001958E+00
    0.2100000000E+07    0.3601070388E+00    0.1059866533E-02    0.3764168836E-04    0.3202057538E+00    0.6848801541E+00
    0.2300000000E+07    0.3600919637E+00    0.1013948505E-02    0.3583192464E-04    0.3202449420E+00    0.6849494245E+00
    0.2500000000E+07    0.3600772665E+00    0.9736112929E-03    0.3425047637E-04    0.3202800906E+00    0.6850101945E+00
    0.2700000000E+07    0.3600630120E+00    0.9378055724E-03    0.3285339141E-04    0.3203119301E+00    0.6850640723E+00
    0.2900000000E+07    0.3600492268E+00    0.9057393202E-03    0.3160768578E-04    0.3203410123E+00    0.6851122696E+00
    0.3100000000E+07    0.3600359153E+00    0.8768019354E-03    0.3048806311E-04    0.3203677642E+00    0.6851557197E+00
    0.3300000000E+07    0.3600230695E+00    0.8505140448E-03    0.2947475779E-04    0.3203925220E+00    0.6851951543E+00
    0.3500000000E+07    0.3600106742E+00    0.8264933085E-03    0.2855207373E-04    0.3204155554E+00    0.6852311564E+00
    0.3700000000E+07    0.3599987106E+00    0.8044305260E-03    0.2770736854E-04    0.3204370835E+00    0.6852641969E+00
    0.3900000000E+07    0.3599871582E+00    0.7840725648E-03    0.2693033099E-04    0.3204572867E+00    0.6852946610E+00
    0.4100000000E+07    0.3599759962E+00    0.7652099217E-03    0.2621245689E-04    0.3204763153E+00    0.6853228672E+00
    0.4300000000E+07    0.3599652038E+00    0.7476674998E-03    0.2554666197E-04    0.3204942957E+00    0.6853490814E+00
    0.4500000000E+07    0.3599547611E+00    0.7312976636E-03    0.2492699144E-04    0.3205113352E+00    0.6853735277E+00
    0.4700000000E+07    0.3599446490E+00    0.7159749339E-03    0.2434839891E-04    0.3205275255E+00    0.6853963964E+00
    0.4900000000E+07    0.3599348495E+00    0.7015918856E-03    0.2380657598E-04    0.3205429459E+00    0.6854178503E+00
    0.1000000000E+07    0.3601787655E+00    0.1521171921E-02    0.5634437244E-04    0.3198413305E+00    0.6841793846E+00
    0.3000000000E+07    0.3600425121E+00    0.8909120940E-03    0.3103345928E-04    0.3203546567E+00    0.6851345383E+00
    0.5000000000E+07    0.3599300617E+00    0.6947233035E-03    0.2354827521E-04    0.3205503892E+00    0.6854280913E+00
    0.7000000000E+07    0.3598471610E+00    0.5897177809E-03    0.1963697193E-04    0.3206715934E+00    0.6855842967E+00
    0.9000000000E+07    0.3597820003E+00    0.5217707889E-03    0.1714650112E-04    0.3207592894E+00    0.6856849961E+00
    0.1100000000E+08    0.3597284054E+00    0.4731768191E-03    0.1538698324E-04    0.3208279462E+00    0.6857568164E+00
    0.1300000000E+08    0.3596829078E+00    0.4361903061E-03    0.1406086965E-04    0.3208843325E+00    0.6858113636E+00
    0.1500000000E+08    0.3596433862E+00    0.4068126687E-03    0.1301622164E-04    0.3209321559E+00    0.6858546126E+00
    0.1700000000E+08    0.3596084535E+00    0.3827427363E-03    0.1216637554E-04    0.3209736663E+00    0.6858899946E+00
    0.1900000000E+08    0.3595771544E+00    0.3625497629E-03    0.1145785424E-04    0.3210103307E+00    0.6859196391E+00
    0.2100000000E+08    0.3595488033E+00    0.3452910693E-03    0.1085565381E-04    0.3210431590E+00    0.6859449468E+00
    0.2300000000E+08    0.3595228918E+00    0.3303168281E-03    0.1033578436E-04    0.3210728755E+00    0.6859668822E+00
    0.2500000000E+08    0.3594990327E+00    0.3171625411E-03    0.9881187038E-05    0.3211000171E+00    0.6859861337E+00
    0.2700000000E+08    0.3594769240E+00    0.3054861533E-03    0.9479358999E-05    0.3211249934E+00    0.6860032079E+00
