  Pressure (Pa) 22mC5-400 (mol/kg) 2mC6-400 (mol/kg) 33mC5-400 (mol/kg) 23mC5-400 (mol/kg) C7-400 (mol/kg)
    0.1000000000E+01    0.5293730114E-03    0.4762176464E-02    0.4523690070E-03    0.3718082018E-03    0.3419155304E-02
    0.3000000000E+01    0.1568192816E-02    0.1393844079E-01    0.1324121492E-02    0.1101437089E-02    0.1003264493E-01
    0.5000000000E+01    0.2581514502E-02    0.2267713927E-01    0.2154409778E-02    0.1813167090E-02    0.1636370783E-01
    0.7000000000E+01    0.3570548132E-02    0.3100763705E-01    0.2946016859E-02    0.2507847531E-02    0.2243147189E-01
    0.9000000000E+01    0.4536425309E-02    0.3895672795E-01    0.3701481930E-02    0.3186272670E-02    0.2825334684E-01
    0.1100000000E+02    0.5480205523E-02    0.4654891140E-01    0.4423126660E-02    0.3849186159E-02    0.3384521404E-01
    0.1300000000E+02    0.6402881889E-02    0.5380663411E-01    0.5113078111E-02    0.4497285060E-02    0.3922159161E-01
    0.1500000000E+02    0.7305386340E-02    0.6075050172E-01    0.5773288815E-02    0.5131223497E-02    0.4439577852E-01
    0.1700000000E+02    0.8188594337E-02    0.6739946457E-01    0.6405554392E-02    0.5751615962E-02    0.4937998074E-01
    0.1900000000E+02    0.9053329153E-02    0.7377098135E-01    0.7011529069E-02    0.6359040315E-02    0.5418542203E-01
    0.2100000000E+02    0.9900365758E-02    0.7988116363E-01    0.7592739385E-02    0.6954040517E-02    0.5882244145E-01
    0.2300000000E+02    0.1073043437E-01    0.8574490375E-01    0.8150596317E-02    0.7537129120E-02    0.6330057945E-01
    0.2500000000E+02    0.1154422370E-01    0.9137598840E-01    0.8686406056E-02    0.8108789539E-02    0.6762865410E-01
    0.2700000000E+02    0.1234238390E-01    0.9678719968E-01    0.9201379579E-02    0.8669478126E-02    0.7181482864E-01
    0.2900000000E+02    0.1312552925E-01    0.1019904052E+00    0.9696641197E-02    0.9219626071E-02    0.7586667170E-01
    0.3100000000E+02    0.1389424069E-01    0.1069966385E+00    0.1017323619E-01    0.9759641141E-02    0.7979121082E-01
    0.3300000000E+02    0.1464906804E-01    0.1118161715E+00    0.1063213765E-01    0.1028990928E-01    0.8359498040E-01
    0.3500000000E+02    0.1539053212E-01    0.1164585789E+00    0.1107425261E-01    0.1081079607E-01    0.8728406454E-01
    0.3700000000E+02    0.1611912668E-01    0.1209327966E+00    0.1150042757E-01    0.1132264808E-01    0.9086413548E-01
    0.3900000000E+02    0.1683532013E-01    0.1252471742E+00    0.1191145346E-01    0.1182579412E-01    0.9434048824E-01
    0.4100000000E+02    0.1753955722E-01    0.1294095222E+00    0.1230807017E-01    0.1232054637E-01    0.9771807166E-01
    0.4300000000E+02    0.1823226051E-01    0.1334271550E+00    0.1269097055E-01    0.1280720145E-01    0.1010015166E+00
    0.4500000000E+02    0.1891383179E-01    0.1373069297E+00    0.1306080412E-01    0.1328604140E-01    0.1041951611E+00
    0.4700000000E+02    0.1958465332E-01    0.1410552809E+00    0.1341818042E-01    0.1375733454E-01    0.1073030737E+00
    0.4900000000E+02    0.2024508910E-01    0.1446782535E+00    0.1376367200E-01    0.1422133639E-01    0.1103290740E+00
    0.1000000000E+02    0.5011013975E-02    0.4279598469E-01    0.4066394583E-02    0.3519623757E-02    0.3107709386E-01
    0.3000000000E+02    0.1351165414E-01    0.1045174843E+00    0.9937209587E-02    0.9490875600E-02    0.7784443482E-01
    0.5000000000E+02    0.2057152134E-01    0.1464445123E+00    0.1393213053E-01    0.1445067959E-01    0.1118124873E+00
    0.7000000000E+02    0.2663108292E-01    0.1764018503E+00    0.1679239479E-01    0.1870821846E-01    0.1379469126E+00
    0.9000000000E+02    0.3196156512E-01    0.1985936164E+00    0.1891621244E-01    0.2245388552E-01    0.1589013037E+00
    0.1100000000E+03    0.3674007849E-01    0.2154788306E+00    0.2053649765E-01    0.2581201217E-01    0.1762295845E+00
    0.1300000000E+03    0.4108776521E-01    0.2285899351E+00    0.2179841127E-01    0.2886764305E-01    0.1909060899E+00
    0.1500000000E+03    0.4509065800E-01    0.2389301988E+00    0.2279700161E-01    0.3168117702E-01    0.2035750575E+00
    0.1700000000E+03    0.4881178342E-01    0.2471829227E+00    0.2359701681E-01    0.3429686289E-01    0.2146809466E+00
    0.1900000000E+03    0.5229853563E-01    0.2538288217E+00    0.2424402029E-01    0.3674797536E-01    0.2245412403E+00
    0.2100000000E+03    0.5558735579E-01    0.2592153803E+00    0.2477095789E-01    0.3906009984E-01    0.2333893941E+00
    0.2300000000E+03    0.5870680622E-01    0.2635996239E+00    0.2520220776E-01    0.4125329045E-01    0.2414013431E+00
    0.2500000000E+03    0.6167965124E-01    0.2671754657E+00    0.2555616973E-01    0.4334353076E-01    0.2487124961E+00
    0.2700000000E+03    0.6452430244E-01    0.2700917406E+00    0.2584697294E-01    0.4534374842E-01    0.2554289912E+00
    0.2900000000E+03    0.6725584582E-01    0.2724644201E+00    0.2608563249E-01    0.4726453620E-01    0.2616353631E+00
    0.3100000000E+03    0.6988678651E-01    0.2743850812E+00    0.2628085144E-01    0.4911467485E-01    0.2673998963E+00
    0.3300000000E+03    0.7242759852E-01    0.2759269011E+00    0.2643958861E-01    0.5090151904E-01    0.2727784444E+00
    0.3500000000E+03    0.7488713716E-01    0.2771489795E+00    0.2656746789E-01    0.5263128688E-01    0.2778172079E+00
    0.3700000000E+03    0.7727295299E-01    0.2780995057E+00    0.2666907835E-01    0.5430928041E-01    0.2825547898E+00
    0.3900000000E+03    0.7959153393E-01    0.2788181152E+00    0.2674819744E-01    0.5594005550E-01    0.2870237400E+00
    0.4100000000E+03    0.8184849426E-01    0.2793376658E+00    0.2680795931E-01    0.5752755461E-01    0.2912517326E+00
    0.4300000000E+03    0.8404872380E-01    0.2796855932E+00    0.2685098333E-01    0.5907521149E-01    0.2952624749E+00
    0.4500000000E+03    0.8619650679E-01    0.2798849571E+00    0.2687947318E-01    0.6058603467E-01    0.2990764162E+00
    0.4700000000E+03    0.8829561753E-01    0.2799552570E+00    0.2689529424E-01    0.6206267461E-01    0.3027113088E+00
    0.4900000000E+03    0.9034939811E-01    0.2799130739E+00    0.2690003445E-01    0.6350747825E-01    0.3061826531E+00
    0.1000000000E+03    0.3441123593E-01    0.2075879751E+00    0.1977872874E-01    0.2417536671E-01    0.1679479592E+00
    0.3000000000E+03    0.6858319467E-01    0.2734763055E+00    0.2618820166E-01    0.4819794736E-01    0.2645691140E+00
    0.5000000000E+03    0.9136023165E-01    0.2798543124E+00    0.2689868170E-01    0.6421860303E-01    0.3078613129E+00
    0.7000000000E+03    0.1097726265E+00    0.2753174745E+00    0.2653437886E-01    0.7717388126E-01    0.3354211666E+00
    0.9000000000E+03    0.1256952138E+00    0.2678146772E+00    0.2586069256E-01    0.8838039102E-01    0.3555337814E+00
    0.1100000000E+04    0.1399106248E+00    0.2595401680E+00    0.2509326310E-01    0.9838774101E-01    0.3713142245E+00
    0.1300000000E+04    0.1528274129E+00    0.2512518542E+00    0.2430913482E-01    0.1074828273E+00    0.3842627948E+00
    0.1500000000E+04    0.1646908891E+00    0.2432381284E+00    0.2353936509E-01    0.1158379004E+00    0.3952159237E+00
    0.1700000000E+04    0.1756636064E+00    0.2356078145E+00    0.2279703108E-01    0.1235670912E+00    0.4046874911E+00
    0.1900000000E+04    0.1858615833E+00    0.2283941591E+00    0.2208739030E-01    0.1307518519E+00    0.4130158478E+00
    0.2100000000E+04    0.1953725623E+00    0.2215968855E+00    0.2141205426E-01    0.1374537801E+00    0.4204356337E+00
    0.2300000000E+04    0.2042660074E+00    0.2152006882E+00    0.2077086348E-01    0.1437216404E+00    0.4271162604E+00
    0.2500000000E+04    0.2125989360E+00    0.2091838534E+00    0.2016278788E-01    0.1495954601E+00    0.4331840489E+00
    0.2700000000E+04    0.2204194957E+00    0.2035224301E+00    0.1958638113E-01    0.1551090410E+00    0.4387357038E+00
    0.2900000000E+04    0.2277692524E+00    0.1981922826E+00    0.1904001829E-01    0.1602915657E+00    0.4438468989E+00
    0.3100000000E+04    0.2346847069E+00    0.1931700912E+00    0.1852202315E-01    0.1651686631E+00    0.4485779594E+00
    0.3300000000E+04    0.2411983346E+00    0.1884338162E+00    0.1803073699E-01    0.1697631377E+00    0.4529777452E+00
    0.3500000000E+04    0.2473393198E+00    0.1839628805E+00    0.1756455546E-01    0.1740954851E+00    0.4570863789E+00
    0.3700000000E+04    0.2531340902E+00    0.1797382073E+00    0.1712194752E-01    0.1781842668E+00    0.4609372072E+00
    0.3900000000E+04    0.2586067162E+00    0.1757421820E+00    0.1670146423E-01    0.1820463909E+00    0.4645582415E+00
    0.4100000000E+04    0.2637792199E+00    0.1719585765E+00    0.1630174164E-01    0.1856973280E+00    0.4679732347E+00
    0.4300000000E+04    0.2686718173E+00    0.1683724571E+00    0.1592150023E-01    0.1891512820E+00    0.4712024998E+00
    0.4500000000E+04    0.2733031166E+00    0.1649700882E+00    0.1555954248E-01    0.1924213283E+00    0.4742635405E+00
    0.4700000000E+04    0.2776902810E+00    0.1617388363E+00    0.1521474937E-01    0.1955195282E+00    0.4771715440E+00
    0.4900000000E+04    0.2818491673E+00    0.1586670780E+00    0.1488607624E-01    0.1984570266E+00    0.4799397703E+00
    0.1000000000E+04    0.1329854902E+00    0.2637097166E+00    0.2548224483E-01    0.9351231368E-01    0.3638498467E+00
    0.3000000000E+04    0.2312791531E+00    0.1956441030E+00    0.1877757938E-01    0.1627668082E+00    0.4462566600E+00
    0.5000000000E+04    0.2838476339E+00    0.1571876319E+00    0.1472747749E-01    0.1998687653E+00    0.4812751618E+00
    0.7000000000E+04    0.3148603083E+00    0.1337902900E+00    0.1219822693E-01    0.2217954979E+00    0.5028488894E+00
    0.9000000000E+04    0.3344165287E+00    0.1182610513E+00    0.1050855163E-01    0.2356486400E+00    0.5180894238E+00
    0.1100000000E+05    0.3474778249E+00    0.1072157876E+00    0.9311495162E-02    0.2449201265E+00    0.5296872875E+00
    0.1300000000E+05    0.3566320408E+00    0.9892575430E-01    0.8421605025E-02    0.2514326967E+00    0.5389408547E+00
    0.1500000000E+05    0.3633088319E+00    0.9243821503E-01    0.7733833401E-02    0.2561940553E+00    0.5465713078E+00
    0.1700000000E+05    0.3683418688E+00    0.8719229539E-01    0.7185303140E-02    0.2597922405E+00    0.5530183647E+00
    0.1900000000E+05    0.3722413557E+00    0.8283871999E-01    0.6736483967E-02    0.2625873871E+00    0.5585686573E+00
    0.2100000000E+05    0.3753330131E+00    0.7914937700E-01    0.6361438559E-02    0.2648095758E+00    0.5634186956E+00
    0.2300000000E+05    0.3778325539E+00    0.7596914677E-01    0.6042508348E-02    0.2666112940E+00    0.5677086371E+00
    0.2500000000E+05    0.3798874609E+00    0.7318885221E-01    0.5767281242E-02    0.2680968755E+00    0.5715416827E+00
    0.2700000000E+05    0.3816014052E+00    0.7072935095E-01    0.5526787985E-02    0.2693397179E+00    0.5749958437E+00
    0.2900000000E+05    0.3830490539E+00    0.6853179344E-01    0.5314388886E-02    0.2703927262E+00    0.5781314029E+00
    0.3100000000E+05    0.3842853480E+00    0.6655144125E-01    0.5125063689E-02    0.2712948604E+00    0.5809958257E+00
    0.3300000000E+05    0.3853514871E+00    0.6475361960E-01    0.4954945144E-02    0.2720753604E+00    0.5836270941E+00
    0.3500000000E+05    0.3862788925E+00    0.6311099279E-01    0.4801004559E-02    0.2727565457E+00    0.5860560331E+00
    0.3700000000E+05    0.3870918926E+00    0.6160168437E-01    0.4660834783E-02    0.2733557121E+00    0.5883079704E+00
    0.3900000000E+05    0.3878095818E+00    0.6020795108E-01    0.4532497273E-02    0.2738864468E+00    0.5904039470E+00
    0.4100000000E+05    0.3884471318E+00    0.5891522893E-01    0.4414412243E-02    0.2743595555E+00    0.5923616147E+00
    0.4300000000E+05    0.3890167327E+00    0.5771143444E-01    0.4305278413E-02    0.2747837282E+00    0.5941959128E+00
    0.4500000000E+05    0.3895282791E+00    0.5658644461E-01    0.4204013442E-02    0.2751660252E+00    0.5959195861E+00
    0.4700000000E+05    0.3899898769E+00    0.5553170412E-01    0.4109709096E-02    0.2755122360E+00    0.5975435859E+00
    0.4900000000E+05    0.3904082241E+00    0.5453992459E-01    0.4021597057E-02    0.2758271493E+00    0.5990773844E+00
    0.1000000000E+05    0.3415604413E+00    0.1123109246E+00    0.9862577402E-02    0.2407172361E+00    0.5242435338E+00
    0.3000000000E+05    0.3836907773E+00    0.6751683276E-01    0.5217106511E-02    0.2708606354E+00    0.5795949414E+00
    0.5000000000E+05    0.3906029592E+00    0.5406565557E-01    0.3979654693E-02    0.2759741433E+00    0.5998130763E+00
    0.7000000000E+05    0.3931914141E+00    0.4674613283E-01    0.3348049429E-02    0.2779623205E+00    0.6113265008E+00
    0.9000000000E+05    0.3945035276E+00    0.4191627042E-01    0.2947076642E-02    0.2790109677E+00    0.6190521573E+00
    0.1100000000E+06    0.3952827012E+00    0.3840229399E-01    0.2662931314E-02    0.2796597211E+00    0.6247156738E+00
    0.1300000000E+06    0.3957926526E+00    0.3568861224E-01    0.2447725443E-02    0.2801024148E+00    0.6291058558E+00
    0.1500000000E+06    0.3961490644E+00    0.3350655155E-01    0.2277285144E-02    0.2804251781E+00    0.6326428537E+00
    0.1700000000E+06    0.3964102181E+00    0.3169983931E-01    0.2137890566E-02    0.2806719806E+00    0.6355743066E+00
    0.1900000000E+06    0.3966084970E+00    0.3017028461E-01    0.2021088506E-02    0.2808675847E+00    0.6380571478E+00
    0.2100000000E+06    0.3967632592E+00    0.2885254371E-01    0.1921343486E-02    0.2810269965E+00    0.6401964136E+00
    0.2300000000E+06    0.3968867510E+00    0.2770115286E-01    0.1834855932E-02    0.2811598417E+00    0.6420654759E+00
    0.2500000000E+06    0.3969870790E+00    0.2668333509E-01    0.1758918112E-02    0.2812725814E+00    0.6437173811E+00
    0.2700000000E+06    0.3970698117E+00    0.2577476227E-01    0.1691540405E-02    0.2813697168E+00    0.6451915821E+00
    0.2900000000E+06    0.3971388937E+00    0.2495693382E-01    0.1631223130E-02    0.2814544823E+00    0.6465181250E+00
    0.3100000000E+06    0.3971971935E+00    0.2421548852E-01    0.1576811298E-02    0.2815292632E+00    0.6477203585E+00
    0.3300000000E+06    0.3972468437E+00    0.2353907990E-01    0.1527398815E-02    0.2815958585E+00    0.6488167439E+00
    0.3500000000E+06    0.3972894611E+00    0.2291860495E-01    0.1482263393E-02    0.2816556521E+00    0.6498221004E+00
    0.3700000000E+06    0.3973262922E+00    0.2234666182E-01    0.1440821148E-02    0.2817097260E+00    0.6507484826E+00
    0.3900000000E+06    0.3973583126E+00    0.2181716007E-01    0.1402594214E-02    0.2817589396E+00    0.6516058118E+00
    0.4100000000E+06    0.3973862958E+00    0.2132503503E-01    0.1367187171E-02    0.2818039842E+00    0.6524023394E+00
    0.4300000000E+06    0.3974108627E+00    0.2086603502E-01    0.1334269593E-02    0.2818454226E+00    0.6531449932E+00
    0.4500000000E+06    0.3974325168E+00    0.2043656018E-01    0.1303562904E-02    0.2818837182E+00    0.6538396386E+00
    0.4700000000E+06    0.3974516705E+00    0.2003353894E-01    0.1274830354E-02    0.2819192559E+00    0.6544912803E+00
    0.4900000000E+06    0.3974686646E+00    0.1965433188E-01    0.1247869269E-02    0.2819523583E+00    0.6551042187E+00
    0.1000000000E+06    0.3949379300E+00    0.4003538725E-01    0.2794207174E-02    0.2793693580E+00    0.6220800417E+00
    0.3000000000E+06    0.3971692439E+00    0.2457743269E-01    0.1603340618E-02    0.2814929970E+00    0.6471335288E+00
    0.5000000000E+06    0.3974764423E+00    0.1947293313E-01    0.1234997487E-02    0.2819680831E+00    0.6553973561E+00
    0.7000000000E+06    0.3975676657E+00    0.1667440814E-01    0.1038554367E-02    0.2822031326E+00    0.6599134977E+00
    0.9000000000E+06    0.3975978954E+00    0.1483760098E-01    0.9118972401E-03    0.2823521405E+00    0.6628705993E+00
    0.1100000000E+07    0.3976045979E+00    0.1351112358E-01    0.8216303919E-03    0.2824589126E+00    0.6650022217E+00
    0.1300000000E+07    0.3976007201E+00    0.1249419372E-01    0.7531517168E-03    0.2825411779E+00    0.6666340349E+00
    0.1500000000E+07    0.3975916945E+00    0.1168191198E-01    0.6989292094E-03    0.2826076561E+00    0.6679359030E+00
    0.1700000000E+07    0.3975800952E+00    0.1101335207E-01    0.6546326862E-03    0.2826632091E+00    0.6690063438E+00
    0.1900000000E+07    0.3975672443E+00    0.1045035336E-01    0.6175729710E-03    0.2827107973E+00    0.6699069872E+00
    0.2100000000E+07    0.3975538595E+00    0.9967619480E-02    0.5859804046E-03    0.2827523446E+00    0.6706786432E+00
    0.2300000000E+07    0.3975403438E+00    0.9547622731E-02    0.5586366209E-03    0.2827891661E+00    0.6713495622E+00
    0.2500000000E+07    0.3975269282E+00    0.9177778753E-02    0.5346718360E-03    0.2828221971E+00    0.6719400100E+00
    0.2700000000E+07    0.3975137447E+00    0.8848784626E-02    0.5134463561E-03    0.2828521250E+00    0.6724649567E+00
    0.2900000000E+07    0.3975008676E+00    0.8553593159E-02    0.4944778541E-03    0.2828794689E+00    0.6729357346E+00
    0.3100000000E+07    0.3974883357E+00    0.8286754040E-02    0.4773948912E-03    0.2829046294E+00    0.6733611028E+00
    0.3300000000E+07    0.3974761663E+00    0.8043976118E-02    0.4619061799E-03    0.2829279222E+00    0.6737479535E+00
    0.3500000000E+07    0.3974643638E+00    0.7821828071E-02    0.4477796535E-03    0.2829496001E+00    0.6741017949E+00
    0.3700000000E+07    0.3974529241E+00    0.7617528529E-02    0.4348278477E-03    0.2829698683E+00    0.6744270898E+00
    0.3900000000E+07    0.3974418384E+00    0.7428795657E-02    0.4228974611E-03    0.2829888958E+00    0.6747274976E+00
    0.4100000000E+07    0.3974310948E+00    0.7253737249E-02    0.4118617542E-03    0.2830068234E+00    0.6750060519E+00
    0.4300000000E+07    0.3974206801E+00    0.7090769031E-02    0.4016149163E-03    0.2830237693E+00    0.6752652912E+00
    0.4500000000E+07    0.3974105801E+00    0.6938552995E-02    0.3920678268E-03    0.2830398340E+00    0.6755073589E+00
    0.4700000000E+07    0.3974007808E+00    0.6795950192E-02    0.3831448194E-03    0.2830551032E+00    0.6757340788E+00
    0.4900000000E+07    0.3973912681E+00    0.6661984152E-02    0.3747811816E-03    0.2830696512E+00    0.6759470138E+00
    0.1000000000E+07    0.3976031071E+00    0.1412635601E-01    0.8633674690E-03    0.2824093853E+00    0.6640139796E+00
    0.3000000000E+07    0.3974945570E+00    0.8416920883E-02    0.4857204815E-03    0.2828923006E+00    0.6731536269E+00
    0.5000000000E+07    0.3973866149E+00    0.6597972011E-02    0.3707914086E-03    0.2830766750E+00    0.6760487408E+00
    0.7000000000E+07    0.3973056182E+00    0.5616387563E-02    0.3101710699E-03    0.2831912186E+00    0.6776071150E+00
    0.9000000000E+07    0.3972415795E+00    0.4978246134E-02    0.2713719839E-03    0.2832743082E+00    0.6786186022E+00
    0.1100000000E+08    0.3971887689E+00    0.4520429873E-02    0.2438670862E-03    0.2833394898E+00    0.6793434148E+00
    0.1300000000E+08    0.3971438769E+00    0.4171169400E-02    0.2230861953E-03    0.2833931089E+00    0.6798958571E+00
    0.1500000000E+08    0.3971048530E+00    0.3893265554E-02    0.2066851548E-03    0.2834386465E+00    0.6803351032E+00
    0.1700000000E+08    0.3970703463E+00    0.3665245512E-02    0.1933224410E-03    0.2834782176E+00    0.6806952781E+00
    0.1900000000E+08    0.3970394224E+00    0.3473726621E-02    0.1821680926E-03    0.2835132035E+00    0.6809976330E+00
    0.2100000000E+08    0.3970114086E+00    0.3309874132E-02    0.1726777032E-03    0.2835445556E+00    0.6812561875E+00
    0.2300000000E+08    0.3969858048E+00    0.3167587867E-02    0.1644775099E-03    0.2835729572E+00    0.6814806164E+00
    0.2500000000E+08    0.3969622295E+00    0.3042501275E-02    0.1573013379E-03    0.2835989154E+00    0.6816778412E+00
    0.2700000000E+08    0.3969403850E+00    0.2931394911E-02    0.1509538500E-03    0.2836228171E+00    0.6818529629E+00
