  Pressure (Pa) 22mC5-400 (mol/kg) 2mC6-400 (mol/kg) 33mC5-400 (mol/kg) 23mC5-400 (mol/kg) C7-400 (mol/kg)
    0.1000000000E+01    0.5302640940E-03    0.2388646082E-02    0.2593153045E-03    0.9310847548E-03    0.3429746927E-02
    0.3000000000E+01    0.1575973803E-02    0.7034313927E-02    0.7636922348E-03    0.2767251971E-02    0.1012400688E-01
    0.5000000000E+01    0.2602494589E-02    0.1151175008E-01    0.1249851173E-02    0.4569747851E-02    0.1660716056E-01
    0.7000000000E+01    0.3610481237E-02    0.1582918251E-01    0.1718683009E-02    0.6339721209E-02    0.2288961101E-01
    0.9000000000E+01    0.4600558131E-02    0.1999431631E-01    0.2171021979E-02    0.8078267527E-02    0.2898108005E-01
    0.1100000000E+02    0.5573321012E-02    0.2401437468E-01    0.2607650115E-02    0.9786432034E-02    0.3489066334E-01
    0.1300000000E+02    0.6529338605E-02    0.2789613615E-01    0.3029301271E-02    0.1146521257E-01    0.4062688025E-01
    0.1500000000E+02    0.7469154150E-02    0.3164596832E-01    0.3436664792E-02    0.1311556225E-01    0.4619771895E-01
    0.1700000000E+02    0.8393286816E-02    0.3526985861E-01    0.3830388840E-02    0.1473839199E-01    0.5161067741E-01
    0.1900000000E+02    0.9302233035E-02    0.3877344225E-01    0.4211083430E-02    0.1633457278E-01    0.5687280052E-01
    0.2100000000E+02    0.1019646773E-01    0.4216202786E-01    0.4579323200E-02    0.1790493791E-01    0.6199071408E-01
    0.2300000000E+02    0.1107644550E-01    0.4544062075E-01    0.4935649940E-02    0.1945028498E-01    0.6697065554E-01
    0.2500000000E+02    0.1194260167E-01    0.4861394430E-01    0.5280574909E-02    0.2097137781E-01    0.7181850228E-01
    0.2700000000E+02    0.1279535334E-01    0.5168645954E-01    0.5614580955E-02    0.2246894820E-01    0.7653979728E-01
    0.2900000000E+02    0.1363510032E-01    0.5466238313E-01    0.5938124461E-02    0.2394369767E-01    0.8113977277E-01
    0.3100000000E+02    0.1446222601E-01    0.5754570380E-01    0.6251637134E-02    0.2539629893E-01    0.8562337173E-01
    0.3300000000E+02    0.1527709828E-01    0.6034019760E-01    0.6555527646E-02    0.2682739743E-01    0.8999526779E-01
    0.3500000000E+02    0.1608007021E-01    0.6304944180E-01    0.6850183154E-02    0.2823761269E-01    0.9425988341E-01
    0.3700000000E+02    0.1687148089E-01    0.6567682782E-01    0.7135970690E-02    0.2962753966E-01    0.9842140661E-01
    0.3900000000E+02    0.1765165604E-01    0.6822557313E-01    0.7413238451E-02    0.3099774985E-01    0.1024838064E+00
    0.4100000000E+02    0.1842090871E-01    0.7069873220E-01    0.7682316991E-02    0.3234879256E-01    0.1064508471E+00
    0.4300000000E+02    0.1917953991E-01    0.7309920667E-01    0.7943520321E-02    0.3368119594E-01    0.1103261011E+00
    0.4500000000E+02    0.1992783915E-01    0.7542975480E-01    0.8197146927E-02    0.3499546797E-01    0.1141129615E+00
    0.4700000000E+02    0.2066608502E-01    0.7769300014E-01    0.8443480715E-02    0.3629209748E-01    0.1178146531E+00
    0.4900000000E+02    0.2139454569E-01    0.7989143964E-01    0.8682791888E-02    0.3757155499E-01    0.1214342424E+00
    0.1000000000E+02    0.5089067663E-02    0.2202204626E-01    0.2391252951E-02    0.8936084064E-02    0.3195806199E-01
    0.3000000000E+02    0.1405021748E-01    0.5611537801E-01    0.6096108588E-02    0.2467272586E-01    0.8339582112E-01
    0.5000000000E+02    0.2175518765E-01    0.8096710475E-01    0.8799894888E-02    0.3820498651E-01    0.1232141663E+00
    0.7000000000E+02    0.2851232066E-01    0.9959968510E-01    0.1082970817E-01    0.5007388733E-01    0.1551415965E+00
    0.9000000000E+02    0.3453326459E-01    0.1138658621E+00    0.1238603234E-01    0.6065080177E-01    0.1814471236E+00
    0.1100000000E+03    0.3996839070E-01    0.1249628568E+00    0.1359841878E-01    0.7019959089E-01    0.2035936119E+00
    0.1300000000E+03    0.4492766967E-01    0.1336972657E+00    0.1455415980E-01    0.7891322921E-01    0.2225683899E+00
    0.1500000000E+03    0.4949353133E-01    0.1406312546E+00    0.1531410811E-01    0.8693636688E-01    0.2390631310E+00
    0.1700000000E+03    0.5372908774E-01    0.1461678096E+00    0.1592189958E-01    0.9437975739E-01    0.2535776037E+00
    0.1900000000E+03    0.5768356265E-01    0.1506027495E+00    0.1640957887E-01    0.1013297839E+00    0.2664824577E+00
    0.2100000000E+03    0.6139597756E-01    0.1541576793E+00    0.1680116335E-01    0.1078549268E+00    0.2780587802E+00
    0.2300000000E+03    0.6489771590E-01    0.1570015514E+00    0.1711497464E-01    0.1140102633E+00    0.2885238882E+00
    0.2500000000E+03    0.6821434566E-01    0.1592651692E+00    0.1736520680E-01    0.1198406653E+00    0.2980486494E+00
    0.2700000000E+03    0.7136693997E-01    0.1610511792E+00    0.1756300696E-01    0.1253831165E+00    0.3067694183E+00
    0.2900000000E+03    0.7437305047E-01    0.1624411053E+00    0.1771723576E-01    0.1306684212E+00    0.3147964497E+00
    0.3100000000E+03    0.7724743602E-01    0.1635003924E+00    0.1783501288E-01    0.1357224820E+00    0.3222199492E+00
    0.3300000000E+03    0.8000261580E-01    0.1642820850E+00    0.1792211484E-01    0.1405672713E+00    0.3291145039E+00
    0.3500000000E+03    0.8264929462E-01    0.1648295516E+00    0.1798326964E-01    0.1452215771E+00    0.3355423782E+00
    0.3700000000E+03    0.8519669377E-01    0.1651785284E+00    0.1802237787E-01    0.1497015839E+00    0.3415560026E+00
    0.3900000000E+03    0.8765281110E-01    0.1653586734E+00    0.1804268087E-01    0.1540213290E+00    0.3471998776E+00
    0.4100000000E+03    0.9002462754E-01    0.1653947607E+00    0.1804688991E-01    0.1581930649E+00    0.3525120470E+00
    0.4300000000E+03    0.9231827254E-01    0.1653076072E+00    0.1803728660E-01    0.1622275497E+00    0.3575252522E+00
    0.4500000000E+03    0.9453915776E-01    0.1651148005E+00    0.1801580158E-01    0.1661342818E+00    0.3622678444E+00
    0.4700000000E+03    0.9669208594E-01    0.1648312735E+00    0.1798407688E-01    0.1699216908E+00    0.3667645127E+00
    0.4900000000E+03    0.9878134014E-01    0.1644697636E+00    0.1794351552E-01    0.1735972942E+00    0.3710368707E+00
    0.1000000000E+03    0.3731641421E-01    0.1197530461E+00    0.1302899951E-01    0.6554030441E-01    0.1929699961E+00
    0.3000000000E+03    0.7582587944E-01    0.1630085086E+00    0.1778029214E-01    0.1332229013E+00    0.3185786564E+00
    0.5000000000E+03    0.9980330427E-01    0.1642632371E+00    0.1792030420E-01    0.1753953010E+00    0.3730949654E+00
    0.7000000000E+03    0.1176528494E+00    0.1579967917E+00    0.1720912319E-01    0.2068075627E+00    0.4060828743E+00
    0.9000000000E+03    0.1318562122E+00    0.1502723572E+00    0.1632044620E-01    0.2318155741E+00    0.4291146542E+00
    0.1100000000E+04    0.1435365483E+00    0.1426702529E+00    0.1543560494E-01    0.2523908074E+00    0.4465258594E+00
    0.1300000000E+04    0.1533329154E+00    0.1356412929E+00    0.1460946847E-01    0.2696551081E+00    0.4603694199E+00
    0.1500000000E+04    0.1616612154E+00    0.1292842318E+00    0.1385628687E-01    0.2843386848E+00    0.4717665851E+00
    0.1700000000E+04    0.1688149956E+00    0.1235783924E+00    0.1317585581E-01    0.2969570171E+00    0.4813918933E+00
    0.1900000000E+04    0.1750121628E+00    0.1184642183E+00    0.1256282595E-01    0.3078928317E+00    0.4896805173E+00
    0.2100000000E+04    0.1804198540E+00    0.1138733807E+00    0.1201032347E-01    0.3174397434E+00    0.4969284577E+00
    0.2300000000E+04    0.1851691707E+00    0.1097401719E+00    0.1151140810E-01    0.3258281085E+00    0.5033455698E+00
    0.2500000000E+04    0.1893646382E+00    0.1060054611E+00    0.1105964239E-01    0.3332416230E+00    0.5090856781E+00
    0.2700000000E+04    0.1930906472E+00    0.1026176089E+00    0.1064927929E-01    0.3398286263E+00    0.5142646674E+00
    0.2900000000E+04    0.1964160320E+00    0.9953215624E-01    0.1027528419E-01    0.3457101361E+00    0.5189718639E+00
    0.3100000000E+04    0.1993974271E+00    0.9671107052E-01    0.9933288054E-02    0.3509857400E+00    0.5232774733E+00
    0.3300000000E+04    0.2020817845E+00    0.9412188622E-01    0.9619515801E-02    0.3557380148E+00    0.5272376038E+00
    0.3500000000E+04    0.2045082960E+00    0.9173688108E-01    0.9330709926E-02    0.3600359011E+00    0.5308977517E+00
    0.3700000000E+04    0.2067098804E+00    0.8953234102E-01    0.9064058329E-02    0.3639373153E+00    0.5342952814E+00
    0.3900000000E+04    0.2087143477E+00    0.8748792676E-01    0.8817129662E-02    0.3674911937E+00    0.5374612259E+00
    0.4100000000E+04    0.2105453186E+00    0.8558613801E-01    0.8587817080E-02    0.3707391082E+00    0.5404216186E+00
    0.4300000000E+04    0.2122229576E+00    0.8381186488E-01    0.8374290068E-02    0.3737165538E+00    0.5431984963E+00
    0.4500000000E+04    0.2137645606E+00    0.8215201401E-01    0.8174953559E-02    0.3764539812E+00    0.5458106636E+00
    0.4700000000E+04    0.2151850306E+00    0.8059519753E-01    0.7988413396E-02    0.3789776324E+00    0.5482742856E+00
    0.4900000000E+04    0.2164972630E+00    0.7913147450E-01    0.7813447219E-02    0.3813102186E+00    0.5506033508E+00
    0.1000000000E+04    0.1379647651E+00    0.1464149034E+00    0.1587264255E-01    0.2425747956E+00    0.4383636441E+00
    0.3000000000E+04    0.1979465918E+00    0.9809071707E-01    0.1010053521E-01    0.3484181604E+00    0.5211710766E+00
    0.5000000000E+04    0.2171163502E+00    0.7843175833E-01    0.7729963245E-02    0.3824111330E+00    0.5517212929E+00
    0.7000000000E+04    0.2258825791E+00    0.6769386686E-01    0.6465463554E-02    0.3980405075E+00    0.5692871227E+00
    0.9000000000E+04    0.2307489972E+00    0.6070921660E-01    0.5665728437E-02    0.4067678944E+00    0.5811509049E+00
    0.1100000000E+05    0.2337944691E+00    0.5568373116E-01    0.5104982616E-02    0.4122635284E+00    0.5898876992E+00
    0.1300000000E+05    0.2358601443E+00    0.5183001431E-01    0.4684510021E-02    0.4160151800E+00    0.5966828195E+00
    0.1500000000E+05    0.2373440976E+00    0.4874397741E-01    0.4354202778E-02    0.4187282655E+00    0.6021712611E+00
    0.1700000000E+05    0.2384568795E+00    0.4619436911E-01    0.4085777441E-02    0.4207766196E+00    0.6067290665E+00
    0.1900000000E+05    0.2393194757E+00    0.4403790919E-01    0.3861963136E-02    0.4223754817E+00    0.6105954734E+00
    0.2100000000E+05    0.2400060041E+00    0.4218032314E-01    0.3671558293E-02    0.4236569812E+00    0.6139311294E+00
    0.2300000000E+05    0.2405642441E+00    0.4055660168E-01    0.3506944123E-02    0.4247064710E+00    0.6168485637E+00
    0.2500000000E+05    0.2410262999E+00    0.3912020115E-01    0.3362736096E-02    0.4255814242E+00    0.6194293257E+00
    0.2700000000E+05    0.2414144979E+00    0.3783676017E-01    0.3235006783E-02    0.4263218957E+00    0.6217341909E+00
    0.2900000000E+05    0.2417448212E+00    0.3668025533E-01    0.3120815008E-02    0.4269566230E+00    0.6238095268E+00
    0.3100000000E+05    0.2420289982E+00    0.3563054866E-01    0.3017908388E-02    0.4275067402E+00    0.6256914216E+00
    0.3300000000E+05    0.2422758209E+00    0.3467176674E-01    0.2924528630E-02    0.4279881260E+00    0.6274084490E+00
    0.3500000000E+05    0.2424920040E+00    0.3379119658E-01    0.2839280137E-02    0.4284129349E+00    0.6289835737E+00
    0.3700000000E+05    0.2426827605E+00    0.3297851365E-01    0.2761038959E-02    0.4287906243E+00    0.6304354966E+00
    0.3900000000E+05    0.2428521964E+00    0.3222522975E-01    0.2688888238E-02    0.4291286610E+00    0.6317796243E+00
    0.4100000000E+05    0.2430035882E+00    0.3152429002E-01    0.2622071471E-02    0.4294330168E+00    0.6330287819E+00
    0.4300000000E+05    0.2431395810E+00    0.3086977364E-01    0.2559958076E-02    0.4297085239E+00    0.6341937455E+00
    0.4500000000E+05    0.2432623324E+00    0.3025666791E-01    0.2502017595E-02    0.4299591336E+00    0.6352836457E+00
    0.4700000000E+05    0.2433736195E+00    0.2968069531E-01    0.2447800079E-02    0.4301881077E+00    0.6363062785E+00
    0.4900000000E+05    0.2434749186E+00    0.2913817941E-01    0.2396920990E-02    0.4303981626E+00    0.6372683464E+00
    0.1000000000E+05    0.2324314127E+00    0.5801379762E-01    0.5363301887E-02    0.4097995739E+00    0.5858177101E+00
    0.3000000000E+05    0.2418920715E+00    0.3614312935E-01    0.3068070746E-02    0.4272411632E+00    0.6247727180E+00
    0.5000000000E+05    0.2435222170E+00    0.2887845683E-01    0.2372628121E-02    0.4304968223E+00    0.6377285117E+00
    0.7000000000E+05    0.2441596267E+00    0.2485361449E-01    0.2001524072E-02    0.4318765268E+00    0.6448218895E+00
    0.9000000000E+05    0.2444874110E+00    0.2219181239E-01    0.1761635900E-02    0.4326471760E+00    0.6494694905E+00
    0.1100000000E+06    0.2446812894E+00    0.2025873837E-01    0.1590223696E-02    0.4331436495E+00    0.6528204658E+00
    0.1300000000E+06    0.2448060627E+00    0.1877033861E-01    0.1459881874E-02    0.4334927893E+00    0.6553858583E+00
    0.1500000000E+06    0.2448909498E+00    0.1757734765E-01    0.1356464182E-02    0.4337533374E+00    0.6574324761E+00
    0.1700000000E+06    0.2449509614E+00    0.1659264759E-01    0.1271827440E-02    0.4339562912E+00    0.6591151527E+00
    0.1900000000E+06    0.2449945521E+00    0.1576144695E-01    0.1200907104E-02    0.4341195877E+00    0.6605307832E+00
    0.2100000000E+06    0.2450268221E+00    0.1504729590E-01    0.1140365435E-02    0.4342543456E+00    0.6617435449E+00
    0.2300000000E+06    0.2450510161E+00    0.1442486078E-01    0.1087901202E-02    0.4343678355E+00    0.6627978703E+00
    0.2500000000E+06    0.2450692880E+00    0.1387590366E-01    0.1041869339E-02    0.4344650194E+00    0.6637256366E+00
    0.2700000000E+06    0.2450831180E+00    0.1338691003E-01    0.1001058421E-02    0.4345494043E+00    0.6645503924E+00
    0.2900000000E+06    0.2450935530E+00    0.1294762046E-01    0.9645539481E-03    0.4346235419E+00    0.6652899644E+00
    0.3100000000E+06    0.2451013520E+00    0.1255008507E-01    0.9316508795E-03    0.4346893355E+00    0.6659581310E+00
    0.3300000000E+06    0.2451070766E+00    0.1218803387E-01    0.9017957376E-03    0.4347482352E+00    0.6665657342E+00
    0.3500000000E+06    0.2451111499E+00    0.1185644527E-01    0.8745471403E-03    0.4348013660E+00    0.6671214385E+00
    0.3700000000E+06    0.2451138959E+00    0.1155124298E-01    0.8495482114E-03    0.4348496153E+00    0.6676322637E+00
    0.3900000000E+06    0.2451155660E+00    0.1126907834E-01    0.8265068607E-03    0.4348936927E+00    0.6681039657E+00
    0.4100000000E+06    0.2451163577E+00    0.1100717109E-01    0.8051814120E-03    0.4349341730E+00    0.6685413157E+00
    0.4300000000E+06    0.2451164278E+00    0.1076319075E-01    0.7853699445E-03    0.4349715271E+00    0.6689483064E+00
    0.4500000000E+06    0.2451159022E+00    0.1053516702E-01    0.7669022651E-03    0.4350061448E+00    0.6693283084E+00
    0.4700000000E+06    0.2451148827E+00    0.1032142108E-01    0.7496337764E-03    0.4350383515E+00    0.6696841899E+00
    0.4900000000E+06    0.2451134522E+00    0.1012051225E-01    0.7334407341E-03    0.4350684216E+00    0.6700184088E+00
    0.1000000000E+06    0.2445957736E+00    0.2115647775E-01    0.1669533030E-02    0.4329193524E+00    0.6512668729E+00
    0.3000000000E+06    0.2450977431E+00    0.1274405893E-01    0.9476898498E-03    0.4346573822E+00    0.6656322372E+00
    0.5000000000E+06    0.2451126046E+00    0.1002447618E-01    0.7257136069E-03    0.4350827295E+00    0.6701780690E+00
    0.7000000000E+06    0.2450855283E+00    0.8548827937E-02    0.6081111410E-03    0.4352983205E+00    0.6726231849E+00
    0.9000000000E+06    0.2450522720E+00    0.7586480510E-02    0.5326421977E-03    0.4354365126E+00    0.6742093958E+00
    0.1100000000E+07    0.2450196053E+00    0.6894620101E-02    0.4790445234E-03    0.4355361453E+00    0.6753455927E+00
    0.1300000000E+07    0.2449890545E+00    0.6365999834E-02    0.4384949610E-03    0.4356132032E+00    0.6762113122E+00
    0.1500000000E+07    0.2449608425E+00    0.5944881404E-02    0.4064580026E-03    0.4356756321E+00    0.6768994648E+00
    0.1700000000E+07    0.2449348323E+00    0.5599024613E-02    0.3803336707E-03    0.4357278946E+00    0.6774636145E+00
    0.1900000000E+07    0.2449107979E+00    0.5308303633E-02    0.3585112536E-03    0.4357727226E+00    0.6779371091E+00
    0.2100000000E+07    0.2448885096E+00    0.5059414505E-02    0.3399330332E-03    0.4358118987E+00    0.6783419438E+00
    0.2300000000E+07    0.2448677587E+00    0.4843160967E-02    0.3238721405E-03    0.4358466452E+00    0.6786932938E+00
    0.2500000000E+07    0.2448483638E+00    0.4652954018E-02    0.3098105141E-03    0.4358778337E+00    0.6790020141E+00
    0.2700000000E+07    0.2448301693E+00    0.4483931606E-02    0.2973676929E-03    0.4359061059E+00    0.6792761032E+00
    0.2900000000E+07    0.2448130423E+00    0.4332416533E-02    0.2862571848E-03    0.4359319471E+00    0.6795216023E+00
    0.3100000000E+07    0.2447968693E+00    0.4195568947E-02    0.2762586238E-03    0.4359557328E+00    0.6797431719E+00
    0.3300000000E+07    0.2447815531E+00    0.4071155874E-02    0.2671993824E-03    0.4359777590E+00    0.6799444725E+00
    0.3500000000E+07    0.2447670098E+00    0.3957393879E-02    0.2589420650E-03    0.4359982627E+00    0.6801284251E+00
    0.3700000000E+07    0.2447531669E+00    0.3852838901E-02    0.2513757836E-03    0.4360174369E+00    0.6802973926E+00
    0.3900000000E+07    0.2447399614E+00    0.3756307409E-02    0.2444099346E-03    0.4360354405E+00    0.6804533102E+00
    0.4100000000E+07    0.2447273382E+00    0.3666818863E-02    0.2379696712E-03    0.4360524059E+00    0.6805977797E+00
    0.4300000000E+07    0.2447152489E+00    0.3583552988E-02    0.2319925517E-03    0.4360684444E+00    0.6807321406E+00
    0.4500000000E+07    0.2447036507E+00    0.3505817564E-02    0.2264260193E-03    0.4360836505E+00    0.6808575223E+00
    0.4700000000E+07    0.2446925057E+00    0.3433023790E-02    0.2212254799E-03    0.4360981052E+00    0.6809748848E+00
    0.4900000000E+07    0.2446817803E+00    0.3364667210E-02    0.2163528182E-03    0.4361118782E+00    0.6810850502E+00
    0.1000000000E+07    0.2450357186E+00    0.7215184408E-02    0.5038065043E-03    0.4354898721E+00    0.6748195901E+00
    0.3000000000E+07    0.2448048430E+00    0.4262310965E-02    0.2811306500E-03    0.4359440768E+00    0.6796351296E+00
    0.5000000000E+07    0.2446765654E+00    0.3332014543E-02    0.2140290109E-03    0.4361185284E+00    0.6811376594E+00
    0.7000000000E+07    0.2445884194E+00    0.2832094580E-02    0.1787725152E-03    0.4362270082E+00    0.6819418940E+00
    0.9000000000E+07    0.2445212745E+00    0.2507882545E-02    0.1562585273E-03    0.4363057256E+00    0.6824621881E+00
    0.1100000000E+08    0.2444670420E+00    0.2275670484E-02    0.1403230512E-03    0.4363674875E+00    0.6828341909E+00
    0.1300000000E+08    0.2444215532E+00    0.2098735625E-02    0.1282971260E-03    0.4364182985E+00    0.6831172585E+00
    0.1500000000E+08    0.2443823782E+00    0.1958083331E-02    0.1188143588E-03    0.4364614539E+00    0.6833420348E+00
    0.1700000000E+08    0.2443479769E+00    0.1842766395E-02    0.1110939152E-03    0.4364989568E+00    0.6835261548E+00
    0.1900000000E+08    0.2443173116E+00    0.1745970670E-02    0.1046532746E-03    0.4365321152E+00    0.6836805823E+00
    0.2100000000E+08    0.2442896501E+00    0.1663202336E-02    0.9917623465E-04    0.4365618305E+00    0.6838125405E+00
    0.2300000000E+08    0.2442644561E+00    0.1591361217E-02    0.9444588111E-04    0.4365887500E+00    0.6839270080E+00
    0.2500000000E+08    0.2442413252E+00    0.1528229840E-02    0.9030784655E-04    0.4366133541E+00    0.6840275433E+00
    0.2700000000E+08    0.2442199451E+00    0.1472174328E-02    0.8664891413E-04    0.4366360094E+00    0.6841167665E+00
