  Pressure (Pa) 22mC5-400 (mol/kg) 2mC6-400 (mol/kg) 33mC5-400 (mol/kg) 23mC5-400 (mol/kg) C7-400 (mol/kg)
    0.1000000000E+01    0.5301591253E-03    0.3181445194E-02    0.6475992205E-03    0.2792700419E-03    0.3424893753E-02
    0.3000000000E+01    0.1575062180E-02    0.9349696050E-02    0.1903304394E-02    0.8296945670E-03    0.1008199335E-01
    0.5000000000E+01    0.2600050334E-02    0.1527091180E-01    0.3108885735E-02    0.1369634556E-02    0.1649482275E-01
    0.7000000000E+01    0.3605855803E-02    0.2095907700E-01    0.4267181460E-02    0.1899475450E-02    0.2267751716E-01
    0.9000000000E+01    0.4593173938E-02    0.2642713385E-01    0.5380818085E-02    0.2419583286E-02    0.2864312530E-01
    0.1100000000E+02    0.5562665554E-02    0.3168707848E-01    0.6452230000E-02    0.2930305922E-02    0.3440371236E-01
    0.1300000000E+02    0.6514959069E-02    0.3675004667E-01    0.7483676882E-02    0.3431974162E-02    0.3997045142E-01
    0.1500000000E+02    0.7450652498E-02    0.4162639037E-01    0.8477259245E-02    0.3924902811E-02    0.4535370487E-01
    0.1700000000E+02    0.8370315293E-02    0.4632574602E-01    0.9434932333E-02    0.4409391635E-02    0.5056309698E-01
    0.1900000000E+02    0.9274490051E-02    0.5085709596E-01    0.1035851858E-01    0.4885726266E-02    0.5560757893E-01
    0.2100000000E+02    0.1016369410E-01    0.5522882340E-01    0.1124971878E-01    0.5354179036E-02    0.6049548690E-01
    0.2300000000E+02    0.1103842098E-01    0.5944876199E-01    0.1211012219E-01    0.5815009754E-02    0.6523459437E-01
    0.2500000000E+02    0.1189914182E-01    0.6352424051E-01    0.1294121556E-01    0.6268466429E-02    0.6983215908E-01
    0.2700000000E+02    0.1274630658E-01    0.6746212316E-01    0.1374439133E-01    0.6714785938E-02    0.7429496540E-01
    0.2900000000E+02    0.1358034530E-01    0.7126884613E-01    0.1452095509E-01    0.7154194660E-02    0.7862936252E-01
    0.3100000000E+02    0.1440166915E-01    0.7495045064E-01    0.1527213226E-01    0.7586909054E-02    0.8284129904E-01
    0.3300000000E+02    0.1521067153E-01    0.7851261300E-01    0.1599907419E-01    0.8013136208E-02    0.8693635431E-01
    0.3500000000E+02    0.1600772898E-01    0.8196067196E-01    0.1670286373E-01    0.8433074349E-02    0.9091976683E-01
    0.3700000000E+02    0.1679320211E-01    0.8529965353E-01    0.1738452028E-01    0.8846913319E-02    0.9479646004E-01
    0.3900000000E+02    0.1756743646E-01    0.8853429376E-01    0.1804500438E-01    0.9254835018E-02    0.9857106590E-01
    0.4100000000E+02    0.1833076328E-01    0.9166905943E-01    0.1868522195E-01    0.9657013827E-02    0.1022479462E+00
    0.4300000000E+02    0.1908350026E-01    0.9470816702E-01    0.1930602812E-01    0.1005361700E-01    0.1058312124E+00
    0.4500000000E+02    0.1982595225E-01    0.9765560011E-01    0.1990823076E-01    0.1044480501E-01    0.1093247429E+00
    0.4700000000E+02    0.2055841192E-01    0.1005151253E+00    0.2049259372E-01    0.1083073194E-01    0.1127322002E+00
    0.4900000000E+02    0.2128116034E-01    0.1032903069E+00    0.2105983980E-01    0.1121154575E-01    0.1160570453E+00
    0.1000000000E+02    0.5080108049E-02    0.2908240498E-01    0.5921656997E-02    0.2676096692E-02    0.3154832824E-01
    0.3000000000E+02    0.1399257159E-01    0.7312492521E-01    0.1489964337E-01    0.7371375491E-02    0.8075028133E-01
    0.5000000000E+02    0.2163897764E-01    0.1046473307E+00    0.2133725935E-01    0.1140007989E-01    0.1176895182E+00
    0.7000000000E+02    0.2834587557E-01    0.1280917331E+00    0.2613544218E-01    0.1493411789E-01    0.1467099235E+00
    0.9000000000E+02    0.3433247100E-01    0.1460287862E+00    0.2981545257E-01    0.1808889168E-01    0.1702928854E+00
    0.1100000000E+03    0.3975188952E-01    0.1600508519E+00    0.3270014974E-01    0.2094501776E-01    0.1899635944E+00
    0.1300000000E+03    0.4471466426E-01    0.1711970001E+00    0.3500021192E-01    0.2356069055E-01    0.2067139505E+00
    0.1500000000E+03    0.4930280797E-01    0.1801737827E+00    0.3685891034E-01    0.2597909000E-01    0.2212186442E+00
    0.1700000000E+03    0.5357861206E-01    0.1874780083E+00    0.3837700228E-01    0.2823301354E-01    0.2339536952E+00
    0.1900000000E+03    0.5759035117E-01    0.1934688525E+00    0.3962734860E-01    0.3034787916E-01    0.2452653142E+00
    0.2100000000E+03    0.6137609812E-01    0.1984121507E+00    0.4066389146E-01    0.3234373372E-01    0.2554118445E+00
    0.2300000000E+03    0.6496634494E-01    0.2025086468E+00    0.4152737910E-01    0.3423663282E-01    0.2645903397E+00
    0.2500000000E+03    0.6838584654E-01    0.2059125900E+00    0.4224913469E-01    0.3603961145E-01    0.2729539850E+00
    0.2700000000E+03    0.7165494505E-01    0.2087443210E+00    0.4285360680E-01    0.3776338117E-01    0.2806238559E+00
    0.2900000000E+03    0.7479053882E-01    0.2110989947E+00    0.4336013705E-01    0.3941684032E-01    0.2876970578E+00
    0.3100000000E+03    0.7780680347E-01    0.2130527544E+00    0.4378421131E-01    0.4100745360E-01    0.2942524884E+00
    0.3300000000E+03    0.8071573636E-01    0.2146671840E+00    0.4413836209E-01    0.4254153878E-01    0.3003549998E+00
    0.3500000000E+03    0.8352757352E-01    0.2159925732E+00    0.4443283021E-01    0.4402448618E-01    0.3060584568E+00
    0.3700000000E+03    0.8625111281E-01    0.2170703470E+00    0.4467605734E-01    0.4546092885E-01    0.3114080219E+00
    0.3900000000E+03    0.8889396719E-01    0.2179348989E+00    0.4487505764E-01    0.4685487589E-01    0.3164418862E+00
    0.4100000000E+03    0.9146276543E-01    0.2186149911E+00    0.4503570160E-01    0.4820981816E-01    0.3211925981E+00
    0.4300000000E+03    0.9396331253E-01    0.2191348360E+00    0.4516293535E-01    0.4952881275E-01    0.3256880954E+00
    0.4500000000E+03    0.9640071919E-01    0.2195149396E+00    0.4526095178E-01    0.5081455112E-01    0.3299525164E+00
    0.4700000000E+03    0.9877950715E-01    0.2197727666E+00    0.4533332541E-01    0.5206941457E-01    0.3340068423E+00
    0.4900000000E+03    0.1011036954E+00    0.2199232683E+00    0.4538311954E-01    0.5329551971E-01    0.3378694127E+00
    0.1000000000E+03    0.3710536870E-01    0.1534545164E+00    0.3134207451E-01    0.1955022719E-01    0.1805459581E+00
    0.3000000000E+03    0.7631279181E-01    0.2121218416E+00    0.4358163740E-01    0.4021958380E-01    0.2910351524E+00
    0.5000000000E+03    0.1022464509E+00    0.2199623632E+00    0.4540038827E-01    0.5389838633E-01    0.3397339023E+00
    0.7000000000E+03    0.1229330507E+00    0.2174428257E+00    0.4504000358E-01    0.6481349622E-01    0.3700052133E+00
    0.9000000000E+03    0.1406478605E+00    0.2118679680E+00    0.4400489885E-01    0.7416319420E-01    0.3916541702E+00
    0.1100000000E+04    0.1563536521E+00    0.2053617493E+00    0.4274063002E-01    0.8245454214E-01    0.4083574155E+00
    0.1300000000E+04    0.1705535238E+00    0.1986907168E+00    0.4141272422E-01    0.8995250148E-01    0.4218709518E+00
    0.1500000000E+04    0.1835483160E+00    0.1921621545E+00    0.4009067881E-01    0.9681550571E-01    0.4331643547E+00
    0.1700000000E+04    0.1955359816E+00    0.1859023025E+00    0.3880540404E-01    0.1031477984E+00    0.4428275772E+00
    0.1900000000E+04    0.2066565264E+00    0.1799587674E+00    0.3757058777E-01    0.1090231039E+00    0.4512454872E+00
    0.2100000000E+04    0.2170147192E+00    0.1743429252E+00    0.3639166374E-01    0.1144965895E+00    0.4586826752E+00
    0.2300000000E+04    0.2266925539E+00    0.1690490124E+00    0.3526992353E-01    0.1196114294E+00    0.4653286327E+00
    0.2500000000E+04    0.2357565356E+00    0.1640632564E+00    0.3420453144E-01    0.1244026421E+00    0.4713235855E+00
    0.2700000000E+04    0.2442621648E+00    0.1593684278E+00    0.3319356290E-01    0.1288994524E+00    0.4767741254E+00
    0.2900000000E+04    0.2522568163E+00    0.1549461696E+00    0.3223456037E-01    0.1331268078E+00    0.4817631109E+00
    0.3100000000E+04    0.2597816563E+00    0.1507781964E+00    0.3132483915E-01    0.1371063875E+00    0.4863561843E+00
    0.3300000000E+04    0.2668729615E+00    0.1468469035E+00    0.3046165822E-01    0.1408572973E+00    0.4906062016E+00
    0.3500000000E+04    0.2735630535E+00    0.1431356560E+00    0.2964231601E-01    0.1443965614E+00    0.4945563268E+00
    0.3700000000E+04    0.2798809800E+00    0.1396289074E+00    0.2886420330E-01    0.1477394811E+00    0.4982422475E+00
    0.3900000000E+04    0.2858530242E+00    0.1363122221E+00    0.2812483108E-01    0.1508999026E+00    0.5016937927E+00
    0.4100000000E+04    0.2915030959E+00    0.1331722485E+00    0.2742184371E-01    0.1538904233E+00    0.5049361379E+00
    0.4300000000E+04    0.2968530383E+00    0.1301966653E+00    0.2675302322E-01    0.1567225526E+00    0.5079907161E+00
    0.4500000000E+04    0.3019228746E+00    0.1273741165E+00    0.2611628840E-01    0.1594068424E+00    0.5108759170E+00
    0.4700000000E+04    0.3067310103E+00    0.1246941411E+00    0.2550969089E-01    0.1619529928E+00    0.5136076316E+00
    0.4900000000E+04    0.3112944017E+00    0.1221471041E+00    0.2493140943E-01    0.1643699410E+00    0.5161996803E+00
    0.1000000000E+04    0.1487138953E+00    0.2086671033E+00    0.4338768171E-01    0.7842115485E-01    0.4004882478E+00
    0.3000000000E+04    0.2560755933E+00    0.1528315181E+00    0.3177371098E-01    0.1351463218E+00    0.4841055749E+00
    0.5000000000E+04    0.3134892566E+00    0.1209206359E+00    0.2465235122E-01    0.1655325673E+00    0.5174471679E+00
    0.7000000000E+04    0.3477588038E+00    0.1015581910E+00    0.2020210257E-01    0.1837004703E+00    0.5373379464E+00
    0.9000000000E+04    0.3696388783E+00    0.8876975502E-01    0.1723242831E-01    0.1953211955E+00    0.5510913837E+00
    0.1100000000E+05    0.3844141042E+00    0.7973144072E-01    0.1513414435E-01    0.2031838026E+00    0.5613922315E+00
    0.1300000000E+05    0.3948670789E+00    0.7299601845E-01    0.1358022943E-01    0.2087579516E+00    0.5695084764E+00
    0.1500000000E+05    0.4025518898E+00    0.6776402630E-01    0.1238471391E-01    0.2128650233E+00    0.5761326892E+00
    0.1700000000E+05    0.4083840982E+00    0.6356431304E-01    0.1143595515E-01    0.2159892477E+00    0.5816813781E+00
    0.1900000000E+05    0.4129291618E+00    0.6010351940E-01    0.1066363405E-01    0.2184298925E+00    0.5864229146E+00
    0.2100000000E+05    0.4165509772E+00    0.5719027713E-01    0.1002157142E-01    0.2203796814E+00    0.5905394595E+00
    0.2300000000E+05    0.4194922373E+00    0.5469470998E-01    0.9478326090E-02    0.2219672370E+00    0.5941598017E+00
    0.2500000000E+05    0.4219198978E+00    0.5252564334E-01    0.9011811740E-02    0.2232811056E+00    0.5973780369E+00
    0.2700000000E+05    0.4239519616E+00    0.5061718373E-01    0.8606086240E-02    0.2243839164E+00    0.6002647986E+00
    0.2900000000E+05    0.4256738324E+00    0.4892049546E-01    0.8249366083E-02    0.2253210308E+00    0.6028743251E+00
    0.3100000000E+05    0.4271486264E+00    0.4739858282E-01    0.7932758105E-02    0.2261259975E+00    0.6052490774E+00
    0.3300000000E+05    0.4284238605E+00    0.4602287582E-01    0.7649425786E-02    0.2268240934E+00    0.6074228545E+00
    0.3500000000E+05    0.4295359037E+00    0.4477093413E-01    0.7394026969E-02    0.2274346805E+00    0.6094229530E+00
    0.3700000000E+05    0.4305130072E+00    0.4362486502E-01    0.7162325820E-02    0.2279728112E+00    0.6112717011E+00
    0.3900000000E+05    0.4313774110E+00    0.4257020929E-01    0.6950919444E-02    0.2284503446E+00    0.6129875699E+00
    0.4100000000E+05    0.4321468348E+00    0.4159514127E-01    0.6757041640E-02    0.2288767378E+00    0.6145859950E+00
    0.4300000000E+05    0.4328355525E+00    0.4068988403E-01    0.6578419633E-02    0.2292596150E+00    0.6160799921E+00
    0.4500000000E+05    0.4334551771E+00    0.3984627513E-01    0.6413167848E-02    0.2296051845E+00    0.6174806267E+00
    0.4700000000E+05    0.4340152440E+00    0.3905743929E-01    0.6259708048E-02    0.2299185486E+00    0.6187973763E+00
    0.4900000000E+05    0.4345236483E+00    0.3831753848E-01    0.6116708502E-02    0.2302039354E+00    0.6200384134E+00
    0.1000000000E+05    0.3777017268E+00    0.8389308498E-01    0.1609925011E-01    0.1996098570E+00    0.5565750595E+00
    0.3000000000E+05    0.4264388393E+00    0.4813964412E-01    0.8086515930E-02    0.2257382910E+00    0.6040887616E+00
    0.5000000000E+05    0.4347605792E+00    0.3796434947E-01    0.6048770797E-02    0.2303372642E+00    0.6206327927E+00
    0.7000000000E+05    0.4379293594E+00    0.3256469961E-01    0.5036326047E-02    0.2321484458E+00    0.6298595704E+00
    0.9000000000E+05    0.4395536524E+00    0.2905292916E-01    0.4404242262E-02    0.2331101939E+00    0.6359714993E+00
    0.1100000000E+06    0.4405268982E+00    0.2652235393E-01    0.3961416023E-02    0.2337076722E+00    0.6404113880E+00
    0.1300000000E+06    0.4411689452E+00    0.2458161728E-01    0.3628823247E-02    0.2341165293E+00    0.6438293092E+00
    0.1500000000E+06    0.4416210273E+00    0.2302933605E-01    0.3367101834E-02    0.2344152272E+00    0.6465678566E+00
    0.1700000000E+06    0.4419546712E+00    0.2174949071E-01    0.3154146180E-02    0.2346439741E+00    0.6488272819E+00
    0.1900000000E+06    0.4422097939E+00    0.2066973053E-01    0.2976452243E-02    0.2348254801E+00    0.6507336293E+00
    0.2100000000E+06    0.4424103472E+00    0.1974220257E-01    0.2825239416E-02    0.2349735387E+00    0.6523707823E+00
    0.2300000000E+06    0.4425715358E+00    0.1893378255E-01    0.2694516511E-02    0.2350970145E+00    0.6537970516E+00
    0.2500000000E+06    0.4427034560E+00    0.1822069319E-01    0.2580035729E-02    0.2352018665E+00    0.6550544164E+00
    0.2700000000E+06    0.4428130632E+00    0.1758535235E-01    0.2478689623E-02    0.2352922517E+00    0.6561739817E+00
    0.2900000000E+06    0.4429052982E+00    0.1701443329E-01    0.2388145040E-02    0.2353711600E+00    0.6571793578E+00
    0.3100000000E+06    0.4429837632E+00    0.1649762098E-01    0.2306611259E-02    0.2354407985E+00    0.6580888366E+00
    0.3300000000E+06    0.4430511434E+00    0.1602678679E-01    0.2232687767E-02    0.2355028336E+00    0.6589168425E+00
    0.3500000000E+06    0.4431094795E+00    0.1559542446E-01    0.2165261232E-02    0.2355585473E+00    0.6596749252E+00
    0.3700000000E+06    0.4431603484E+00    0.1519825475E-01    0.2103433907E-02    0.2356089434E+00    0.6603724584E+00
    0.3900000000E+06    0.4432049875E+00    0.1483094208E-01    0.2046472724E-02    0.2356548188E+00    0.6610171409E+00
    0.4100000000E+06    0.4432443801E+00    0.1448988743E-01    0.1993772357E-02    0.2356968155E+00    0.6616153633E+00
    0.4300000000E+06    0.4432793173E+00    0.1417207437E-01    0.1944827941E-02    0.2357354561E+00    0.6621724811E+00
    0.4500000000E+06    0.4433104422E+00    0.1387495275E-01    0.1899214587E-02    0.2357711711E+00    0.6626930213E+00
    0.4700000000E+06    0.4433382827E+00    0.1359634968E-01    0.1856571794E-02    0.2358043180E+00    0.6631808402E+00
    0.4900000000E+06    0.4433632759E+00    0.1333440041E-01    0.1816591414E-02    0.2358351969E+00    0.6636392465E+00
    0.1000000000E+06    0.4400952624E+00    0.2769592199E-01    0.4165478554E-02    0.2334400142E+00    0.6383494815E+00
    0.3000000000E+06    0.4429460664E+00    0.1674981547E-01    0.2346347083E-02    0.2354070233E+00    0.6576451056E+00
    0.5000000000E+06    0.4433748212E+00    0.1320915890E-01    0.1797515295E-02    0.2358498666E+00    0.6638583282E+00
    0.7000000000E+06    0.4435195818E+00    0.1128231045E-01    0.1507284496E-02    0.2360692206E+00    0.6672211296E+00
    0.9000000000E+06    0.4435806383E+00    0.1002297913E-01    0.1321040189E-02    0.2362083384E+00    0.6694102472E+00
    0.1100000000E+07    0.4436077175E+00    0.9116133104E-02    0.1188721695E-02    0.2363080440E+00    0.6709818750E+00
    0.1300000000E+07    0.4436184961E+00    0.8422371388E-02    0.1088569902E-02    0.2363848734E+00    0.6721813199E+00
    0.1500000000E+07    0.4436206311E+00    0.7869128937E-02    0.1009406971E-02    0.2364469630E+00    0.6731359231E+00
    0.1700000000E+07    0.4436178862E+00    0.7414375741E-02    0.9448263295E-03    0.2364988510E+00    0.6739192686E+00
    0.1900000000E+07    0.4436122803E+00    0.7031844347E-02    0.8908588503E-03    0.2365433011E+00    0.6745772520E+00
    0.2100000000E+07    0.4436049677E+00    0.6704153571E-02    0.8448976781E-03    0.2365821095E+00    0.6751401890E+00
    0.2300000000E+07    0.4435966401E+00    0.6419278306E-02    0.8051509858E-03    0.2366165043E+00    0.6756290214E+00
    0.2500000000E+07    0.4435877271E+00    0.6168596079E-02    0.7703413761E-03    0.2366473588E+00    0.6760587443E+00
    0.2700000000E+07    0.4435785026E+00    0.5945739963E-02    0.7395305011E-03    0.2366753150E+00    0.6764404168E+00
    0.2900000000E+07    0.4435691449E+00    0.5745891647E-02    0.7120115954E-03    0.2367008577E+00    0.6767823986E+00
    0.3100000000E+07    0.4435597710E+00    0.5565327936E-02    0.6872408897E-03    0.2367243610E+00    0.6770911428E+00
    0.3300000000E+07    0.4435504585E+00    0.5401119806E-02    0.6647923093E-03    0.2367461198E+00    0.6773717214E+00
    0.3500000000E+07    0.4435412585E+00    0.5250926810E-02    0.6443266599E-03    0.2367663701E+00    0.6776281833E+00
    0.3700000000E+07    0.4435322045E+00    0.5112853068E-02    0.6255701260E-03    0.2367853037E+00    0.6778638061E+00
    0.3900000000E+07    0.4435233175E+00    0.4985344131E-02    0.6082989324E-03    0.2368030785E+00    0.6780812747E+00
    0.4100000000E+07    0.4435146103E+00    0.4867111686E-02    0.5923281818E-03    0.2368198258E+00    0.6782828131E+00
    0.4300000000E+07    0.4435060898E+00    0.4757077629E-02    0.5775035917E-03    0.2368356561E+00    0.6784702810E+00
    0.4500000000E+07    0.4434977588E+00    0.4654331870E-02    0.5636952791E-03    0.2368506632E+00    0.6786452473E+00
    0.4700000000E+07    0.4434896172E+00    0.4558100057E-02    0.5507930192E-03    0.2368649274E+00    0.6788090462E+00
    0.4900000000E+07    0.4434816631E+00    0.4467718581E-02    0.5387025842E-03    0.2368785177E+00    0.6789628204E+00
    0.1000000000E+07    0.4435969609E+00    0.9536467216E-02    0.1249859684E-02    0.2362617928E+00    0.6702539243E+00
    0.3000000000E+07    0.4435644543E+00    0.5653398119E-02    0.6993116892E-03    0.2367128443E+00    0.6769405809E+00
    0.5000000000E+07    0.4434777552E+00    0.4424539712E-02    0.5329360115E-03    0.2368850793E+00    0.6790362615E+00
    0.7000000000E+07    0.4434083068E+00    0.3763029692E-02    0.4454006952E-03    0.2369920852E+00    0.6801594649E+00
    0.9000000000E+07    0.4433520163E+00    0.3333586409E-02    0.3894558546E-03    0.2370697088E+00    0.6808865781E+00
    0.1100000000E+08    0.4433049760E+00    0.3025792058E-02    0.3498347001E-03    0.2371306036E+00    0.6814066439E+00
    0.1300000000E+08    0.4432646566E+00    0.2791147811E-02    0.3199208736E-03    0.2371806971E+00    0.6818024674E+00
    0.1500000000E+08    0.4432294076E+00    0.2604546423E-02    0.2963248163E-03    0.2372232409E+00    0.6821168274E+00
    0.1700000000E+08    0.4431981091E+00    0.2451508334E-02    0.2771085231E-03    0.2372602109E+00    0.6823743538E+00
    0.1900000000E+08    0.4431699710E+00    0.2323015954E-02    0.2610738819E-03    0.2372928974E+00    0.6825903647E+00
    0.2100000000E+08    0.4431444167E+00    0.2213119778E-02    0.2474354717E-03    0.2373221892E+00    0.6827749546E+00
    0.2300000000E+08    0.4431210132E+00    0.2117713900E-02    0.2356543312E-03    0.2373487245E+00    0.6829350829E+00
    0.2500000000E+08    0.4430994275E+00    0.2033860560E-02    0.2253468058E-03    0.2373729772E+00    0.6830757244E+00
    0.2700000000E+08    0.4430793981E+00    0.1959394576E-02    0.2162314484E-03    0.2373953086E+00    0.6832005426E+00
