  Pressure (Pa) 22mC5-400 (mol/kg) 2mC6-400 (mol/kg) 33mC5-400 (mol/kg) 23mC5-400 (mol/kg) C7-400 (mol/kg)
    0.1000000000E+01    0.5297848959E-03    0.3972633050E-02    0.5822272104E-03    0.2790730015E-03    0.3421890685E-02
    0.3000000000E+01    0.1571785937E-02    0.1165110412E-01    0.1707691315E-02    0.8279695415E-03    0.1005612354E-01
    0.5000000000E+01    0.2591194081E-02    0.1899262955E-01    0.2783913656E-02    0.1364971492E-02    0.1642597572E-01
    0.7000000000E+01    0.3588956920E-02    0.2601810795E-01    0.3813948954E-02    0.1890577676E-02    0.2254811918E-01
    0.9000000000E+01    0.4565967655E-02    0.3274673811E-01    0.4800603329E-02    0.2405258288E-02    0.2843783041E-01
    0.1100000000E+02    0.5523068995E-02    0.3919618975E-01    0.5746459285E-02    0.2909456945E-02    0.3410913420E-01
    0.1300000000E+02    0.6461056726E-02    0.4538275390E-01    0.6653897723E-02    0.3403592563E-02    0.3957493002E-01
    0.1500000000E+02    0.7380682984E-02    0.5132147584E-01    0.7525117380E-02    0.3888061084E-02    0.4484710330E-01
    0.1700000000E+02    0.8282659247E-02    0.5702627274E-01    0.8362152048E-02    0.4363237047E-02    0.4993662377E-01
    0.1900000000E+02    0.9167659090E-02    0.6251003819E-01    0.9166885863E-02    0.4829475038E-02    0.5485363253E-01
    0.2100000000E+02    0.1003632071E-01    0.6778473520E-01    0.9941066909E-02    0.5287111026E-02    0.5960751931E-01
    0.2300000000E+02    0.1088924926E-01    0.7286147919E-01    0.1068631936E-01    0.5736463581E-02    0.6420699129E-01
    0.2500000000E+02    0.1172701900E-01    0.7775061218E-01    0.1140415433E-01    0.6177835010E-02    0.6866013442E-01
    0.2700000000E+02    0.1255017526E-01    0.8246176931E-01    0.1209597961E-01    0.6611512395E-02    0.7297446820E-01
    0.2900000000E+02    0.1335923627E-01    0.8700393850E-01    0.1276310837E-01    0.7037768556E-02    0.7715699484E-01
    0.3100000000E+02    0.1415469488E-01    0.9138551421E-01    0.1340676705E-01    0.7456862941E-02    0.8121424330E-01
    0.3300000000E+02    0.1493702006E-01    0.9561434581E-01    0.1402810242E-01    0.7869042449E-02    0.8515230886E-01
    0.3500000000E+02    0.1570665844E-01    0.9969778137E-01    0.1462818798E-01    0.8274542193E-02    0.8897688890E-01
    0.3700000000E+02    0.1646403556E-01    0.1036427072E+00    0.1520802974E-01    0.8673586205E-02    0.9269331503E-01
    0.3900000000E+02    0.1720955719E-01    0.1074555835E+00    0.1576857146E-01    0.9066388097E-02    0.9630658225E-01
    0.4100000000E+02    0.1794361044E-01    0.1111424775E+00    0.1631069944E-01    0.9453151667E-02    0.9982137534E-01
    0.4300000000E+02    0.1866656487E-01    0.1147090922E+00    0.1683524678E-01    0.9834071467E-02    0.1032420927E+00
    0.4500000000E+02    0.1937877347E-01    0.1181607940E+00    0.1734299740E-01    0.1020933333E-01    0.1065728683E+00
    0.4700000000E+02    0.2008057360E-01    0.1215026370E+00    0.1783468957E-01    0.1057911487E-01    0.1098175910E+00
    0.4900000000E+02    0.2077228789E-01    0.1247393855E+00    0.1831101921E-01    0.1094358594E-01    0.1129799232E+00
    0.1000000000E+02    0.5046956203E-02    0.3600531238E-01    0.5278477818E-02    0.2658641121E-02    0.3129995202E-01
    0.3000000000E+02    0.1375863602E-01    0.8921429771E-01    0.1308779801E-01    0.7248195254E-02    0.7920088816E-01
    0.5000000000E+02    0.2111445982E-01    0.1263197640E+00    0.1854362972E-01    0.1112388110E-01    0.1145312794E+00
    0.7000000000E+02    0.2749679725E-01    0.1533771253E+00    0.2253059068E-01    0.1448699727E-01    0.1419743926E+00
    0.9000000000E+02    0.3315152034E-01    0.1737573434E+00    0.2554105681E-01    0.1746698817E-01    0.1641112566E+00
    0.1100000000E+03    0.3824464747E-01    0.1894867908E+00    0.2787099462E-01    0.2015126061E-01    0.1824871502E+00
    0.1300000000E+03    0.4289278378E-01    0.2018562708E+00    0.2970894390E-01    0.2260120785E-01    0.1980871702E+00
    0.1500000000E+03    0.4718053088E-01    0.2117262534E+00    0.3118060339E-01    0.2486137444E-01    0.2115710280E+00
    0.1700000000E+03    0.5117096367E-01    0.2196917547E+00    0.3237291017E-01    0.2696497153E-01    0.2233984450E+00
    0.1900000000E+03    0.5491220845E-01    0.2261768572E+00    0.3334784174E-01    0.2893733998E-01    0.2339004506E+00
    0.2100000000E+03    0.5844172410E-01    0.2314915851E+00    0.3415072027E-01    0.3079820416E-01    0.2433220469E+00
    0.2300000000E+03    0.6178917574E-01    0.2358675367E+00    0.3481541494E-01    0.3256318494E-01    0.2518488542E+00
    0.2500000000E+03    0.6497841590E-01    0.2394809820E+00    0.3536771414E-01    0.3424484264E-01    0.2596243619E+00
    0.2700000000E+03    0.6802888274E-01    0.2424682803E+00    0.3582757646E-01    0.3585341329E-01    0.2667614509E+00
    0.2900000000E+03    0.7095660759E-01    0.2449364372E+00    0.3621067193E-01    0.3739733902E-01    0.2733502980E+00
    0.3100000000E+03    0.7377495450E-01    0.2469704947E+00    0.3652946116E-01    0.3888365752E-01    0.2794639288E+00
    0.3300000000E+03    0.7649517206E-01    0.2486388087E+00    0.3679396593E-01    0.4031829250E-01    0.2851622004E+00
    0.3500000000E+03    0.7912681134E-01    0.2499968844E+00    0.3701232924E-01    0.4170627383E-01    0.2904947120E+00
    0.3700000000E+03    0.8167804677E-01    0.2510902070E+00    0.3719122887E-01    0.4305190645E-01    0.2955029667E+00
    0.3900000000E+03    0.8415592555E-01    0.2519563623E+00    0.3733618699E-01    0.4435890171E-01    0.3002220022E+00
    0.4100000000E+03    0.8656656358E-01    0.2526266447E+00    0.3745180515E-01    0.4563048053E-01    0.3046816377E+00
    0.4300000000E+03    0.8891530117E-01    0.2531272912E+00    0.3754194463E-01    0.4686945541E-01    0.3089074386E+00
    0.4500000000E+03    0.9120682775E-01    0.2534804392E+00    0.3760986633E-01    0.4807829608E-01    0.3129214719E+00
    0.4700000000E+03    0.9344528279E-01    0.2537048767E+00    0.3765834045E-01    0.4925918264E-01    0.3167429036E+00
    0.4900000000E+03    0.9563433806E-01    0.2538166352E+00    0.3768973324E-01    0.5041404892E-01    0.3203884760E+00
    0.1000000000E+03    0.3576008565E-01    0.1821100124E+00    0.2677744961E-01    0.1884177308E-01    0.1736981127E+00
    0.3000000000E+03    0.7237870612E-01    0.2460031158E+00    0.3637742871E-01    0.3814730570E-01    0.2764625041E+00
    0.5000000000E+03    0.9671137720E-01    0.2538346344E+00    0.3769967044E-01    0.5098227030E-01    0.3221499802E+00
    0.7000000000E+03    0.1162934042E+00    0.2507605301E+00    0.3736916930E-01    0.6131493247E-01    0.3509278855E+00
    0.9000000000E+03    0.1331926673E+00    0.2445452318E+00    0.3653782075E-01    0.7023440407E-01    0.3717443624E+00
    0.1100000000E+04    0.1482766893E+00    0.2373964739E+00    0.3553928198E-01    0.7819760435E-01    0.3879585743E+00
    0.1300000000E+04    0.1619972105E+00    0.2300993831E+00    0.3449576902E-01    0.8544245674E-01    0.4011821276E+00
    0.1500000000E+04    0.1746236205E+00    0.2229648625E+00    0.3345805514E-01    0.9211083642E-01    0.4123096210E+00
    0.1700000000E+04    0.1863326203E+00    0.2161189941E+00    0.3244852673E-01    0.9829579741E-01    0.4218883273E+00
    0.1900000000E+04    0.1972487333E+00    0.2096083819E+00    0.3147701989E-01    0.1040629115E+00    0.4302771274E+00
    0.2100000000E+04    0.2074647966E+00    0.2034433624E+00    0.3054740693E-01    0.1094610624E+00    0.4377239589E+00
    0.2300000000E+04    0.2170532233E+00    0.1976172927E+00    0.2966059085E-01    0.1145283777E+00    0.4444072047E+00
    0.2500000000E+04    0.2260725989E+00    0.1921156951E+00    0.2881596076E-01    0.1192957041E+00    0.4504594398E+00
    0.2700000000E+04    0.2345717436E+00    0.1869207765E+00    0.2801213580E-01    0.1237887465E+00    0.4559818471E+00
    0.2900000000E+04    0.2425923205E+00    0.1820137166E+00    0.2724736002E-01    0.1280294422E+00    0.4610533786E+00
    0.3100000000E+04    0.2501705680E+00    0.1773758334E+00    0.2651971783E-01    0.1320368733E+00    0.4657368042E+00
    0.3300000000E+04    0.2573384878E+00    0.1729891648E+00    0.2582725324E-01    0.1358278916E+00    0.4700828366E+00
    0.3500000000E+04    0.2641246806E+00    0.1688367401E+00    0.2516803628E-01    0.1394175597E+00    0.4741330206E+00
    0.3700000000E+04    0.2705549504E+00    0.1649026845E+00    0.2454019931E-01    0.1428194680E+00    0.4779218079E+00
    0.3900000000E+04    0.2766527521E+00    0.1611722349E+00    0.2394195618E-01    0.1460459710E+00    0.4814780765E+00
    0.4100000000E+04    0.2824395296E+00    0.1576317074E+00    0.2337161119E-01    0.1491083653E+00    0.4848262650E+00
    0.4300000000E+04    0.2879349799E+00    0.1542684425E+00    0.2282756212E-01    0.1520170277E+00    0.4879872324E+00
    0.4500000000E+04    0.2931572603E+00    0.1510707381E+00    0.2230829980E-01    0.1547815254E+00    0.4909789202E+00
    0.4700000000E+04    0.2981231579E+00    0.1480277814E+00    0.2181240561E-01    0.1574107043E+00    0.4938168684E+00
    0.4900000000E+04    0.3028482287E+00    0.1451295797E+00    0.2133854783E-01    0.1599127622E+00    0.4965146221E+00
    0.1000000000E+04    0.1409274462E+00    0.2410215991E+00    0.3604928455E-01    0.7431755846E-01    0.3803023397E+00
    0.3000000000E+04    0.2464346472E+00    0.1796622716E+00    0.2687901950E-01    0.1300612162E+00    0.4634401912E+00
    0.5000000000E+04    0.3051250079E+00    0.1437318475E+00    0.2110948916E-01    0.1611185208E+00    0.4978146948E+00
    0.7000000000E+04    0.3410257274E+00    0.1214765182E+00    0.1742151939E-01    0.1801458167E+00    0.5186975425E+00
    0.9000000000E+04    0.3642848107E+00    0.1065864007E+00    0.1492397172E-01    0.1924936599E+00    0.5333116519E+00
    0.1100000000E+05    0.3801246089E+00    0.9597988465E-01    0.1314276545E-01    0.2009178617E+00    0.5443547216E+00
    0.1300000000E+05    0.3913836820E+00    0.8803751706E-01    0.1181580222E-01    0.2069174025E+00    0.5531165982E+00
    0.1500000000E+05    0.3996812658E+00    0.8184888810E-01    0.1079092401E-01    0.2113479357E+00    0.5603085323E+00
    0.1700000000E+05    0.4059849255E+00    0.7687097051E-01    0.9975461730E-02    0.2147210814E+00    0.5663615918E+00
    0.1900000000E+05    0.4108980131E+00    0.7276284034E-01    0.9310451013E-02    0.2173560785E+00    0.5715553414E+00
    0.2100000000E+05    0.4148113774E+00    0.6930081807E-01    0.8756886532E-02    0.2194598610E+00    0.5760806022E+00
    0.2300000000E+05    0.4179868668E+00    0.6633248502E-01    0.8288070538E-02    0.2211711543E+00    0.5800729456E+00
    0.2500000000E+05    0.4206051703E+00    0.6375053563E-01    0.7885175467E-02    0.2225857498E+00    0.5836318517E+00
    0.2700000000E+05    0.4227942603E+00    0.6147726012E-01    0.7534571828E-02    0.2237715371E+00    0.5868322848E+00
    0.2900000000E+05    0.4246468780E+00    0.5945498091E-01    0.7226163402E-02    0.2247777499E+00    0.5897320105E+00
    0.3100000000E+05    0.4262316156E+00    0.5763995760E-01    0.6952317766E-02    0.2256408274E+00    0.5923763949E+00
    0.3300000000E+05    0.4276001324E+00    0.5599838518E-01    0.6707160112E-02    0.2263882332E+00    0.5948016546E+00
    0.3500000000E+05    0.4287919704E+00    0.5450369606E-01    0.6486095279E-02    0.2270410047E+00    0.5970371173E+00
    0.3700000000E+05    0.4298378415E+00    0.5313469734E-01    0.6285476968E-02    0.2276154936E+00    0.5991068323E+00
    0.3900000000E+05    0.4307619146E+00    0.5187425713E-01    0.6102374154E-02    0.2281245778E+00    0.6010307404E+00
    0.4100000000E+05    0.4315834380E+00    0.5070836001E-01    0.5934403112E-02    0.2285785215E+00    0.6028255410E+00
    0.4300000000E+05    0.4323179081E+00    0.4962541607E-01    0.5779604596E-02    0.2289855947E+00    0.6045053442E+00
    0.4500000000E+05    0.4329779248E+00    0.4861574738E-01    0.5636352672E-02    0.2293525273E+00    0.6060821686E+00
    0.4700000000E+05    0.4335738269E+00    0.4767120075E-01    0.5503286103E-02    0.2296848456E+00    0.6075663261E+00
    0.4900000000E+05    0.4341141682E+00    0.4678485187E-01    0.5379256039E-02    0.2299871260E+00    0.6089667238E+00
    0.1000000000E+05    0.3729165391E+00    0.1008714544E+00    0.1396363283E-01    0.1970823952E+00    0.5391798445E+00
    0.3000000000E+05    0.4254691718E+00    0.5852387135E-01    0.7085322130E-02    0.2252252884E+00    0.5910836727E+00
    0.5000000000E+05    0.4343657798E+00    0.4636161640E-01    0.5320318637E-02    0.2301282207E+00    0.6096379718E+00
    0.7000000000E+05    0.4377162185E+00    0.3987846426E-01    0.4440925940E-02    0.2320355249E+00    0.6201039555E+00
    0.9000000000E+05    0.4394202468E+00    0.3564730657E-01    0.3890612468E-02    0.2330394857E+00    0.6270853615E+00
    0.1100000000E+06    0.4404354690E+00    0.3258995539E-01    0.3504294906E-02    0.2336591954E+00    0.6321818778E+00
    0.1300000000E+06    0.4411023234E+00    0.3024002018E-01    0.3213644397E-02    0.2340811952E+00    0.6361199449E+00
    0.1500000000E+06    0.4415702892E+00    0.2835699832E-01    0.2984589743E-02    0.2343883104E+00    0.6392846176E+00
    0.1700000000E+06    0.4419147197E+00    0.2680206092E-01    0.2797975337E-02    0.2346227748E+00    0.6419019844E+00
    0.1900000000E+06    0.4421775051E+00    0.2548847884E-01    0.2642086350E-02    0.2348083433E+00    0.6441148751E+00
    0.2100000000E+06    0.4423836996E+00    0.2435879707E-01    0.2509297490E-02    0.2349593933E+00    0.6460186362E+00
    0.2300000000E+06    0.4425491628E+00    0.2337318695E-01    0.2394400650E-02    0.2350851360E+00    0.6476797216E+00
    0.2500000000E+06    0.4426844004E+00    0.2250302122E-01    0.2293699769E-02    0.2351917478E+00    0.6491460822E+00
    0.2700000000E+06    0.4427966343E+00    0.2172710616E-01    0.2204488632E-02    0.2352835265E+00    0.6504533194E+00
    0.2900000000E+06    0.4428909852E+00    0.2102936014E-01    0.2124733673E-02    0.2353635574E+00    0.6516285044E+00
    0.3100000000E+06    0.4429711800E+00    0.2039732340E-01    0.2052872900E-02    0.2354341138E+00    0.6526926451E+00
    0.3300000000E+06    0.4430399926E+00    0.1982116820E-01    0.1987683808E-02    0.2354969091E+00    0.6536623309E+00
    0.3500000000E+06    0.4430995284E+00    0.1929302167E-01    0.1928193914E-02    0.2355532596E+00    0.6545508633E+00
    0.3700000000E+06    0.4431514123E+00    0.1880649065E-01    0.1873618548E-02    0.2356041944E+00    0.6553690507E+00
    0.3900000000E+06    0.4431969178E+00    0.1835632094E-01    0.1823316594E-02    0.2356505299E+00    0.6561257803E+00
    0.4100000000E+06    0.4432370560E+00    0.1793814801E-01    0.1776758356E-02    0.2356929224E+00    0.6568284366E+00
    0.4300000000E+06    0.4432726395E+00    0.1754831149E-01    0.1733501812E-02    0.2357319062E+00    0.6574832144E+00
    0.4500000000E+06    0.4433043283E+00    0.1718371502E-01    0.1693174775E-02    0.2357679205E+00    0.6580953546E+00
    0.4700000000E+06    0.4433326638E+00    0.1684171876E-01    0.1655461308E-02    0.2358013303E+00    0.6586693254E+00
    0.4900000000E+06    0.4433580939E+00    0.1652005608E-01    0.1620091234E-02    0.2358324413E+00    0.6592089638E+00
    0.1000000000E+06    0.4399858226E+00    0.3400874330E-01    0.3682405746E-02    0.2333819978E+00    0.6298123777E+00
    0.3000000000E+06    0.4429326603E+00    0.2070579490E-01    0.2087899666E-02    0.2353999020E+00    0.6521733301E+00
    0.5000000000E+06    0.4433698387E+00    0.1636622715E-01    0.1603210999E-02    0.2358472170E+00    0.6594669623E+00
    0.7000000000E+06    0.4435169937E+00    0.1399646751E-01    0.1346074521E-02    0.2360678431E+00    0.6634348714E+00
    0.9000000000E+06    0.4435790537E+00    0.1244449245E-01    0.1180746745E-02    0.2362074944E+00    0.6660258907E+00
    0.1100000000E+07    0.4436066474E+00    0.1132534309E-01    0.1063130777E-02    0.2363074735E+00    0.6678900530E+00
    0.1300000000E+07    0.4436177247E+00    0.1046826931E-01    0.9740180325E-03    0.2363844618E+00    0.6693150577E+00
    0.1500000000E+07    0.4436200486E+00    0.9784234593E-02    0.9035252525E-03    0.2364466519E+00    0.6704506298E+00
    0.1700000000E+07    0.4436174306E+00    0.9221600400E-02    0.8459808876E-03    0.2364986076E+00    0.6713834565E+00
    0.1900000000E+07    0.4436119143E+00    0.8748059983E-02    0.7978676923E-03    0.2365431052E+00    0.6721676911E+00
    0.2100000000E+07    0.4436046671E+00    0.8342217171E-02    0.7568736932E-03    0.2365819486E+00    0.6728391511E+00
    0.2300000000E+07    0.4435963888E+00    0.7989258088E-02    0.7214086356E-03    0.2366163696E+00    0.6734226061E+00
    0.2500000000E+07    0.4435875138E+00    0.7678553798E-02    0.6903381367E-03    0.2366472444E+00    0.6739358096E+00
    0.2700000000E+07    0.4435783194E+00    0.7402251382E-02    0.6628284618E-03    0.2366752166E+00    0.6743918659E+00
    0.2900000000E+07    0.4435689858E+00    0.7154405028E-02    0.6382513449E-03    0.2367007721E+00    0.6748006881E+00
    0.3100000000E+07    0.4435596315E+00    0.6930418272E-02    0.6161232095E-03    0.2367242859E+00    0.6751699340E+00
    0.3300000000E+07    0.4435503352E+00    0.6726673650E-02    0.5960650018E-03    0.2367460534E+00    0.6755056255E+00
    0.3500000000E+07    0.4435411488E+00    0.6540279575E-02    0.5777748568E-03    0.2367663109E+00    0.6758125733E+00
    0.3700000000E+07    0.4435321062E+00    0.6368892940E-02    0.5610090166E-03    0.2367852506E+00    0.6760946728E+00
    0.3900000000E+07    0.4435232289E+00    0.6210592033E-02    0.5455682130E-03    0.2368030305E+00    0.6763551174E+00
    0.4100000000E+07    0.4435145301E+00    0.6063783715E-02    0.5312877545E-03    0.2368197823E+00    0.6765965526E+00
    0.4300000000E+07    0.4435060168E+00    0.5927134446E-02    0.5180301847E-03    0.2368356165E+00    0.6768211920E+00
    0.4500000000E+07    0.4434976921E+00    0.5799518241E-02    0.5056797592E-03    0.2368506269E+00    0.6770309037E+00
    0.4700000000E+07    0.4434895560E+00    0.5679976839E-02    0.4941382311E-03    0.2368648940E+00    0.6772272767E+00
    0.4900000000E+07    0.4434816067E+00    0.5567688850E-02    0.4833215950E-03    0.2368784870E+00    0.6774116725E+00
    0.1000000000E+07    0.4435956714E+00    0.1184424659E-01    0.1117491972E-02    0.2362611056E+00    0.6670261842E+00
    0.3000000000E+07    0.4435643055E+00    0.7039674822E-02    0.6269069257E-03    0.2367127642E+00    0.6749898491E+00
    0.5000000000E+07    0.4434777011E+00    0.5514039564E-02    0.4781621159E-03    0.2368850497E+00    0.6774997523E+00
    0.7000000000E+07    0.4434082790E+00    0.4691732315E-02    0.3998064283E-03    0.2369920697E+00    0.6788480010E+00
    0.9000000000E+07    0.4433519994E+00    0.4157510695E-02    0.3496926179E-03    0.2370696992E+00    0.6797220009E+00
    0.1100000000E+08    0.4433049647E+00    0.3774428773E-02    0.3141839278E-03    0.2371305970E+00    0.6803477345E+00
    0.1300000000E+08    0.4432646484E+00    0.3482282972E-02    0.2873654333E-03    0.2371806921E+00    0.6808243352E+00
    0.1500000000E+08    0.4432294014E+00    0.3249887305E-02    0.2662051087E-03    0.2372232370E+00    0.6812030726E+00
    0.1700000000E+08    0.4431981043E+00    0.3059248063E-02    0.2489685829E-03    0.2372602078E+00    0.6815134903E+00
    0.1900000000E+08    0.4431699672E+00    0.2899154902E-02    0.2345832460E-03    0.2372928948E+00    0.6817739750E+00
    0.2100000000E+08    0.4431444135E+00    0.2762209325E-02    0.2223457403E-03    0.2373221869E+00    0.6819966503E+00
    0.2300000000E+08    0.4431210106E+00    0.2643304107E-02    0.2117732959E-03    0.2373487225E+00    0.6821898786E+00
    0.2500000000E+08    0.4430994253E+00    0.2538784237E-02    0.2025221835E-03    0.2373729754E+00    0.6823596401E+00
    0.2700000000E+08    0.4430793962E+00    0.2445955378E-02    0.1943401974E-03    0.2373953070E+00    0.6825103408E+00
