  Pressure (Pa) 22mC5-400 (mol/kg) 2mC6-400 (mol/kg) 33mC5-400 (mol/kg) 23mC5-400 (mol/kg) C7-400 (mol/kg)
    0.1000000000E+01    0.5292529546E-03    0.4752926158E-02    0.1289997338E-03    0.7434480116E-03    0.5117963644E-02
    0.3000000000E+01    0.1567143453E-02    0.1385928143E-01    0.3761939386E-03    0.2201402349E-02    0.1495674150E-01
    0.5000000000E+01    0.2578682120E-02    0.2246778153E-01    0.6099229168E-03    0.3622361529E-02    0.2430146639E-01
    0.7000000000E+01    0.3565151037E-02    0.3061644567E-01    0.8312152718E-03    0.5008125238E-02    0.3319077074E-01
    0.9000000000E+01    0.4527747348E-02    0.3833949483E-01    0.1040996764E-02    0.6360373949E-02    0.4165930571E-01
    0.1100000000E+02    0.5467590268E-02    0.4566781925E-01    0.1240102977E-02    0.7680678746E-02    0.4973824347E-01
    0.1300000000E+02    0.6385727397E-02    0.5262937798E-01    0.1429290143E-02    0.8970510193E-02    0.5745570526E-01
    0.1500000000E+02    0.7283140424E-02    0.5924954169E-01    0.1609244433E-02    0.1023124635E-01    0.6483712756E-01
    0.1700000000E+02    0.8160750301E-02    0.6555138815E-01    0.1780589958E-02    0.1146418000E-01    0.7190557672E-01
    0.1900000000E+02    0.9019421929E-02    0.7155595778E-01    0.1943895690E-02    0.1267052528E-01    0.7868202018E-01
    0.2100000000E+02    0.9859968410E-02    0.7728247543E-01    0.2099681473E-02    0.1385142360E-01    0.8518556128E-01
    0.2300000000E+02    0.1068315493E-01    0.8274854367E-01    0.2248423252E-02    0.1500794911E-01    0.9143364312E-01
    0.2500000000E+02    0.1148970226E-01    0.8797031162E-01    0.2390557651E-02    0.1614111365E-01    0.9744222616E-01
    0.2700000000E+02    0.1228029003E-01    0.9296262301E-01    0.2526485975E-02    0.1725187124E-01    0.1032259435E+00
    0.2900000000E+02    0.1305555959E-01    0.9773914637E-01    0.2656577739E-02    0.1834112226E-01    0.1087982369E+00
    0.3100000000E+02    0.1381611680E-01    0.1023124898E+00    0.2781173772E-02    0.1940971717E-01    0.1141714764E+00
    0.3300000000E+02    0.1456253439E-01    0.1066943023E+00    0.2900588969E-02    0.2045846003E-01    0.1193570661E+00
    0.3500000000E+02    0.1529535431E-01    0.1108953642E+00    0.3015114719E-02    0.2148811162E-01    0.1243655366E+00
    0.3700000000E+02    0.1601508975E-01    0.1149256666E+00    0.3125021076E-02    0.2249939237E-01    0.1292066286E+00
    0.3900000000E+02    0.1672222707E-01    0.1187944827E+00    0.3230558682E-02    0.2349298508E-01    0.1338893653E+00
    0.4100000000E+02    0.1741722759E-01    0.1225104318E+00    0.3331960490E-02    0.2446953733E-01    0.1384221183E+00
    0.4300000000E+02    0.1810052915E-01    0.1260815356E+00    0.3429443303E-02    0.2542966381E-01    0.1428126659E+00
    0.4500000000E+02    0.1877254764E-01    0.1295152699E+00    0.3523209155E-02    0.2637394837E-01    0.1470682448E+00
    0.4700000000E+02    0.1943367840E-01    0.1328186098E+00    0.3613446552E-02    0.2730294601E-01    0.1511955971E+00
    0.4900000000E+02    0.2008429745E-01    0.1359980715E+00    0.3700331590E-02    0.2821718461E-01    0.1552010120E+00
    0.1000000000E+02    0.5000445898E-02    0.4205118576E-01    0.1141835271E-02    0.7024425168E-02    0.4574564972E-01
    0.3000000000E+02    0.1343764070E-01    0.1000504661E+00    0.2719542463E-02    0.1887795043E-01    0.1115090041E+00
    0.5000000000E+02    0.2040577762E-01    0.1375432681E+00    0.3742568860E-02    0.2866892726E-01    0.1571598440E+00
    0.7000000000E+02    0.2636197766E-01    0.1632321082E+00    0.4446135036E-02    0.3703908219E-01    0.1911737959E+00
    0.9000000000E+02    0.3158502556E-01    0.1815342544E+00    0.4949608508E-02    0.4437980280E-01    0.2177921078E+00
    0.1100000000E+03    0.3625552024E-01    0.1949310225E+00    0.5320042277E-02    0.5094464301E-01    0.2393841492E+00
    0.1300000000E+03    0.4049615709E-01    0.2049219058E+00    0.5597965346E-02    0.5690586842E-01    0.2573837713E+00
    0.1500000000E+03    0.4439356524E-01    0.2124647052E+00    0.5809274811E-02    0.6238511114E-01    0.2727131497E+00
    0.1700000000E+03    0.4801088583E-01    0.2181984783E+00    0.5971258196E-02    0.6747102735E-01    0.2859945103E+00
    0.1900000000E+03    0.5139538637E-01    0.2225649150E+00    0.6095871466E-02    0.7222998683E-01    0.2976642891E+00
    0.2100000000E+03    0.5458326572E-01    0.2258783177E+00    0.6191628835E-02    0.7671281876E-01    0.3080385634E+00
    0.2300000000E+03    0.5760279518E-01    0.2283678862E+00    0.6264744660E-02    0.8095922153E-01    0.3173524780E+00
    0.2500000000E+03    0.6047643500E-01    0.2302042885E+00    0.6319850969E-02    0.8500073427E-01    0.3257850166E+00
    0.2700000000E+03    0.6322229861E-01    0.2315169180E+00    0.6360463571E-02    0.8886279270E-01    0.3334751265E+00
    0.2900000000E+03    0.6585518936E-01    0.2324054277E+00    0.6389293601E-02    0.9256618461E-01    0.3405325411E+00
    0.3100000000E+03    0.6838734961E-01    0.2329476315E+00    0.6408461003E-02    0.9612810180E-01    0.3470452367E+00
    0.3300000000E+03    0.7082901209E-01    0.2332050367E+00    0.6419644020E-02    0.9956291407E-01    0.3530846927E+00
    0.3500000000E+03    0.7318881227E-01    0.2332267920E+00    0.6424185936E-02    0.1028827484E+00    0.3587096785E+00
    0.3700000000E+03    0.7547410145E-01    0.2330525549E+00    0.6423172593E-02    0.1060979283E+00    0.3639690303E+00
    0.3900000000E+03    0.7769118761E-01    0.2327146057E+00    0.6417489583E-02    0.1092173125E+00    0.3689037207E+00
    0.4100000000E+03    0.7984552296E-01    0.2322394282E+00    0.6407865017E-02    0.1122485576E+00    0.3735484249E+00
    0.4300000000E+03    0.8194185162E-01    0.2316489068E+00    0.6394901933E-02    0.1151983261E+00    0.3779327213E+00
    0.4500000000E+03    0.8398432714E-01    0.2309612431E+00    0.6379103126E-02    0.1180724510E+00    0.3820820226E+00
    0.4700000000E+03    0.8597660683E-01    0.2301916655E+00    0.6360890378E-02    0.1208760686E+00    0.3860183082E+00
    0.4900000000E+03    0.8792192814E-01    0.2293529841E+00    0.6340619495E-02    0.1236137254E+00    0.3897607031E+00
    0.1000000000E+03    0.3398063256E-01    0.1887357286E+00    0.5148480272E-02    0.4774697986E-01    0.2291113019E+00
    0.3000000000E+03    0.6713317955E-01    0.2327156440E+00    0.6399971308E-02    0.9436387087E-01    0.3438521749E+00
    0.5000000000E+03    0.8887789190E-01    0.2289111810E+00    0.6329808377E-02    0.1249590999E+00    0.3915645040E+00
    0.7000000000E+03    0.1060898883E+00    0.2183494303E+00    0.6058878831E-02    0.1491873301E+00    0.4206075526E+00
    0.9000000000E+03    0.1205932988E+00    0.2069095315E+00    0.5752795903E-02    0.1696102613E+00    0.4410897502E+00
    0.1100000000E+04    0.1331670050E+00    0.1959653616E+00    0.5452705143E-02    0.1873216488E+00    0.4567155721E+00
    0.1300000000E+04    0.1442369350E+00    0.1858656355E+00    0.5170603091E-02    0.2029195702E+00    0.4692352158E+00
    0.1500000000E+04    0.1540754203E+00    0.1766608434E+00    0.4909577327E-02    0.2167864187E+00    0.4796083578E+00
    0.1700000000E+04    0.1628757465E+00    0.1683058218E+00    0.4669592611E-02    0.2291936043E+00    0.4884157457E+00
    0.1900000000E+04    0.1707850503E+00    0.1607263120E+00    0.4449469384E-02    0.2403477538E+00    0.4960344161E+00
    0.2100000000E+04    0.1779206882E+00    0.1538429254E+00    0.4247642882E-02    0.2504136932E+00    0.5027224040E+00
    0.2300000000E+04    0.1843792054E+00    0.1475799995E+00    0.4062475414E-02    0.2595270399E+00    0.5086637018E+00
    0.2500000000E+04    0.1902416818E+00    0.1418686389E+00    0.3892388085E-02    0.2678017052E+00    0.5139938899E+00
    0.2700000000E+04    0.1955771649E+00    0.1366474091E+00    0.3735914193E-02    0.2753347117E+00    0.5188156023E+00
    0.2900000000E+04    0.2004450254E+00    0.1318620815E+00    0.3591716980E-02    0.2822094987E+00    0.5232082988E+00
    0.3100000000E+04    0.2048966674E+00    0.1274650170E+00    0.3458590782E-02    0.2884983207E+00    0.5272346806E+00
    0.3300000000E+04    0.2089768271E+00    0.1234144472E+00    0.3335454556E-02    0.2942640697E+00    0.5309450406E+00
    0.3500000000E+04    0.2127245954E+00    0.1196737621E+00    0.3221342148E-02    0.2995617096E+00    0.5343802960E+00
    0.3700000000E+04    0.2161742429E+00    0.1162108525E+00    0.3115391507E-02    0.3044394344E+00    0.5375741524E+00
    0.3900000000E+04    0.2193559008E+00    0.1129975211E+00    0.3016833943E-02    0.3089396224E+00    0.5405546825E+00
    0.4100000000E+04    0.2222961276E+00    0.1100089656E+00    0.2924983963E-02    0.3130996330E+00    0.5433454969E+00
    0.4300000000E+04    0.2250183887E+00    0.1072233293E+00    0.2839229932E-02    0.3169524785E+00    0.5459666289E+00
    0.4500000000E+04    0.2275434618E+00    0.1046213120E+00    0.2759025624E-02    0.3205273944E+00    0.5484352113E+00
    0.4700000000E+04    0.2298897846E+00    0.1021858349E+00    0.2683882682E-02    0.3238503270E+00    0.5507660016E+00
    0.4900000000E+04    0.2320737520E+00    0.9990175179E-01    0.2613363911E-02    0.3269443506E+00    0.5529717950E+00
    0.1000000000E+04    0.1270897750E+00    0.2013425246E+00    0.5600925160E-02    0.1787605396E+00    0.4493740955E+00
    0.3000000000E+04    0.2027199345E+00    0.1296177559E+00    0.3523840385E-02    0.2854230235E+00    0.5252638855E+00
    0.5000000000E+04    0.2331094809E+00    0.9881221653E-01    0.2579714485E-02    0.3284120365E+00    0.5540313617E+00
    0.7000000000E+04    0.2481071589E+00    0.8239260157E-01    0.2073390396E-02    0.3496997822E+00    0.5707475721E+00
    0.9000000000E+04    0.2566295198E+00    0.7217079609E-01    0.1761934361E-02    0.3618422429E+00    0.5821101430E+00
    0.1100000000E+05    0.2619818445E+00    0.6511805724E-01    0.1550981080E-02    0.3694995516E+00    0.5905163814E+00
    0.1300000000E+05    0.2655962974E+00    0.5989821217E-01    0.1397985859E-02    0.3746933635E+00    0.5970778511E+00
    0.1500000000E+05    0.2681733166E+00    0.5583787764E-01    0.1281333411E-02    0.3784136398E+00    0.6023931035E+00
    0.1700000000E+05    0.2700891113E+00    0.5256181682E-01    0.1188974055E-02    0.3811927695E+00    0.6068180050E+00
    0.1900000000E+05    0.2715611637E+00    0.4984411891E-01    0.1113683705E-02    0.3833389260E+00    0.6105796872E+00
    0.2100000000E+05    0.2727228166E+00    0.4754024924E-01    0.1050872669E-02    0.3850413134E+00    0.6138310841E+00
    0.2300000000E+05    0.2736598395E+00    0.4555311757E-01    0.9974844261E-03    0.3864218042E+00    0.6166795738E+00
    0.2500000000E+05    0.2744296368E+00    0.4381485834E-01    0.9514029196E-03    0.3875620841E+00    0.6192031344E+00
    0.2700000000E+05    0.2750719330E+00    0.4227644480E-01    0.9111148454E-03    0.3885187645E+00    0.6214599877E+00
    0.2900000000E+05    0.2756150102E+00    0.4090146595E-01    0.8755077941E-03    0.3893322120E+00    0.6234946277E+00
    0.3100000000E+05    0.2760795027E+00    0.3966223675E-01    0.8437445680E-03    0.3900319233E+00    0.6253417372E+00
    0.3300000000E+05    0.2764807889E+00    0.3853727741E-01    0.8151821339E-03    0.3906399169E+00    0.6270288160E+00
    0.3500000000E+05    0.2768305456E+00    0.3750962817E-01    0.7893177420E-03    0.3911729385E+00    0.6285779944E+00
    0.3700000000E+05    0.2771377861E+00    0.3656569151E-01    0.7657521367E-03    0.3916439357E+00    0.6300073156E+00
    0.3900000000E+05    0.2774095708E+00    0.3569441748E-01    0.7441638381E-03    0.3920630674E+00    0.6313316612E+00
    0.4100000000E+05    0.2776515034E+00    0.3488671831E-01    0.7242907843E-03    0.3924384103E+00    0.6325634325E+00
    0.4300000000E+05    0.2778680838E+00    0.3413503971E-01    0.7059169785E-03    0.3927764617E+00    0.6337130597E+00
    0.4500000000E+05    0.2780629649E+00    0.3343304156E-01    0.6888626142E-03    0.3930825046E+00    0.6347893888E+00
    0.4700000000E+05    0.2782391405E+00    0.3277535653E-01    0.6729766586E-03    0.3933608770E+00    0.6357999795E+00
    0.4900000000E+05    0.2783990863E+00    0.3215740505E-01    0.6581312072E-03    0.3936151722E+00    0.6367513364E+00
    0.1000000000E+05    0.2595875655E+00    0.6835423944E-01    0.1647257069E-02    0.3660701469E+00    0.5865962314E+00
    0.3000000000E+05    0.2758560165E+00    0.4026634766E-01    0.8591897093E-03    0.3896947635E+00    0.6244397611E+00
    0.5000000000E+05    0.2784736318E+00    0.3186207765E-01    0.6510639324E-03    0.3937342484E+00    0.6372065924E+00
    0.7000000000E+05    0.2794702216E+00    0.2732299408E-01    0.5446609169E-03    0.3953736363E+00    0.6442423918E+00
    0.9000000000E+05    0.2799783644E+00    0.2435337368E-01    0.4772612859E-03    0.3962666115E+00    0.6488716432E+00
    0.1100000000E+06    0.2802792346E+00    0.2220919413E-01    0.4296585957E-03    0.3968324971E+00    0.6522195456E+00
    0.1300000000E+06    0.2804742877E+00    0.2056406335E-01    0.3937312867E-03    0.3972258504E+00    0.6547886275E+00
    0.1500000000E+06    0.2806086227E+00    0.1924852893E-01    0.3653723419E-03    0.3975168678E+00    0.6568420968E+00
    0.1700000000E+06    0.2807051860E+00    0.1816446570E-01    0.3422507012E-03    0.3977420500E+00    0.6585330915E+00
    0.1900000000E+06    0.2807768183E+00    0.1725049628E-01    0.3229313798E-03    0.3979222758E+00    0.6599576503E+00
    0.2100000000E+06    0.2808312332E+00    0.1646595268E-01    0.3064759790E-03    0.3980703673E+00    0.6611794984E+00
    0.2300000000E+06    0.2808733251E+00    0.1578265509E-01    0.2922414235E-03    0.3981946450E+00    0.6622428251E+00
    0.2500000000E+06    0.2809063393E+00    0.1518036459E-01    0.2797702315E-03    0.3983007504E+00    0.6631793769E+00
    0.2700000000E+06    0.2809325054E+00    0.1464411221E-01    0.2687268481E-03    0.3983926491E+00    0.6640126345E+00
    0.2900000000E+06    0.2809534017E+00    0.1416255184E-01    0.2588587986E-03    0.3984732128E+00    0.6647603929E+00
    0.3100000000E+06    0.2809701739E+00    0.1372690272E-01    0.2499719766E-03    0.3985445747E+00    0.6654364204E+00
    0.3300000000E+06    0.2809836717E+00    0.1333024694E-01    0.2419143635E-03    0.3986083539E+00    0.6660515601E+00
    0.3500000000E+06    0.2809945370E+00    0.1296704900E-01    0.2345649769E-03    0.3986658029E+00    0.6666144854E+00
    0.3700000000E+06    0.2810032629E+00    0.1263281892E-01    0.2278261709E-03    0.3987179064E+00    0.6671322283E+00
    0.3900000000E+06    0.2810102335E+00    0.1232387066E-01    0.2216181509E-03    0.3987654501E+00    0.6676105592E+00
    0.4100000000E+06    0.2810157519E+00    0.1203714565E-01    0.2158749853E-03    0.3988090687E+00    0.6680542642E+00
    0.4300000000E+06    0.2810200599E+00    0.1177008141E-01    0.2105416555E-03    0.3988492815E+00    0.6684673514E+00
    0.4500000000E+06    0.2810233523E+00    0.1152051251E-01    0.2055718389E-03    0.3988865170E+00    0.6688532060E+00
    0.4700000000E+06    0.2810257879E+00    0.1128659456E-01    0.2009262183E-03    0.3989211328E+00    0.6692147105E+00
    0.4900000000E+06    0.2810274968E+00    0.1106674543E-01    0.1965711762E-03    0.3989534296E+00    0.6695543361E+00
    0.1000000000E+06    0.2801463522E+00    0.2320382207E-01    0.4516304361E-03    0.3965777797E+00    0.6506662877E+00
    0.3000000000E+06    0.2809622445E+00    0.1393945792E-01    0.2543030723E-03    0.3985099327E+00    0.6651066370E+00
    0.5000000000E+06    0.2810281130E+00    0.1096166236E-01    0.1944934197E-03    0.3989687894E+00    0.6697166225E+00
    0.7000000000E+06    0.2810205951E+00    0.9347463267E-02    0.1629013223E-03    0.3991996847E+00    0.6722055591E+00
    0.9000000000E+06    0.2809971880E+00    0.8295120508E-02    0.1426532849E-03    0.3993472068E+00    0.6738239656E+00
    0.1100000000E+07    0.2809702000E+00    0.7538676752E-02    0.1282829252E-03    0.3994533709E+00    0.6749851520E+00
    0.1300000000E+07    0.2809431907E+00    0.6960755893E-02    0.1174154290E-03    0.3995353829E+00    0.6758710415E+00
    0.1500000000E+07    0.2809172964E+00    0.6500381240E-02    0.1088316834E-03    0.3996017695E+00    0.6765759502E+00
    0.1700000000E+07    0.2808928474E+00    0.6122291662E-02    0.1018334483E-03    0.3996573102E+00    0.6771543301E+00
    0.1900000000E+07    0.2808698800E+00    0.5804479183E-02    0.9598842311E-04    0.3997049262E+00    0.6776401212E+00
    0.2100000000E+07    0.2808483219E+00    0.5532397304E-02    0.9101285383E-04    0.3997465219E+00    0.6780557315E+00
    0.2300000000E+07    0.2808280641E+00    0.5295991658E-02    0.8671181021E-04    0.3997834017E+00    0.6784166340E+00
    0.2500000000E+07    0.2808089908E+00    0.5088058830E-02    0.8294639672E-04    0.3998164952E+00    0.6787339048E+00
    0.2700000000E+07    0.2807909915E+00    0.4903283603E-02    0.7961463114E-04    0.3998464866E+00    0.6790157108E+00
    0.2900000000E+07    0.2807739647E+00    0.4737646170E-02    0.7663973295E-04    0.3998738930E+00    0.6792682240E+00
    0.3100000000E+07    0.2807578197E+00    0.4588042150E-02    0.7396265205E-04    0.3998991142E+00    0.6794962084E+00
    0.3300000000E+07    0.2807424759E+00    0.4452030613E-02    0.7153713602E-04    0.3999224653E+00    0.6797034075E+00
    0.3500000000E+07    0.2807278618E+00    0.4327662052E-02    0.6932637598E-04    0.3999441986E+00    0.6798928098E+00
    0.3700000000E+07    0.2807139145E+00    0.4213357952E-02    0.6730066714E-04    0.3999645196E+00    0.6800668340E+00
    0.3900000000E+07    0.2807005782E+00    0.4107824590E-02    0.6543574030E-04    0.3999835972E+00    0.6802274616E+00
    0.4100000000E+07    0.2806878033E+00    0.4009990137E-02    0.6371154818E-04    0.4000015722E+00    0.6803763334E+00
    0.4300000000E+07    0.2806755458E+00    0.3918957953E-02    0.6211136708E-04    0.4000185629E+00    0.6805148217E+00
    0.4500000000E+07    0.2806637666E+00    0.3833971372E-02    0.6062112149E-04    0.4000346700E+00    0.6806440843E+00
    0.4700000000E+07    0.2806524306E+00    0.3754386779E-02    0.5922886897E-04    0.4000499794E+00    0.6807651054E+00
    0.4900000000E+07    0.2806415062E+00    0.3679652749E-02    0.5792440243E-04    0.4000645654E+00    0.6808787283E+00
    0.1000000000E+07    0.2809838284E+00    0.7889155169E-02    0.1349210946E-03    0.3994040830E+00    0.6744473752E+00
    0.3000000000E+07    0.2807657873E+00    0.4661005770E-02    0.7526711072E-04    0.3998867554E+00    0.6793850280E+00
    0.5000000000E+07    0.2806361895E+00    0.3643953494E-02    0.5730229579E-04    0.4000716075E+00    0.6809329964E+00
    0.7000000000E+07    0.2805458897E+00    0.3097371827E-02    0.4786392974E-04    0.4001864332E+00    0.6817632546E+00
    0.9000000000E+07    0.2804766681E+00    0.2742878362E-02    0.4183686554E-04    0.4002697004E+00    0.6823010839E+00
    0.1100000000E+08    0.2804205523E+00    0.2488966697E-02    0.3757086455E-04    0.4003350009E+00    0.6826859874E+00
    0.1300000000E+08    0.2803733694E+00    0.2295491093E-02    0.3435143503E-04    0.4003887031E+00    0.6829790874E+00
    0.1500000000E+08    0.2803326648E+00    0.2141685598E-02    0.3181279856E-04    0.4004343005E+00    0.6832119702E+00
    0.1700000000E+08    0.2802968734E+00    0.2015581735E-02    0.2974593095E-04    0.4004739156E+00    0.6834028272E+00
    0.1900000000E+08    0.2802649363E+00    0.1909729446E-02    0.2802166517E-04    0.4005089339E+00    0.6835629753E+00
    0.2100000000E+08    0.2802361035E+00    0.1819215413E-02    0.2655535615E-04    0.4005403101E+00    0.6836998741E+00
    0.2300000000E+08    0.2802098248E+00    0.1740649982E-02    0.2528893736E-04    0.4005687295E+00    0.6838186680E+00
    0.2500000000E+08    0.2801856840E+00    0.1671608574E-02    0.2418108544E-04    0.4005947006E+00    0.6839230351E+00
    0.2700000000E+08    0.2801633595E+00    0.1610304682E-02    0.2320149266E-04    0.4006186114E+00    0.6840156849E+00
