  Pressure (Pa) 22mC5-400 (mol/kg) 2mC6-400 (mol/kg) 33mC5-400 (mol/kg) 23mC5-400 (mol/kg) C7-400 (mol/kg)
    0.1000000000E+01    0.5304658691E-03    0.3132549192E-02    0.1913333890E-03    0.1862876861E-03    0.1679860220E-01
    0.3000000000E+01    0.1577758055E-02    0.8944296343E-02    0.5465791200E-03    0.5540758877E-03    0.4769000706E-01
    0.5000000000E+01    0.2607365366E-02    0.1422972970E-01    0.8700095183E-03    0.9156570828E-03    0.7544268863E-01
    0.7000000000E+01    0.3619865386E-02    0.1906604503E-01    0.1166309348E-02    0.1271233967E-02    0.1005216030E+00
    0.9000000000E+01    0.4615809834E-02    0.2351558757E-01    0.1439259237E-02    0.1621000159E-02    0.1233037235E+00
    0.1100000000E+02    0.5595726016E-02    0.2762926724E-01    0.1691944004E-02    0.1965140713E-02    0.1440979438E+00
    0.1300000000E+02    0.6560118177E-02    0.3144907529E-01    0.1926906101E-02    0.2303832587E-02    0.1631598098E+00
    0.1500000000E+02    0.7509468767E-02    0.3500996578E-01    0.2146260298E-02    0.2637245094E-02    0.1807025820E+00
    0.1700000000E+02    0.8444239620E-02    0.3834128105E-01    0.2351780517E-02    0.2965540311E-02    0.1969056535E+00
    0.1900000000E+02    0.9364873062E-02    0.4146784463E-01    0.2544966389E-02    0.3288873470E-02    0.2119210321E+00
    0.2100000000E+02    0.1027179294E-01    0.4441080859E-01    0.2727094827E-02    0.3607393319E-02    0.2258783871E+00
    0.2300000000E+02    0.1116540560E-01    0.4718831712E-01    0.2899260396E-02    0.3921242460E-02    0.2388890187E+00
    0.2500000000E+02    0.1204610078E-01    0.4981603123E-01    0.3062407219E-02    0.4230557675E-02    0.2510490095E+00
    0.2700000000E+02    0.1291425247E-01    0.5230754711E-01    0.3217354408E-02    0.4535470214E-02    0.2624417472E+00
    0.2900000000E+02    0.1377021973E-01    0.5467473260E-01    0.3364816492E-02    0.4836106086E-02    0.2731399615E+00
    0.3100000000E+02    0.1461434739E-01    0.5692799965E-01    0.3505419973E-02    0.5132586314E-02    0.2832073804E+00
    0.3300000000E+02    0.1544696681E-01    0.5907652669E-01    0.3639716810E-02    0.5425027190E-02    0.2927000859E+00
    0.3500000000E+02    0.1626839652E-01    0.6112844120E-01    0.3768195496E-02    0.5713540499E-02    0.3016676324E+00
    0.3700000000E+02    0.1707894285E-01    0.6309097062E-01    0.3891290204E-02    0.5998233749E-02    0.3101539731E+00
    0.3900000000E+02    0.1787890049E-01    0.6497056780E-01    0.4009388390E-02    0.6279210368E-02    0.3181982333E+00
    0.4100000000E+02    0.1866855310E-01    0.6677301580E-01    0.4122837137E-02    0.6556569904E-02    0.3258353587E+00
    0.4300000000E+02    0.1944817379E-01    0.6850351606E-01    0.4231948488E-02    0.6830408206E-02    0.3330966614E+00
    0.4500000000E+02    0.2021802560E-01    0.7016676270E-01    0.4337003947E-02    0.7100817596E-02    0.3400102827E+00
    0.4700000000E+02    0.2097836204E-01    0.7176700573E-01    0.4438258295E-02    0.7367887039E-02    0.3466015866E+00
    0.4900000000E+02    0.2172942742E-01    0.7330810479E-01    0.4535942836E-02    0.7631702286E-02    0.3528934959E+00
    0.1000000000E+02    0.5107739418E-02    0.2561160142E-01    0.1567964648E-02    0.1793762397E-02    0.1339322439E+00
    0.3000000000E+02    0.1419374249E-01    0.5581500568E-01    0.3435939454E-02    0.4984858279E-02    0.2782488502E+00
    0.5000000000E+02    0.2210155743E-01    0.7405758620E-01    0.4583512986E-02    0.7762415543E-02    0.3559337453E+00
    0.7000000000E+02    0.2911052159E-01    0.8665065388E-01    0.5389931358E-02    0.1022446951E-01    0.4051562006E+00
    0.9000000000E+02    0.3541502027E-01    0.9594837185E-01    0.5996179376E-02    0.1243924315E-01    0.4394689667E+00
    0.1100000000E+03    0.4115487287E-01    0.1030866620E+00    0.6470284915E-02    0.1445580992E-01    0.4649370766E+00
    0.1300000000E+03    0.4643347777E-01    0.1087054942E+00    0.6850664814E-02    0.1631046134E-01    0.4846976196E+00
    0.1500000000E+03    0.5132912381E-01    0.1132034519E+00    0.7161335950E-02    0.1803067647E-01    0.5005438826E+00
    0.1700000000E+03    0.5590230309E-01    0.1168463863E+00    0.7418390117E-02    0.1963768827E-01    0.5135791287E+00
    0.1900000000E+03    0.6020058885E-01    0.1198205439E+00    0.7633156289E-02    0.2114819551E-01    0.5245214534E+00
    0.2100000000E+03    0.6426197844E-01    0.1222612824E+00    0.7813910088E-02    0.2257553598E-01    0.5338595871E+00
    0.2300000000E+03    0.6811723954E-01    0.1242698165E+00    0.7966871761E-02    0.2393050994E-01    0.5419384305E+00
    0.2500000000E+03    0.7179159165E-01    0.1259235736E+00    0.8096824471E-02    0.2522197022E-01    0.5490087994E+00
    0.2700000000E+03    0.7530593393E-01    0.1272829018E+00    0.8207515743E-02    0.2645725324E-01    0.5552577573E+00
    0.2900000000E+03    0.7867775694E-01    0.1283955811E+00    0.8301928105E-02    0.2764249896E-01    0.5608278620E+00
    0.3100000000E+03    0.8192182986E-01    0.1292999509E+00    0.8382467264E-02    0.2878289208E-01    0.5658297962E+00
    0.3300000000E+03    0.8505072572E-01    0.1300271340E+00    0.8451096340E-02    0.2988284643E-01    0.5703509018E+00
    0.3500000000E+03    0.8807522770E-01    0.1306026542E+00    0.8509433724E-02    0.3094614753E-01    0.5744610943E+00
    0.3700000000E+03    0.9100464714E-01    0.1310476331E+00    0.8558825758E-02    0.3197606426E-01    0.5782170529E+00
    0.3900000000E+03    0.9384707498E-01    0.1313796909E+00    0.8600401588E-02    0.3297543709E-01    0.5816652493E+00
    0.4100000000E+03    0.9660958254E-01    0.1316136343E+00    0.8635115168E-02    0.3394674857E-01    0.5848441747E+00
    0.4300000000E+03    0.9929838319E-01    0.1317619884E+00    0.8663777818E-02    0.3489218005E-01    0.5877860044E+00
    0.4500000000E+03    0.1019189637E+00    0.1318354114E+00    0.8687083763E-02    0.3581365783E-01    0.5905178586E+00
    0.4700000000E+03    0.1044761917E+00    0.1318430237E+00    0.8705630352E-02    0.3671289085E-01    0.5930627707E+00
    0.4900000000E+03    0.1069744043E+00    0.1317926689E+00    0.8719934231E-02    0.3759140179E-01    0.5954404397E+00
    0.1000000000E+03    0.3834836850E-01    0.9973988877E-01    0.6246898023E-02    0.1346978975E-01    0.4530693939E+00
    0.3000000000E+03    0.8031493013E-01    0.1288717117E+00    0.8343800059E-02    0.2821801001E-01    0.5633939239E+00
    0.5000000000E+03    0.1082026084E+00    0.1317479085E+00    0.8725637801E-02    0.3802331784E-01    0.5965719501E+00
    0.7000000000E+03    0.1304258427E+00    0.1290485618E+00    0.8699993925E-02    0.4583966971E-01    0.6135189647E+00
    0.9000000000E+03    0.1494557450E+00    0.1246629551E+00    0.8529328536E-02    0.5253466103E-01    0.6240831778E+00
    0.1100000000E+04    0.1663476480E+00    0.1197663479E+00    0.8298992767E-02    0.5847882820E-01    0.6314136401E+00
    0.1300000000E+04    0.1816528602E+00    0.1147966017E+00    0.8043855446E-02    0.6386573958E-01    0.6368547502E+00
    0.1500000000E+04    0.1956992225E+00    0.1099349705E+00    0.7780240163E-02    0.6881049890E-01    0.6410851090E+00
    0.1700000000E+04    0.2087005028E+00    0.1052589588E+00    0.7516479350E-02    0.7338815561E-01    0.6444874202E+00
    0.1900000000E+04    0.2208061722E+00    0.1007997984E+00    0.7257056949E-02    0.7765118315E-01    0.6472953371E+00
    0.2100000000E+04    0.2321266678E+00    0.9656671763E-01    0.7004444866E-02    0.8163834981E-01    0.6496603013E+00
    0.2300000000E+04    0.2427473014E+00    0.9255809169E-01    0.6759995157E-02    0.8537960277E-01    0.6516851672E+00
    0.2500000000E+04    0.2527364147E+00    0.8876689686E-01    0.6524405818E-02    0.8889893155E-01    0.6534424680E+00
    0.2700000000E+04    0.2621504059E+00    0.8518350738E-01    0.6297978595E-02    0.9221613340E-01    0.6549849609E+00
    0.2900000000E+04    0.2710369608E+00    0.8179717845E-01    0.6080768757E-02    0.9534794748E-01    0.6563520262E+00
    0.3100000000E+04    0.2794372015E+00    0.7859684960E-01    0.5872675741E-02    0.9830880940E-01    0.6575737133E+00
    0.3300000000E+04    0.2873871597E+00    0.7557158307E-01    0.5673499931E-02    0.1011113685E+00    0.6586733899E+00
    0.3500000000E+04    0.2949188153E+00    0.7271080040E-01    0.5482979295E-02    0.1037668524E+00    0.6596695300E+00
    0.3700000000E+04    0.3020608463E+00    0.7000440491E-01    0.5300813584E-02    0.1062853303E+00    0.6605769510E+00
    0.3900000000E+04    0.3088391833E+00    0.6744283842E-01    0.5126680664E-02    0.1086759071E+00    0.6614076904E+00
    0.4100000000E+04    0.3152774282E+00    0.6501710001E-01    0.4960247671E-02    0.1109468713E+00    0.6621716396E+00
    0.4300000000E+04    0.3213971782E+00    0.6271874257E-01    0.4801178733E-02    0.1131058076E+00    0.6628770100E+00
    0.4500000000E+04    0.3272182807E+00    0.6053985673E-01    0.4649140325E-02    0.1151596870E+00    0.6635306808E+00
    0.4700000000E+04    0.3327590378E+00    0.5847304776E-01    0.4503804979E-02    0.1171149385E+00    0.6641384639E+00
    0.4900000000E+04    0.3380363747E+00    0.5651140894E-01    0.4364853832E-02    0.1189775075E+00    0.6647053066E+00
    0.1000000000E+04    0.1581272723E+00    0.1222421498E+00    0.8418801900E-02    0.5558596543E-01    0.6280458658E+00
    0.3000000000E+04    0.2752955130E+00    0.8017445399E-01    0.5975593305E-02    0.9684891988E-01    0.6569794491E+00
    0.5000000000E+04    0.3405812078E+00    0.5556799649E-01    0.4297675474E-02    0.1198757742E+00    0.6649747246E+00
    0.7000000000E+04    0.3809105518E+00    0.4087304992E-01    0.3220843758E-02    0.1341216079E+00    0.6689837170E+00
    0.9000000000E+04    0.4072995928E+00    0.3157462837E-01    0.2507908680E-02    0.1434580325E+00    0.6714568149E+00
    0.1100000000E+05    0.4254291011E+00    0.2537030647E-01    0.2016947087E-02    0.1498831640E+00    0.6731602232E+00
    0.1300000000E+05    0.4384133277E+00    0.2103684794E-01    0.1666013521E-02    0.1544931497E+00    0.6744177282E+00
    0.1500000000E+05    0.4480449627E+00    0.1789085932E-01    0.1406792575E-02    0.1579193811E+00    0.6753915328E+00
    0.1700000000E+05    0.4554040711E+00    0.1553137239E-01    0.1209814157E-02    0.1605424954E+00    0.6761725034E+00
    0.1900000000E+05    0.4611690169E+00    0.1371237529E-01    0.1056450427E-02    0.1626017074E+00    0.6768157796E+00
    0.2100000000E+05    0.4657819915E+00    0.1227681743E-01    0.9345231511E-03    0.1642530448E+00    0.6773569031E+00
    0.2300000000E+05    0.4695408570E+00    0.1112087798E-01    0.8358226632E-03    0.1656016733E+00    0.6778198932E+00
    0.2500000000E+05    0.4726521404E+00    0.1017378846E-01    0.7546604223E-03    0.1667205567E+00    0.6782216131E+00
    0.2700000000E+05    0.4752627372E+00    0.9385992239E-02    0.6869970377E-03    0.1676616250E+00    0.6785742802E+00
    0.2900000000E+05    0.4774795096E+00    0.8721950779E-02    0.6299008604E-03    0.1684626801E+00    0.6788869816E+00
    0.3100000000E+05    0.4793817673E+00    0.8155634784E-02    0.5812023175E-03    0.1691517962E+00    0.6791666295E+00
    0.3300000000E+05    0.4810294297E+00    0.7667617822E-02    0.5392675311E-03    0.1697501980E+00    0.6794185839E+00
    0.3500000000E+05    0.4824684954E+00    0.7243155161E-02    0.5028465809E-03    0.1702741905E+00    0.6796470713E+00
    0.3700000000E+05    0.4837347869E+00    0.6870884680E-02    0.4709696333E-03    0.1707364804E+00    0.6798554738E+00
    0.3900000000E+05    0.4848565659E+00    0.6541930188E-02    0.4428744585E-03    0.1711470997E+00    0.6800465334E+00
    0.4100000000E+05    0.4858563928E+00    0.6249270868E-02    0.4179549580E-03    0.1715140625E+00    0.6802224987E+00
    0.4300000000E+05    0.4867524710E+00    0.5987290260E-02    0.3957240231E-03    0.1718438400E+00    0.6803852331E+00
    0.4500000000E+05    0.4875596326E+00    0.5751448631E-02    0.3757863370E-03    0.1721417088E+00    0.6805362954E+00
    0.4700000000E+05    0.4882900718E+00    0.5538041562E-02    0.3578181894E-03    0.1724120103E+00    0.6806770004E+00
    0.4900000000E+05    0.4889538970E+00    0.5344019723E-02    0.3415523077E-03    0.1726583463E+00    0.6808084660E+00
    0.1000000000E+05    0.4171609168E+00    0.2817920795E-01    0.2240830564E-02    0.1469515044E+00    0.6723789614E+00
    0.3000000000E+05    0.4784658277E+00    0.8427919764E-02    0.6046144941E-03    0.1688197697E+00    0.6790305715E+00
    0.5000000000E+05    0.4892635235E+00    0.5253470264E-02    0.3339867301E-03    0.1727734879E+00    0.6808710386E+00
    0.7000000000E+05    0.4934253952E+00    0.4025093652E-02    0.2336880636E-03    0.1743418436E+00    0.6818108818E+00
    0.9000000000E+05    0.4955816767E+00    0.3366249213E-02    0.1827260061E-03    0.1751789582E+00    0.6824022867E+00
    0.1100000000E+06    0.4968873482E+00    0.2948529970E-02    0.1520755410E-03    0.1757013342E+00    0.6828171520E+00
    0.1300000000E+06    0.4977578225E+00    0.2655840424E-02    0.1316089272E-03    0.1760602339E+00    0.6831283712E+00
    0.1500000000E+06    0.4983772736E+00    0.2436838559E-02    0.1169392783E-03    0.1763233888E+00    0.6833727443E+00
    0.1700000000E+06    0.4988393368E+00    0.2265253900E-02    0.1058754712E-03    0.1765255831E+00    0.6835710890E+00
    0.1900000000E+06    0.4991964678E+00    0.2126190803E-02    0.9720627900E-04    0.1766865036E+00    0.6837361710E+00
    0.2100000000E+06    0.4994802633E+00    0.2010534865E-02    0.9020925220E-04    0.1768181310E+00    0.6838763055E+00
    0.2300000000E+06    0.4997108579E+00    0.1912372188E-02    0.8442721388E-04    0.1769281793E+00    0.6839971686E+00
    0.2500000000E+06    0.4999016727E+00    0.1827682874E-02    0.7955682798E-04    0.1770218438E+00    0.6841027836E+00
    0.2700000000E+06    0.5000619897E+00    0.1753629405E-02    0.7538888133E-04    0.1771027550E+00    0.6841960914E+00
    0.2900000000E+06    0.5001984278E+00    0.1688145456E-02    0.7177434515E-04    0.1771735288E+00    0.6842792974E+00
    0.3100000000E+06    0.5003158311E+00    0.1629686390E-02    0.6860412505E-04    0.1772360994E+00    0.6843540922E+00
    0.3300000000E+06    0.5004178248E+00    0.1577071560E-02    0.6579647220E-04    0.1772919293E+00    0.6844217961E+00
    0.3500000000E+06    0.5005071741E+00    0.1529381078E-02    0.6328887757E-04    0.1773421458E+00    0.6844834572E+00
    0.3700000000E+06    0.5005860248E+00    0.1485886193E-02    0.6103269205E-04    0.1773876324E+00    0.6845399192E+00
    0.3900000000E+06    0.5006560664E+00    0.1446001082E-02    0.5898945968E-04    0.1774290920E+00    0.6845918702E+00
    0.4100000000E+06    0.5007186472E+00    0.1409248713E-02    0.5712835955E-04    0.1774670913E+00    0.6846398773E+00
    0.4300000000E+06    0.5007748559E+00    0.1375236150E-02    0.5542438370E-04    0.1775020924E+00    0.6846844130E+00
    0.4500000000E+06    0.5008255809E+00    0.1343636392E-02    0.5385701505E-04    0.1775344763E+00    0.6847258742E+00
    0.4700000000E+06    0.5008715544E+00    0.1314174780E-02    0.5240925200E-04    0.1775645601E+00    0.6847645974E+00
    0.4900000000E+06    0.5009133849E+00    0.1286618677E-02    0.5106687787E-04    0.1775926100E+00    0.6848008697E+00
    0.1000000000E+06    0.4963065950E+00    0.3136835732E-02    0.1657020983E-03    0.1754670506E+00    0.6826259957E+00
    0.3000000000E+06    0.5002592586E+00    0.1658118721E-02    0.7013933426E-04    0.1772057389E+00    0.6843176563E+00
    0.5000000000E+06    0.5009329091E+00    0.1273491993E-02    0.5043139117E-04    0.1776059440E+00    0.6848181653E+00
    0.7000000000E+06    0.5011950225E+00    0.1075152714E-02    0.4113362268E-04    0.1778059370E+00    0.6850804208E+00
    0.9000000000E+06    0.5013279089E+00    0.9487641222E-03    0.3549450848E-04    0.1779332973E+00    0.6852478835E+00
    0.1100000000E+07    0.5014047416E+00    0.8591033727E-03    0.3162146282E-04    0.1780247483E+00    0.6853665099E+00
    0.1300000000E+07    0.5014526593E+00    0.7911930561E-03    0.2875547749E-04    0.1780952671E+00    0.6854561339E+00
    0.1500000000E+07    0.5014839410E+00    0.7374272382E-03    0.2652650900E-04    0.1781522597E+00    0.6855268926E+00
    0.1700000000E+07    0.5015049050E+00    0.6934749338E-03    0.2473016016E-04    0.1781998722E+00    0.6855845743E+00
    0.1900000000E+07    0.5015191101E+00    0.6566630984E-03    0.2324324266E-04    0.1782406365E+00    0.6856327548E+00
    0.2100000000E+07    0.5015287005E+00    0.6252399477E-03    0.2198656172E-04    0.1782762020E+00    0.6856737771E+00
    0.2300000000E+07    0.5015350371E+00    0.5980027875E-03    0.2090660616E-04    0.1783076981E+00    0.6857092488E+00
    0.2500000000E+07    0.5015390204E+00    0.5740946380E-03    0.1996575823E-04    0.1783359291E+00    0.6857403143E+00
    0.2700000000E+07    0.5015412663E+00    0.5528860062E-03    0.1913670562E-04    0.1783614869E+00    0.6857678133E+00
    0.2900000000E+07    0.5015422084E+00    0.5339026282E-03    0.1839907919E-04    0.1783848184E+00    0.6857923774E+00
    0.3100000000E+07    0.5015421590E+00    0.5167794362E-03    0.1773733988E-04    0.1784062692E+00    0.6858144923E+00
    0.3300000000E+07    0.5015413475E+00    0.5012301930E-03    0.1713940139E-04    0.1784261116E+00    0.6858345384E+00
    0.3500000000E+07    0.5015399457E+00    0.4870268545E-03    0.1659570389E-04    0.1784445634E+00    0.6858528181E+00
    0.3700000000E+07    0.5015380837E+00    0.4739851770E-03    0.1609857413E-04    0.1784618020E+00    0.6858695756E+00
    0.3900000000E+07    0.5015358615E+00    0.4619544525E-03    0.1564177299E-04    0.1784779731E+00    0.6858850102E+00
    0.4100000000E+07    0.5015333571E+00    0.4508100406E-03    0.1522016876E-04    0.1784931981E+00    0.6858992869E+00
    0.4300000000E+07    0.5015306314E+00    0.4404478382E-03    0.1482949701E-04    0.1785075792E+00    0.6859125428E+00
    0.4500000000E+07    0.5015277329E+00    0.4307801203E-03    0.1446618109E-04    0.1785212030E+00    0.6859248937E+00
    0.4700000000E+07    0.5015247000E+00    0.4217323663E-03    0.1412719597E-04    0.1785341435E+00    0.6859364377E+00
    0.4900000000E+07    0.5015215639E+00    0.4132408073E-03    0.1380996368E-04    0.1785464648E+00    0.6859472587E+00
    0.1000000000E+07    0.5013711085E+00    0.9005309425E-03    0.3339818927E-04    0.1779823133E+00    0.6853117315E+00
    0.3000000000E+07    0.5015422917E+00    0.5251279674E-03    0.1805954739E-04    0.1783957604E+00    0.6858037151E+00
    0.5000000000E+07    0.5015199651E+00    0.4091861326E-03    0.1365880107E-04    0.1785524107E+00    0.6859524211E+00
    0.7000000000E+07    0.5014866310E+00    0.3472318435E-03    0.1137495862E-04    0.1786491059E+00    0.6860309009E+00
    0.9000000000E+07    0.5014547995E+00    0.3071712814E-03    0.9925215782E-05    0.1787189188E+00    0.6860812080E+00
    0.1100000000E+08    0.5014259939E+00    0.2785327173E-03    0.8902755846E-05    0.1787734879E+00    0.6861169317E+00
    0.1300000000E+08    0.5014000863E+00    0.2567407475E-03    0.8133010934E-05    0.1788182483E+00    0.6861439675E+00
    0.1500000000E+08    0.5013766839E+00    0.2394350879E-03    0.7527115684E-05    0.1788561726E+00    0.6861653389E+00
    0.1700000000E+08    0.5013554018E+00    0.2252580671E-03    0.7034487819E-05    0.1788890626E+00    0.6861827772E+00
    0.1900000000E+08    0.5013359142E+00    0.2133658535E-03    0.6623961445E-05    0.1789180920E+00    0.6861973538E+00
    0.2100000000E+08    0.5013179552E+00    0.2032026178E-03    0.6275159618E-05    0.1789440676E+00    0.6862097721E+00
    0.2300000000E+08    0.5013013094E+00    0.1943852833E-03    0.5974129330E-05    0.1789675680E+00    0.6862205152E+00
    0.2500000000E+08    0.5012858016E+00    0.1866400724E-03    0.5710955809E-05    0.1789890216E+00    0.6862299276E+00
    0.2700000000E+08    0.5012712882E+00    0.1797654038E-03    0.5478376481E-05    0.1790087548E+00    0.6862382620E+00
