  Pressure (Pa) 22mC5-400 (mol/kg) 2mC6-400 (mol/kg) 33mC5-400 (mol/kg) 23mC5-400 (mol/kg) C7-400 (mol/kg)
    0.1000000000E+01    0.5307064032E-03    0.1587866404E-02    0.1939390575E-03    0.9318610384E-03    0.6832441720E-02
    0.3000000000E+01    0.1579865715E-02    0.4650281605E-02    0.5680629715E-03    0.2774082584E-02    0.2001412372E-01
    0.5000000000E+01    0.2613066722E-02    0.7570167214E-02    0.9248888272E-03    0.4588302875E-02    0.3258963739E-01
    0.7000000000E+01    0.3630749943E-02    0.1035697571E-01    0.1265565722E-02    0.6375294754E-02    0.4460098147E-01
    0.9000000000E+01    0.4633339362E-02    0.1301931787E-01    0.1591140197E-02    0.8135802057E-02    0.5608633727E-01
    0.1100000000E+02    0.5621243197E-02    0.1556505606E-01    0.1902567615E-02    0.9870540965E-02    0.6708049354E-01
    0.1300000000E+02    0.6594854630E-02    0.1800138523E-01    0.2200722053E-02    0.1158020128E-01    0.7761521589E-01
    0.1500000000E+02    0.7554552491E-02    0.2033490353E-01    0.2486404913E-02    0.1326544762E-01    0.8771956883E-01
    0.1700000000E+02    0.8500701912E-02    0.2257167418E-01    0.2760352468E-02    0.1492692060E-01    0.9742019757E-01
    0.1900000000E+02    0.9433654943E-02    0.2471727957E-01    0.3023242464E-02    0.1656523785E-01    0.1067415752E+00
    0.2100000000E+02    0.1035375113E-01    0.2677686901E-01    0.3275699940E-02    0.1818099509E-01    0.1157062200E+00
    0.2300000000E+02    0.1126131807E-01    0.2875520076E-01    0.3518302355E-02    0.1977476707E-01    0.1243348876E+00
    0.2500000000E+02    0.1215667193E-01    0.3065667923E-01    0.3751584121E-02    0.2134710849E-01    0.1326467404E+00
    0.2700000000E+02    0.1304011796E-01    0.3248538799E-01    0.3976040627E-02    0.2289855489E-01    0.1406594978E+00
    0.2900000000E+02    0.1391195093E-01    0.3424511909E-01    0.4192131812E-02    0.2442962344E-01    0.1483895702E+00
    0.3100000000E+02    0.1477245561E-01    0.3593939916E-01    0.4400285349E-02    0.2594081376E-01    0.1558521782E+00
    0.3300000000E+02    0.1562190718E-01    0.3757151280E-01    0.4600899487E-02    0.2743260863E-01    0.1630614582E+00
    0.3500000000E+02    0.1646057161E-01    0.3914452340E-01    0.4794345597E-02    0.2890547472E-01    0.1700305581E+00
    0.3700000000E+02    0.1728870609E-01    0.4066129196E-01    0.4980970449E-02    0.3035986324E-01    0.1767717226E+00
    0.3900000000E+02    0.1810655935E-01    0.4212449382E-01    0.5161098268E-02    0.3179621059E-01    0.1832963691E+00
    0.4100000000E+02    0.1891437203E-01    0.4353663389E-01    0.5335032575E-02    0.3321493896E-01    0.1896151573E+00
    0.4300000000E+02    0.1971237699E-01    0.4490006033E-01    0.5503057853E-02    0.3461645694E-01    0.1957380508E+00
    0.4500000000E+02    0.2050079965E-01    0.4621697686E-01    0.5665441052E-02    0.3600115999E-01    0.2016743736E+00
    0.4700000000E+02    0.2127985825E-01    0.4748945400E-01    0.5822432950E-02    0.3736943106E-01    0.2074328604E+00
    0.4900000000E+02    0.2204976418E-01    0.4871943919E-01    0.5974269390E-02    0.3872164098E-01    0.2130217031E+00
    0.1000000000E+02    0.5129102060E-02    0.1430629801E-01    0.1748565860E-02    0.9006348844E-02    0.6164276312E-01
    0.3000000000E+02    0.1434360189E-01    0.3510022980E-01    0.4297175238E-02    0.2518767282E-01    0.1521533995E+00
    0.5000000000E+02    0.2243134913E-01    0.4931907452E-01    0.6048324207E-02    0.3939183574E-01    0.2157549296E+00
    0.7000000000E+02    0.2962913980E-01    0.5947409464E-01    0.7306351932E-02    0.5203429542E-01    0.2631515750E+00
    0.9000000000E+02    0.3610956837E-01    0.6693227736E-01    0.8236710414E-02    0.6341787775E-01    0.3000008729E+00
    0.1100000000E+03    0.4200151127E-01    0.7250862118E-01    0.8937970256E-02    0.7376870953E-01    0.3295807747E+00
    0.1300000000E+03    0.4740323513E-01    0.7672219834E-01    0.9472897140E-02    0.8325921407E-01    0.3539254178E+00
    0.1500000000E+03    0.5239105072E-01    0.7992049939E-01    0.9883519046E-02    0.9202329311E-01    0.3743661987E+00
    0.1700000000E+03    0.5702518340E-01    0.8234535687E-01    0.1019910355E-01    0.1001666258E+00    0.3918125136E+00
    0.1900000000E+03    0.6135385146E-01    0.8417037402E-01    0.1044068186E-01    0.1077738239E+00    0.4069075799E+00
    0.2100000000E+03    0.6541616007E-01    0.8552337153E-01    0.1062375939E-01    0.1149135091E+00    0.4201197838E+00
    0.2300000000E+03    0.6924419377E-01    0.8650046403E-01    0.1076001451E-01    0.1216419841E+00    0.4317987114E+00
    0.2500000000E+03    0.7286455532E-01    0.8717522082E-01    0.1085840338E-01    0.1280059330E+00    0.4422108549E+00
    0.2700000000E+03    0.7629951491E-01    0.8760481621E-01    0.1092590155E-01    0.1340444373E+00    0.4515631216E+00
    0.2900000000E+03    0.7956788020E-01    0.8783427019E-01    0.1096801520E-01    0.1397905028E+00    0.4600187547E+00
    0.3100000000E+03    0.8268566354E-01    0.8789943997E-01    0.1098914176E-01    0.1452722298E+00    0.4677083846E+00
    0.3300000000E+03    0.8566659947E-01    0.8782917313E-01    0.1099282959E-01    0.1505137217E+00    0.4747378682E+00
    0.3500000000E+03    0.8852255047E-01    0.8764688465E-01    0.1098196812E-01    0.1555357970E+00    0.4811939593E+00
    0.3700000000E+03    0.9126382816E-01    0.8737173019E-01    0.1095892947E-01    0.1603565522E+00    0.4871484800E+00
    0.3900000000E+03    0.9389944992E-01    0.8701949112E-01    0.1092567527E-01    0.1649918129E+00    0.4926614383E+00
    0.4100000000E+03    0.9643734558E-01    0.8660325056E-01    0.1088383834E-01    0.1694554962E+00    0.4977833911E+00
    0.4300000000E+03    0.9888452530E-01    0.8613391564E-01    0.1083478585E-01    0.1737599050E+00    0.5025572581E+00
    0.4500000000E+03    0.1012472168E+00    0.8562062507E-01    0.1077966860E-01    0.1779159693E+00    0.5070197299E+00
    0.4700000000E+03    0.1035309784E+00    0.8507107021E-01    0.1071945992E-01    0.1819334443E+00    0.5112023740E+00
    0.4900000000E+03    0.1057407927E+00    0.8449175024E-01    0.1065498663E-01    0.1858210748E+00    0.5151325114E+00
    0.1000000000E+03    0.3912235959E-01    0.6991815314E-01    0.8611440118E-02    0.6871055959E-01    0.3155513216E+00
    0.3000000000E+03    0.8114468805E-01    0.8788544414E-01    0.1098096270E-01    0.1425628176E+00    0.4639521985E+00
    0.5000000000E+03    0.1068193887E+00    0.8419268446E-01    0.1062137529E-01    0.1877186891E+00    0.5170104419E+00
    0.7000000000E+03    0.1253961200E+00    0.7761649540E-01    0.9850570366E-02    0.2204110095E+00    0.5457328220E+00
    0.9000000000E+03    0.1398049925E+00    0.7110329591E-01    0.9053250114E-02    0.2457825578E+00    0.5642156901E+00
    0.1100000000E+04    0.1513988632E+00    0.6526495836E-01    0.8319390406E-02    0.2662080592E+00    0.5773098447E+00
    0.1300000000E+04    0.1609453488E+00    0.6017722733E-01    0.7667258674E-02    0.2830351426E+00    0.5871745248E+00
    0.1500000000E+04    0.1689362615E+00    0.5577630395E-01    0.7094382619E-02    0.2971273915E+00    0.5949309265E+00
    0.1700000000E+04    0.1757111056E+00    0.5196807389E-01    0.6592395413E-02    0.3090810689E+00    0.6012247789E+00
    0.1900000000E+04    0.1815157665E+00    0.4866078461E-01    0.6151905751E-02    0.3193281077E+00    0.6064568533E+00
    0.2100000000E+04    0.1865342402E+00    0.4577414368E-01    0.5764128621E-02    0.3281917923E+00    0.6108903875E+00
    0.2300000000E+04    0.1909075029E+00    0.4324066840E-01    0.5421361876E-02    0.3359198713E+00    0.6147061461E+00
    0.2500000000E+04    0.1947455403E+00    0.4100455293E-01    0.5117037419E-02    0.3427056716E+00    0.6180327929E+00
    0.2700000000E+04    0.1981354186E+00    0.3901990353E-01    0.4845622127E-02    0.3487022644E+00    0.6209646547E+00
    0.2900000000E+04    0.2011469060E+00    0.3724899074E-01    0.4602476456E-02    0.3540323334E+00    0.6235726204E+00
    0.3100000000E+04    0.2038365014E+00    0.3566072269E-01    0.4383712757E-02    0.3587952486E+00    0.6259111010E+00
    0.3300000000E+04    0.2062503861E+00    0.3422937838E-01    0.4186068379E-02    0.3630722488E+00    0.6280226254E+00
    0.3500000000E+04    0.2084266254E+00    0.3293358125E-01    0.4006797461E-02    0.3669303087E+00    0.6299409657E+00
    0.3700000000E+04    0.2103968350E+00    0.3175547612E-01    0.3843580883E-02    0.3704250656E+00    0.6316933155E+00
    0.3900000000E+04    0.2121874584E+00    0.3068007208E-01    0.3694452213E-02    0.3736030634E+00    0.6333018429E+00
    0.4100000000E+04    0.2138207568E+00    0.2969471780E-01    0.3557737166E-02    0.3765034919E+00    0.6347848186E+00
    0.4300000000E+04    0.2153155838E+00    0.2878868199E-01    0.3432004203E-02    0.3791595483E+00    0.6361574507E+00
    0.4500000000E+04    0.2166879973E+00    0.2795281673E-01    0.3316024195E-02    0.3815995121E+00    0.6374325110E+00
    0.4700000000E+04    0.2179517461E+00    0.2717928638E-01    0.3208737448E-02    0.3838476010E+00    0.6386208123E+00
    0.4900000000E+04    0.2191186606E+00    0.2646134815E-01    0.3109226656E-02    0.3859246572E+00    0.6397315765E+00
    0.1000000000E+04    0.1458971581E+00    0.6808947582E-01    0.8676456771E-02    0.2565141236E+00    0.5712663866E+00
    0.3000000000E+04    0.2025288409E+00    0.3643374645E-01    0.4490264064E-02    0.3564792335E+00    0.6247726521E+00
    0.5000000000E+04    0.2196690563E+00    0.2612137323E-01    0.3062133965E-02    0.3869047769E+00    0.6402604010E+00
    0.7000000000E+04    0.2274659915E+00    0.2117386630E-01    0.2381427561E-02    0.4008291738E+00    0.6482077974E+00
    0.9000000000E+04    0.2318152075E+00    0.1823615374E-01    0.1985335548E-02    0.4086463716E+00    0.6532028274E+00
    0.1100000000E+05    0.2345558400E+00    0.1626086359E-01    0.1725152315E-02    0.4136053394E+00    0.6566975874E+00
    0.1300000000E+05    0.2364276742E+00    0.1482300032E-01    0.1540050554E-02    0.4170156305E+00    0.6593115855E+00
    0.1500000000E+05    0.2377810194E+00    0.1371799199E-01    0.1400799653E-02    0.4194986494E+00    0.6613582480E+00
    0.1700000000E+05    0.2388017379E+00    0.1283494388E-01    0.1291659988E-02    0.4213847947E+00    0.6630149414E+00
    0.1900000000E+05    0.2395970648E+00    0.1210827819E-01    0.1203410791E-02    0.4228651084E+00    0.6643903679E+00
    0.2100000000E+05    0.2402329830E+00    0.1149656096E-01    0.1130288449E-02    0.4240573999E+00    0.6655552577E+00
    0.2300000000E+05    0.2407522143E+00    0.1097221756E-01    0.1068500619E-02    0.4250381184E+00    0.6665578320E+00
    0.2500000000E+05    0.2411835863E+00    0.1051611483E-01    0.1015446107E-02    0.4258589676E+00    0.6674322207E+00
    0.2700000000E+05    0.2415472279E+00    0.1011451488E-01    0.9692784465E-03    0.4265561323E+00    0.6682033345E+00
    0.2900000000E+05    0.2418576039E+00    0.9757268472E-02    0.9286486440E-03    0.4271556757E+00    0.6688898281E+00
    0.3100000000E+05    0.2421253667E+00    0.9436694662E-02    0.8925467401E-03    0.4276768366E+00    0.6695059794E+00
    0.3300000000E+05    0.2423585285E+00    0.9146859432E-02    0.8602005273E-03    0.4281341199E+00    0.6700629230E+00
    0.3500000000E+05    0.2425632279E+00    0.8883095899E-02    0.8310086956E-03    0.4285386645E+00    0.6705694846E+00
    0.3700000000E+05    0.2427442444E+00    0.8641676173E-02    0.8044954558E-03    0.4288991644E+00    0.6710327605E+00
    0.3900000000E+05    0.2429053534E+00    0.8419581370E-02    0.7802789801E-03    0.4292225033E+00    0.6714585291E+00
    0.4100000000E+05    0.2430495752E+00    0.8214336917E-02    0.7580489714E-03    0.4295142015E+00    0.6718515484E+00
    0.4300000000E+05    0.2431793539E+00    0.8023892319E-02    0.7375504140E-03    0.4297787374E+00    0.6722157763E+00
    0.4500000000E+05    0.2432966881E+00    0.7846531890E-02    0.7185715944E-03    0.4300197815E+00    0.6725545348E+00
    0.4700000000E+05    0.2434032274E+00    0.7680807438E-02    0.7009351358E-03    0.4302403709E+00    0.6728706356E+00
    0.4900000000E+05    0.2435003449E+00    0.7525486797E-02    0.6844911898E-03    0.4304430401E+00    0.6731664761E+00
    0.1000000000E+05    0.2333268305E+00    0.1716241545E-01    0.1843150196E-02    0.4113773949E+00    0.6550885660E+00
    0.3000000000E+05    0.2419962598E+00    0.9592802779E-02    0.9100846274E-03    0.4274250552E+00    0.6692059383E+00
    0.5000000000E+05    0.2435457379E+00    0.7451391931E-02    0.6766757955E-03    0.4305383343E+00    0.6733074534E+00
    0.7000000000E+05    0.2441607191E+00    0.6323802582E-02    0.5600584407E-03    0.4318783985E+00    0.6754381172E+00
    0.9000000000E+05    0.2444797599E+00    0.5597792453E-02    0.4872706814E-03    0.4326335725E+00    0.6767916734E+00
    0.1100000000E+06    0.2446696323E+00    0.5079466868E-02    0.4364035014E-03    0.4331229430E+00    0.6777472269E+00
    0.1300000000E+06    0.2447924177E+00    0.4685152934E-02    0.3983211015E-03    0.4334685494E+00    0.6784674134E+00
    0.1500000000E+06    0.2448762948E+00    0.4371953035E-02    0.3684535957E-03    0.4337272952E+00    0.6790349890E+00
    0.1700000000E+06    0.2449358126E+00    0.4115274519E-02    0.3442300450E-03    0.4339293614E+00    0.6794970425E+00
    0.1900000000E+06    0.2449791983E+00    0.3899861253E-02    0.3240794341E-03    0.4340922827E+00    0.6798825814E+00
    0.2100000000E+06    0.2450114315E+00    0.3715674773E-02    0.3069808443E-03    0.4342269641E+00    0.6802105703E+00
    0.2300000000E+06    0.2450356891E+00    0.3555800559E-02    0.2922384438E-03    0.4343405562E+00    0.6804939951E+00
    0.2500000000E+06    0.2450540848E+00    0.3415298245E-02    0.2793595722E-03    0.4344379500E+00    0.6807420848E+00
    0.2700000000E+06    0.2450680748E+00    0.3290530521E-02    0.2679843937E-03    0.4345226094E+00    0.6809616007E+00
    0.2900000000E+06    0.2450786907E+00    0.3178751566E-02    0.2578431830E-03    0.4345970592E+00    0.6811576242E+00
    0.3100000000E+06    0.2450866819E+00    0.3077844113E-02    0.2487292749E-03    0.4346631855E+00    0.6813340571E+00
    0.3300000000E+06    0.2450926036E+00    0.2986145548E-02    0.2404813129E-03    0.4347224273E+00    0.6814939517E+00
    0.3500000000E+06    0.2450968750E+00    0.2902329478E-02    0.2329712435E-03    0.4347759024E+00    0.6816397345E+00
    0.3700000000E+06    0.2450998175E+00    0.2825322968E-02    0.2260959800E-03    0.4348244934E+00    0.6817733617E+00
    0.3900000000E+06    0.2451016808E+00    0.2754247413E-02    0.2197714811E-03    0.4348689070E+00    0.6818964304E+00
    0.4100000000E+06    0.2451026612E+00    0.2688375454E-02    0.2139284591E-03    0.4349097159E+00    0.6820102589E+00
    0.4300000000E+06    0.2451029150E+00    0.2627099029E-02    0.2085092131E-03    0.4349473900E+00    0.6821159461E+00
    0.4500000000E+06    0.2451025677E+00    0.2569905311E-02    0.2034652539E-03    0.4349823183E+00    0.6822144168E+00
    0.4700000000E+06    0.2451017208E+00    0.2516358328E-02    0.1987554988E-03    0.4350148260E+00    0.6823064551E+00
    0.4900000000E+06    0.2451004574E+00    0.2466084747E-02    0.1943448795E-03    0.4350451873E+00    0.6823927308E+00
    0.1000000000E+06    0.2445857600E+00    0.5319287149E-02    0.4598250270E-03    0.4329015618E+00    0.6773063111E+00
    0.3000000000E+06    0.2450829759E+00    0.3127051871E-02    0.2531688003E-03    0.4346310641E+00    0.6812480818E+00
    0.5000000000E+06    0.2450996912E+00    0.2442073154E-02    0.1922421595E-03    0.4350596372E+00    0.6824338910E+00
    0.7000000000E+06    0.2450739836E+00    0.2074690524E-02    0.1603945696E-03    0.4352776152E+00    0.6830598378E+00
    0.9000000000E+06    0.2450417240E+00    0.1836654889E-02    0.1401060214E-03    0.4354175446E+00    0.6834615065E+00
    0.1100000000E+07    0.2450098171E+00    0.1666262783E-02    0.1257658158E-03    0.4355185003E+00    0.6837471023E+00
    0.1300000000E+07    0.2449798688E+00    0.1536483083E-02    0.1149538093E-03    0.4355966064E+00    0.6839635267E+00
    0.1500000000E+07    0.2449521497E+00    0.1433346466E-02    0.1064338958E-03    0.4356598913E+00    0.6841348309E+00
    0.1700000000E+07    0.2449265523E+00    0.1348806945E-02    0.9950082636E-04    0.4357128702E+00    0.6842747847E+00
    0.1900000000E+07    0.2449028706E+00    0.1277858559E-02    0.9371929983E-04    0.4357583092E+00    0.6843919136E+00
    0.2100000000E+07    0.2448808882E+00    0.1217201157E-02    0.8880431321E-04    0.4357980146E+00    0.6844918154E+00
    0.2300000000E+07    0.2448604060E+00    0.1164558707E-02    0.8456049419E-04    0.4358332255E+00    0.6845783371E+00
    0.2500000000E+07    0.2448412498E+00    0.1118303624E-02    0.8084888607E-04    0.4358648258E+00    0.6846542217E+00
    0.2700000000E+07    0.2448232691E+00    0.1077236917E-02    0.7756762359E-04    0.4358934665E+00    0.6847214844E+00
    0.2900000000E+07    0.2448063353E+00    0.1040453119E-02    0.7464012161E-04    0.4359196403E+00    0.6847816435E+00
    0.3100000000E+07    0.2447903379E+00    0.1007253863E-02    0.7200755365E-04    0.4359437279E+00    0.6848358677E+00
    0.3300000000E+07    0.2447751823E+00    0.9770906644E-03    0.6962389395E-04    0.4359660298E+00    0.6848850730E+00
    0.3500000000E+07    0.2447607867E+00    0.9495259215E-03    0.6745255107E-04    0.4359867869E+00    0.6849299890E+00
    0.3700000000E+07    0.2447470803E+00    0.9242056439E-03    0.6546402292E-04    0.4360061948E+00    0.6849712050E+00
    0.3900000000E+07    0.2447340015E+00    0.9008399605E-03    0.6363422619E-04    0.4360244150E+00    0.6850092027E+00
    0.4100000000E+07    0.2447214962E+00    0.8791889091E-03    0.6194328261E-04    0.4360415818E+00    0.6850443805E+00
    0.4300000000E+07    0.2447095170E+00    0.8590518981E-03    0.6037462138E-04    0.4360578083E+00    0.6850770709E+00
    0.4500000000E+07    0.2446980221E+00    0.8402597664E-03    0.5891430492E-04    0.4360731904E+00    0.6851075540E+00
    0.4700000000E+07    0.2446869742E+00    0.8226687177E-03    0.5755051518E-04    0.4360878103E+00    0.6851360676E+00
    0.4900000000E+07    0.2446763402E+00    0.8061556279E-03    0.5627315723E-04    0.4361017389E+00    0.6851628153E+00
    0.1000000000E+07    0.2450255741E+00    0.1745135664E-02    0.1323839550E-03    0.4354716070E+00    0.6836151051E+00
    0.3000000000E+07    0.2447982258E+00    0.1023442690E-02    0.7329010198E-04    0.4359319245E+00    0.6848094352E+00
    0.5000000000E+07    0.2446711691E+00    0.7982695731E-03    0.5566412907E-04    0.4361084634E+00    0.6851755825E+00
    0.7000000000E+07    0.2445837033E+00    0.6776883184E-03    0.4643614890E-04    0.4362180922E+00    0.6853702721E+00
    0.9000000000E+07    0.2445170098E+00    0.5996438072E-03    0.4055526627E-04    0.4362975636E+00    0.6854957365E+00
    0.1100000000E+08    0.2444631063E+00    0.5438204238E-03    0.3639836956E-04    0.4363598691E+00    0.6855852022E+00
    0.1300000000E+08    0.2444178716E+00    0.5013273250E-03    0.3326439794E-04    0.4364110957E+00    0.6856531432E+00
    0.1500000000E+08    0.2443789009E+00    0.4675736012E-03    0.3079505442E-04    0.4364545820E+00    0.6857070080E+00
    0.1700000000E+08    0.2443446688E+00    0.4399167699E-03    0.2878585189E-04    0.4364923562E+00    0.6857510730E+00
    0.1900000000E+08    0.2443141468E+00    0.4167136803E-03    0.2711055533E-04    0.4365257421E+00    0.6857879915E+00
    0.2100000000E+08    0.2442866087E+00    0.3968816065E-03    0.2568650997E-04    0.4365556516E+00    0.6858195087E+00
    0.2300000000E+08    0.2442615226E+00    0.3796741265E-03    0.2445705443E-04    0.4365827393E+00    0.6858468260E+00
    0.2500000000E+08    0.2442384871E+00    0.3645576645E-03    0.2338188948E-04    0.4366074907E+00    0.6858708010E+00
    0.2700000000E+08    0.2442171922E+00    0.3511392775E-03    0.2243147397E-04    0.4366302764E+00    0.6858920645E+00
