  Pressure (Pa) 22mC5-400 (mol/kg) 2mC6-400 (mol/kg) 33mC5-400 (mol/kg) 23mC5-400 (mol/kg) C7-400 (mol/kg)
    0.1000000000E+01    0.5311452214E-03    0.1572540247E-02    0.3201563954E-03    0.2797892406E-03    0.1518193409E-01
    0.3000000000E+01    0.1583753301E-02    0.4523138648E-02    0.9212786845E-03    0.8342706286E-03    0.4343198360E-01
    0.5000000000E+01    0.2623698299E-02    0.7243683390E-02    0.1476070050E-02    0.1382085765E-02    0.6918053208E-01
    0.7000000000E+01    0.3651268168E-02    0.9763853051E-02    0.1990535564E-02    0.1923386218E-02    0.9275039500E-01
    0.9000000000E+01    0.4666741905E-02    0.1210830026E-01    0.2469659844E-02    0.2458318844E-02    0.1144109358E+00
    0.1100000000E+02    0.5670389894E-02    0.1429767040E-01    0.2917614290E-02    0.2987025963E-02    0.1343887010E+00
    0.1300000000E+02    0.6662474242E-02    0.1634938326E-01    0.3337916040E-02    0.3509645541E-02    0.1528756124E+00
    0.1500000000E+02    0.7643249093E-02    0.1827823938E-01    0.3733551234E-02    0.4026311352E-02    0.1700353472E+00
    0.1700000000E+02    0.8612960933E-02    0.2009689515E-01    0.4107071570E-02    0.4537153139E-02    0.1860083567E+00
    0.1900000000E+02    0.9571848881E-02    0.2181623860E-01    0.4460670627E-02    0.5042296767E-02    0.2009158516E+00
    0.2100000000E+02    0.1052014496E-01    0.2344568903E-01    0.4796244725E-02    0.5541864366E-02    0.2148629927E+00
    0.2300000000E+02    0.1145807435E-01    0.2499343805E-01    0.5115441847E-02    0.6035974473E-02    0.2279414674E+00
    0.2500000000E+02    0.1238585568E-01    0.2646664478E-01    0.5419701237E-02    0.6524742159E-02    0.2402315847E+00
    0.2700000000E+02    0.1330370122E-01    0.2787159503E-01    0.5710285701E-02    0.7008279163E-02    0.2518039905E+00
    0.2900000000E+02    0.1421181713E-01    0.2921383207E-01    0.5988308097E-02    0.7486694006E-02    0.2627210821E+00
    0.3100000000E+02    0.1511040370E-01    0.3049826456E-01    0.6254753225E-02    0.7960092111E-02    0.2730381804E+00
    0.3300000000E+02    0.1599965553E-01    0.3172925629E-01    0.6510495986E-02    0.8428575914E-02    0.2828045080E+00
    0.3500000000E+02    0.1687976174E-01    0.3291070105E-01    0.6756316553E-02    0.8892244969E-02    0.2920640093E+00
    0.3700000000E+02    0.1775090619E-01    0.3404608557E-01    0.6992913100E-02    0.9351196048E-02    0.3008560408E+00
    0.3900000000E+02    0.1861326761E-01    0.3513854252E-01    0.7220912530E-02    0.9805523243E-02    0.3092159571E+00
    0.4100000000E+02    0.1946701984E-01    0.3619089555E-01    0.7440879564E-02    0.1025531805E-01    0.3171756077E+00
    0.4300000000E+02    0.2031233195E-01    0.3720569748E-01    0.7653324476E-02    0.1070066948E-01    0.3247637627E+00
    0.4500000000E+02    0.2114936844E-01    0.3818526303E-01    0.7858709696E-02    0.1114166411E-01    0.3320064772E+00
    0.4700000000E+02    0.2197828937E-01    0.3913169689E-01    0.8057455472E-02    0.1157838620E-01    0.3389274051E+00
    0.4900000000E+02    0.2279925051E-01    0.4004691788E-01    0.8249944750E-02    0.1201091775E-01    0.3455480706E+00
    0.1000000000E+02    0.5170027546E-02    0.1322121347E-01    0.2697299734E-02    0.2723441869E-02    0.1245974411E+00
    0.3000000000E+02    0.1466228929E-01    0.2986298932E-01    0.6122920754E-02    0.7724013679E-02    0.2679514213E+00
    0.5000000000E+02    0.2320679370E-01    0.4049337755E-01    0.8343953719E-02    0.1222563710E-01    0.3487520075E+00
    0.7000000000E+02    0.3097465621E-01    0.4813946516E-01    0.9966535698E-02    0.1631838521E-01    0.4010218163E+00
    0.9000000000E+02    0.3809676191E-01    0.5398624991E-01    0.1122673708E-01    0.2007115598E-01    0.4378164168E+00
    0.1100000000E+03    0.4467503075E-01    0.5861711220E-01    0.1224051273E-01    0.2353760136E-01    0.4652417608E+00
    0.1300000000E+03    0.5079008632E-01    0.6236562506E-01    0.1307418497E-01    0.2676016349E-01    0.4865449558E+00
    0.1500000000E+03    0.5650660168E-01    0.6544308154E-01    0.1376985731E-01    0.2977288852E-01    0.5036167973E+00
    0.1700000000E+03    0.6187710509E-01    0.6799330561E-01    0.1435628842E-01    0.3260342966E-01    0.5176354346E+00
    0.1900000000E+03    0.6694474045E-01    0.7011940618E-01    0.1485418223E-01    0.3527450019E-01    0.5293745810E+00
    0.2100000000E+03    0.7174530358E-01    0.7189819175E-01    0.1527903218E-01    0.3780494528E-01    0.5393641491E+00
    0.2300000000E+03    0.7630876714E-01    0.7338856859E-01    0.1564277694E-01    0.4021054468E-01    0.5479797629E+00
    0.2500000000E+03    0.8066043853E-01    0.7463674980E-01    0.1595482748E-01    0.4250462221E-01    0.5554954166E+00
    0.2700000000E+03    0.8482185009E-01    0.7567965354E-01    0.1622273785E-01    0.4469851439E-01    0.5621158761E+00
    0.2900000000E+03    0.8881145147E-01    0.7654721272E-01    0.1645266187E-01    0.4680193484E-01    0.5679973851E+00
    0.3100000000E+03    0.9264515372E-01    0.7726399854E-01    0.1664967477E-01    0.4882326075E-01    0.5732613305E+00
    0.3300000000E+03    0.9633676114E-01    0.7785039377E-01    0.1681800626E-01    0.5076976018E-01    0.5780035181E+00
    0.3500000000E+03    0.9989831699E-01    0.7832346046E-01    0.1696121334E-01    0.5264777408E-01    0.5823006239E+00
    0.3700000000E+03    0.1033403827E+00    0.7869759448E-01    0.1708231096E-01    0.5446286326E-01    0.5862147777E+00
    0.3900000000E+03    0.1066722652E+00    0.7898502740E-01    0.1718387261E-01    0.5621992797E-01    0.5897968838E+00
    0.4100000000E+03    0.1099022026E+00    0.7919621696E-01    0.1726810864E-01    0.5792330592E-01    0.5930890666E+00
    0.4300000000E+03    0.1130375183E+00    0.7934015476E-01    0.1733692830E-01    0.5957685311E-01    0.5961265018E+00
    0.4500000000E+03    0.1160847485E+00    0.7942461123E-01    0.1739198919E-01    0.6118401102E-01    0.5989388035E+00
    0.4700000000E+03    0.1190497483E+00    0.7945633280E-01    0.1743473719E-01    0.6274786267E-01    0.6015510920E+00
    0.4900000000E+03    0.1219377814E+00    0.7944120181E-01    0.1746643892E-01    0.6427117971E-01    0.6039848220E+00
    0.1000000000E+03    0.4144840952E-01    0.5642899850E-01    0.1175952484E-01    0.2183729171E-01    0.4524542011E+00
    0.3000000000E+03    0.9074688226E-01    0.7692309160E-01    0.1655500030E-01    0.4782238169E-01    0.5707000524E+00
    0.5000000000E+03    0.1233544376E+00    0.7941770124E-01    0.1747850090E-01    0.6501842868E-01    0.6051405930E+00
    0.7000000000E+03    0.1485866580E+00    0.7745001367E-01    0.1734995788E-01    0.7833022094E-01    0.6222406822E+00
    0.9000000000E+03    0.1695286721E+00    0.7405592334E-01    0.1683702406E-01    0.8938226216E-01    0.6326639740E+00
    0.1100000000E+04    0.1875660215E+00    0.7023860519E-01    0.1617391035E-01    0.9890414823E-01    0.6397651130E+00
    0.1300000000E+04    0.2034455696E+00    0.6638950549E-01    0.1545925986E-01    0.1072891650E+00    0.6449548582E+00
    0.1500000000E+04    0.2176233344E+00    0.6267275862E-01    0.1473909558E-01    0.1147774443E+00    0.6489358990E+00
    0.1700000000E+04    0.2304042470E+00    0.5915646611E-01    0.1403601972E-01    0.1215295594E+00    0.6520998990E+00
    0.1900000000E+04    0.2420066580E+00    0.5586473293E-01    0.1336118622E-01    0.1276604936E+00    0.6546834975E+00
    0.2100000000E+04    0.2525953041E+00    0.5280055784E-01    0.1271977642E-01    0.1332570007E+00    0.6568386405E+00
    0.2300000000E+04    0.2622995449E+00    0.4995669047E-01    0.1211371774E-01    0.1383872080E+00    0.6586676525E+00
    0.2500000000E+04    0.2712241233E+00    0.4732106758E-01    0.1154312168E-01    0.1431062822E+00    0.6602421344E+00
    0.2700000000E+04    0.2794558705E+00    0.4487963594E-01    0.1100708236E-01    0.1474599603E+00    0.6616137940E+00
    0.2900000000E+04    0.2870680868E+00    0.4261784689E-01    0.1050413683E-01    0.1514868557E+00    0.6628209724E+00
    0.3100000000E+04    0.2941235273E+00    0.4052144678E-01    0.1003253742E-01    0.1552200298E+00    0.6638927437E+00
    0.3300000000E+04    0.3006765134E+00    0.3857688280E-01    0.9590415690E-02    0.1586881041E+00    0.6648515852E+00
    0.3500000000E+04    0.3067744785E+00    0.3677149405E-01    0.9175881634E-02    0.1619160733E+00    0.6657151673E+00
    0.3700000000E+04    0.3124591325E+00    0.3509358153E-01    0.8787083334E-02    0.1649259188E+00    0.6664975880E+00
    0.3900000000E+04    0.3177673622E+00    0.3353241013E-01    0.8422241925E-02    0.1677370819E+00    0.6672102419E+00
    0.4100000000E+04    0.3227319446E+00    0.3207817315E-01    0.8079670949E-02    0.1703668400E+00    0.6678624460E+00
    0.4300000000E+04    0.3273821211E+00    0.3072193747E-01    0.7757785785E-02    0.1728306082E+00    0.6684618982E+00
    0.4500000000E+04    0.3317440688E+00    0.2945557979E-01    0.7455106748E-02    0.1751421878E+00    0.6690150178E+00
    0.4700000000E+04    0.3358412925E+00    0.2827172033E-01    0.7170258216E-02    0.1773139722E+00    0.6695272040E+00
    0.4900000000E+04    0.3396949534E+00    0.2716365756E-01    0.6901965279E-02    0.1793571206E+00    0.6700030328E+00
    0.1000000000E+04    0.1788544264E+00    0.7216786200E-01    0.1651628946E-01    0.9430498409E-01    0.6365173564E+00
    0.3000000000E+04    0.2906618316E+00    0.4154983970E-01    0.1026453421E-01    0.1533882757E+00    0.6633722488E+00
    0.5000000000E+04    0.3415364895E+00    0.2663612575E-01    0.6773655127E-02    0.1803336425E+00    0.6702285564E+00
    0.7000000000E+04    0.3693462048E+00    0.1885873830E-01    0.4835877077E-02    0.1950972281E+00    0.6735341967E+00
    0.9000000000E+04    0.3862899850E+00    0.1434316202E-01    0.3667060515E-02    0.2041148194E+00    0.6755244078E+00
    0.1100000000E+05    0.3974606789E+00    0.1148851110E-01    0.2909301962E-02    0.2100757599E+00    0.6768724176E+00
    0.1300000000E+05    0.4052756198E+00    0.9561238063E-02    0.2388909986E-02    0.2142576783E+00    0.6778551603E+00
    0.1500000000E+05    0.4109989683E+00    0.8191456930E-02    0.2014787067E-02    0.2173292975E+00    0.6786086521E+00
    0.1700000000E+05    0.4153446317E+00    0.7177256432E-02    0.1735730587E-02    0.2196685929E+00    0.6792079649E+00
    0.1900000000E+05    0.4187415528E+00    0.6401020876E-02    0.1521228709E-02    0.2215028672E+00    0.6796981311E+00
    0.2100000000E+05    0.4214608674E+00    0.5790469161E-02    0.1352186142E-02    0.2229759281E+00    0.6801079098E+00
    0.2300000000E+05    0.4236813306E+00    0.5299153119E-02    0.1216148976E-02    0.2241826724E+00    0.6804565878E+00
    0.2500000000E+05    0.4255250378E+00    0.4896079795E-02    0.1104705105E-02    0.2251879788E+00    0.6807576178E+00
    0.2700000000E+05    0.4270779342E+00    0.4559893912E-02    0.1011999234E-02    0.2260375596E+00    0.6810206907E+00
    0.2900000000E+05    0.4284021042E+00    0.4275467926E-02    0.9338484736E-03    0.2267644687E+00    0.6812529785E+00
    0.3100000000E+05    0.4295434155E+00    0.4031824697E-02    0.8671961647E-03    0.2273931500E+00    0.6814599114E+00
    0.3300000000E+05    0.4305364282E+00    0.3820828751E-02    0.8097636950E-03    0.2279420400E+00    0.6816456832E+00
    0.3500000000E+05    0.4314076380E+00    0.3636337046E-02    0.7598222198E-03    0.2284252874E+00    0.6818135878E+00
    0.3700000000E+05    0.4321776735E+00    0.3473633331E-02    0.7160392323E-03    0.2288539194E+00    0.6819662519E+00
    0.3900000000E+05    0.4328628183E+00    0.3329042530E-02    0.6773731270E-03    0.2292366497E+00    0.6821057979E+00
    0.4100000000E+05    0.4334760861E+00    0.3199662308E-02    0.6429992845E-03    0.2295804494E+00    0.6822339609E+00
    0.4300000000E+05    0.4340279942E+00    0.3083172688E-02    0.6122573171E-03    0.2298909584E+00    0.6823521745E+00
    0.4500000000E+05    0.4345271294E+00    0.2977698693E-02    0.5846127974E-03    0.2301727865E+00    0.6824616344E+00
    0.4700000000E+05    0.4349805670E+00    0.2881709712E-02    0.5596290791E-03    0.2304297361E+00    0.6825633469E+00
    0.4900000000E+05    0.4353941866E+00    0.2793944717E-02    0.5369462669E-03    0.2306649705E+00    0.6826581650E+00
    0.1000000000E+05    0.3924078730E+00    0.1276619690E-01    0.3250357353E-02    0.2073774534E+00    0.6762565161E+00
    0.3000000000E+05    0.4289932364E+00    0.4149111870E-02    0.8992425359E-03    0.2270898182E+00    0.6813593278E+00
    0.5000000000E+05    0.4355876354E+00    0.2752811712E-02    0.5263722274E-03    0.2307752903E+00    0.6827032206E+00
    0.7000000000E+05    0.4382257613E+00    0.2181150061E-02    0.3841594315E-03    0.2323055667E+00    0.6833738988E+00
    0.9000000000E+05    0.4396262766E+00    0.1860555984E-02    0.3096019457E-03    0.2331487615E+00    0.6837896553E+00
    0.1100000000E+06    0.4404878965E+00    0.1650432670E-02    0.2634792854E-03    0.2336870567E+00    0.6840781310E+00
    0.1300000000E+06    0.4410683514E+00    0.1499489600E-02    0.2319187684E-03    0.2340632318E+00    0.6842927012E+00
    0.1500000000E+06    0.4414842141E+00    0.1384376427E-02    0.2088152731E-03    0.2343426934E+00    0.6844600240E+00
    0.1700000000E+06    0.4417957017E+00    0.1292836509E-02    0.1910702578E-03    0.2345596603E+00    0.6845950490E+00
    0.1900000000E+06    0.4420369851E+00    0.1217764562E-02    0.1769442333E-03    0.2347337981E+00    0.6847068770E+00
    0.2100000000E+06    0.4422288639E+00    0.1154728838E-02    0.1653843859E-03    0.2348772298E+00    0.6848013992E+00
    0.2300000000E+06    0.4423847078E+00    0.1100805608E-02    0.1557152786E-03    0.2349978468E+00    0.6848826151E+00
    0.2500000000E+06    0.4425134931E+00    0.1053978563E-02    0.1474829787E-03    0.2351010144E+00    0.6849533462E+00
    0.2700000000E+06    0.4426214651E+00    0.1012806363E-02    0.1403706400E-03    0.2351905126E+00    0.6850156459E+00
    0.2900000000E+06    0.4427131001E+00    0.9762276950E-03    0.1341500334E-03    0.2352690847E+00    0.6850710484E+00
    0.3100000000E+06    0.4427916880E+00    0.9434413963E-03    0.1286523417E-03    0.2353387722E+00    0.6851207254E+00
    0.3300000000E+06    0.4428596997E+00    0.9138297613E-03    0.1237498301E-03    0.2354011273E+00    0.6851655891E+00
    0.3500000000E+06    0.4429190257E+00    0.8869077803E-03    0.1193439380E-03    0.2354573526E+00    0.6852063617E+00
    0.3700000000E+06    0.4429711368E+00    0.8622885565E-03    0.1153573055E-03    0.2355083950E+00    0.6852436226E+00
    0.3900000000E+06    0.4430171935E+00    0.8396591413E-03    0.1117282946E-03    0.2355550110E+00    0.6852778434E+00
    0.4100000000E+06    0.4430581234E+00    0.8187632704E-03    0.1084071363E-03    0.2355978125E+00    0.6853094119E+00
    0.4300000000E+06    0.4430946767E+00    0.7993887888E-03    0.1053531653E-03    0.2356373005E+00    0.6853386503E+00
    0.4500000000E+06    0.4431274664E+00    0.7813583266E-03    0.1025327993E-03    0.2356738894E+00    0.6853658288E+00
    0.4700000000E+06    0.4431569979E+00    0.7645222800E-03    0.9991803770E-04    0.2357079248E+00    0.6853911761E+00
    0.4900000000E+06    0.4431836916E+00    0.7487534497E-03    0.9748533005E-04    0.2357396978E+00    0.6854148868E+00
    0.1000000000E+06    0.4401033206E+00    0.1745888417E-02    0.2841327599E-03    0.2334443551E+00    0.6839455493E+00
    0.3000000000E+06    0.4427538546E+00    0.9594027137E-03    0.1313196061E-03    0.2353049324E+00    0.6850965404E+00
    0.5000000000E+06    0.4431960868E+00    0.7412345774E-03    0.9633088662E-04    0.2357548145E+00    0.6854261815E+00
    0.7000000000E+06    0.4433566345E+00    0.6271110119E-03    0.7923554861E-04    0.2359824868E+00    0.6855965416E+00
    0.9000000000E+06    0.4434303782E+00    0.5539527200E-03    0.6868392101E-04    0.2361283003E+00    0.6857043938E+00
    0.1100000000E+07    0.4434675503E+00    0.5018898821E-03    0.6136093687E-04    0.2362333363E+00    0.6857803254E+00
    0.1300000000E+07    0.4434865242E+00    0.4623816139E-03    0.5590474865E-04    0.2363144956E+00    0.6858374216E+00
    0.1500000000E+07    0.4434954625E+00    0.4310630692E-03    0.5164074573E-04    0.2363801806E+00    0.6858823270E+00
    0.1700000000E+07    0.4434984758E+00    0.4054385649E-03    0.4819205148E-04    0.2364351123E+00    0.6859188166E+00
    0.1900000000E+07    0.4434978240E+00    0.3839633782E-03    0.4532959365E-04    0.2364821812E+00    0.6859492124E+00
    0.2100000000E+07    0.4434948325E+00    0.3656230598E-03    0.4290513837E-04    0.2365232740E+00    0.6859750308E+00
    0.2300000000E+07    0.4434903178E+00    0.3497200365E-03    0.4081800139E-04    0.2365596846E+00    0.6859973088E+00
    0.2500000000E+07    0.4434848024E+00    0.3357566427E-03    0.3899710188E-04    0.2365923355E+00    0.6860167828E+00
    0.2700000000E+07    0.4434786315E+00    0.3233669618E-03    0.3739065002E-04    0.2366219061E+00    0.6860339916E+00
    0.2900000000E+07    0.4434720381E+00    0.3122750915E-03    0.3595990745E-04    0.2366489103E+00    0.6860493401E+00
    0.3100000000E+07    0.4434651831E+00    0.3022685156E-03    0.3467524739E-04    0.2366737453E+00    0.6860631386E+00
    0.3300000000E+07    0.4434581786E+00    0.2931805164E-03    0.3351357613E-04    0.2366967243E+00    0.6860756298E+00
    0.3500000000E+07    0.4434511043E+00    0.2848782094E-03    0.3245659301E-04    0.2367180983E+00    0.6860870066E+00
    0.3700000000E+07    0.4434440165E+00    0.2772541909E-03    0.3148958471E-04    0.2367380714E+00    0.6860974241E+00
    0.3900000000E+07    0.4434369559E+00    0.2702205769E-03    0.3060057037E-04    0.2367568116E+00    0.6861070090E+00
    0.4100000000E+07    0.4434299512E+00    0.2637046630E-03    0.2977968299E-04    0.2367744588E+00    0.6861158660E+00
    0.4300000000E+07    0.4434230230E+00    0.2576457091E-03    0.2901871361E-04    0.2367911308E+00    0.6861240820E+00
    0.4500000000E+07    0.4434161857E+00    0.2519925191E-03    0.2831077007E-04    0.2368069274E+00    0.6861317303E+00
    0.4700000000E+07    0.4434094493E+00    0.2467015945E-03    0.2765001778E-04    0.2368219342E+00    0.6861388729E+00
    0.4900000000E+07    0.4434028202E+00    0.2417357061E-03    0.2703148011E-04    0.2368362248E+00    0.6861455628E+00
    0.1000000000E+07    0.4434520239E+00    0.5259605383E-03    0.6472769740E-04    0.2361845656E+00    0.6857453121E+00
    0.3000000000E+07    0.4434686354E+00    0.3071474733E-03    0.3530089000E-04    0.2366615777E+00    0.6860564166E+00
    0.5000000000E+07    0.4433995473E+00    0.2393644507E-03    0.2673668223E-04    0.2368431218E+00    0.6861487525E+00
    0.7000000000E+07    0.4433399811E+00    0.2031276117E-03    0.2227824230E-04    0.2369553483E+00    0.6861970893E+00
    0.9000000000E+07    0.4432902720E+00    0.1796928048E-03    0.1944426576E-04    0.2370364462E+00    0.6862279114E+00
    0.1100000000E+08    0.4432480377E+00    0.1629386403E-03    0.1744405594E-04    0.2370998759E+00    0.6862497135E+00
    0.1300000000E+08    0.4432114364E+00    0.1501895187E-03    0.1593752284E-04    0.2371519290E+00    0.6862661623E+00
    0.1500000000E+08    0.4431791808E+00    0.1400649321E-03    0.1475129875E-04    0.2371960492E+00    0.6862791317E+00
    0.1700000000E+08    0.4431503633E+00    0.1317707034E-03    0.1378661127E-04    0.2372343246E+00    0.6862896911E+00
    0.1900000000E+08    0.4431243274E+00    0.1248131950E-03    0.1298256262E-04    0.2372681164E+00    0.6862985008E+00
    0.2100000000E+08    0.4431005858E+00    0.1188672346E-03    0.1229931711E-04    0.2372983604E+00    0.6863059934E+00
    0.2300000000E+08    0.4430787677E+00    0.1137087075E-03    0.1170958721E-04    0.2373257279E+00    0.6863124654E+00
    0.2500000000E+08    0.4430585847E+00    0.1091774398E-03    0.1119397709E-04    0.2373507164E+00    0.6863181279E+00
    0.2700000000E+08    0.4430398088E+00    0.1051554948E-03    0.1073827591E-04    0.2373737047E+00    0.6863231355E+00
