  Pressure (Pa) 22mC5-400 (mol/kg) 2mC6-400 (mol/kg) 33mC5-400 (mol/kg) 23mC5-400 (mol/kg) C7-400 (mol/kg)
    0.1000000000E+01    0.5306728113E-03    0.1590978664E-02    0.2590856344E-03    0.9318020835E-03    0.5136710064E-02
    0.3000000000E+01    0.1579569467E-02    0.4676998864E-02    0.7617098462E-03    0.2773562659E-02    0.1511724380E-01
    0.5000000000E+01    0.2612260203E-02    0.7641028192E-02    0.1244565725E-02    0.4586887398E-02    0.2472610909E-01
    0.7000000000E+01    0.3629200352E-02    0.1048971699E-01    0.1708731818E-02    0.6372575137E-02    0.3398441067E-01
    0.9000000000E+01    0.4630827850E-02    0.1322923353E-01    0.2155208355E-02    0.8131394194E-02    0.4291167200E-01
    0.1100000000E+02    0.5617564060E-02    0.1586530764E-01    0.2584924345E-02    0.9864083815E-02    0.5152598100E-01
    0.1300000000E+02    0.6589814552E-02    0.1840326964E-01    0.2998743909E-02    0.1157135554E-01    0.5984411993E-01
    0.1500000000E+02    0.7547969836E-02    0.2084808515E-01    0.3397471943E-02    0.1325389448E-01    0.6788168143E-01
    0.1700000000E+02    0.8492406059E-02    0.2320438626E-01    0.3781859188E-02    0.1491236057E-01    0.7565317238E-01
    0.1900000000E+02    0.9423485659E-02    0.2547649954E-01    0.4152606783E-02    0.1654738969E-01    0.8317210707E-01
    0.2100000000E+02    0.1034155799E-01    0.2766847127E-01    0.4510370366E-02    0.1815959475E-01    0.9045109088E-01
    0.2300000000E+02    0.1124695990E-01    0.2978409011E-01    0.4855763765E-02    0.1974956674E-01    0.9750189571E-01
    0.2500000000E+02    0.1214001630E-01    0.3182690766E-01    0.5189362330E-02    0.2131787571E-01    0.1043355279E+00
    0.2700000000E+02    0.1302104069E-01    0.3380025698E-01    0.5511705957E-02    0.2286507167E-01    0.1109622898E+00
    0.2900000000E+02    0.1389033564E-01    0.3570726945E-01    0.5823301814E-02    0.2439168547E-01    0.1173918352E+00
    0.3100000000E+02    0.1474819329E-01    0.3755089002E-01    0.6124626829E-02    0.2589822966E-01    0.1236332198E+00
    0.3300000000E+02    0.1559489576E-01    0.3933389111E-01    0.6416129945E-02    0.2738519925E-01    0.1296949471E+00
    0.3500000000E+02    0.1643071564E-01    0.4105888525E-01    0.6698234173E-02    0.2885307244E-01    0.1355850100E+00
    0.3700000000E+02    0.1725591631E-01    0.4272833663E-01    0.6971338469E-02    0.3030231139E-01    0.1413109283E+00
    0.3900000000E+02    0.1807075241E-01    0.4434457165E-01    0.7235819446E-02    0.3173336281E-01    0.1468797841E+00
    0.4100000000E+02    0.1887547014E-01    0.4590978853E-01    0.7492032939E-02    0.3314665869E-01    0.1522982526E+00
    0.4300000000E+02    0.1967030764E-01    0.4742606618E-01    0.7740315440E-02    0.3454261684E-01    0.1575726314E+00
    0.4500000000E+02    0.2045549530E-01    0.4889537230E-01    0.7980985411E-02    0.3592164149E-01    0.1627088668E+00
    0.4700000000E+02    0.2123125610E-01    0.5031957078E-01    0.8214344501E-02    0.3728412385E-01    0.1677125782E+00
    0.4900000000E+02    0.2199780588E-01    0.5170042862E-01    0.8440678646E-02    0.3863044263E-01    0.1725890803E+00
    0.1000000000E+02    0.5126031657E-02    0.1455985881E-01    0.2372105959E-02    0.9000960079E-02    0.4725686747E-01
    0.3000000000E+02    0.1432067626E-01    0.3663682656E-01    0.5975219487E-02    0.2514743493E-01    0.1205355037E+00
    0.5000000000E+02    0.2237769221E-01    0.5237513203E-01    0.8551296679E-02    0.3929765573E-01    0.1749812104E+00
    0.7000000000E+02    0.2953936136E-01    0.6395875091E-01    0.1045389053E-01    0.5187670751E-01    0.2172350370E+00
    0.9000000000E+02    0.3598144963E-01    0.7267481857E-01    0.1189122249E-01    0.6319298239E-01    0.2511204560E+00
    0.1100000000E+03    0.4183468415E-01    0.7933393242E-01    0.1299437302E-01    0.7347585584E-01    0.2789983080E+00
    0.1300000000E+03    0.4719840842E-01    0.8447291266E-01    0.1385014176E-01    0.8289964180E-01    0.3024075828E+00
    0.1500000000E+03    0.5214954735E-01    0.8846156140E-01    0.1451833243E-01    0.9159932052E-01    0.3223959587E+00
    0.1700000000E+03    0.5674865962E-01    0.9156283380E-01    0.1504148669E-01    0.9968115682E-01    0.3397023846E+00
    0.1900000000E+03    0.6104412506E-01    0.9396864760E-01    0.1545067285E-01    0.1072300465E+00    0.3548636818E+00
    0.2100000000E+03    0.6507510496E-01    0.9582216270E-01    0.1576908539E-01    0.1143147101E+00    0.3682797052E+00
    0.2300000000E+03    0.6887367574E-01    0.9723216453E-01    0.1601436759E-01    0.1209914367E+00    0.3802547416E+00
    0.2500000000E+03    0.7246639370E-01    0.9828264449E-01    0.1620015815E-01    0.1273068291E+00    0.3910246943E+00
    0.2700000000E+03    0.7587546041E-01    0.9903935375E-01    0.1633714885E-01    0.1332998486E+00    0.4007754488E+00
    0.2900000000E+03    0.7911960312E-01    0.9955439184E-01    0.1643382501E-01    0.1390033601E+00    0.4096555949E+00
    0.3100000000E+03    0.8221474857E-01    0.9986948473E-01    0.1649699441E-01    0.1444453141E+00    0.4177854340E+00
    0.3300000000E+03    0.8517454450E-01    0.1000183691E+00    0.1653217207E-01    0.1496496618E+00    0.4252634823E+00
    0.3500000000E+03    0.8801076803E-01    0.1000285541E+00    0.1654386452E-01    0.1546370717E+00    0.4321712484E+00
    0.3700000000E+03    0.9073364833E-01    0.9992264188E-01    0.1653578296E-01    0.1594254962E+00    0.4385767984E+00
    0.3900000000E+03    0.9335212407E-01    0.9971933011E-01    0.1651100515E-01    0.1640306226E+00    0.4445374547E+00
    0.4100000000E+03    0.9587405061E-01    0.9943418200E-01    0.1647209976E-01    0.1684662373E+00    0.4501018647E+00
    0.4300000000E+03    0.9830636796E-01    0.9908022400E-01    0.1642122296E-01    0.1727445205E+00    0.4553116064E+00
    0.4500000000E+03    0.1006552380E+00    0.9866841422E-01    0.1636019415E-01    0.1768762865E+00    0.4602024465E+00
    0.4700000000E+03    0.1029261575E+00    0.9820801288E-01    0.1629055586E-01    0.1808711826E+00    0.4648053377E+00
    0.4900000000E+03    0.1051240514E+00    0.9770687762E-01    0.1621362158E-01    0.1847378523E+00    0.4691472149E+00
    0.1000000000E+03    0.3897485169E-01    0.7622308386E-01    0.1247835979E-01    0.6845162426E-01    0.2656997306E+00
    0.3000000000E+03    0.8068489937E-01    0.9973465881E-01    0.1646922680E-01    0.1417554504E+00    0.4138076980E+00
    0.5000000000E+03    0.1061970158E+00    0.9744316612E-01    0.1617277589E-01    0.1866255633E+00    0.4712277526E+00
    0.7000000000E+03    0.1246982063E+00    0.9121621978E-01    0.1517336832E-01    0.2191849515E+00    0.5035535814E+00
    0.9000000000E+03    0.1390803732E+00    0.8468559819E-01    0.1408862724E-01    0.2445093551E+00    0.5249126325E+00
    0.1100000000E+04    0.1506757953E+00    0.7868076338E-01    0.1307017534E-01    0.2649373776E+00    0.5403512765E+00
    0.1300000000E+04    0.1602402124E+00    0.7336300430E-01    0.1215416558E-01    0.2817957921E+00    0.5521718377E+00
    0.1500000000E+04    0.1682582612E+00    0.6870679336E-01    0.1134226756E-01    0.2959355763E+00    0.5615924436E+00
    0.1700000000E+04    0.1750650134E+00    0.6463652720E-01    0.1062555438E-01    0.3079452028E+00    0.5693254887E+00
    0.1900000000E+04    0.1809035987E+00    0.6106977633E-01    0.9992515943E-02    0.3182517595E+00    0.5758189310E+00
    0.2100000000E+04    0.1859563109E+00    0.5793096828E-01    0.9431869621E-02    0.3271755352E+00    0.5813703777E+00
    0.2300000000E+04    0.1903630940E+00    0.5515491201E-01    0.8933486895E-02    0.3349624615E+00    0.5861862795E+00
    0.2500000000E+04    0.1942333316E+00    0.5268676907E-01    0.8488604024E-02    0.3418048043E+00    0.5904149317E+00
    0.2700000000E+04    0.1976537634E+00    0.5048087882E-01    0.8089763141E-02    0.3478550581E+00    0.5941659613E+00
    0.2900000000E+04    0.2006940069E+00    0.4849933815E-01    0.7730662633E-02    0.3532356396E+00    0.5975223863E+00
    0.3100000000E+04    0.2034105214E+00    0.4671066181E-01    0.7405989329E-02    0.3580458470E+00    0.6005483764E+00
    0.3300000000E+04    0.2058495170E+00    0.4508862454E-01    0.7111260794E-02    0.3623669686E+00    0.6032944168E+00
    0.3500000000E+04    0.2080491287E+00    0.4361129830E-01    0.6842687222E-02    0.3662661000E+00    0.6058008415E+00
    0.3700000000E+04    0.2100410648E+00    0.4226026664E-01    0.6597054522E-02    0.3697990400E+00    0.6081003127E+00
    0.3900000000E+04    0.2118518722E+00    0.4101998911E-01    0.6371627027E-02    0.3730125138E+00    0.6102195990E+00
    0.4100000000E+04    0.2135039194E+00    0.3987728849E-01    0.6164067228E-02    0.3759458988E+00    0.6121808735E+00
    0.4300000000E+04    0.2150161662E+00    0.3882093741E-01    0.5972369818E-02    0.3786325782E+00    0.6140026802E+00
    0.4500000000E+04    0.2164047727E+00    0.3784132427E-01    0.5794807528E-02    0.3811010108E+00    0.6157006619E+00
    0.4700000000E+04    0.2176835846E+00    0.3693018251E-01    0.5629886626E-02    0.3833755840E+00    0.6172881187E+00
    0.4900000000E+04    0.2188645227E+00    0.3608037044E-01    0.5476310260E-02    0.3854772987E+00    0.6187764396E+00
    0.1000000000E+04    0.1451706674E+00    0.8160017426E-01    0.1356756256E-01    0.2552375269E+00    0.5331917985E+00
    0.3000000000E+04    0.2020896304E+00    0.4758264209E-01    0.7564320480E-02    0.3557065874E+00    0.5990732573E+00
    0.5000000000E+04    0.2194215668E+00    0.3567649392E-01    0.5403417291E-02    0.3864691095E+00    0.6194865454E+00
    0.7000000000E+04    0.2273138303E+00    0.2967698148E-01    0.4331518248E-02    0.4005611869E+00    0.6302828818E+00
    0.9000000000E+04    0.2317153244E+00    0.2598283959E-01    0.3687556131E-02    0.4084703894E+00    0.6371963382E+00
    0.1100000000E+05    0.2344873712E+00    0.2342991753E-01    0.3253461734E-02    0.4134846671E+00    0.6420970714E+00
    0.1300000000E+05    0.2363794535E+00    0.2153191721E-01    0.2938006923E-02    0.4169306213E+00    0.6457990646E+00
    0.1500000000E+05    0.2377465665E+00    0.2004884257E-01    0.2696468940E-02    0.4194378973E+00    0.6487202755E+00
    0.1700000000E+05    0.2387770434E+00    0.1884775180E-01    0.2504331799E-02    0.4213412414E+00    0.6510999860E+00
    0.1900000000E+05    0.2395795190E+00    0.1784853604E-01    0.2347000048E-02    0.4228341577E+00    0.6530862383E+00
    0.2100000000E+05    0.2402208154E+00    0.1699974107E-01    0.2215216703E-02    0.4240359335E+00    0.6547761250E+00
    0.2300000000E+05    0.2407441826E+00    0.1626662609E-01    0.2102809891E-02    0.4250239474E+00    0.6562362897E+00
    0.2500000000E+05    0.2411787936E+00    0.1562477704E-01    0.2005495141E-02    0.4258505116E+00    0.6575141789E+00
    0.2700000000E+05    0.2415450112E+00    0.1505646573E-01    0.1920197615E-02    0.4265522227E+00    0.6586446014E+00
    0.2900000000E+05    0.2418574629E+00    0.1454846307E-01    0.1844648279E-02    0.4271554304E+00    0.6596537444E+00
    0.3100000000E+05    0.2421269169E+00    0.1409066721E-01    0.1777132682E-02    0.4276795778E+00    0.6605617334E+00
    0.3300000000E+05    0.2423614700E+00    0.1367521082E-01    0.1716328849E-02    0.4281393186E+00    0.6613843217E+00
    0.3500000000E+05    0.2425673235E+00    0.1329586151E-01    0.1661199318E-02    0.4285459024E+00    0.6621340383E+00
    0.3700000000E+05    0.2427493043E+00    0.1294760811E-01    0.1610917264E-02    0.4289081067E+00    0.6628209882E+00
    0.3900000000E+05    0.2429112240E+00    0.1262636825E-01    0.1564814705E-02    0.4292328789E+00    0.6634534232E+00
    0.4100000000E+05    0.2430561309E+00    0.1232877735E-01    0.1522345422E-02    0.4295257890E+00    0.6640381558E+00
    0.4300000000E+05    0.2431864914E+00    0.1205203356E-01    0.1483057913E-02    0.4297913543E+00    0.6645808668E+00
    0.4500000000E+05    0.2433043216E+00    0.1179378177E-01    0.1446575322E-02    0.4300332762E+00    0.6650863351E+00
    0.4700000000E+05    0.2434112851E+00    0.1155202567E-01    0.1412580319E-02    0.4302546167E+00    0.6655586140E+00
    0.4900000000E+05    0.2435087663E+00    0.1132506016E-01    0.1380803560E-02    0.4304579303E+00    0.6660011664E+00
    0.1000000000E+05    0.2332444864E+00    0.2460259547E-01    0.3451576063E-02    0.4112322902E+00    0.6398339712E+00
    0.3000000000E+05    0.2419970065E+00    0.1431382523E-01    0.1809976616E-02    0.4274263775E+00    0.6601193116E+00
    0.5000000000E+05    0.2435543215E+00    0.1121665745E-01    0.1365673732E-02    0.4305535118E+00    0.6662122425E+00
    0.7000000000E+05    0.2441709177E+00    0.9557072099E-02    0.1137864358E-02    0.4318964461E+00    0.6694171768E+00
    0.9000000000E+05    0.2444902313E+00    0.8479409750E-02    0.9937848005E-03    0.4326521154E+00    0.6714679487E+00
    0.1100000000E+06    0.2446799809E+00    0.7706084911E-02    0.8922794552E-03    0.4331412795E+00    0.6729227891E+00
    0.1300000000E+06    0.2448025158E+00    0.7115749342E-02    0.8158688920E-03    0.4334864517E+00    0.6740232201E+00
    0.1500000000E+06    0.2448861064E+00    0.6645675879E-02    0.7557027019E-03    0.4337446980E+00    0.6748928789E+00
    0.1700000000E+06    0.2449453362E+00    0.6259696471E-02    0.7067583081E-03    0.4339462610E+00    0.6756024388E+00
    0.1900000000E+06    0.2449884459E+00    0.5935278121E-02    0.6659463933E-03    0.4341086993E+00    0.6761955948E+00
    0.2100000000E+06    0.2450204196E+00    0.5657545040E-02    0.6312490468E-03    0.4342429266E+00    0.6767009989E+00
    0.2300000000E+06    0.2450444354E+00    0.5416223528E-02    0.6012852157E-03    0.4343560952E+00    0.6771383210E+00
    0.2500000000E+06    0.2450626066E+00    0.5203957112E-02    0.5750737569E-03    0.4344530956E+00    0.6775215697E+00
    0.2700000000E+06    0.2450763880E+00    0.5015319738E-02    0.5518959993E-03    0.4345373894E+00    0.6778610280E+00
    0.2900000000E+06    0.2450868101E+00    0.4846208887E-02    0.5312119306E-03    0.4346114995E+00    0.6781644363E+00
    0.3100000000E+06    0.2450946208E+00    0.4693456902E-02    0.5126069198E-03    0.4346773094E+00    0.6784377472E+00
    0.3300000000E+06    0.2451003741E+00    0.4554573423E-02    0.4957566451E-03    0.4347362559E+00    0.6786856234E+00
    0.3500000000E+06    0.2451044881E+00    0.4427569637E-02    0.4804033076E-03    0.4347894549E+00    0.6789117761E+00
    0.3700000000E+06    0.2451072830E+00    0.4310835289E-02    0.4663390744E-03    0.4348377871E+00    0.6791192004E+00
    0.3900000000E+06    0.2451090075E+00    0.4203050683E-02    0.4533942934E-03    0.4348819574E+00    0.6793103439E+00
    0.4100000000E+06    0.2451098574E+00    0.4103122483E-02    0.4414289337E-03    0.4349225374E+00    0.6794872290E+00
    0.4300000000E+06    0.2451099880E+00    0.4010136058E-02    0.4303262593E-03    0.4349599955E+00    0.6796515430E+00
    0.4500000000E+06    0.2451095242E+00    0.3923319548E-02    0.4199880784E-03    0.4349947195E+00    0.6798047068E+00
    0.4700000000E+06    0.2451085670E+00    0.3842016398E-02    0.4103311248E-03    0.4350270338E+00    0.6799479260E+00
    0.4900000000E+06    0.2451071989E+00    0.3765664087E-02    0.4012842657E-03    0.4350572115E+00    0.6800822314E+00
    0.1000000000E+06    0.2445961960E+00    0.8064278045E-02    0.9390979987E-03    0.4329200478E+00    0.6722507542E+00
    0.3000000000E+06    0.2450910035E+00    0.4767957186E-02    0.5216716079E-03    0.4346453434E+00    0.6783045368E+00
    0.5000000000E+06    0.2451063823E+00    0.3729190245E-02    0.3969701640E-03    0.4350715731E+00    0.6801463236E+00
    0.7000000000E+06    0.2450798747E+00    0.3170615617E-02    0.3315450981E-03    0.4352881487E+00    0.6811224550E+00
    0.9000000000E+06    0.2450470683E+00    0.2808200873E-02    0.2897873642E-03    0.4354271204E+00    0.6817502639E+00
    0.1100000000E+07    0.2450147567E+00    0.2548542148E-02    0.2602376341E-03    0.4355273679E+00    0.6821973278E+00
    0.1300000000E+07    0.2449844927E+00    0.2350645292E-02    0.2379398663E-03    0.4356049219E+00    0.6825364863E+00
    0.1500000000E+07    0.2449565180E+00    0.2193298806E-02    0.2203583516E-03    0.4356677605E+00    0.6828051646E+00
    0.1700000000E+07    0.2449307081E+00    0.2064274285E-02    0.2060445747E-03    0.4357203683E+00    0.6830248207E+00
    0.1900000000E+07    0.2449068457E+00    0.1955958247E-02    0.1941036281E-03    0.4357654922E+00    0.6832087559E+00
    0.2100000000E+07    0.2448847071E+00    0.1863328701E-02    0.1839491572E-03    0.4358049256E+00    0.6833657115E+00
    0.2300000000E+07    0.2448640882E+00    0.1782920487E-02    0.1751789668E-03    0.4358398984E+00    0.6835017002E+00
    0.2500000000E+07    0.2448448107E+00    0.1712254691E-02    0.1675068545E-03    0.4358712880E+00    0.6836210117E+00
    0.2700000000E+07    0.2448267216E+00    0.1649504554E-02    0.1607229235E-03    0.4358997403E+00    0.6837267995E+00
    0.2900000000E+07    0.2448096900E+00    0.1593290116E-02    0.1546693086E-03    0.4359257443E+00    0.6838214408E+00
    0.3100000000E+07    0.2447936038E+00    0.1542546760E-02    0.1492247116E-03    0.4359496780E+00    0.6839067660E+00
    0.3300000000E+07    0.2447783670E+00    0.1496438167E-02    0.1442942015E-03    0.4359718393E+00    0.6839842106E+00
    0.3500000000E+07    0.2447638969E+00    0.1454296944E-02    0.1398022870E-03    0.4359924673E+00    0.6840549182E+00
    0.3700000000E+07    0.2447501217E+00    0.1415583116E-02    0.1356880888E-03    0.4360117562E+00    0.6841198129E+00
    0.3900000000E+07    0.2447369790E+00    0.1379854438E-02    0.1319018993E-03    0.4360298661E+00    0.6841796504E+00
    0.4100000000E+07    0.2447244143E+00    0.1346744751E-02    0.1284026823E-03    0.4360469303E+00    0.6842350556E+00
    0.4300000000E+07    0.2447123796E+00    0.1315947928E-02    0.1251562235E-03    0.4360630611E+00    0.6842865504E+00
    0.4500000000E+07    0.2447008327E+00    0.1287205772E-02    0.1221337409E-03    0.4360783536E+00    0.6843345746E+00
    0.4700000000E+07    0.2446897360E+00    0.1260298776E-02    0.1193108260E-03    0.4360928893E+00    0.6843795015E+00
    0.4900000000E+07    0.2446790560E+00    0.1235038967E-02    0.1166666263E-03    0.4361067387E+00    0.6844216508E+00
    0.1000000000E+07    0.2450307025E+00    0.2668759454E-02    0.2738786076E-03    0.4354808048E+00    0.6819906331E+00
    0.3000000000E+07    0.2448015350E+00    0.1567291372E-02    0.1518773404E-03    0.4359379497E+00    0.6838651703E+00
    0.5000000000E+07    0.2446738629E+00    0.1222975236E-02    0.1154058406E-03    0.4361134254E+00    0.6844417712E+00
    0.7000000000E+07    0.2445860554E+00    0.1038470599E-02    0.9629737228E-04    0.4362224687E+00    0.6847487210E+00
    0.9000000000E+07    0.2445191353E+00    0.9190080358E-03    0.8411485433E-04    0.4363015551E+00    0.6849466590E+00
    0.1100000000E+08    0.2444650668E+00    0.8335380265E-03    0.7550136750E-04    0.4363635822E+00    0.6850878652E+00
    0.1300000000E+08    0.2444197047E+00    0.7684659151E-03    0.6900623534E-04    0.4364145953E+00    0.6851951323E+00
    0.1500000000E+08    0.2443806316E+00    0.7167696604E-03    0.6388778924E-04    0.4364579112E+00    0.6852801966E+00
    0.1700000000E+08    0.2443463146E+00    0.6744064692E-03    0.5972263457E-04    0.4364955452E+00    0.6853497986E+00
    0.1900000000E+08    0.2443157208E+00    0.6388619694E-03    0.5624934615E-04    0.4365288132E+00    0.6854081220E+00
    0.2100000000E+08    0.2442881208E+00    0.6084791015E-03    0.5329672278E-04    0.4365586218E+00    0.6854579195E+00
    0.2300000000E+08    0.2442629806E+00    0.5821153536E-03    0.5074738673E-04    0.4365856217E+00    0.6855010863E+00
    0.2500000000E+08    0.2442398973E+00    0.5589539167E-03    0.4851784588E-04    0.4366102961E+00    0.6855389757E+00
    0.2700000000E+08    0.2442185596E+00    0.5383932070E-03    0.4654689058E-04    0.4366330134E+00    0.6855725831E+00
