  Pressure (Pa) 22mC5-400 (mol/kg) 2mC6-400 (mol/kg) 33mC5-400 (mol/kg) 23mC5-400 (mol/kg) C7-400 (mol/kg)
    0.1000000000E+01    0.5289902935E-03    0.5528474342E-02    0.1286169809E-03    0.5573093472E-03    0.6800615728E-02
    0.3000000000E+01    0.1564865836E-02    0.1602912091E-01    0.3729671010E-03    0.1648652716E-02    0.1974494549E-01
    0.5000000000E+01    0.2572582134E-02    0.2584718733E-01    0.6015097782E-03    0.2710345877E-02    0.3188566877E-01
    0.7000000000E+01    0.3553615636E-02    0.3504584447E-01    0.8157088687E-03    0.3743943269E-02    0.4329968018E-01
    0.9000000000E+01    0.4509337280E-02    0.4368057408E-01    0.1016849849E-02    0.4750888254E-02    0.5405424060E-01
    0.1100000000E+02    0.5441021872E-02    0.5180032059E-01    0.1206066564E-02    0.5732522997E-02    0.6420844642E-01
    0.1300000000E+02    0.6349856491E-02    0.5944843998E-01    0.1384363254E-02    0.6690097303E-02    0.7381443736E-01
    0.1500000000E+02    0.7236948013E-02    0.6666348642E-01    0.1552632820E-02    0.7624776543E-02    0.8291839574E-01
    0.1700000000E+02    0.8103329869E-02    0.7347986844E-01    0.1711672051E-02    0.8537648770E-02    0.9156137791E-01
    0.1900000000E+02    0.8949968129E-02    0.7992839922E-01    0.1862194396E-02    0.9429731119E-02    0.9978000996E-01
    0.2100000000E+02    0.9777766983E-02    0.8603676068E-01    0.2004840730E-02    0.1030197558E-01    0.1076070729E+00
    0.2300000000E+02    0.1058757370E-01    0.9182989671E-01    0.2140188480E-02    0.1115527422E-01    0.1150719972E+00
    0.2500000000E+02    0.1138018310E-01    0.9733034801E-01    0.2268759391E-02    0.1199046389E-01    0.1222012829E+00
    0.2700000000E+02    0.1215634163E-01    0.1025585384E+00    0.2391026163E-02    0.1280833051E-01    0.1290188574E+00
    0.2900000000E+02    0.1291675103E-01    0.1075330209E+00    0.2507418163E-02    0.1360961292E-01    0.1355463829E+00
    0.3100000000E+02    0.1366207171E-01    0.1122706896E+00    0.2618326332E-02    0.1439500647E-01    0.1418035194E+00
    0.3300000000E+02    0.1439292578E-01    0.1167869632E+00    0.2724107451E-02    0.1516516618E-01    0.1478081531E+00
    0.3500000000E+02    0.1510989984E-01    0.1210959450E+00    0.2825087828E-02    0.1592070969E-01    0.1535765929E+00
    0.3700000000E+02    0.1581354753E-01    0.1252105609E+00    0.2921566526E-02    0.1666221992E-01    0.1591237422E+00
    0.3900000000E+02    0.1650439185E-01    0.1291426821E+00    0.3013818178E-02    0.1739024756E-01    0.1644632483E+00
    0.4100000000E+02    0.1718292731E-01    0.1329032310E+00    0.3102095457E-02    0.1810531327E-01    0.1696076328E+00
    0.4300000000E+02    0.1784962182E-01    0.1365022752E+00    0.3186631254E-02    0.1880790974E-01    0.1745684066E+00
    0.4500000000E+02    0.1850491857E-01    0.1399491104E+00    0.3267640593E-02    0.1949850360E-01    0.1793561706E+00
    0.4700000000E+02    0.1914923760E-01    0.1432523337E+00    0.3345322329E-02    0.2017753714E-01    0.1839807045E+00
    0.4900000000E+02    0.1978297738E-01    0.1464199084E+00    0.3419860654E-02    0.2084542992E-01    0.1884510461E+00
    0.1000000000E+02    0.4978108051E-02    0.4780198942E-01    0.1112883168E-02    0.5244789226E-02    0.5920297867E-01
    0.3000000000E+02    0.1329125772E-01    0.1099304607E+00    0.2563534673E-02    0.1400425396E-01    0.1387075927E+00
    0.5000000000E+02    0.2009599902E-01    0.1479551573E+00    0.3456004920E-02    0.2117532378E-01    0.1906310333E+00
    0.7000000000E+02    0.2588348487E-01    0.1730761129E+00    0.4049421537E-02    0.2727514166E-01    0.2278692168E+00
    0.9000000000E+02    0.3094511649E-01    0.1904954012E+00    0.4464100613E-02    0.3261054286E-01    0.2562692587E+00
    0.1100000000E+03    0.3546588416E-01    0.2029690395E+00    0.4763789365E-02    0.3737632364E-01    0.2788871098E+00
    0.1300000000E+03    0.3956955995E-01    0.2120946459E+00    0.4985455216E-02    0.4170282178E-01    0.2974857251E+00
    0.1500000000E+03    0.4334250883E-01    0.2188613257E+00    0.5151999710E-02    0.4568098664E-01    0.3131590463E+00
    0.1700000000E+03    0.4684710032E-01    0.2239131024E+00    0.5278347138E-02    0.4937650042E-01    0.3266250610E+00
    0.1900000000E+03    0.5012968309E-01    0.2276863993E+00    0.5374621557E-02    0.5283817489E-01    0.3383764816E+00
    0.2100000000E+03    0.5322554427E-01    0.2304867251E+00    0.5447918813E-02    0.5610317334E-01    0.3487639116E+00
    0.2300000000E+03    0.5616211238E-01    0.2325337906E+00    0.5503349168E-02    0.5920038331E-01    0.3580444494E+00
    0.2500000000E+03    0.5896109388E-01    0.2339892413E+00    0.5544678274E-02    0.6215266636E-01    0.3664114650E+00
    0.2700000000E+03    0.6163993876E-01    0.2349743399E+00    0.5574736006E-02    0.6497840144E-01    0.3740135787E+00
    0.2900000000E+03    0.6421287073E-01    0.2355815999E+00    0.5595685483E-02    0.6769256972E-01    0.3809671719E+00
    0.3100000000E+03    0.6669162703E-01    0.2358826459E+00    0.5609204953E-02    0.7030753370E-01    0.3873648778E+00
    0.3300000000E+03    0.6908600009E-01    0.2359336528E+00    0.5616613675E-02    0.7283360758E-01    0.3932814920E+00
    0.3500000000E+03    0.7140424076E-01    0.2357791860E+00    0.5618960861E-02    0.7527948197E-01    0.3987781790E+00
    0.3700000000E+03    0.7365336328E-01    0.2354549638E+00    0.5617089696E-02    0.7765254505E-01    0.4039055258E+00
    0.3900000000E+03    0.7583937911E-01    0.2349898771E+00    0.5611684164E-02    0.7995912880E-01    0.4087057988E+00
    0.4100000000E+03    0.7796747841E-01    0.2344074873E+00    0.5603303817E-02    0.8220470019E-01    0.4132146370E+00
    0.4300000000E+03    0.8004217268E-01    0.2337271533E+00    0.5592409930E-02    0.8439401135E-01    0.4174623419E+00
    0.4500000000E+03    0.8206740792E-01    0.2329648883E+00    0.5579385425E-02    0.8653121875E-01    0.4214748723E+00
    0.4700000000E+03    0.8404665528E-01    0.2321340192E+00    0.5564550212E-02    0.8861997877E-01    0.4252746206E+00
    0.4900000000E+03    0.8598298450E-01    0.2312456990E+00    0.5548173117E-02    0.9066352491E-01    0.4288810255E+00
    0.1000000000E+03    0.3326428508E-01    0.1972318820E+00    0.4625576209E-02    0.3505534463E-01    0.2681701241E+00
    0.3000000000E+03    0.6546336852E-01    0.2357665779E+00    0.5603284289E-02    0.6901176518E-01    0.3842304740E+00
    0.5000000000E+03    0.8693591926E-01    0.2307829865E+00    0.5539478753E-02    0.9166925335E-01    0.4306171134E+00
    0.7000000000E+03    0.1042687807E+00    0.2201463047E+00    0.5324563689E-02    0.1099656030E+00    0.4583685248E+00
    0.9000000000E+03    0.1191810213E+00    0.2088986727E+00    0.5082486539E-02    0.1257115979E+00    0.4776952105E+00
    0.1100000000E+04    0.1323916502E+00    0.1981584429E+00    0.4843278730E-02    0.1396645783E+00    0.4922889299E+00
    0.1300000000E+04    0.1442813746E+00    0.1881906301E+00    0.4615688082E-02    0.1522255131E+00    0.5038798957E+00
    0.1500000000E+04    0.1550843284E+00    0.1790232503E+00    0.4402123786E-02    0.1636409745E+00    0.5134107777E+00
    0.1700000000E+04    0.1649605402E+00    0.1706125842E+00    0.4202814857E-02    0.1740794811E+00    0.5214487907E+00
    0.1900000000E+04    0.1740282161E+00    0.1628951121E+00    0.4017193248E-02    0.1836655069E+00    0.5283602413E+00
    0.2100000000E+04    0.1823798328E+00    0.1558051845E+00    0.3844409457E-02    0.1924964340E+00    0.5343945731E+00
    0.2300000000E+04    0.1900908560E+00    0.1492810520E+00    0.3683539030E-02    0.2006517361E+00    0.5397288134E+00
    0.2500000000E+04    0.1972247839E+00    0.1432666545E+00    0.3533668258E-02    0.2081982896E+00    0.5444928264E+00
    0.2700000000E+04    0.2038362333E+00    0.1377118247E+00    0.3393929412E-02    0.2151936240E+00    0.5487845011E+00
    0.2900000000E+04    0.2099729252E+00    0.1325719171E+00    0.3263513898E-02    0.2216880113E+00    0.5526793176E+00
    0.3100000000E+04    0.2156770251E+00    0.1278072601E+00    0.3141675488E-02    0.2277258774E+00    0.5562366083E+00
    0.3300000000E+04    0.2209860887E+00    0.1233825881E+00    0.3027729052E-02    0.2333467967E+00    0.5595037904E+00
    0.3500000000E+04    0.2259337599E+00    0.1192665119E+00    0.2921047320E-02    0.2385862262E+00    0.5625193073E+00
    0.3700000000E+04    0.2305503051E+00    0.1154310464E+00    0.2821056861E-02    0.2434760681E+00    0.5653147220E+00
    0.3900000000E+04    0.2348630381E+00    0.1118511956E+00    0.2727233864E-02    0.2480451161E+00    0.5679162394E+00
    0.4100000000E+04    0.2388966671E+00    0.1085045920E+00    0.2639099991E-02    0.2523194209E+00    0.5703458329E+00
    0.4300000000E+04    0.2426735859E+00    0.1053711839E+00    0.2556218432E-02    0.2563225956E+00    0.5726220925E+00
    0.4500000000E+04    0.2462141223E+00    0.1024329631E+00    0.2478190230E-02    0.2600760778E+00    0.5747608726E+00
    0.4700000000E+04    0.2495367527E+00    0.9967372922E-01    0.2404650869E-02    0.2635993549E+00    0.5767757935E+00
    0.4900000000E+04    0.2526582909E+00    0.9707888338E-01    0.2335267162E-02    0.2669101626E+00    0.5786786339E+00
    0.1000000000E+04    0.1259704827E+00    0.2034395599E+00    0.4961743181E-02    0.1328821398E+00    0.4854493696E+00
    0.3000000000E+04    0.2128766030E+00    0.1301449832E+00    0.3201566775E-02    0.2247614320E+00    0.5544969503E+00
    0.5000000000E+04    0.2541484912E+00    0.9583893706E-01    0.2302037412E-02    0.2684909974E+00    0.5795912791E+00
    0.7000000000E+04    0.2764579552E+00    0.7707723688E-01    0.1794282953E-02    0.2921849124E+00    0.5938683406E+00
    0.9000000000E+04    0.2897487790E+00    0.6550587309E-01    0.1478521673E-02    0.3063376049E+00    0.6034411368E+00
    0.1100000000E+05    0.2983059718E+00    0.5770426288E-01    0.1266368938E-02    0.3154759230E+00    0.6104540010E+00
    0.1300000000E+05    0.3041607301E+00    0.5208401222E-01    0.1115007678E-02    0.3217476864E+00    0.6158869077E+00
    0.1500000000E+05    0.3083626065E+00    0.4782760365E-01    0.1001847735E-02    0.3262637172E+00    0.6202616761E+00
    0.1700000000E+05    0.3114953267E+00    0.4447769018E-01    0.9140665618E-03    0.3296423850E+00    0.6238857656E+00
    0.1900000000E+05    0.3139041020E+00    0.4176050541E-01    0.8439275390E-03    0.3322497336E+00    0.6269539513E+00
    0.2100000000E+05    0.3158038099E+00    0.3950284309E-01    0.7865190057E-03    0.3343138288E+00    0.6295965531E+00
    0.2300000000E+05    0.3173340682E+00    0.3758998178E-01    0.7385868727E-03    0.3359830058E+00    0.6319045750E+00
    0.2500000000E+05    0.3185889504E+00    0.3594296719E-01    0.6978960692E-03    0.3373573149E+00    0.6339437908E+00
    0.2700000000E+05    0.3196338409E+00    0.3450566999E-01    0.6628634686E-03    0.3385063681E+00    0.6357631046E+00
    0.2900000000E+05    0.3205154160E+00    0.3323706647E-01    0.6323376218E-03    0.3394799144E+00    0.6373997503E+00
    0.3100000000E+05    0.3212677817E+00    0.3210644864E-01    0.6054615645E-03    0.3403143453E+00    0.6388826543E+00
    0.3300000000E+05    0.3219163724E+00    0.3109034811E-01    0.5815845370E-03    0.3410368308E+00    0.6402346825E+00
    0.3500000000E+05    0.3224805001E+00    0.3017050026E-01    0.5602035249E-03    0.3416680251E+00    0.6414741854E+00
    0.3700000000E+05    0.3229750648E+00    0.2933246071E-01    0.5409235519E-03    0.3422238828E+00    0.6426160863E+00
    0.3900000000E+05    0.3234117285E+00    0.2856464263E-01    0.5234300926E-03    0.3427169064E+00    0.6436726653E+00
    0.4100000000E+05    0.3237997365E+00    0.2785763277E-01    0.5074695133E-03    0.3431570200E+00    0.6446541334E+00
    0.4300000000E+05    0.3241465042E+00    0.2720369608E-01    0.4928349498E-03    0.3435521935E+00    0.6455690618E+00
    0.4500000000E+05    0.3244580420E+00    0.2659641106E-01    0.4793559408E-03    0.3439088953E+00    0.6464247059E+00
    0.4700000000E+05    0.3247392692E+00    0.2603039691E-01    0.4668907036E-03    0.3442324260E+00    0.6472272557E+00
    0.4900000000E+05    0.3249942469E+00    0.2550110663E-01    0.4553202997E-03    0.3445271675E+00    0.6479820283E+00
    0.1000000000E+05    0.2944597595E+00    0.6125875085E-01    0.1362832902E-02    0.3113651361E+00    0.6071909742E+00
    0.3000000000E+05    0.3209059921E+00    0.3265611803E-01    0.6184880774E-03    0.3399126421E+00    0.6381588697E+00
    0.5000000000E+05    0.3251129712E+00    0.2524900013E-01    0.4498386179E-03    0.3446649080E+00    0.6483429596E+00
    0.7000000000E+05    0.3266935571E+00    0.2143833004E-01    0.3693234680E-03    0.3465410402E+00    0.6539003330E+00
    0.9000000000E+05    0.3274961860E+00    0.1900306468E-01    0.3201791816E-03    0.3475443099E+00    0.6575358288E+00
    0.1100000000E+06    0.3279723105E+00    0.1726866308E-01    0.2862618287E-03    0.3481719180E+00    0.6601547527E+00
    0.1300000000E+06    0.3282828465E+00    0.1594984470E-01    0.2610620659E-03    0.3486040345E+00    0.6621586244E+00
    0.1500000000E+06    0.3284987047E+00    0.1490192536E-01    0.2413954012E-03    0.3489214048E+00    0.6637567109E+00
    0.1700000000E+06    0.3286557448E+00    0.1404246969E-01    0.2254978685E-03    0.3491655687E+00    0.6650703088E+00
    0.1900000000E+06    0.3287739500E+00    0.1332052330E-01    0.2123036379E-03    0.3493600808E+00    0.6661752597E+00
    0.2100000000E+06    0.3288652912E+00    0.1270262934E-01    0.2011258990E-03    0.3495193018E+00    0.6671217631E+00
    0.2300000000E+06    0.3289373530E+00    0.1216577011E-01    0.1914995576E-03    0.3496524934E+00    0.6679445566E+00
    0.2500000000E+06    0.3289951604E+00    0.1169350957E-01    0.1830969811E-03    0.3497659024E+00    0.6686685517E+00
    0.2700000000E+06    0.3290421664E+00    0.1127374936E-01    0.1756798293E-03    0.3498638997E+00    0.6693121450E+00
    0.2900000000E+06    0.3290808174E+00    0.1089735601E-01    0.1690700255E-03    0.3499496379E+00    0.6698892595E+00
    0.3100000000E+06    0.3291128911E+00    0.1055728525E-01    0.1631314854E-03    0.3500254508E+00    0.6704106541E+00
    0.3300000000E+06    0.3291397086E+00    0.1024800365E-01    0.1577581901E-03    0.3500931043E+00    0.6708847930E+00
    0.3500000000E+06    0.3291622701E+00    0.9965094891E-02    0.1528661532E-03    0.3501539602E+00    0.6713184396E+00
    0.3700000000E+06    0.3291813460E+00    0.9704984913E-02    0.1483878646E-03    0.3502090870E+00    0.6717170726E+00
    0.3900000000E+06    0.3291975380E+00    0.9464745512E-02    0.1442683561E-03    0.3502593349E+00    0.6720851840E+00
    0.4100000000E+06    0.3292113225E+00    0.9241951281E-02    0.1404623572E-03    0.3503053897E+00    0.6724264968E+00
    0.4300000000E+06    0.3292230810E+00    0.9034573535E-02    0.1369322014E-03    0.3503478110E+00    0.6727441262E+00
    0.4500000000E+06    0.3292331224E+00    0.8840900399E-02    0.1336462599E-03    0.3503870602E+00    0.6730407022E+00
    0.4700000000E+06    0.3292416988E+00    0.8659475769E-02    0.1305777520E-03    0.3504235215E+00    0.6733184623E+00
    0.4900000000E+06    0.3292490182E+00    0.8489052073E-02    0.1277038303E-03    0.3504575174E+00    0.6735793240E+00
    0.1000000000E+06    0.3277617744E+00    0.1807090230E-01    0.3018394270E-03    0.3478902578E+00    0.6589407732E+00
    0.3000000000E+06    0.3290975850E+00    0.1072315624E-01    0.1660240694E-03    0.3499886636E+00    0.6701563471E+00
    0.5000000000E+06    0.3292522616E+00    0.8407623465E-02    0.1263335964E-03    0.3504736778E+00    0.6737039438E+00
    0.7000000000E+06    0.3292808109E+00    0.7159133608E-02    0.1055666605E-03    0.3507160561E+00    0.6756127686E+00
    0.9000000000E+06    0.3292767660E+00    0.6347443294E-02    0.9231822288E-04    0.3508704291E+00    0.6768515185E+00
    0.1100000000E+07    0.3292617652E+00    0.5764999095E-02    0.8294198388E-04    0.3509813243E+00    0.6777391214E+00
    0.1300000000E+07    0.3292428521E+00    0.5320558267E-02    0.7586481137E-04    0.3510668911E+00    0.6784156241E+00
    0.1500000000E+07    0.3292227571E+00    0.4966840861E-02    0.7028268596E-04    0.3511360978E+00    0.6789535111E+00
    0.1700000000E+07    0.3292026414E+00    0.4676556085E-02    0.6573652858E-04    0.3511939614E+00    0.6793945767E+00
    0.1900000000E+07    0.3291830169E+00    0.4432694297E-02    0.6194276339E-04    0.3512435443E+00    0.6797648456E+00
    0.2100000000E+07    0.3291641020E+00    0.4224025163E-02    0.5871558979E-04    0.3512868405E+00    0.6800814853E+00
    0.2300000000E+07    0.3291459761E+00    0.4042793454E-02    0.5592755246E-04    0.3513252148E+00    0.6803563418E+00
    0.2500000000E+07    0.3291286504E+00    0.3883447189E-02    0.5348794238E-04    0.3513596392E+00    0.6805978902E+00
    0.2700000000E+07    0.3291121025E+00    0.3741892369E-02    0.5133022423E-04    0.3513908285E+00    0.6808123759E+00
    0.2900000000E+07    0.3290962950E+00    0.3615034517E-02    0.4940434765E-04    0.3514193231E+00    0.6810045168E+00
    0.3100000000E+07    0.3290811839E+00    0.3500485046E-02    0.4767184861E-04    0.3514455402E+00    0.6811779530E+00
    0.3300000000E+07    0.3290667237E+00    0.3396366663E-02    0.4610261878E-04    0.3514698087E+00    0.6813355437E+00
    0.3500000000E+07    0.3290528703E+00    0.3301180620E-02    0.4467271091E-04    0.3514923921E+00    0.6814795709E+00
    0.3700000000E+07    0.3290395815E+00    0.3213713807E-02    0.4336280950E-04    0.3515135045E+00    0.6816118807E+00
    0.3900000000E+07    0.3290268183E+00    0.3132972302E-02    0.4215714079E-04    0.3515333222E+00    0.6817339851E+00
    0.4100000000E+07    0.3290145443E+00    0.3058132898E-02    0.4104268048E-04    0.3515519919E+00    0.6818471361E+00
    0.4300000000E+07    0.3290027264E+00    0.2988507128E-02    0.4000856768E-04    0.3515696372E+00    0.6819523803E+00
    0.4500000000E+07    0.3289913341E+00    0.2923514145E-02    0.3904566445E-04    0.3515863626E+00    0.6820506005E+00
    0.4700000000E+07    0.3289803396E+00    0.2862659995E-02    0.3814622016E-04    0.3516022580E+00    0.6821425472E+00
    0.4900000000E+07    0.3289697173E+00    0.2805521573E-02    0.3730361235E-04    0.3516174006E+00    0.6822288631E+00
    0.1000000000E+07    0.3292700371E+00    0.6034757012E-02    0.8727058861E-04    0.3509298591E+00    0.6773281715E+00
    0.3000000000E+07    0.3290886552E+00    0.3556348756E-02    0.4851597388E-04    0.3514326940E+00    0.6810933787E+00
    0.5000000000E+07    0.3289645384E+00    0.2778229764E-02    0.3690181036E-04    0.3516247109E+00    0.6822700856E+00
    0.7000000000E+07    0.3288758053E+00    0.2360556804E-02    0.3080908797E-04    0.3517438587E+00    0.6829004812E+00
    0.9000000000E+07    0.3288070070E+00    0.2089852226E-02    0.2692158572E-04    0.3518302020E+00    0.6833085657E+00
    0.1100000000E+08    0.3287508690E+00    0.1896043248E-02    0.2417141895E-04    0.3518978821E+00    0.6836004810E+00
    0.1300000000E+08    0.3287034648E+00    0.1748413352E-02    0.2209672156E-04    0.3519535206E+00    0.6838226955E+00
    0.1500000000E+08    0.3286624446E+00    0.1631083252E-02    0.2046121260E-04    0.3520007477E+00    0.6839992089E+00
    0.1700000000E+08    0.3286262931E+00    0.1534904917E-02    0.1912993963E-04    0.3520417683E+00    0.6841438375E+00
    0.1900000000E+08    0.3285939769E+00    0.1454185907E-02    0.1801954207E-04    0.3520780214E+00    0.6842651733E+00
    0.2100000000E+08    0.3285647598E+00    0.1385173115E-02    0.1707541029E-04    0.3521104979E+00    0.6843688784E+00
    0.2300000000E+08    0.3285380989E+00    0.1325277919E-02    0.1626009215E-04    0.3521399091E+00    0.6844588564E+00
    0.2500000000E+08    0.3285135827E+00    0.1272649079E-02    0.1554694069E-04    0.3521667828E+00    0.6845378980E+00
    0.2700000000E+08    0.3284908914E+00    0.1225922786E-02    0.1491641610E-04    0.3521915213E+00    0.6846080582E+00
