  Pressure (Pa) 22mC5-400 (mol/kg) 2mC6-400 (mol/kg) 33mC5-400 (mol/kg) 23mC5-400 (mol/kg) C7-400 (mol/kg)
    0.1000000000E+01    0.5298517862E-03    0.3957142357E-02    0.4511005700E-03    0.2791082198E-03    0.6810917413E-02
    0.3000000000E+01    0.1572370816E-02    0.1151927366E-01    0.1313378528E-02    0.8282774870E-03    0.1983149310E-01
    0.5000000000E+01    0.2592773237E-02    0.1864582651E-01    0.2126280051E-02    0.1365802939E-02    0.3211059042E-01
    0.7000000000E+01    0.3591966715E-02    0.2537343515E-01    0.2893962480E-02    0.1892162381E-02    0.4371299261E-01
    0.9000000000E+01    0.4570807930E-02    0.3173463225E-01    0.3620116980E-02    0.2407806782E-02    0.5469606291E-01
    0.1100000000E+02    0.5530106157E-02    0.3775841659E-01    0.4308033137E-02    0.2913162157E-02    0.6511078118E-01
    0.1300000000E+02    0.6470626546E-02    0.4347072820E-01    0.4960653024E-02    0.3408631296E-02    0.7500261122E-01
    0.1500000000E+02    0.7393093132E-02    0.4889484815E-01    0.5580616673E-02    0.3894595344E-02    0.8441223023E-01
    0.1700000000E+02    0.8298191601E-02    0.5405173670E-01    0.6170300543E-02    0.4371415264E-02    0.9337614525E-01
    0.1900000000E+02    0.9186571833E-02    0.5896032052E-01    0.6731850181E-02    0.4839433168E-02    0.1019272167E+00
    0.2100000000E+02    0.1005885025E-01    0.6363773800E-01    0.7267208109E-02    0.5298973555E-02    0.1100951045E+00
    0.2300000000E+02    0.1091561195E-01    0.6809954935E-01    0.7778137716E-02    0.5750344448E-02    0.1179066510E+00
    0.2500000000E+02    0.1175741276E-01    0.7235991757E-01    0.8266243821E-02    0.6193838439E-02    0.1253862086E+00
    0.2700000000E+02    0.1258478099E-01    0.7643176471E-01    0.8732990433E-02    0.6629733661E-02    0.1325559242E+00
    0.2900000000E+02    0.1339821923E-01    0.8032690740E-01    0.9179716155E-02    0.7058294687E-02    0.1394359847E+00
    0.3100000000E+02    0.1419820586E-01    0.8405617481E-01    0.9607647574E-02    0.7479773356E-02    0.1460448299E+00
    0.3300000000E+02    0.1498519653E-01    0.8762951158E-01    0.1001791096E-01    0.7894409546E-02    0.1523993392E+00
    0.3500000000E+02    0.1575962554E-01    0.9105606806E-01    0.1041154253E-01    0.8302431884E-02    0.1585149938E+00
    0.3700000000E+02    0.1652190706E-01    0.9434427948E-01    0.1078949739E-01    0.8704058414E-02    0.1644060200E+00
    0.3900000000E+02    0.1727243634E-01    0.9750193580E-01    0.1115265752E-01    0.9099497211E-02    0.1700855141E+00
    0.4100000000E+02    0.1801159077E-01    0.1005362434E+00    0.1150183874E-01    0.9488946952E-02    0.1755655536E+00
    0.4300000000E+02    0.1873973091E-01    0.1034538797E+00    0.1183779694E-01    0.9872597454E-02    0.1808572950E+00
    0.4500000000E+02    0.1945720143E-01    0.1062610417E+00    0.1216123356E-01    0.1025063017E-01    0.1859710605E+00
    0.4700000000E+02    0.2016433199E-01    0.1089634892E+00    0.1247280049E-01    0.1062321865E-01    0.1909164151E+00
    0.4900000000E+02    0.2086143806E-01    0.1115665833E+00    0.1277310449E-01    0.1099052898E-01    0.1957022357E+00
    0.1000000000E+02    0.5052851097E-02    0.3478701309E-01    0.3968663398E-02    0.2661744899E-02    0.5997150443E-01
    0.3000000000E+02    0.1379986500E-01    0.8221163436E-01    0.9395958535E-02    0.7269904052E-02    0.1427732197E+00
    0.5000000000E+02    0.2120632681E-01    0.1128324479E+00    0.1291921112E-01    0.1117225480E-01    0.1980379216E+00
    0.7000000000E+02    0.2764485884E-01    0.1339836611E+00    0.1536884869E-01    0.1456496367E-01    0.2380991460E+00
    0.9000000000E+02    0.3335682507E-01    0.1492489991E+00    0.1715036293E-01    0.1757510121E-01    0.2688051802E+00
    0.1100000000E+03    0.3850613410E-01    0.1606042334E+00    0.1848726466E-01    0.2028896309E-01    0.2933027245E+00
    0.1300000000E+03    0.4320843570E-01    0.1692335554E+00    0.1951354120E-01    0.2276743925E-01    0.3134438018E+00
    0.1500000000E+03    0.4754794971E-01    0.1758916172E+00    0.2031462041E-01    0.2505487297E-01    0.3303942050E+00
    0.1700000000E+03    0.5158765823E-01    0.1810824968E+00    0.2094760655E-01    0.2718442639E-01    0.3449271577E+00
    0.1900000000E+03    0.5537573897E-01    0.1851556853E+00    0.2145212898E-01    0.2918146724E-01    0.3575774405E+00
    0.2100000000E+03    0.5894977094E-01    0.1883609529E+00    0.2185654154E-01    0.3106578307E-01    0.3687278275E+00
    0.2300000000E+03    0.6233956830E-01    0.1908813534E+00    0.2218165142E-01    0.3285307306E-01    0.3786602444E+00
    0.2500000000E+03    0.6556914036E-01    0.1928539270E+00    0.2244305833E-01    0.3455598005E-01    0.3875874307E+00
    0.2700000000E+03    0.6865807896E-01    0.1943831521E+00    0.2265267447E-01    0.3618482089E-01    0.3956732874E+00
    0.2900000000E+03    0.7162256057E-01    0.1955499484E+00    0.2281974221E-01    0.3774811410E-01    0.4030463833E+00
    0.3100000000E+03    0.7447608353E-01    0.1964178607E+00    0.2295153320E-01    0.3925296802E-01    0.4098091719E+00
    0.3300000000E+03    0.7723001914E-01    0.1970374010E+00    0.2305383950E-01    0.4070537094E-01    0.4160444387E+00
    0.3500000000E+03    0.7989402986E-01    0.1974491590E+00    0.2313132562E-01    0.4211041136E-01    0.4218199067E+00
    0.3700000000E+03    0.8247639082E-01    0.1976860685E+00    0.2318778511E-01    0.4347244720E-01    0.4271915918E+00
    0.3900000000E+03    0.8498424003E-01    0.1977750856E+00    0.2322633068E-01    0.4479523760E-01    0.4322062880E+00
    0.4100000000E+03    0.8742377531E-01    0.1977384483E+00    0.2324953697E-01    0.4608204662E-01    0.4369034377E+00
    0.4300000000E+03    0.8980041082E-01    0.1975946339E+00    0.2325954922E-01    0.4733572560E-01    0.4413165580E+00
    0.4500000000E+03    0.9211890262E-01    0.1973590953E+00    0.2325816684E-01    0.4855877935E-01    0.4454743432E+00
    0.4700000000E+03    0.9438345042E-01    0.1970448336E+00    0.2324690843E-01    0.4975341969E-01    0.4494015258E+00
    0.4900000000E+03    0.9659778051E-01    0.1966628465E+00    0.2322706287E-01    0.5092160911E-01    0.4531195570E+00
    0.1000000000E+03    0.3599369193E-01    0.1553283293E+00    0.1786454207E-01    0.1896479155E-01    0.2816932524E+00
    0.3000000000E+03    0.7306243677E-01    0.1960178439E+00    0.2288965530E-01    0.3850744832E-01    0.4064984922E+00
    0.5000000000E+03    0.9768716595E-01    0.1964494341E+00    0.2321427000E-01    0.5149633881E-01    0.4549060828E+00
    0.7000000000E+03    0.1174830022E+00    0.1902863304E+00    0.2270430651E-01    0.6194173136E-01    0.4831546804E+00
    0.9000000000E+03    0.1345499112E+00    0.1826887654E+00    0.2197393363E-01    0.7094962614E-01    0.5024570319E+00
    0.1100000000E+04    0.1497697620E+00    0.1749756801E+00    0.2118976363E-01    0.7898449333E-01    0.5168145955E+00
    0.1300000000E+04    0.1636018876E+00    0.1675522167E+00    0.2040855945E-01    0.8628825250E-01    0.5280783813E+00
    0.1500000000E+04    0.1763202820E+00    0.1605425627E+00    0.1965172467E-01    0.9300520205E-01    0.5372448998E+00
    0.1700000000E+04    0.1881047617E+00    0.1539720016E+00    0.1892732544E-01    0.9923003551E-01    0.5449073574E+00
    0.1900000000E+04    0.1990821489E+00    0.1478289295E+00    0.1823787596E-01    0.1050295346E+00    0.5514451654E+00
    0.2100000000E+04    0.2093470930E+00    0.1420883435E+00    0.1758344254E-01    0.1104535366E+00    0.5571144504E+00
    0.2300000000E+04    0.2189735065E+00    0.1367213119E+00    0.1696299036E-01    0.1155409587E+00    0.5620955514E+00
    0.2500000000E+04    0.2280212571E+00    0.1316988819E+00    0.1637500380E-01    0.1203233224E+00    0.5665198116E+00
    0.2700000000E+04    0.2365402865E+00    0.1269936478E+00    0.1581778408E-01    0.1248269234E+00    0.5704855832E+00
    0.2900000000E+04    0.2445732521E+00    0.1225802992E+00    0.1528959534E-01    0.1290742226E+00    0.5740682435E+00
    0.3100000000E+04    0.2521572821E+00    0.1184357231E+00    0.1478873654E-01    0.1330847707E+00    0.5773267122E+00
    0.3300000000E+04    0.2593251774E+00    0.1145389134E+00    0.1431357596E-01    0.1368758410E+00    0.5803078315E+00
    0.3500000000E+04    0.2661062586E+00    0.1108708078E+00    0.1386256632E-01    0.1404628750E+00    0.5830493948E+00
    0.3700000000E+04    0.2725269784E+00    0.1074141042E+00    0.1343424993E-01    0.1438598054E+00    0.5855822915E+00
    0.3900000000E+04    0.2786113755E+00    0.1041530805E+00    0.1302725852E-01    0.1470792945E+00    0.5879320582E+00
    0.4100000000E+04    0.2843814193E+00    0.1010734291E+00    0.1264031050E-01    0.1501329156E+00    0.5901200231E+00
    0.4300000000E+04    0.2898572781E+00    0.9816210688E-01    0.1227220682E-01    0.1530312946E+00    0.5921641628E+00
    0.4500000000E+04    0.2950575318E+00    0.9540720319E-01    0.1192182638E-01    0.1557842212E+00    0.5940797545E+00
    0.4700000000E+04    0.2999993452E+00    0.9279782295E-01    0.1158812127E-01    0.1584007406E+00    0.5958798787E+00
    0.4900000000E+04    0.3046986110E+00    0.9032398379E-01    0.1127011203E-01    0.1608892284E+00    0.5975758117E+00
    0.1000000000E+04    0.1423560100E+00    0.1788110528E+00    0.2158375418E-01    0.7507040761E-01    0.5101097093E+00
    0.3000000000E+04    0.2484192439E+00    0.1204757751E+00    0.1503585355E-01    0.1311079636E+00    0.5757348318E+00
    0.5000000000E+04    0.3069619374E+00    0.8913499970E-01    0.1111670489E-01    0.1620879107E+00    0.5983878145E+00
    0.7000000000E+04    0.3425594903E+00    0.7060828626E-01    0.8680217191E-02    0.1809555547E+00    0.6109699617E+00
    0.9000000000E+04    0.3655273632E+00    0.5873907148E-01    0.7077164097E-02    0.1931498782E+00    0.6192762375E+00
    0.1100000000E+05    0.3811260798E+00    0.5062986772E-01    0.5967144028E-02    0.2014469125E+00    0.6252928762E+00
    0.1300000000E+05    0.3921939637E+00    0.4479399065E-01    0.5164096777E-02    0.2073455614E+00    0.6299133965E+00
    0.1500000000E+05    0.4003412792E+00    0.4041346314E-01    0.4561354576E-02    0.2116967707E+00    0.6336078706E+00
    0.1700000000E+05    0.4065263712E+00    0.3701048912E-01    0.4094819263E-02    0.2150073093E+00    0.6366505697E+00
    0.1900000000E+05    0.4113450691E+00    0.3429124216E-01    0.3724269689E-02    0.2175924537E+00    0.6392138255E+00
    0.2100000000E+05    0.4151824919E+00    0.3206685976E-01    0.3423474174E-02    0.2196561181E+00    0.6414121361E+00
    0.2300000000E+05    0.4182962168E+00    0.3021123527E-01    0.3174733150E-02    0.2213347762E+00    0.6433249705E+00
    0.2500000000E+05    0.4208637592E+00    0.2863734711E-01    0.2965742177E-02    0.2227225453E+00    0.6450094590E+00
    0.2700000000E+05    0.4230107207E+00    0.2728340196E-01    0.2787720075E-02    0.2238860644E+00    0.6465078767E+00
    0.2900000000E+05    0.4248280569E+00    0.2610440971E-01    0.2634253429E-02    0.2248736250E+00    0.6478522734E+00
    0.3100000000E+05    0.4263830010E+00    0.2506688596E-01    0.2500561223E-02    0.2257209490E+00    0.6490674521E+00
    0.3300000000E+05    0.4277261666E+00    0.2414542031E-01    0.2383013814E-02    0.2264549482E+00    0.6501729506E+00
    0.3500000000E+05    0.4288962834E+00    0.2332039324E-01    0.2278810411E-02    0.2270962308E+00    0.6511843981E+00
    0.3700000000E+05    0.4299234249E+00    0.2257642064E-01    0.2185757974E-02    0.2276608117E+00    0.6521144676E+00
    0.3900000000E+05    0.4308312542E+00    0.2190127101E-01    0.2102116535E-02    0.2281613016E+00    0.6529735591E+00
    0.4100000000E+05    0.4316386144E+00    0.2128509707E-01    0.2026489013E-02    0.2286077507E+00    0.6537702983E+00
    0.4300000000E+05    0.4323606752E+00    0.2071988068E-01    0.1957741395E-02    0.2290082565E+00    0.6545119086E+00
    0.4500000000E+05    0.4330097705E+00    0.2019902557E-01    0.1894944034E-02    0.2293694082E+00    0.6552044916E+00
    0.4700000000E+05    0.4335960210E+00    0.1971705397E-01    0.1837327873E-02    0.2296966171E+00    0.6558532416E+00
    0.4900000000E+05    0.4341278005E+00    0.1926937769E-01    0.1784251377E-02    0.2299943643E+00    0.6564626122E+00
    0.1000000000E+05    0.3740319099E+00    0.5432880755E-01    0.6474635867E-02    0.1976715342E+00    0.6225006748E+00
    0.3000000000E+05    0.4256348396E+00    0.2556971055E-01    0.2565184975E-02    0.2253129623E+00    0.6484746888E+00
    0.5000000000E+05    0.4343754921E+00    0.1905716582E-01    0.1759243550E-02    0.2301333833E+00    0.6567537523E+00
    0.7000000000E+05    0.4376790453E+00    0.1592698985E-01    0.1402654239E-02    0.2320158441E+00    0.6612151543E+00
    0.9000000000E+05    0.4393648271E+00    0.1399714762E-01    0.1195285260E-02    0.2330101198E+00    0.6641117561E+00
    0.1100000000E+06    0.4403721457E+00    0.1265201566E-01    0.1056760598E-02    0.2336256240E+00    0.6661874835E+00
    0.1300000000E+06    0.4410355608E+00    0.1164358718E-01    0.9562032701E-03    0.2340457859E+00    0.6677694716E+00
    0.1500000000E+06    0.4415022373E+00    0.1085023212E-01    0.8790700040E-03    0.2343522046E+00    0.6690271710E+00
    0.1700000000E+06    0.4418464871E+00    0.1020431065E-01    0.8175440312E-03    0.2345865619E+00    0.6700583331E+00
    0.1900000000E+06    0.4421096863E+00    0.9664767761E-02    0.7670159041E-03    0.2347723400E+00    0.6709238429E+00
    0.2100000000E+06    0.4423166176E+00    0.9205023729E-02    0.7245741982E-03    0.2349237721E+00    0.6716638714E+00
    0.2300000000E+06    0.4424829901E+00    0.8806995576E-02    0.6882800004E-03    0.2350499894E+00    0.6723061409E+00
    0.2500000000E+06    0.4426192229E+00    0.8457887494E-02    0.6567865985E-03    0.2351571221E+00    0.6728704851E+00
    0.2700000000E+06    0.4427324870E+00    0.8148350870E-02    0.6291260627E-03    0.2352494410E+00    0.6733715207E+00
    0.2900000000E+06    0.4428278727E+00    0.7871372183E-02    0.6045827018E-03    0.2353300152E+00    0.6738202891E+00
    0.3100000000E+06    0.4429090888E+00    0.7621570893E-02    0.5826145407E-03    0.2354011083E+00    0.6742253088E+00
    0.3300000000E+06    0.4429788987E+00    0.7394739689E-02    0.5628027016E-03    0.2354644279E+00    0.6745932713E+00
    0.3500000000E+06    0.4430394015E+00    0.7187533934E-02    0.5448176941E-03    0.2355212871E+00    0.6749295160E+00
    0.3700000000E+06    0.4430922192E+00    0.6997256188E-02    0.5283963290E-03    0.2355727133E+00    0.6752383631E+00
    0.3900000000E+06    0.4431386240E+00    0.6821703193E-02    0.5133255169E-03    0.2356195222E+00    0.6755233503E+00
    0.4100000000E+06    0.4431796268E+00    0.6659054936E-02    0.4994306522E-03    0.2356623699E+00    0.6757874067E+00
    0.4300000000E+06    0.4432160408E+00    0.6507792776E-02    0.4865671243E-03    0.2357017911E+00    0.6760329808E+00
    0.4500000000E+06    0.4432485271E+00    0.6366638010E-02    0.4746140089E-03    0.2357382255E+00    0.6762621379E+00
    0.4700000000E+06    0.4432776282E+00    0.6234505111E-02    0.4634693081E-03    0.2357720387E+00    0.6764766332E+00
    0.4900000000E+06    0.4433037936E+00    0.6110465670E-02    0.4530463077E-03    0.2358035371E+00    0.6766779702E+00
    0.1000000000E+06    0.4399256571E+00    0.1327138363E-01    0.1119922120E-02    0.2333501081E+00    0.6652264433E+00
    0.3000000000E+06    0.4428700610E+00    0.7743360612E-02    0.5933053275E-03    0.2353666294E+00    0.6740278129E+00
    0.5000000000E+06    0.4433158951E+00    0.6051226773E-02    0.4480818188E-03    0.2358185008E+00    0.6767741162E+00
    0.7000000000E+06    0.4434689285E+00    0.5145012310E-02    0.3732131641E-03    0.2360422261E+00    0.6782437297E+00
    0.9000000000E+06    0.4435351874E+00    0.4557714197E-02    0.3257813047E-03    0.2361840921E+00    0.6791942791E+00
    0.1100000000E+07    0.4435659593E+00    0.4137081444E-02    0.2923493800E-03    0.2362857479E+00    0.6798737828E+00
    0.1300000000E+07    0.4435795494E+00    0.3816520375E-02    0.2671829805E-03    0.2363640618E+00    0.6803907555E+00
    0.1500000000E+07    0.4435839253E+00    0.3561630954E-02    0.2473710790E-03    0.2364273345E+00    0.6808012140E+00
    0.1700000000E+07    0.4435830254E+00    0.3352599345E-02    0.2312592725E-03    0.2364801964E+00    0.6811373913E+00
    0.1900000000E+07    0.4435789758E+00    0.3177095536E-02    0.2178291162E-03    0.2365254677E+00    0.6814193249E+00
    0.2100000000E+07    0.4435730008E+00    0.3026988726E-02    0.2064150663E-03    0.2365649818E+00    0.6816602146E+00
    0.2300000000E+07    0.4435658402E+00    0.2896669551E-02    0.1965615212E-03    0.2365999921E+00    0.6818691576E+00
    0.2500000000E+07    0.4435579578E+00    0.2782125455E-02    0.1879447799E-03    0.2366313902E+00    0.6820526557E+00
    0.2700000000E+07    0.4435496531E+00    0.2680399581E-02    0.1803277394E-03    0.2366598313E+00    0.6822154956E+00
    0.2900000000E+07    0.4435411230E+00    0.2589258239E-02    0.1735322532E-03    0.2366858103E+00    0.6823612907E+00
    0.3100000000E+07    0.4435324997E+00    0.2506978118E-02    0.1674215529E-03    0.2367097092E+00    0.6824928264E+00
    0.3300000000E+07    0.4435238721E+00    0.2432205382E-02    0.1618886751E-03    0.2367318289E+00    0.6826122894E+00
    0.3500000000E+07    0.4435153007E+00    0.2363859598E-02    0.1568486096E-03    0.2367524103E+00    0.6827214237E+00
    0.3700000000E+07    0.4435068264E+00    0.2301066542E-02    0.1522328350E-03    0.2367716492E+00    0.6828216394E+00
    0.3900000000E+07    0.4434984765E+00    0.2243110170E-02    0.1479854280E-03    0.2367897067E+00    0.6829140911E+00
    0.4100000000E+07    0.4434902688E+00    0.2189397586E-02    0.1440602381E-03    0.2368067170E+00    0.6829997339E+00
    0.4300000000E+07    0.4434822146E+00    0.2139433063E-02    0.1404187993E-03    0.2368227927E+00    0.6830793662E+00
    0.4500000000E+07    0.4434743202E+00    0.2092798460E-02    0.1370287623E-03    0.2368380296E+00    0.6831536610E+00
    0.4700000000E+07    0.4434665886E+00    0.2049138267E-02    0.1338627000E-03    0.2368525094E+00    0.6832231903E+00
    0.4900000000E+07    0.4434590207E+00    0.2008148022E-02    0.1308971863E-03    0.2368663029E+00    0.6832884437E+00
    0.1000000000E+07    0.4435534949E+00    0.4331818693E-02    0.3077701954E-03    0.2362385948E+00    0.6795593491E+00
    0.3000000000E+07    0.4435368166E+00    0.2547102502E-02    0.1703985824E-03    0.2366979993E+00    0.6824286924E+00
    0.5000000000E+07    0.4434552977E+00    0.1988570674E-02    0.1294832283E-03    0.2368729616E+00    0.6833196010E+00
    0.7000000000E+07    0.4433887136E+00    0.1689069507E-02    0.1080551092E-03    0.2369814722E+00    0.6837955618E+00
    0.9000000000E+07    0.4433343201E+00    0.1495062853E-02    0.9439432470E-04    0.2370600901E+00    0.6841031335E+00
    0.1100000000E+08    0.4432886611E+00    0.1356215927E-02    0.8473527165E-04    0.2371217074E+00    0.6843228699E+00
    0.1300000000E+08    0.4432494084E+00    0.1250480163E-02    0.7745126132E-04    0.2371723576E+00    0.6844899745E+00
    0.1500000000E+08    0.4432150174E+00    0.1166462828E-02    0.7171076140E-04    0.2372153483E+00    0.6846226053E+00
    0.1700000000E+08    0.4431844294E+00    0.1097602949E-02    0.6703910355E-04    0.2372526877E+00    0.6847312046E+00
    0.1900000000E+08    0.4431568930E+00    0.1039819058E-02    0.6314320694E-04    0.2372856864E+00    0.6848222607E+00
    0.2100000000E+08    0.4431318572E+00    0.9904207977E-03    0.5983113758E-04    0.2373152468E+00    0.6849000463E+00
    0.2300000000E+08    0.4431089071E+00    0.9475529078E-03    0.5697129983E-04    0.2373420165E+00    0.6849675051E+00
    0.2500000000E+08    0.4430877225E+00    0.9098888248E-03    0.5447008537E-04    0.2373664761E+00    0.6850267405E+00
    0.2700000000E+08    0.4430680514E+00    0.8764514027E-03    0.5225886576E-04    0.2373889921E+00    0.6850793007E+00
