  Pressure (Pa) 22mC5-400 (mol/kg) 2mC6-400 (mol/kg) 33mC5-400 (mol/kg) 23mC5-400 (mol/kg) C7-400 (mol/kg)
    0.1000000000E+01    0.5309719386E-03    0.1584750136E-02    0.5161737114E-03    0.3729306958E-03    0.8516121456E-02
    0.3000000000E+01    0.1582218737E-02    0.4624051215E-02    0.1506448688E-02    0.1111283744E-02    0.2480945748E-01
    0.5000000000E+01    0.2619503294E-02    0.7501925804E-02    0.2444571870E-02    0.1839836585E-02    0.4018861929E-01
    0.7000000000E+01    0.3643175341E-02    0.1023153645E-01    0.3334807679E-02    0.2558834665E-02    0.5473043373E-01
    0.9000000000E+01    0.4653572634E-02    0.1282460107E-01    0.4180951210E-02    0.3268515029E-02    0.6850329964E-01
    0.1100000000E+02    0.5651021465E-02    0.1529158782E-01    0.4986391669E-02    0.3969106675E-02    0.8156831480E-01
    0.1300000000E+02    0.6635837151E-02    0.1764187934E-01    0.5754165785E-02    0.4660830899E-02    0.9398022668E-01
    0.1500000000E+02    0.7608324490E-02    0.1988391157E-01    0.6487002996E-02    0.5343901618E-02    0.1057882383E+00
    0.1700000000E+02    0.8568778205E-02    0.2202529189E-01    0.7187363847E-02    0.6018525674E-02    0.1170366943E+00
    0.1900000000E+02    0.9517483356E-02    0.2407289986E-01    0.7857472762E-02    0.6684903133E-02    0.1277656677E+00
    0.2100000000E+02    0.1045471574E-01    0.2603297359E-01    0.8499346127E-02    0.7343227557E-02    0.1380114631E+00
    0.2300000000E+02    0.1138074227E-01    0.2791118410E-01    0.9114816437E-02    0.7993686272E-02    0.1478070510E+00
    0.2500000000E+02    0.1229582132E-01    0.2971269943E-01    0.9705553158E-02    0.8636460617E-02    0.1571824428E+00
    0.2700000000E+02    0.1320020308E-01    0.3144224029E-01    0.1027308079E-01    0.9271726187E-02    0.1661650165E+00
    0.2900000000E+02    0.1409412988E-01    0.3310412842E-01    0.1081879458E-01    0.9899653057E-02    0.1747798001E+00
    0.3100000000E+02    0.1497783650E-01    0.3470232874E-01    0.1134397420E-01    0.1052040600E-01    0.1830497195E+00
    0.3300000000E+02    0.1585155044E-01    0.3624048627E-01    0.1184979576E-01    0.1113414470E-01    0.1909958150E+00
    0.3500000000E+02    0.1671549225E-01    0.3772195852E-01    0.1233734229E-01    0.1174102393E-01    0.1986374324E+00
    0.3700000000E+02    0.1756987576E-01    0.3914984396E-01    0.1280761300E-01    0.1234119377E-01    0.2059923902E+00
    0.3900000000E+02    0.1841490833E-01    0.4052700718E-01    0.1326153144E-01    0.1293479977E-01    0.2130771286E+00
    0.4100000000E+02    0.1925079113E-01    0.4185610113E-01    0.1369995271E-01    0.1352198311E-01    0.2199068403E+00
    0.4300000000E+02    0.2007771935E-01    0.4313958688E-01    0.1412366986E-01    0.1410288078E-01    0.2264955873E+00
    0.4500000000E+02    0.2089588242E-01    0.4437975109E-01    0.1453341957E-01    0.1467762574E-01    0.2328564045E+00
    0.4700000000E+02    0.2170546423E-01    0.4557872171E-01    0.1492988724E-01    0.1524634706E-01    0.2390013923E+00
    0.4900000000E+02    0.2250664334E-01    0.4673848190E-01    0.1531371149E-01    0.1580917006E-01    0.2449417991E+00
    0.1000000000E+02    0.5153895648E-02    0.1407324406E-01    0.4588561833E-02    0.3619932934E-02    0.7512072809E-01
    0.3000000000E+02    0.1453724632E-01    0.3391095464E-01    0.1108387536E-01    0.1021091617E-01    0.1789565110E+00
    0.5000000000E+02    0.2290413627E-01    0.4730424133E-01    0.1550107012E-01    0.1608840785E-01    0.2478385852E+00
    0.7000000000E+02    0.3045254418E-01    0.5695097499E-01    0.1871000196E-01    0.2139135965E-01    0.2972272423E+00
    0.9000000000E+02    0.3733045194E-01    0.6418783257E-01    0.2114069577E-01    0.2622363566E-01    0.3345839254E+00
    0.1100000000E+03    0.4365082118E-01    0.6976549336E-01    0.2303433141E-01    0.3066452229E-01    0.3639631251E+00
    0.1300000000E+03    0.4950147374E-01    0.7414437470E-01    0.2453875355E-01    0.3477566201E-01    0.3877637158E+00
    0.1500000000E+03    0.5495179306E-01    0.7762571692E-01    0.2575070816E-01    0.3860575645E-01    0.4074991430E+00
    0.1700000000E+03    0.6005738123E-01    0.8041650212E-01    0.2673671719E-01    0.4219383456E-01    0.4241734429E+00
    0.1900000000E+03    0.6486336529E-01    0.8266446970E-01    0.2754431883E-01    0.4557157316E-01    0.4384801808E+00
    0.2100000000E+03    0.6940679009E-01    0.8447832190E-01    0.2820854499E-01    0.4876497625E-01    0.4509146453E+00
    0.2300000000E+03    0.7371837974E-01    0.8594003649E-01    0.2875586464E-01    0.5179561129E-01    0.4618405059E+00
    0.2500000000E+03    0.7782385459E-01    0.8711271267E-01    0.2920669493E-01    0.5468153352E-01    0.4715311703E+00
    0.2700000000E+03    0.8174492962E-01    0.8804576005E-01    0.2957706137E-01    0.5743798673E-01    0.4801964022E+00
    0.2900000000E+03    0.8550008110E-01    0.8877843951E-01    0.2987973062E-01    0.6007794132E-01    0.4880000001E+00
    0.3100000000E+03    0.8910514217E-01    0.8934234458E-01    0.3012500443E-01    0.6261251236E-01    0.4950718629E+00
    0.3300000000E+03    0.9257377040E-01    0.8976318074E-01    0.3032128916E-01    0.6505128775E-01    0.5015164230E+00
    0.3500000000E+03    0.9591781856E-01    0.9006206674E-01    0.3047551247E-01    0.6740258850E-01    0.5074186666E+00
    0.3700000000E+03    0.9914763133E-01    0.9025650319E-01    0.3059343374E-01    0.6967367695E-01    0.5128485130E+00
    0.3900000000E+03    0.1022722846E+00    0.9036110449E-01    0.3067987882E-01    0.7187092483E-01    0.5178640524E+00
    0.4100000000E+03    0.1052997804E+00    0.9038815963E-01    0.3073892003E-01    0.7399994985E-01    0.5225139787E+00
    0.4300000000E+03    0.1082372059E+00    0.9034806709E-01    0.3077401589E-01    0.7606572770E-01    0.5268394403E+00
    0.4500000000E+03    0.1110908653E+00    0.9024967587E-01    0.3078812089E-01    0.7807268436E-01    0.5308754670E+00
    0.4700000000E+03    0.1138663890E+00    0.9010055551E-01    0.3078377236E-01    0.8002477269E-01    0.5346520826E+00
    0.4900000000E+03    0.1165688246E+00    0.8990721189E-01    0.3076316018E-01    0.8192553648E-01    0.5381951809E+00
    0.1000000000E+03    0.4055434148E-01    0.6715047992E-01    0.2214386170E-01    0.2848880010E-01    0.3500937487E+00
    0.3000000000E+03    0.8732047311E-01    0.8907976141E-01    0.3000897763E-01    0.6135776809E-01    0.4916203546E+00
    0.5000000000E+03    0.1178940714E+00    0.8979574209E-01    0.3074735857E-01    0.8285768064E-01    0.5398862982E+00
    0.7000000000E+03    0.1414571335E+00    0.8626811267E-01    0.2992655844E-01    0.9943456894E-01    0.5656035007E+00
    0.9000000000E+03    0.1609444844E+00    0.8169294559E-01    0.2864358402E-01    0.1131489398E+00    0.5820085525E+00
    0.1100000000E+04    0.1776600006E+00    0.7699544338E-01    0.2723733717E-01    0.1249162584E+00    0.5935627351E+00
    0.1300000000E+04    0.1923069249E+00    0.7248852970E-01    0.2583456554E-01    0.1352302828E+00    0.6022293736E+00
    0.1500000000E+04    0.2053175020E+00    0.6827793819E-01    0.2448658868E-01    0.1443945016E+00    0.6090202646E+00
    0.1700000000E+04    0.2169835050E+00    0.6438997709E-01    0.2321378356E-01    0.1526137795E+00    0.6145149163E+00
    0.1900000000E+04    0.2275159410E+00    0.6081866198E-01    0.2202265073E-01    0.1600362785E+00    0.6190714541E+00
    0.2100000000E+04    0.2370754190E+00    0.5754498948E-01    0.2091315256E-01    0.1667747801E+00    0.6229242869E+00
    0.2300000000E+04    0.2457889339E+00    0.5454535844E-01    0.1988213821E-01    0.1729184686E+00    0.6262339172E+00
    0.2500000000E+04    0.2537597991E+00    0.5179537898E-01    0.1892503880E-01    0.1785399048E+00    0.6291143065E+00
    0.2700000000E+04    0.2610738774E+00    0.4927159310E-01    0.1803673988E-01    0.1836993994E+00    0.6316488266E+00
    0.2900000000E+04    0.2678036924E+00    0.4695220642E-01    0.1721203935E-01    0.1884478994E+00    0.6339000183E+00
    0.3100000000E+04    0.2740112669E+00    0.4481733975E-01    0.1644588717E-01    0.1928289803E+00    0.6359158069E+00
    0.3300000000E+04    0.2797501591E+00    0.4284904628E-01    0.1573350621E-01    0.1968802748E+00    0.6377335974E+00
    0.3500000000E+04    0.2850669750E+00    0.4103121740E-01    0.1507044685E-01    0.2006345347E+00    0.6393830544E+00
    0.3700000000E+04    0.2900025236E+00    0.3934943999E-01    0.1445260442E-01    0.2041204414E+00    0.6408880356E+00
    0.3900000000E+04    0.2945927228E+00    0.3779083775E-01    0.1387621578E-01    0.2073632415E+00    0.6422679683E+00
    0.4100000000E+04    0.2988693229E+00    0.3634391299E-01    0.1333784460E-01    0.2103852550E+00    0.6435388482E+00
    0.4300000000E+04    0.3028604959E+00    0.3499839704E-01    0.1283436077E-01    0.2132062886E+00    0.6447139769E+00
    0.4500000000E+04    0.3065913213E+00    0.3374511287E-01    0.1236291743E-01    0.2158439766E+00    0.6458045153E+00
    0.4700000000E+04    0.3100841909E+00    0.3257585116E-01    0.1192092732E-01    0.2183140653E+00    0.6468199044E+00
    0.4900000000E+04    0.3133591505E+00    0.3148325952E-01    0.1150603982E-01    0.2206306531E+00    0.6477681897E+00
    0.1000000000E+04    0.1695960640E+00    0.7933255493E-01    0.2794531531E-01    0.1192390088E+00    0.5882370870E+00
    0.3000000000E+04    0.2709692337E+00    0.4586287429E-01    0.1682195056E-01    0.1906818898E+00    0.6349347912E+00
    0.5000000000E+04    0.3149206093E+00    0.3096362727E-01    0.1130808427E-01    0.2217353898E+00    0.6482193643E+00
    0.7000000000E+04    0.3382193858E+00    0.2331561383E-01    0.8347881569E-02    0.2382405706E+00    0.6549749427E+00
    0.9000000000E+04    0.3521549825E+00    0.1883488209E-01    0.6576429055E-02    0.2481409131E+00    0.6591942026E+00
    0.1100000000E+05    0.3612367499E+00    0.1594318609E-01    0.5423281990E-02    0.2546125460E+00    0.6621322461E+00
    0.1300000000E+05    0.3675419600E+00    0.1393881737E-01    0.4623072067E-02    0.2591200062E+00    0.6643216829E+00
    0.1500000000E+05    0.3721352507E+00    0.1247236294E-01    0.4039711736E-02    0.2624146203E+00    0.6660307752E+00
    0.1700000000E+05    0.3756094973E+00    0.1135359424E-01    0.3597604588E-02    0.2649151964E+00    0.6674107577E+00
    0.1900000000E+05    0.3783173662E+00    0.1047132263E-01    0.3251940992E-02    0.2668711070E+00    0.6685540175E+00
    0.2100000000E+05    0.3804801348E+00    0.9756714239E-02    0.2974710482E-02    0.2684389786E+00    0.6695205001E+00
    0.2300000000E+05    0.3822428727E+00    0.9165094122E-02    0.2747615152E-02    0.2697216021E+00    0.6703509741E+00
    0.2500000000E+05    0.3837042393E+00    0.8666301068E-02    0.2558251445E-02    0.2707889589E+00    0.6710742326E+00
    0.2700000000E+05    0.3849334462E+00    0.8239282333E-02    0.2397942947E-02    0.2716901950E+00    0.6717112501E+00
    0.2900000000E+05    0.3859803537E+00    0.7868918095E-02    0.2260454357E-02    0.2724607552E+00    0.6722777070E+00
    0.3100000000E+05    0.3868817166E+00    0.7544078833E-02    0.2141198540E-02    0.2731267968E+00    0.6727855858E+00
    0.3300000000E+05    0.3876651779E+00    0.7256394569E-02    0.2036731044E-02    0.2737080151E+00    0.6732442178E+00
    0.3500000000E+05    0.3883518979E+00    0.6999450898E-02    0.1944418340E-02    0.2742195042E+00    0.6736609899E+00
    0.3700000000E+05    0.3889583301E+00    0.6768249442E-02    0.1862214376E-02    0.2746730144E+00    0.6740418345E+00
    0.3900000000E+05    0.3894974479E+00    0.6558837027E-02    0.1788506610E-02    0.2750778219E+00    0.6743915767E+00
    0.4100000000E+05    0.3899796099E+00    0.6368045303E-02    0.1722007712E-02    0.2754413419E+00    0.6747141858E+00
    0.4300000000E+05    0.3904131805E+00    0.6193304395E-02    0.1661677977E-02    0.2757695696E+00    0.6750129601E+00
    0.4500000000E+05    0.3908049836E+00    0.6032507201E-02    0.1606668806E-02    0.2760674019E+00    0.6752906661E+00
    0.4700000000E+05    0.3911606384E+00    0.5883909023E-02    0.1556280904E-02    0.2763388766E+00    0.6755496428E+00
    0.4900000000E+05    0.3914848120E+00    0.5746052247E-02    0.1509932934E-02    0.2765873509E+00    0.6757918832E+00
    0.1000000000E+05    0.3571390432E+00    0.1724613453E-01    0.5943445854E-02    0.2516900403E+00    0.6607810443E+00
    0.3000000000E+05    0.3864473230E+00    0.7701384626E-02    0.2198784872E-02    0.2728054838E+00    0.6725383329E+00
    0.5000000000E+05    0.3916363395E+00    0.5680760507E-02    0.1488118531E-02    0.2767038604E+00    0.6759072714E+00
    0.7000000000E+05    0.3936955084E+00    0.4721982241E-02    0.1178694423E-02    0.2783184914E+00    0.6776473434E+00
    0.9000000000E+05    0.3947802395E+00    0.4135069712E-02    0.1000210503E-02    0.2792065638E+00    0.6787487803E+00
    0.1100000000E+06    0.3954423305E+00    0.3728042599E-02    0.8816322324E-03    0.2797725919E+00    0.6795243121E+00
    0.1300000000E+06    0.3958847643E+00    0.3424085310E-02    0.7959088487E-03    0.2801675581E+00    0.6801076212E+00
    0.1500000000E+06    0.3961991165E+00    0.3185704030E-02    0.7303703413E-03    0.2804605767E+00    0.6805665519E+00
    0.1700000000E+06    0.3964325712E+00    0.2992127107E-02    0.6782351341E-03    0.2806877818E+00    0.6809396284E+00
    0.1900000000E+06    0.3966118339E+00    0.2830787236E-02    0.6355176642E-03    0.2808699256E+00    0.6812505415E+00
    0.2100000000E+06    0.3967531173E+00    0.2693570720E-02    0.5997077157E-03    0.2810197923E+00    0.6815147572E+00
    0.2300000000E+06    0.3968668148E+00    0.2574971086E-02    0.5691376900E-03    0.2811456981E+00    0.6817428525E+00
    0.2500000000E+06    0.3969598854E+00    0.2471100372E-02    0.5426518469E-03    0.2812532931E+00    0.6819423362E+00
    0.2700000000E+06    0.3970371578E+00    0.2379123620E-02    0.5194211370E-03    0.2813465556E+00    0.6821187035E+00
    0.2900000000E+06    0.3971020830E+00    0.2296917765E-02    0.4988336396E-03    0.2814283707E+00    0.6822760808E+00
    0.3100000000E+06    0.3971571906E+00    0.2222856708E-02    0.4804267078E-03    0.2815008842E+00    0.6824176341E+00
    0.3300000000E+06    0.3972043748E+00    0.2155670808E-02    0.4638433007E-03    0.2815657265E+00    0.6825458379E+00
    0.3500000000E+06    0.3972450811E+00    0.2094352134E-02    0.4488029508E-03    0.2816241602E+00    0.6826626581E+00
    0.3700000000E+06    0.3972804307E+00    0.2038088819E-02    0.4350819085E-03    0.2816771786E+00    0.6827696788E+00
    0.3900000000E+06    0.3973113055E+00    0.1986218510E-02    0.4224992281E-03    0.2817255748E+00    0.6828681922E+00
    0.4100000000E+06    0.3973384088E+00    0.1938194665E-02    0.4109068035E-03    0.2817699905E+00    0.6829592643E+00
    0.4300000000E+06    0.3973623074E+00    0.1893561706E-02    0.4001820964E-03    0.2818109501E+00    0.6830437837E+00
    0.4500000000E+06    0.3973834632E+00    0.1851936399E-02    0.3902227373E-03    0.2818488875E+00    0.6831224971E+00
    0.4700000000E+06    0.3974022559E+00    0.1812993700E-02    0.3809424564E-03    0.2818841644E+00    0.6831960379E+00
    0.4900000000E+06    0.3974190003E+00    0.1776455842E-02    0.3722679730E-03    0.2819170852E+00    0.6832649467E+00
    0.1000000000E+06    0.3951474643E+00    0.3915239912E-02    0.9356311468E-03    0.2795174943E+00    0.6791666812E+00
    0.3000000000E+06    0.3971307333E+00    0.2258955560E-02    0.4893819979E-03    0.2814656782E+00    0.6823486671E+00
    0.5000000000E+06    0.3974266885E+00    0.1759012723E-02    0.3681379532E-03    0.2819327443E+00    0.6832978120E+00
    0.7000000000E+06    0.3975186903E+00    0.1492713719E-02    0.3059843365E-03    0.2821683075E+00    0.6837968082E+00
    0.9000000000E+06    0.3975512565E+00    0.1320673305E-02    0.2667365904E-03    0.2823189446E+00    0.6841161445E+00
    0.1100000000E+07    0.3975603435E+00    0.1197717641E-02    0.2391341817E-03    0.2824273863E+00    0.6843427349E+00
    0.1300000000E+07    0.3975586214E+00    0.1104161183E-02    0.2183896725E-03    0.2825111634E+00    0.6845141623E+00
    0.1500000000E+07    0.3975514943E+00    0.1029861908E-02    0.2020793126E-03    0.2825789738E+00    0.6846496637E+00
    0.1700000000E+07    0.3975415620E+00    0.9689899641E-03    0.1888284636E-03    0.2826356970E+00    0.6847602362E+00
    0.1900000000E+07    0.3975301816E+00    0.9179233134E-03    0.1777922907E-03    0.2826843176E+00    0.6848526796E+00
    0.2100000000E+07    0.3975181023E+00    0.8742766354E-03    0.1684194472E-03    0.2827267815E+00    0.6849314539E+00
    0.2300000000E+07    0.3975057540E+00    0.8364061572E-03    0.1603329339E-03    0.2827644226E+00    0.6849996212E+00
    0.2500000000E+07    0.3974933893E+00    0.8031371639E-03    0.1532651570E-03    0.2827981914E+00    0.6850593628E+00
    0.2700000000E+07    0.3974811579E+00    0.7736047288E-03    0.1470202764E-03    0.2828287876E+00    0.6851122800E+00
    0.2900000000E+07    0.3974691482E+00    0.7471559439E-03    0.1414512578E-03    0.2828567403E+00    0.6851595784E+00
    0.3100000000E+07    0.3974574109E+00    0.7232874155E-03    0.1364452936E-03    0.2828824584E+00    0.6852021854E+00
    0.3300000000E+07    0.3974459729E+00    0.7016039093E-03    0.1319142117E-03    0.2829062644E+00    0.6852408274E+00
    0.3500000000E+07    0.3974348464E+00    0.6817901744E-03    0.1277879742E-03    0.2829284164E+00    0.6852760825E+00
    0.3700000000E+07    0.3974240341E+00    0.6635912529E-03    0.1240101557E-03    0.2829491246E+00    0.6853084177E+00
    0.3900000000E+07    0.3974135326E+00    0.6467984097E-03    0.1205347251E-03    0.2829685618E+00    0.6853382144E+00
    0.4100000000E+07    0.3974033349E+00    0.6312388803E-03    0.1173237114E-03    0.2829868722E+00    0.6853657877E+00
    0.4300000000E+07    0.3973934318E+00    0.6167682680E-03    0.1143454780E-03    0.2830041767E+00    0.6853914007E+00
    0.4500000000E+07    0.3973838126E+00    0.6032648192E-03    0.1115734283E-03    0.2830205783E+00    0.6854152749E+00
    0.4700000000E+07    0.3973744663E+00    0.5906250500E-03    0.1089850201E-03    0.2830361649E+00    0.6854375982E+00
    0.4900000000E+07    0.3973653814E+00    0.5787603633E-03    0.1065610052E-03    0.2830510125E+00    0.6854585315E+00
    0.1000000000E+07    0.3975576820E+00    0.1254614273E-02    0.2518597636E-03    0.2823770388E+00    0.6842380597E+00
    0.3000000000E+07    0.3974632434E+00    0.7349260042E-03    0.1388838941E-03    0.2828698568E+00    0.6851814189E+00
    0.5000000000E+07    0.3973609334E+00    0.5730943967E-03    0.1054053824E-03    0.2830581801E+00    0.6854685208E+00
    0.7000000000E+07    0.3972831444E+00    0.4864728488E-03    0.8790403556E-04    0.2831749677E+00    0.6856206267E+00
    0.9000000000E+07    0.3972212534E+00    0.4304207831E-03    0.7675824236E-04    0.2832595565E+00    0.6857184070E+00
    0.1100000000E+08    0.3971700151E+00    0.3903335121E-03    0.6888295452E-04    0.2833258332E+00    0.6857880011E+00
    0.1300000000E+08    0.3971263412E+00    0.3598216741E-03    0.6294714186E-04    0.2833802988E+00    0.6858407714E+00
    0.1500000000E+08    0.3970882989E+00    0.3355867372E-03    0.5827100364E-04    0.2834265171E+00    0.6858825557E+00
    0.1700000000E+08    0.3970546063E+00    0.3157303810E-03    0.5446674239E-04    0.2834666515E+00    0.6859167007E+00
    0.1900000000E+08    0.3970243724E+00    0.2990723209E-03    0.5129504079E-04    0.2835021139E+00    0.6859452808E+00
    0.2100000000E+08    0.3969969537E+00    0.2848348961E-03    0.4859924110E-04    0.2835338762E+00    0.6859696588E+00
    0.2300000000E+08    0.3969718705E+00    0.2724820312E-03    0.4627197290E-04    0.2835626358E+00    0.6859907721E+00
    0.2500000000E+08    0.3969487559E+00    0.2616305378E-03    0.4423688365E-04    0.2835889102E+00    0.6860092893E+00
    0.2700000000E+08    0.3969273231E+00    0.2519982367E-03    0.4243801092E-04    0.2836130940E+00    0.6860257018E+00
