  Pressure (Pa) 22mC5-400 (mol/kg) 2mC6-400 (mol/kg) 33mC5-400 (mol/kg) 23mC5-400 (mol/kg) C7-400 (mol/kg)
    0.1000000000E+01    0.5303267047E-03    0.3150645979E-02    0.3207059247E-03    0.2793582739E-03    0.1184410191E-01
    0.3000000000E+01    0.1576533531E-02    0.9090490841E-02    0.9256295358E-03    0.8304692490E-03    0.3407714798E-01
    0.5000000000E+01    0.2604038865E-02    0.1459605650E-01    0.1486726599E-02    0.1371734570E-02    0.5456630941E-01
    0.7000000000E+01    0.3613487315E-02    0.1971664937E-01    0.2008987127E-02    0.1903493559E-02    0.7351488172E-01
    0.9000000000E+01    0.4605493062E-02    0.2449412263E-01    0.2496644779E-02    0.2426069522E-02    0.9109552410E-01
    0.1100000000E+02    0.5580641660E-02    0.2896424605E-01    0.2953316116E-02    0.2939770698E-02    0.1074558330E+00
    0.1300000000E+02    0.6539491703E-02    0.3315778424E-01    0.3382110176E-02    0.3444891134E-02    0.1227227410E+00
    0.1500000000E+02    0.7482576382E-02    0.3710135301E-01    0.3785715482E-02    0.3941711507E-02    0.1370060196E+00
    0.1700000000E+02    0.8410404929E-02    0.4081810545E-01    0.4166469718E-02    0.4430499882E-02    0.1504010924E+00
    0.1900000000E+02    0.9323463970E-02    0.4432828579E-01    0.4526415969E-02    0.4911512424E-02    0.1629913124E+00
    0.2100000000E+02    0.1022221878E-01    0.4764967993E-01    0.4867348448E-02    0.5384994061E-02    0.1748498173E+00
    0.2300000000E+02    0.1110711445E-01    0.5079798438E-01    0.5190849937E-02    0.5851179099E-02    0.1860410536E+00
    0.2500000000E+02    0.1197857701E-01    0.5378711039E-01    0.5498322629E-02    0.6310291801E-02    0.1966220348E+00
    0.2700000000E+02    0.1283701441E-01    0.5662943614E-01    0.5791013707E-02    0.6762546930E-02    0.2066433869E+00
    0.2900000000E+02    0.1368281754E-01    0.5933601710E-01    0.6070036665E-02    0.7208150250E-02    0.2161502220E+00
    0.3100000000E+02    0.1451636107E-01    0.6191676238E-01    0.6336389178E-02    0.7647299000E-02    0.2251828723E+00
    0.3300000000E+02    0.1533800433E-01    0.6438058342E-01    0.6590968167E-02    0.8080182341E-02    0.2337775097E+00
    0.3500000000E+02    0.1614809209E-01    0.6673551986E-01    0.6834582542E-02    0.8506981768E-02    0.2419666708E+00
    0.3700000000E+02    0.1694695529E-01    0.6898884667E-01    0.7067964049E-02    0.8927871502E-02    0.2497797050E+00
    0.3900000000E+02    0.1773491177E-01    0.7114716566E-01    0.7291776529E-02    0.9343018854E-02    0.2572431570E+00
    0.4100000000E+02    0.1851226687E-01    0.7321648403E-01    0.7506623865E-02    0.9752584574E-02    0.2643810960E+00
    0.4300000000E+02    0.1927931410E-01    0.7520228201E-01    0.7713056822E-02    0.1015672317E-01    0.2712153992E+00
    0.4500000000E+02    0.2003633568E-01    0.7710957133E-01    0.7911578958E-02    0.1055558322E-01    0.2777659968E+00
    0.4700000000E+02    0.2078360311E-01    0.7894294600E-01    0.8102651754E-02    0.1094930765E-01    0.2840510858E+00
    0.4900000000E+02    0.2152137768E-01    0.8070662650E-01    0.8286699080E-02    0.1133803401E-01    0.2900873148E+00
    0.1000000000E+02    0.5095138979E-02    0.2676557395E-01    0.2728648642E-02    0.2684010758E-02    0.9941984751E-01
    0.3000000000E+02    0.1410109895E-01    0.6064154043E-01    0.6204738468E-02    0.7428519439E-02    0.2207234685E+00
    0.5000000000E+02    0.2188678411E-01    0.8156355780E-01    0.8376211336E-02    0.1153056449E-01    0.2930169267E+00
    0.7000000000E+02    0.2875302646E-01    0.9584129593E-01    0.9877727867E-02    0.1514851374E-01    0.3416496171E+00
    0.9000000000E+02    0.3490583265E-01    0.1061551593E+00    0.1097831151E-01    0.1839081942E-01    0.3769479691E+00
    0.1100000000E+03    0.4049143496E-01    0.1138762012E+00    0.1181549749E-01    0.2133446785E-01    0.4039364796E+00
    0.1300000000E+03    0.4561678579E-01    0.1197943191E+00    0.1246858088E-01    0.2403576741E-01    0.4253664137E+00
    0.1500000000E+03    0.5036211076E-01    0.1244032759E+00    0.1298721003E-01    0.2653695645E-01    0.4428773869E+00
    0.1700000000E+03    0.5478890409E-01    0.1280304464E+00    0.1340437809E-01    0.2887041212E-01    0.4575109153E+00
    0.1900000000E+03    0.5894519378E-01    0.1309027226E+00    0.1374301455E-01    0.3106142207E-01    0.4699624259E+00
    0.2100000000E+03    0.6286911012E-01    0.1331828767E+00    0.1401962022E-01    0.3313006305E-01    0.4807152461E+00
    0.2300000000E+03    0.6659136588E-01    0.1349909545E+00    0.1424640577E-01    0.3509250659E-01    0.4901165313E+00
    0.2500000000E+03    0.7013701867E-01    0.1364175208E+00    0.1443261648E-01    0.3696194679E-01    0.4984225833E+00
    0.2700000000E+03    0.7352674805E-01    0.1375322075E+00    0.1458538777E-01    0.3874927265E-01    0.5058270952E+00
    0.2900000000E+03    0.7677779734E-01    0.1383894229E+00    0.1471031725E-01    0.4046356397E-01    0.5124794073E+00
    0.3100000000E+03    0.7990467929E-01    0.1390322747E+00    0.1481185835E-01    0.4211246282E-01    0.5184966838E+00
    0.3300000000E+03    0.8291971231E-01    0.1394953343E+00    0.1489359798E-01    0.4370245587E-01    0.5239722566E+00
    0.3500000000E+03    0.8583343332E-01    0.1398066248E+00    0.1495845664E-01    0.4523909178E-01    0.5289814799E+00
    0.3700000000E+03    0.8865491934E-01    0.1399890781E+00    0.1500883527E-01    0.4672715047E-01    0.5335859259E+00
    0.3900000000E+03    0.9139204077E-01    0.1400616201E+00    0.1504672485E-01    0.4817077652E-01    0.5378364471E+00
    0.4100000000E+03    0.9405166278E-01    0.1400399901E+00    0.1507378933E-01    0.4957358520E-01    0.5417754498E+00
    0.4300000000E+03    0.9663980701E-01    0.1399373684E+00    0.1509142923E-01    0.5093874761E-01    0.5454386068E+00
    0.4500000000E+03    0.9916178245E-01    0.1397648623E+00    0.1510083101E-01    0.5226905955E-01    0.5488561659E+00
    0.4700000000E+03    0.1016222922E+00    0.1395318859E+00    0.1510300578E-01    0.5356699780E-01    0.5520539608E+00
    0.4900000000E+03    0.1040255214E+00    0.1392464605E+00    0.1509881988E-01    0.5483476631E-01    0.5550542027E+00
    0.1000000000E+03    0.3776210452E-01    0.1102812532E+00    0.1142395593E-01    0.1989606419E-01    0.3912740298E+00
    0.3000000000E+03    0.7835594325E-01    0.1387353098E+00    0.1476376951E-01    0.4129575778E-01    0.5155611115E+00
    0.5000000000E+03    0.1052068400E+00    0.1390862652E+00    0.1509457897E-01    0.5545796060E-01    0.5564863483E+00
    0.7000000000E+03    0.1265546777E+00    0.1343637693E+00    0.1481157661E-01    0.6672169645E-01    0.5782973857E+00
    0.9000000000E+03    0.1447758399E+00    0.1284182541E+00    0.1434116411E-01    0.7633846341E-01    0.5922752316E+00
    0.1100000000E+04    0.1608809047E+00    0.1223049590E+00    0.1381061431E-01    0.8484048517E-01    0.6021721286E+00
    0.1300000000E+04    0.1753991063E+00    0.1163737696E+00    0.1326780559E-01    0.9250647886E-01    0.6096340190E+00
    0.1500000000E+04    0.1886474960E+00    0.1107456551E+00    0.1273313399E-01    0.9950341006E-01    0.6155091966E+00
    0.1700000000E+04    0.2008351619E+00    0.1054559593E+00    0.1221580173E-01    0.1059413830E+00    0.6202842090E+00
    0.1900000000E+04    0.2121103889E+00    0.1005054070E+00    0.1171992231E-01    0.1118984800E+00    0.6242603351E+00
    0.2100000000E+04    0.2225844754E+00    0.9588040362E-01    0.1124711109E-01    0.1174333057E+00    0.6276352213E+00
    0.2300000000E+04    0.2323447839E+00    0.9156174439E-01    0.1079769087E-01    0.1225918610E+00    0.6305445187E+00
    0.2500000000E+04    0.2414623606E+00    0.8752853027E-01    0.1037129446E-01    0.1274115560E+00    0.6330847743E+00
    0.2700000000E+04    0.2499966194E+00    0.8375996477E-01    0.9967183512E-02    0.1319236768E+00    0.6353267889E+00
    0.2900000000E+04    0.2579983467E+00    0.8023616588E-01    0.9584424949E-02    0.1361549680E+00    0.6373237983E+00
    0.3100000000E+04    0.2655117033E+00    0.7693850488E-01    0.9221992249E-02    0.1401286870E+00    0.6391166920E+00
    0.3300000000E+04    0.2725756045E+00    0.7384971365E-01    0.8878825062E-02    0.1438653302E+00    0.6407374568E+00
    0.3500000000E+04    0.2792247007E+00    0.7095387862E-01    0.8553864921E-02    0.1473831493E+00    0.6422115163E+00
    0.3700000000E+04    0.2854900948E+00    0.6823638063E-01    0.8246076729E-02    0.1506985292E+00    0.6435593625E+00
    0.3900000000E+04    0.2913998832E+00    0.6568381129E-01    0.7954461537E-02    0.1538262724E+00    0.6447977175E+00
    0.4100000000E+04    0.2969795725E+00    0.6328388128E-01    0.7678063863E-02    0.1567798183E+00    0.6459403784E+00
    0.4300000000E+04    0.3022524104E+00    0.6102532854E-01    0.7415975515E-02    0.1595714174E+00    0.6469988420E+00
    0.4500000000E+04    0.3072396525E+00    0.5889783043E-01    0.7167337157E-02    0.1622122716E+00    0.6479827737E+00
    0.4700000000E+04    0.3119607832E+00    0.5689192146E-01    0.6931338390E-02    0.1647126503E+00    0.6489003655E+00
    0.4900000000E+04    0.3164337012E+00    0.5499891744E-01    0.6707216878E-02    0.1670819883E+00    0.6497586116E+00
    0.1000000000E+04    0.1530529433E+00    0.1253524779E+00    0.1407944964E-01    0.8070778250E-01    0.5976039000E+00
    0.3000000000E+04    0.2618135292E+00    0.7856017958E-01    0.9400733851E-02    0.1381726852E+00    0.6382435834E+00
    0.5000000000E+04    0.3185822795E+00    0.5409223736E-01    0.6599384643E-02    0.1682202578E+00    0.6501673921E+00
    0.7000000000E+04    0.3518918017E+00    0.4026851035E-01    0.4915436378E-02    0.1858824485E+00    0.6563239119E+00
    0.9000000000E+04    0.3729238840E+00    0.3178178550E-01    0.3843279246E-02    0.1970560768E+00    0.6602050329E+00
    0.1100000000E+05    0.3870274491E+00    0.2620099925E-01    0.3122019895E-02    0.2045643678E+00    0.6629253868E+00
    0.1300000000E+05    0.3969621994E+00    0.2232095546E-01    0.2613389529E-02    0.2098650351E+00    0.6649628737E+00
    0.1500000000E+05    0.4042471535E+00    0.1949889572E-01    0.2240326720E-02    0.2137610243E+00    0.6665599491E+00
    0.1700000000E+05    0.4097679470E+00    0.1736939113E-01    0.1957615122E-02    0.2167208100E+00    0.6678540359E+00
    0.1900000000E+05    0.4140674568E+00    0.1571298061E-01    0.1737447600E-02    0.2190317622E+00    0.6689294382E+00
    0.2100000000E+05    0.4174931310E+00    0.1439155937E-01    0.1562000795E-02    0.2208779340E+00    0.6698410461E+00
    0.2300000000E+05    0.4202757533E+00    0.1331467733E-01    0.1419431153E-02    0.2223816679E+00    0.6706263003E+00
    0.2500000000E+05    0.4225736090E+00    0.1242102600E-01    0.1301617823E-02    0.2236269370E+00    0.6713117115E+00
    0.2700000000E+05    0.4244983225E+00    0.1166779616E-01    0.1202837907E-02    0.2246730051E+00    0.6719166367E+00
    0.2900000000E+05    0.4261305480E+00    0.1102431177E-01    0.1118960329E-02    0.2255627271E+00    0.6724555770E+00
    0.3100000000E+05    0.4275298194E+00    0.1046808585E-01    0.1046939223E-02    0.2263277612E+00    0.6729396354E+00
    0.3300000000E+05    0.4287409187E+00    0.9982300169E-02    0.9844862676E-03    0.2269919406E+00    0.6733774738E+00
    0.3500000000E+05    0.4297981015E+00    0.9554149829E-02    0.9298532320E-03    0.2275735112E+00    0.6737759608E+00
    0.3700000000E+05    0.4307279676E+00    0.9173728884E-02    0.8816842984E-03    0.2280866536E+00    0.6741406210E+00
    0.3900000000E+05    0.4315514528E+00    0.8833263487E-02    0.8389136639E-03    0.2285425382E+00    0.6744759546E+00
    0.4100000000E+05    0.4322852368E+00    0.8526573608E-02    0.8006931894E-03    0.2289500727E+00    0.6747856691E+00
    0.4300000000E+05    0.4329427566E+00    0.8248688335E-02    0.7663404011E-03    0.2293164393E+00    0.6750728492E+00
    0.4500000000E+05    0.4335349460E+00    0.7995566416E-02    0.7353005324E-03    0.2296474874E+00    0.6753400854E+00
    0.4700000000E+05    0.4340707847E+00    0.7763890205E-02    0.7071184190E-03    0.2299480258E+00    0.6755895709E+00
    0.4900000000E+05    0.4345577098E+00    0.7550911631E-02    0.6814174157E-03    0.2302220405E+00    0.6758231766E+00
    0.1000000000E+05    0.3806295911E+00    0.2872171838E-01    0.3449366755E-02    0.2011563577E+00    0.6616724064E+00
    0.3000000000E+05    0.4268562159E+00    0.1073645285E-01    0.1081625526E-02    0.2259591877E+00    0.6727038766E+00
    0.5000000000E+05    0.4347848107E+00    0.7450701646E-02    0.6693970790E-03    0.2303501642E+00    0.6759345356E+00
    0.7000000000E+05    0.4378362303E+00    0.6028788338E-02    0.5047877633E-03    0.2320991629E+00    0.6776208126E+00
    0.9000000000E+05    0.4394149672E+00    0.5203708575E-02    0.4155838724E-03    0.2330367330E+00    0.6786955443E+00
    0.1100000000E+06    0.4403685118E+00    0.4650464841E-02    0.3589735658E-03    0.2336237306E+00    0.6794560718E+00
    0.1300000000E+06    0.4410020014E+00    0.4246583287E-02    0.3194418358E-03    0.2340280169E+00    0.6800303281E+00
    0.1500000000E+06    0.4414508877E+00    0.3934891220E-02    0.2900215146E-03    0.2343249903E+00    0.6804835657E+00
    0.1700000000E+06    0.4417840986E+00    0.3684772903E-02    0.2671143363E-03    0.2345534813E+00    0.6808529872E+00
    0.1900000000E+06    0.4420402687E+00    0.3478189421E-02    0.2486690848E-03    0.2347355199E+00    0.6811615485E+00
    0.2100000000E+06    0.4422426732E+00    0.3303737467E-02    0.2334272807E-03    0.2348845403E+00    0.6814242790E+00
    0.2300000000E+06    0.4424061416E+00    0.3153809083E-02    0.2205716690E-03    0.2350092074E+00    0.6816514834E+00
    0.2500000000E+06    0.4425405545E+00    0.3023107463E-02    0.2095469743E-03    0.2351153658E+00    0.6818504929E+00
    0.2700000000E+06    0.4426527406E+00    0.2907815358E-02    0.1999617697E-03    0.2352071047E+00    0.6820266842E+00
    0.2900000000E+06    0.4427475651E+00    0.2805102211E-02    0.1915315696E-03    0.2352873738E+00    0.6821841011E+00
    0.3100000000E+06    0.4428285853E+00    0.2712818237E-02    0.1840442229E-03    0.2353583562E+00    0.6823258518E+00
    0.3300000000E+06    0.4428984600E+00    0.2629297051E-02    0.1773380066E-03    0.2354217040E+00    0.6824543691E+00
    0.3500000000E+06    0.4429592147E+00    0.2553224061E-02    0.1712872796E-03    0.2354786912E+00    0.6825715884E+00
    0.3700000000E+06    0.4430124189E+00    0.2483546210E-02    0.1657928056E-03    0.2355303172E+00    0.6826790712E+00
    0.3900000000E+06    0.4430593067E+00    0.2419408530E-02    0.1607750568E-03    0.2355773775E+00    0.6827780926E+00
    0.4100000000E+06    0.4431008612E+00    0.2360108563E-02    0.1561694744E-03    0.2356205136E+00    0.6828697060E+00
    0.4300000000E+06    0.4431378750E+00    0.2305063003E-02    0.1519230465E-03    0.2356602488E+00    0.6829547900E+00
    0.4500000000E+06    0.4431709937E+00    0.2253782850E-02    0.1479917919E-03    0.2356970150E+00    0.6830340840E+00
    0.4700000000E+06    0.4432007485E+00    0.2205854628E-02    0.1443388819E-03    0.2357311714E+00    0.6831082153E+00
    0.4900000000E+06    0.4432275799E+00    0.2160925983E-02    0.1409332163E-03    0.2357630198E+00    0.6831777202E+00
    0.1000000000E+06    0.4399447436E+00    0.4903072558E-02    0.3844798100E-03    0.2333602618E+00    0.6791049516E+00
    0.3000000000E+06    0.4427896172E+00    0.2757770266E-02    0.1876811329E-03    0.2353239123E+00    0.6822567693E+00
    0.5000000000E+06    0.4432400170E+00    0.2139490305E-02    0.1393146734E-03    0.2357781599E+00    0.6832108845E+00
    0.7000000000E+06    0.4433994725E+00    0.1813184875E-02    0.1151711049E-03    0.2360052692E+00    0.6837156254E+00
    0.9000000000E+06    0.4434710250E+00    0.1603171792E-02    0.1001118694E-03    0.2361499297E+00    0.6840398856E+00
    0.1100000000E+07    0.4435060488E+00    0.1453375735E-02    0.8959523285E-04    0.2362538320E+00    0.6842706011E+00
    0.1300000000E+07    0.4435231084E+00    0.1339533602E-02    0.8172719207E-04    0.2363339799E+00    0.6844455159E+00
    0.1500000000E+07    0.4435303731E+00    0.1249195918E-02    0.7556033953E-04    0.2363987801E+00    0.6845840070E+00
    0.1700000000E+07    0.4435319230E+00    0.1175225221E-02    0.7056175578E-04    0.2364529376E+00    0.6846971771E+00
    0.1900000000E+07    0.4435299840E+00    0.1113195109E-02    0.6640586807E-04    0.2364993253E+00    0.6847919049E+00
    0.2100000000E+07    0.4435258516E+00    0.1060194390E-02    0.6288116553E-04    0.2365398143E+00    0.6848727088E+00
    0.2300000000E+07    0.4435203181E+00    0.1014218903E-02    0.5984353383E-04    0.2365756855E+00    0.6849426958E+00
    0.2500000000E+07    0.4435138866E+00    0.9738374970E-03    0.5719097160E-04    0.2366078512E+00    0.6850040815E+00
    0.2700000000E+07    0.4435068863E+00    0.9379970878E-03    0.5484900266E-04    0.2366369826E+00    0.6850584944E+00
    0.2900000000E+07    0.4434995377E+00    0.9059031327E-03    0.5276181983E-04    0.2366635868E+00    0.6851071616E+00
    0.3100000000E+07    0.4434919911E+00    0.8769432923E-03    0.5088667711E-04    0.2366880555E+00    0.6851510278E+00
    0.3300000000E+07    0.4434843504E+00    0.8506369621E-03    0.4919021055E-04    0.2367106974E+00    0.6851908337E+00
    0.3500000000E+07    0.4434766882E+00    0.8266009109E-03    0.4764595035E-04    0.2367317600E+00    0.6852271693E+00
    0.3700000000E+07    0.4434690550E+00    0.8045252802E-03    0.4623259384E-04    0.2367514441E+00    0.6852605111E+00
    0.3900000000E+07    0.4434614865E+00    0.7841564433E-03    0.4493277895E-04    0.2367699151E+00    0.6852912488E+00
    0.4100000000E+07    0.4434540074E+00    0.7652845197E-03    0.4373219542E-04    0.2367873109E+00    0.6853197047E+00
    0.4300000000E+07    0.4434466346E+00    0.7477341213E-03    0.4261892908E-04    0.2368037473E+00    0.6853461477E+00
    0.4500000000E+07    0.4434393795E+00    0.7313573839E-03    0.4158297043E-04    0.2368193225E+00    0.6853708045E+00
    0.4700000000E+07    0.4434322495E+00    0.7160286480E-03    0.4061584082E-04    0.2368341206E+00    0.6853938675E+00
    0.4900000000E+07    0.4434252488E+00    0.7016403436E-03    0.3971030454E-04    0.2368482143E+00    0.6854155014E+00
    0.1000000000E+07    0.4434915715E+00    0.1522665041E-02    0.9443665210E-04    0.2362056152E+00    0.6841639531E+00
    0.3000000000E+07    0.4434957817E+00    0.8910641093E-03    0.5180001491E-04    0.2366760671E+00    0.6851296445E+00
    0.5000000000E+07    0.4434217976E+00    0.6947693774E-03    0.3927865633E-04    0.2368550169E+00    0.6854258274E+00
    0.7000000000E+07    0.4433594456E+00    0.5897363367E-03    0.3274564683E-04    0.2369657666E+00    0.6855832608E+00
    0.9000000000E+07    0.4433078716E+00    0.5217788682E-03    0.2858859122E-04    0.2370458757E+00    0.6856846742E+00
    0.1100000000E+08    0.4432642718E+00    0.4731800660E-03    0.2565271126E-04    0.2371085816E+00    0.6857569609E+00
    0.1300000000E+08    0.4432266126E+00    0.4361910590E-03    0.2344051121E-04    0.2371600738E+00    0.6858118356E+00
    0.1500000000E+08    0.4431935044E+00    0.4068120422E-03    0.2169812465E-04    0.2372037421E+00    0.6858553264E+00
    0.1700000000E+08    0.4431639797E+00    0.3827413147E-03    0.2028081506E-04    0.2372416428E+00    0.6858908936E+00
    0.1900000000E+08    0.4431373443E+00    0.3625478742E-03    0.1909929929E-04    0.2372751168E+00    0.6859206837E+00
    0.2100000000E+08    0.4431130856E+00    0.3452889075E-03    0.1809515022E-04    0.2373050869E+00    0.6859461086E+00
    0.2300000000E+08    0.4430908150E+00    0.3303145117E-03    0.1722833234E-04    0.2373322147E+00    0.6859681399E+00
    0.2500000000E+08    0.4430702317E+00    0.3171601452E-03    0.1647038122E-04    0.2373569911E+00    0.6859874711E+00
    0.2700000000E+08    0.4430510979E+00    0.3054837259E-03    0.1580043706E-04    0.2373797900E+00    0.6860046122E+00
