  Pressure (Pa) 22mC5-400 (mol/kg) 2mC6-400 (mol/kg) 33mC5-400 (mol/kg) 23mC5-400 (mol/kg) C7-400 (mol/kg)
    0.1000000000E+01    0.5296167107E-03    0.4716138292E-02    0.2560310435E-03    0.1859896195E-03    0.1182274563E-01
    0.3000000000E+01    0.1570318771E-02    0.1355408900E-01    0.7360693790E-03    0.5514645820E-03    0.3390239324E-01
    0.5000000000E+01    0.2587241790E-02    0.2168394900E-01    0.1177964205E-02    0.9085933602E-03    0.5412315360E-01
    0.7000000000E+01    0.3581440810E-02    0.2919197311E-01    0.1586371720E-02    0.1257746219E-02    0.7271897131E-01
    0.9000000000E+01    0.4553906764E-02    0.3615047505E-01    0.1965193820E-02    0.1599270927E-02    0.8988577059E-01
    0.1100000000E+02    0.5505571341E-02    0.4262057006E-01    0.2317726726E-02    0.1933494460E-02    0.1057888986E+00
    0.1300000000E+02    0.6437311422E-02    0.4865429233E-01    0.2646775701E-02    0.2260724564E-02    0.1205688844E+00
    0.1500000000E+02    0.7349953111E-02    0.5429624741E-01    0.2954744544E-02    0.2581251164E-02    0.1343459421E+00
    0.1700000000E+02    0.8244275417E-02    0.5958491466E-01    0.3243706104E-02    0.2895347657E-02    0.1472235267E+00
    0.1900000000E+02    0.9121013620E-02    0.6455368329E-01    0.3515458362E-02    0.3203272096E-02    0.1592911673E+00
    0.2100000000E+02    0.9980862343E-02    0.6923168369E-01    0.3771569403E-02    0.3505268265E-02    0.1706267435E+00
    0.2300000000E+02    0.1082447837E-01    0.7364445962E-01    0.4013413781E-02    0.3801566673E-02    0.1812983287E+00
    0.2500000000E+02    0.1165248325E-01    0.7781451604E-01    0.4242202137E-02    0.4092385455E-02    0.1913656935E+00
    0.2700000000E+02    0.1246546564E-01    0.8176176841E-01    0.4459005489E-02    0.4377931211E-02    0.2008815404E+00
    0.2900000000E+02    0.1326398351E-01    0.8550391392E-01    0.4664775286E-02    0.4658399769E-02    0.2098925236E+00
    0.3100000000E+02    0.1404856614E-01    0.8905673979E-01    0.4860360066E-02    0.4933976892E-02    0.2184400976E+00
    0.3300000000E+02    0.1481971599E-01    0.9243438096E-01    0.5046519370E-02    0.5204838927E-02    0.2265612257E+00
    0.3500000000E+02    0.1557791041E-01    0.9564953669E-01    0.5223935437E-02    0.5471153406E-02    0.2342889761E+00
    0.3700000000E+02    0.1632360319E-01    0.9871365341E-01    0.5393223065E-02    0.5733079599E-02    0.2416530247E+00
    0.3900000000E+02    0.1705722606E-01    0.1016370800E+00    0.5554937993E-02    0.5990769030E-02    0.2486800823E+00
    0.4100000000E+02    0.1777919001E-01    0.1044292000E+00    0.5709584034E-02    0.6244365946E-02    0.2553942581E+00
    0.4300000000E+02    0.1848988655E-01    0.1070985452E+00    0.5857619191E-02    0.6494007763E-02    0.2618173714E+00
    0.4500000000E+02    0.1918968891E-01    0.1096528930E+00    0.5999460904E-02    0.6739825468E-02    0.2679692190E+00
    0.4700000000E+02    0.1987895306E-01    0.1120993503E+00    0.6135490590E-02    0.6981944005E-02    0.2738678062E+00
    0.4900000000E+02    0.2055801875E-01    0.1144444270E+00    0.6266057572E-02    0.7220482617E-02    0.2795295462E+00
    0.1000000000E+02    0.5032283184E-02    0.3944312977E-01    0.2144560741E-02    0.1767275673E-02    0.9798598681E-01
    0.3000000000E+02    0.1365798471E-01    0.8730307237E-01    0.4763791392E-02    0.4796788525E-02    0.2142218287E+00
    0.5000000000E+02    0.2089382914E-01    0.1155808344E+00    0.6329393785E-02    0.7338445241E-02    0.2822763355E+00
    0.7000000000E+02    0.2714623729E-01    0.1342069442E+00    0.7374801001E-02    0.9534889005E-02    0.3278093398E+00
    0.9000000000E+02    0.3267156014E-01    0.1472604292E+00    0.8118854624E-02    0.1147609591E-01    0.3608587842E+00
    0.1100000000E+03    0.3764035675E-01    0.1567750051E+00    0.8670688909E-02    0.1322193228E-01    0.3861966297E+00
    0.1300000000E+03    0.4217104497E-01    0.1638948686E+00    0.9091779630E-02    0.1481396418E-01    0.4063987043E+00
    0.1500000000E+03    0.4634875356E-01    0.1693189211E+00    0.9419749836E-02    0.1628207373E-01    0.4229861722E+00
    0.1700000000E+03    0.5023647947E-01    0.1735002498E+00    0.9679049200E-02    0.1764837491E-01    0.4369197429E+00
    0.1900000000E+03    0.5388199777E-01    0.1767461521E+00    0.9886306888E-02    0.1892963874E-01    0.4488386168E+00
    0.2100000000E+03    0.5732230779E-01    0.1792725815E+00    0.1005324559E-01    0.2013885384E-01    0.4591861596E+00
    0.2300000000E+03    0.6058658884E-01    0.1812357238E+00    0.1018837238E-01    0.2128626384E-01    0.4682805447E+00
    0.2500000000E+03    0.6369822129E-01    0.1827512568E+00    0.1029801084E-01    0.2238007679E-01    0.4763566635E+00
    0.2700000000E+03    0.6667620302E-01    0.1839065911E+00    0.1038695775E-01    0.2342696230E-01    0.4835921269E+00
    0.2900000000E+03    0.6953616380E-01    0.1847689201E+00    0.1045891544E-01    0.2443240767E-01    0.4901240145E+00
    0.3100000000E+03    0.7229110601E-01    0.1853906686E+00    0.1051678487E-01    0.2540097783E-01    0.4960600180E+00
    0.3300000000E+03    0.7495195464E-01    0.1858132742E+00    0.1056286929E-01    0.2633650846E-01    0.5014860630E+00
    0.3500000000E+03    0.7752797232E-01    0.1860698684E+00    0.1059901892E-01    0.2724225162E-01    0.5064716518E+00
    0.3700000000E+03    0.8002707672E-01    0.1861872131E+00    0.1062673561E-01    0.2812098724E-01    0.5110736873E+00
    0.3900000000E+03    0.8245608646E-01    0.1861871239E+00    0.1064724990E-01    0.2897510935E-01    0.5153392650E+00
    0.4100000000E+03    0.8482091382E-01    0.1860875316E+00    0.1066157862E-01    0.2980669383E-01    0.5193077440E+00
    0.4300000000E+03    0.8712671738E-01    0.1859032839E+00    0.1067056843E-01    0.3061755194E-01    0.5230123085E+00
    0.4500000000E+03    0.8937802418E-01    0.1856467591E+00    0.1067492930E-01    0.3140927319E-01    0.5264811608E+00
    0.4700000000E+03    0.9157882820E-01    0.1853283409E+00    0.1067526038E-01    0.3218325998E-01    0.5297384439E+00
    0.4900000000E+03    0.9373267058E-01    0.1849567889E+00    0.1067207033E-01    0.3294075568E-01    0.5328049639E+00
    0.1000000000E+03    0.3521717138E-01    0.1523746984E+00    0.8414214028E-02    0.1237050350E-01    0.3742973018E+00
    0.3000000000E+03    0.7092603614E-01    0.1851070553E+00    0.1048945515E-01    0.2492104723E-01    0.4931606928E+00
    0.5000000000E+03    0.9479298037E-01    0.1847534543E+00    0.1066929310E-01    0.3331367023E-01    0.5342724203E+00
    0.7000000000E+03    0.1141453055E+00    0.1792110370E+00    0.1050670407E-01    0.4012093835E-01    0.5569448970E+00
    0.9000000000E+03    0.1309755771E+00    0.1725613905E+00    0.1024533137E-01    0.4604251316E-01    0.5718422473E+00
    0.1100000000E+04    0.1461180910E+00    0.1658270644E+00    0.9952807710E-02    0.5137135825E-01    0.5825963438E+00
    0.1300000000E+04    0.1600059557E+00    0.1593179170E+00    0.9653259591E-02    0.5625955914E-01    0.5908324101E+00
    0.1500000000E+04    0.1728958034E+00    0.1531280769E+00    0.9356546239E-02    0.6079722839E-01    0.5974023129E+00
    0.1700000000E+04    0.1849542260E+00    0.1472768198E+00    0.9066985486E-02    0.6504285865E-01    0.6028017714E+00
    0.1900000000E+04    0.1962969665E+00    0.1417559370E+00    0.8786487773E-02    0.6903708576E-01    0.6073416317E+00
    0.2100000000E+04    0.2070088422E+00    0.1365474374E+00    0.8515833412E-02    0.7280968576E-01    0.6112280864E+00
    0.2300000000E+04    0.2171547633E+00    0.1316305723E+00    0.8255243016E-02    0.7638344418E-01    0.6146040522E+00
    0.2500000000E+04    0.2267862294E+00    0.1269846730E+00    0.8004650358E-02    0.7977643800E-01    0.6175721493E+00
    0.2700000000E+04    0.2359453606E+00    0.1225902492E+00    0.7763839952E-02    0.8300345102E-01    0.6202082345E+00
    0.2900000000E+04    0.2446675002E+00    0.1184293461E+00    0.7532519323E-02    0.8607688820E-01    0.6225697616E+00
    0.3100000000E+04    0.2529829546E+00    0.1144855819E+00    0.7310358195E-02    0.8900738637E-01    0.6247011540E+00
    0.3300000000E+04    0.2609181871E+00    0.1107440572E+00    0.7097010247E-02    0.9180423369E-01    0.6266373768E+00
    0.3500000000E+04    0.2684966584E+00    0.1071912188E+00    0.6892125414E-02    0.9447566470E-01    0.6284063794E+00
    0.3700000000E+04    0.2757394307E+00    0.1038147157E+00    0.6695356901E-02    0.9702907231E-01    0.6300308089E+00
    0.3900000000E+04    0.2826656093E+00    0.1006032637E+00    0.6506365196E-02    0.9947116299E-01    0.6315292377E+00
    0.4100000000E+04    0.2892926722E+00    0.9754652418E-01    0.6324820330E-02    0.1018080724E+00    0.6329170611E+00
    0.4300000000E+04    0.2956367195E+00    0.9463499733E-01    0.6150403115E-02    0.1040454528E+00    0.6342071642E+00
    0.4500000000E+04    0.3017126656E+00    0.9185993052E-01    0.5982805764E-02    0.1061885408E+00    0.6354104244E+00
    0.4700000000E+04    0.3075343890E+00    0.8921323880E-01    0.5821732144E-02    0.1082422095E+00    0.6365360978E+00
    0.4900000000E+04    0.3131148522E+00    0.8668743665E-01    0.5666897797E-02    0.1102110109E+00    0.6375921166E+00
    0.1000000000E+04    0.1387250291E+00    0.1691775097E+00    0.1010094657E-01    0.4876951805E-01    0.5776095721E+00
    0.3000000000E+04    0.2488743303E+00    0.1164312861E+00    0.7420315268E-02    0.8755939649E-01    0.6236618506E+00
    0.5000000000E+04    0.3158184355E+00    0.8546767917E-01    0.5591734622E-02    0.1111649294E+00    0.6380961810E+00
    0.7000000000E+04    0.3598116460E+00    0.6597125796E-01    0.4355658450E-02    0.1266967346E+00    0.6457764858E+00
    0.9000000000E+04    0.3898291195E+00    0.5303240369E-01    0.3498738991E-02    0.1373080936E+00    0.6507090734E+00
    0.1100000000E+05    0.4110245089E+00    0.4406021297E-01    0.2886927362E-02    0.1448111189E+00    0.6542110926E+00
    0.1300000000E+05    0.4264740995E+00    0.3759616568E-01    0.2437157371E-02    0.1502882156E+00    0.6568590968E+00
    0.1500000000E+05    0.4380619493E+00    0.3278202903E-01    0.2097451338E-02    0.1544026931E+00    0.6589501832E+00
    0.1700000000E+05    0.4469749445E+00    0.2909251823E-01    0.1834592940E-02    0.1575726423E+00    0.6606547899E+00
    0.1900000000E+05    0.4539829953E+00    0.2619423232E-01    0.1626810208E-02    0.1600694155E+00    0.6620784822E+00
    0.2100000000E+05    0.4595999416E+00    0.2386841111E-01    0.1459456279E-02    0.1620742084E+00    0.6632905329E+00
    0.2300000000E+05    0.4641779726E+00    0.2196713824E-01    0.1322428258E-02    0.1637112791E+00    0.6643385015E+00
    0.2500000000E+05    0.4679644468E+00    0.2038766312E-01    0.1208593495E-02    0.1650679454E+00    0.6652562508E+00
    0.2700000000E+05    0.4711369908E+00    0.1905686245E-01    0.1112807763E-02    0.1662069434E+00    0.6660686242E+00
    0.2900000000E+05    0.4738257405E+00    0.1792155727E-01    0.1031288181E-02    0.1671742609E+00    0.6667943120E+00
    0.3100000000E+05    0.4761277821E+00    0.1694231325E-01    0.9612034763E-03    0.1680042252E+00    0.6674476780E+00
    0.3300000000E+05    0.4781167417E+00    0.1608937169E-01    0.9004004227E-03    0.1687228836E+00    0.6680399658E+00
    0.3500000000E+05    0.4798492892E+00    0.1533991763E-01    0.8472174732E-03    0.1693502960E+00    0.6685801184E+00
    0.3700000000E+05    0.4813696355E+00    0.1467620743E-01    0.8003554034E-03    0.1699021213E+00    0.6690753492E+00
    0.3900000000E+05    0.4827126976E+00    0.1408426078E-01    0.7587859553E-03    0.1703907342E+00    0.6695315493E+00
    0.4100000000E+05    0.4839063634E+00    0.1355293111E-01    0.7216862792E-03    0.1708260239E+00    0.6699535831E+00
    0.4300000000E+05    0.4849731362E+00    0.1307323429E-01    0.6883911904E-03    0.1712159755E+00    0.6703455075E+00
    0.4500000000E+05    0.4859313471E+00    0.1263785669E-01    0.6583579199E-03    0.1715670975E+00    0.6707107361E+00
    0.4700000000E+05    0.4867960583E+00    0.1224078982E-01    0.6311397599E-03    0.1718847413E+00    0.6710521648E+00
    0.4900000000E+05    0.4875797459E+00    0.1187705556E-01    0.6063661263E-03    0.1721733423E+00    0.6713722681E+00
    0.1000000000E+05    0.4013014853E+00    0.4816013584E-01    0.3168304954E-02    0.1413679088E+00    0.6525933963E+00
    0.3000000000E+05    0.4750200365E+00    0.1741447718E-01    0.9949644162E-03    0.1676046213E+00    0.6671292705E+00
    0.5000000000E+05    0.4879445283E+00    0.1170636174E-01    0.5947971869E-03    0.1723079337E+00    0.6715250000E+00
    0.7000000000E+05    0.4927906936E+00    0.9320281564E-02    0.4379477465E-03    0.1741176705E+00    0.6738491372E+00
    0.9000000000E+05    0.4952460562E+00    0.7971753433E-02    0.3547618623E-03    0.1750603500E+00    0.6753420363E+00
    0.1100000000E+06    0.4967068357E+00    0.7084163062E-02    0.3029517212E-03    0.1756375024E+00    0.6764042707E+00
    0.1300000000E+06    0.4976669424E+00    0.6444762358E-02    0.2673332478E-03    0.1760280710E+00    0.6772096542E+00
    0.1500000000E+06    0.4983421632E+00    0.5956118472E-02    0.2411669467E-03    0.1763109394E+00    0.6778473915E+00
    0.1700000000E+06    0.4988408191E+00    0.5566897226E-02    0.2210128509E-03    0.1765260744E+00    0.6783685872E+00
    0.1900000000E+06    0.4992229248E+00    0.5247261017E-02    0.2049317393E-03    0.1766958310E+00    0.6788048994E+00
    0.2100000000E+06    0.4995242806E+00    0.4978561648E-02    0.1917460731E-03    0.1768336744E+00    0.6791771231E+00
    0.2300000000E+06    0.4997675050E+00    0.4748476273E-02    0.1806983706E-03    0.1769481956E+00    0.6794995561E+00
    0.2500000000E+06    0.4999675595E+00    0.4548494875E-02    0.1712784038E-03    0.1770451343E+00    0.6797823955E+00
    0.2700000000E+06    0.5001347201E+00    0.4372526883E-02    0.1631293298E-03    0.1771284722E+00    0.6800331352E+00
    0.2900000000E+06    0.5002762693E+00    0.4216082841E-02    0.1559936626E-03    0.1772010595E+00    0.6802574231E+00
    0.3100000000E+06    0.5003975063E+00    0.4075770565E-02    0.1496806472E-03    0.1772649916E+00    0.6804596069E+00
    0.3300000000E+06    0.5005023762E+00    0.3948972405E-02    0.1440457474E-03    0.1773218442E+00    0.6806430954E+00
    0.3500000000E+06    0.5005938742E+00    0.3833631434E-02    0.1389772948E-03    0.1773728255E+00    0.6808106041E+00
    0.3700000000E+06    0.5006743139E+00    0.3728105645E-02    0.1343875387E-03    0.1774188787E+00    0.6809643264E+00
    0.3900000000E+06    0.5007455096E+00    0.3631065989E-02    0.1302064858E-03    0.1774607508E+00    0.6811060563E+00
    0.4100000000E+06    0.5008089035E+00    0.3541423479E-02    0.1263775638E-03    0.1774990416E+00    0.6812372769E+00
    0.4300000000E+06    0.5008656560E+00    0.3458276048E-02    0.1228545055E-03    0.1775342387E+00    0.6813592265E+00
    0.4500000000E+06    0.5009167108E+00    0.3380869130E-02    0.1195990686E-03    0.1775667427E+00    0.6814729486E+00
    0.4700000000E+06    0.5009628432E+00    0.3308565959E-02    0.1165793413E-03    0.1775968859E+00    0.6815793289E+00
    0.4900000000E+06    0.5010046954E+00    0.3240824872E-02    0.1137684625E-03    0.1776249465E+00    0.6816791255E+00
    0.1000000000E+06    0.4960598951E+00    0.7487742354E-02    0.3261865155E-03    0.1753798414E+00    0.6759132467E+00
    0.3000000000E+06    0.5003391540E+00    0.4144089074E-02    0.1527442571E-03    0.1772339989E+00    0.6803610463E+00
    0.5000000000E+06    0.5010241878E+00    0.3208517442E-02    0.1124340827E-03    0.1776382707E+00    0.6817267624E+00
    0.7000000000E+06    0.5012827316E+00    0.2717568529E-02    0.9263793726E-04    0.1778370221E+00    0.6824533101E+00
    0.9000000000E+06    0.5014106506E+00    0.2402271837E-02    0.8038496491E-04    0.1779626378E+00    0.6829216417E+00
    0.1100000000E+07    0.5014828806E+00    0.2177614797E-02    0.7186570430E-04    0.1780524687E+00    0.6832556509E+00
    0.1300000000E+07    0.5015267862E+00    0.2006977529E-02    0.6550995302E-04    0.1781215739E+00    0.6835093278E+00
    0.1500000000E+07    0.5015546003E+00    0.1871616865E-02    0.6053807017E-04    0.1781773439E+00    0.6837104640E+00
    0.1700000000E+07    0.5015725527E+00    0.1760803603E-02    0.5651374158E-04    0.1782238940E+00    0.6838750172E+00
    0.1900000000E+07    0.5015841205E+00    0.1667890668E-02    0.5317140477E-04    0.1782637278E+00    0.6840128902E+00
    0.2100000000E+07    0.5015913810E+00    0.1588509471E-02    0.5033902252E-04    0.1782984710E+00    0.6841305975E+00
    0.2300000000E+07    0.5015956419E+00    0.1519654080E-02    0.4789963538E-04    0.1783292343E+00    0.6842326235E+00
    0.2500000000E+07    0.5015977615E+00    0.1459178809E-02    0.4577060843E-04    0.1783568073E+00    0.6843221697E+00
    0.2700000000E+07    0.5015983226E+00    0.1405505254E-02    0.4389169334E-04    0.1783817701E+00    0.6844015912E+00
    0.2900000000E+07    0.5015977320E+00    0.1357442790E-02    0.4221779860E-04    0.1784045603E+00    0.6844726643E+00
    0.3100000000E+07    0.5015962805E+00    0.1314073986E-02    0.4071442103E-04    0.1784255158E+00    0.6845367573E+00
    0.3300000000E+07    0.5015941800E+00    0.1274678878E-02    0.3935465356E-04    0.1784449028E+00    0.6845949438E+00
    0.3500000000E+07    0.5015915877E+00    0.1238683437E-02    0.3811716498E-04    0.1784629340E+00    0.6846480793E+00
    0.3700000000E+07    0.5015886217E+00    0.1205623575E-02    0.3698479915E-04    0.1784797825E+00    0.6846968556E+00
    0.3900000000E+07    0.5015853720E+00    0.1175119452E-02    0.3594358144E-04    0.1784955905E+00    0.6847418383E+00
    0.4100000000E+07    0.5015819079E+00    0.1146856762E-02    0.3498199933E-04    0.1785104764E+00    0.6847834954E+00
    0.4300000000E+07    0.5015782833E+00    0.1120572867E-02    0.3409047220E-04    0.1785245398E+00    0.6848222180E+00
    0.4500000000E+07    0.5015745403E+00    0.1096046350E-02    0.3326095417E-04    0.1785378651E+00    0.6848583355E+00
    0.4700000000E+07    0.5015707121E+00    0.1073089051E-02    0.3248663235E-04    0.1785505245E+00    0.6848921278E+00
    0.4900000000E+07    0.5015668251E+00    0.1051539903E-02    0.3176169443E-04    0.1785625803E+00    0.6849238343E+00
    0.1000000000E+07    0.5014514773E+00    0.2281511156E-02    0.7578403416E-04    0.1780108187E+00    0.6831011727E+00
    0.3000000000E+07    0.5015970991E+00    0.1335220610E-02    0.4144662753E-04    0.1784152493E+00    0.6845055103E+00
    0.5000000000E+07    0.5015648662E+00    0.1041249250E-02    0.3141615629E-04    0.1785683990E+00    0.6849389711E+00
    0.7000000000E+07    0.5015259073E+00    0.8839306267E-03    0.2618803383E-04    0.1786631055E+00    0.6851699854E+00
    0.9000000000E+07    0.5014903126E+00    0.7821309836E-03    0.2286258667E-04    0.1787315875E+00    0.6853190452E+00
    0.1100000000E+08    0.5014587526E+00    0.7093229779E-03    0.2051446547E-04    0.1787851825E+00    0.6854254216E+00
    0.1300000000E+08    0.5014307109E+00    0.6539035080E-03    0.1874532800E-04    0.1788291880E+00    0.6855062501E+00
    0.1500000000E+08    0.5014055889E+00    0.6098828222E-03    0.1735199395E-04    0.1788665041E+00    0.6855703593E+00
    0.1700000000E+08    0.5013828806E+00    0.5738138400E-03    0.1621865621E-04    0.1788988896E+00    0.6856228220E+00
    0.1900000000E+08    0.5013621838E+00    0.5435533132E-03    0.1527389031E-04    0.1789274913E+00    0.6856667877E+00
    0.2100000000E+08    0.5013431818E+00    0.5176890798E-03    0.1447096193E-04    0.1789530980E+00    0.6857043292E+00
    0.2300000000E+08    0.5013256234E+00    0.4952476513E-03    0.1377785071E-04    0.1789762756E+00    0.6857368739E+00
    0.2500000000E+08    0.5013093080E+00    0.4755331564E-03    0.1317179238E-04    0.1789974436E+00    0.6857654411E+00
    0.2700000000E+08    0.5012940728E+00    0.4580331426E-03    0.1263610534E-04    0.1790169217E+00    0.6857907808E+00
