  Pressure (Pa) 22mC5-400 (mol/kg) 2mC6-400 (mol/kg) 33mC5-400 (mol/kg) 23mC5-400 (mol/kg) C7-400 (mol/kg)
    0.1000000000E+01    0.1059703933E-02    0.2392353903E-02    0.2597089218E-03    0.9303617615E-03    0.1719163932E-02
    0.3000000000E+01    0.3144701305E-02    0.7066647448E-02    0.7671231909E-03    0.2760895884E-02    0.5099531509E-02
    0.5000000000E+01    0.5185320736E-02    0.1159881795E-01    0.1259085966E-02    0.4552495664E-02    0.8404938249E-02
    0.7000000000E+01    0.7183281485E-02    0.1599469491E-01    0.1736230176E-02    0.6306669249E-02    0.1163805005E-01
    0.9000000000E+01    0.9140212499E-02    0.2025980046E-01    0.2199155404E-02    0.8024845574E-02    0.1480140570E-01
    0.1100000000E+02    0.1105765828E-01    0.2439936919E-01    0.2648430032E-02    0.9708379503E-02    0.1789742442E-01
    0.1300000000E+02    0.1293708431E-01    0.2841836643E-01    0.3084593226E-02    0.1135855659E-01    0.2092841284E-01
    0.1500000000E+02    0.1477988206E-01    0.3232150518E-01    0.3508156772E-02    0.1297659747E-01    0.2389657156E-01
    0.1700000000E+02    0.1658737360E-01    0.3611326175E-01    0.3919606772E-02    0.1456366190E-01    0.2680400116E-01
    0.1900000000E+02    0.1836081593E-01    0.3979789029E-01    0.4319405221E-02    0.1612085258E-01    0.2965270787E-01
    0.2100000000E+02    0.2010140491E-01    0.4337943628E-01    0.4707991471E-02    0.1764921855E-01    0.3244460887E-01
    0.2300000000E+02    0.2181027898E-01    0.4686174903E-01    0.5085783582E-02    0.1914975851E-01    0.3518153717E-01
    0.2500000000E+02    0.2348852257E-01    0.5024849330E-01    0.5453179587E-02    0.2062342376E-01    0.3786524624E-01
    0.2700000000E+02    0.2513716927E-01    0.5354316009E-01    0.5810558666E-02    0.2207112104E-01    0.4049741428E-01
    0.2900000000E+02    0.2675720482E-01    0.5674907675E-01    0.6158282233E-02    0.2349371508E-01    0.4307964827E-01
    0.3100000000E+02    0.2834956984E-01    0.5986941634E-01    0.6496694957E-02    0.2489203106E-01    0.4561348772E-01
    0.3300000000E+02    0.2991516240E-01    0.6290720635E-01    0.6826125713E-02    0.2626685682E-01    0.4810040820E-01
    0.3500000000E+02    0.3145484042E-01    0.6586533692E-01    0.7146888460E-02    0.2761894498E-01    0.5054182464E-01
    0.3700000000E+02    0.3296942391E-01    0.6874656839E-01    0.7459283074E-02    0.2894901492E-01    0.5293909447E-01
    0.3900000000E+02    0.3445969704E-01    0.7155353846E-01    0.7763596120E-02    0.3025775457E-01    0.5529352050E-01
    0.4100000000E+02    0.3592641008E-01    0.7428876886E-01    0.8060101570E-02    0.3154582214E-01    0.5760635367E-01
    0.4300000000E+02    0.3737028128E-01    0.7695467156E-01    0.8349061486E-02    0.3281384772E-01    0.5987879562E-01
    0.4500000000E+02    0.3879199851E-01    0.7955355463E-01    0.8630726648E-02    0.3406243478E-01    0.6211200112E-01
    0.4700000000E+02    0.4019222089E-01    0.8208762768E-01    0.8905337152E-02    0.3529216156E-01    0.6430708037E-01
    0.4900000000E+02    0.4157158030E-01    0.8455900704E-01    0.9173122963E-02    0.3650358240E-01    0.6646510111E-01
    0.1000000000E+02    0.1010377766E-01    0.2234496049E-01    0.2425464682E-02    0.8870860919E-02    0.1635768545E-01
    0.3000000000E+02    0.2755678905E-01    0.5831975114E-01    0.6328631536E-02    0.2419585774E-01    0.4435252363E-01
    0.5000000000E+02    0.4225362675E-01    0.8577182362E-01    0.9304525832E-02    0.3710259509E-01    0.6753053710E-01
    0.7000000000E+02    0.5493422143E-01    0.1071873330E+00    0.1162325665E-01    0.4824019863E-01    0.8712405290E-01
    0.9000000000E+02    0.6608618297E-01    0.1241889782E+00    0.1346119553E-01    0.5803645576E-01    0.1039716224E+00
    0.1100000000E+03    0.7604455611E-01    0.1378781991E+00    0.1493810980E-01    0.6678531674E-01    0.1186645134E+00
    0.1300000000E+03    0.8504765593E-01    0.1490272094E+00    0.1613800550E-01    0.7469587313E-01    0.1316321767E+00
    0.1500000000E+03    0.9327000401E-01    0.1581923211E+00    0.1712143019E-01    0.8192125001E-01    0.1431944579E+00
    0.1700000000E+03    0.1008426269E+00    0.1657836930E+00    0.1793304660E-01    0.8857641281E-01    0.1535947523E+00
    0.1900000000E+03    0.1078660392E+00    0.1721098190E+00    0.1860646451E-01    0.9474955725E-01    0.1630217671E+00
    0.2100000000E+03    0.1144188176E+00    0.1774067887E+00    0.1916741943E-01    0.1005096310E+00    0.1716242184E+00
    0.2300000000E+03    0.1205634214E+00    0.1818580531E+00    0.1963592027E-01    0.1059114404E+00    0.1795210096E+00
    0.2500000000E+03    0.1263502414E+00    0.1856080929E+00    0.2002773486E-01    0.1109992029E+00    0.1868084345E+00
    0.2700000000E+03    0.1318204779E+00    0.1887720679E+00    0.2035543889E-01    0.1158090716E+00    0.1935653775E+00
    0.2900000000E+03    0.1370082249E+00    0.1914427568E+00    0.2062917045E-01    0.1203709644E+00    0.1998571328E+00
    0.3100000000E+03    0.1419420065E+00    0.1936956304E+00    0.2085718186E-01    0.1247099120E+00    0.2057382535E+00
    0.3300000000E+03    0.1466459266E+00    0.1955926178E+00    0.2104624930E-01    0.1288470660E+00    0.2112547083E+00
    0.3500000000E+03    0.1511405411E+00    0.1971849388E+00    0.2120198105E-01    0.1328004652E+00    0.2164455343E+00
    0.3700000000E+03    0.1554435290E+00    0.1985152617E+00    0.2132905236E-01    0.1365856238E+00    0.2213441195E+00
    0.3900000000E+03    0.1595702134E+00    0.1996193647E+00    0.2143138633E-01    0.1402159886E+00    0.2259792077E+00
    0.4100000000E+03    0.1635339717E+00    0.2005274300E+00    0.2151229480E-01    0.1437032993E+00    0.2303756951E+00
    0.4300000000E+03    0.1673465611E+00    0.2012650591E+00    0.2157458905E-01    0.1470578735E+00    0.2345552661E+00
    0.4500000000E+03    0.1710183787E+00    0.2018540791E+00    0.2162066760E-01    0.1502888356E+00    0.2385369064E+00
    0.4700000000E+03    0.1745586725E+00    0.2023131864E+00    0.2165258642E-01    0.1534043016E+00    0.2423373193E+00
    0.4900000000E+03    0.1779757125E+00    0.2026584647E+00    0.2167211541E-01    0.1564115292E+00    0.2459712670E+00
    0.1000000000E+03    0.7119787180E-01    0.1313932641E+00    0.1423886611E-01    0.6252716201E-01    0.1115574996E+00
    0.3000000000E+03    0.1395052627E+00    0.1926172696E+00    0.2074843709E-01    0.1225669034E+00    0.2028459697E+00
    0.5000000000E+03    0.1796403646E+00    0.2027928350E+00    0.2167772007E-01    0.1578766180E+00    0.2477299687E+00
    0.7000000000E+03    0.2079331827E+00    0.2020355378E+00    0.2141841748E-01    0.1827865294E+00    0.2766838601E+00
    0.9000000000E+03    0.2292712199E+00    0.1982308468E+00    0.2084000251E-01    0.2015862222E+00    0.2978442814E+00
    0.1100000000E+04    0.2459557478E+00    0.1936418791E+00    0.2019260164E-01    0.2162958470E+00    0.3144425179E+00
    0.1300000000E+04    0.2593201629E+00    0.1890253026E+00    0.1955897075E-01    0.2280862170E+00    0.3280627902E+00
    0.1500000000E+04    0.2702236127E+00    0.1846407703E+00    0.1896630353E-01    0.2377119355E+00    0.3395920483E+00
    0.1700000000E+04    0.2792541528E+00    0.1805651033E+00    0.1842135750E-01    0.2456896488E+00    0.3495745107E+00
    0.1900000000E+04    0.2868301405E+00    0.1768048823E+00    0.1792314410E-01    0.2523870149E+00    0.3583672670E+00
    0.2100000000E+04    0.2932575091E+00    0.1733403902E+00    0.1746790389E-01    0.2580729655E+00    0.3662169262E+00
    0.2300000000E+04    0.2987648085E+00    0.1701435625E+00    0.1705113454E-01    0.2629484617E+00    0.3733008022E+00
    0.2500000000E+04    0.3035258123E+00    0.1671853772E+00    0.1666841310E-01    0.2671663402E+00    0.3797505995E+00
    0.2700000000E+04    0.3076746592E+00    0.1644387604E+00    0.1631570461E-01    0.2708446084E+00    0.3856667989E+00
    0.2900000000E+04    0.3113162825E+00    0.1618795486E+00    0.1598944917E-01    0.2740756037E+00    0.3911277965E+00
    0.3100000000E+04    0.3145337554E+00    0.1594866180E+00    0.1568655539E-01    0.2769324458E+00    0.3961959314E+00
    0.3300000000E+04    0.3173935615E+00    0.1572416751E+00    0.1540435760E-01    0.2794736670E+00    0.4009215901E+00
    0.3500000000E+04    0.3199494372E+00    0.1551289311E+00    0.1514056233E-01    0.2817465884E+00    0.4053460793E+00
    0.3700000000E+04    0.3222452122E+00    0.1531347606E+00    0.1489319541E-01    0.2837898168E+00    0.4095036844E+00
    0.3900000000E+04    0.3243169376E+00    0.1512473828E+00    0.1466055395E-01    0.2856351152E+00    0.4134231760E+00
    0.4100000000E+04    0.3261944976E+00    0.1494565812E+00    0.1444116462E-01    0.2873088197E+00    0.4171289330E+00
    0.4300000000E+04    0.3279028441E+00    0.1477534640E+00    0.1423374817E-01    0.2888329249E+00    0.4206417935E+00
    0.4500000000E+04    0.3294629512E+00    0.1461302614E+00    0.1403718956E-01    0.2902259239E+00    0.4239797087E+00
    0.4700000000E+04    0.3308925602E+00    0.1445801563E+00    0.1385051309E-01    0.2915034632E+00    0.4271582529E+00
    0.4900000000E+04    0.3322067664E+00    0.1430971424E+00    0.1367286152E-01    0.2926788589E+00    0.4301910252E+00
    0.1000000000E+04    0.2380971641E+00    0.1959692150E+00    0.2051775544E-01    0.2093662424E+00    0.3065917921E+00
    0.3000000000E+04    0.3129735444E+00    0.1606635043E+00    0.1583525804E-01    0.2755468384E+00    0.3937075809E+00
    0.5000000000E+04    0.3328247037E+00    0.1423791101E+00    0.1358718026E-01    0.2932318797E+00    0.4316565368E+00
    0.7000000000E+04    0.3414512734E+00    0.1305250248E+00    0.1220375218E-01    0.3009835239E+00    0.4555770355E+00
    0.9000000000E+04    0.3461682642E+00    0.1218284896E+00    0.1122480680E-01    0.3052606848E+00    0.4727834340E+00
    0.1100000000E+05    0.3491105355E+00    0.1150064217E+00    0.1047666035E-01    0.3079537080E+00    0.4860680984E+00
    0.1300000000E+05    0.3511085451E+00    0.1094256506E+00    0.9876678299E-02    0.3098000559E+00    0.4967942130E+00
    0.1500000000E+05    0.3525480661E+00    0.1047265394E+00    0.9379376172E-02    0.3111433128E+00    0.5057276557E+00
    0.1700000000E+05    0.3536313425E+00    0.1006849467E+00    0.8957141559E-02    0.3121641477E+00    0.5133403836E+00
    0.1900000000E+05    0.3544741422E+00    0.9715169591E-01    0.8591996994E-02    0.3129662954E+00    0.5199430437E+00
    0.2100000000E+05    0.3551473109E+00    0.9402252011E-01    0.8271608433E-02    0.3136134355E+00    0.5257504989E+00
    0.2300000000E+05    0.3556965411E+00    0.9122172029E-01    0.7987162182E-02    0.3141467677E+00    0.5309172323E+00
    0.2500000000E+05    0.3561525778E+00    0.8869264226E-01    0.7732151806E-02    0.3145941027E+00    0.5355578310E+00
    0.2700000000E+05    0.3565368435E+00    0.8639181609E-01    0.7501644494E-02    0.3149748802E+00    0.5397594968E+00
    0.2900000000E+05    0.3568647078E+00    0.8428518677E-01    0.7291816480E-02    0.3153030927E+00    0.5435900331E+00
    0.3100000000E+05    0.3571474758E+00    0.8234559965E-01    0.7099647394E-02    0.3155890657E+00    0.5471031321E+00
    0.3300000000E+05    0.3573936423E+00    0.8055107076E-01    0.6922712609E-02    0.3158405836E+00    0.5503419871E+00
    0.3500000000E+05    0.3576097109E+00    0.7888356534E-01    0.6759038242E-02    0.3160636256E+00    0.5533418251E+00
    0.3700000000E+05    0.3578007424E+00    0.7732811561E-01    0.6606997478E-02    0.3162628598E+00    0.5561317246E+00
    0.3900000000E+05    0.3579707324E+00    0.7587217069E-01    0.6465234882E-02    0.3164419841E+00    0.5587359464E+00
    0.4100000000E+05    0.3581228764E+00    0.7450510928E-01    0.6332610140E-02    0.3166039655E+00    0.5611749259E+00
    0.4300000000E+05    0.3582597593E+00    0.7321786857E-01    0.6208155542E-02    0.3167512126E+00    0.5634660245E+00
    0.4500000000E+05    0.3583834943E+00    0.7200265770E-01    0.6091043401E-02    0.3168857007E+00    0.5656241061E+00
    0.4700000000E+05    0.3584958255E+00    0.7085273379E-01    0.5980560739E-02    0.3170090655E+00    0.5676619865E+00
    0.4900000000E+05    0.3585982042E+00    0.6976222485E-01    0.5876089406E-02    0.3171226730E+00    0.5695907864E+00
    0.1000000000E+05    0.3477937425E+00    0.1182316795E+00    0.1082827882E-01    0.3067453203E+00    0.4798111781E+00
    0.3000000000E+05    0.3570111433E+00    0.8329599182E-01    0.7193688131E-02    0.3154508232E+00    0.5453833504E+00
    0.5000000000E+05    0.3586460497E+00    0.6923761872E-01    0.5825936790E-02    0.3171761842E+00    0.5705173632E+00
    0.7000000000E+05    0.3592936632E+00    0.6089644935E-01    0.5037677235E-02    0.3179367209E+00    0.5851394949E+00
    0.9000000000E+05    0.3596288516E+00    0.5515945411E-01    0.4505605164E-02    0.3183747379E+00    0.5950810686E+00
    0.1100000000E+06    0.3598277701E+00    0.5088131886E-01    0.4114307444E-02    0.3186643267E+00    0.6024365093E+00
    0.1300000000E+06    0.3599559765E+00    0.4752241915E-01    0.3810456005E-02    0.3188726768E+00    0.6081779558E+00
    0.1500000000E+06    0.3600432166E+00    0.4478898702E-01    0.3565435223E-02    0.3190313875E+00    0.6128290669E+00
    0.1700000000E+06    0.3601048411E+00    0.4250494050E-01    0.3362288448E-02    0.3191573567E+00    0.6167012130E+00
    0.1900000000E+06    0.3601495252E+00    0.4055717744E-01    0.3190226887E-02    0.3192604795E+00    0.6199931269E+00
    0.2100000000E+06    0.3601825158E+00    0.3886914746E-01    0.3042007358E-02    0.3193469567E+00    0.6228386160E+00
    0.2300000000E+06    0.3602071577E+00    0.3738686908E-01    0.2912558128E-02    0.3194208843E+00    0.6253316249E+00
    0.2500000000E+06    0.3602256748E+00    0.3607099517E-01    0.2798205505E-02    0.3194850839E+00    0.6275403732E+00
    0.2700000000E+06    0.3602395971E+00    0.3489205254E-01    0.2696213135E-02    0.3195415677E+00    0.6295157945E+00
    0.2900000000E+06    0.3602500081E+00    0.3382745312E-01    0.2604494574E-02    0.3195918123E+00    0.6312968118E+00
    0.3100000000E+06    0.3602576935E+00    0.3285954501E-01    0.2521426927E-02    0.3196369280E+00    0.6329137644E+00
    0.3300000000E+06    0.3602632352E+00    0.3197430014E-01    0.2445726011E-02    0.3196777675E+00    0.6343907079E+00
    0.3500000000E+06    0.3602670718E+00    0.3116040608E-01    0.2376360371E-02    0.3197149971E+00    0.6357470006E+00
    0.3700000000E+06    0.3602695391E+00    0.3040862220E-01    0.2312490587E-02    0.3197491461E+00    0.6369984257E+00
    0.3900000000E+06    0.3602708978E+00    0.2971131381E-01    0.2253425529E-02    0.3197806410E+00    0.6381580006E+00
    0.4100000000E+06    0.3602713526E+00    0.2906210852E-01    0.2198590229E-02    0.3198098295E+00    0.6392365734E+00
    0.4300000000E+06    0.3602710662E+00    0.2845563876E-01    0.2147501873E-02    0.3198369982E+00    0.6402432679E+00
    0.4500000000E+06    0.3602701689E+00    0.2788734590E-01    0.2099751609E-02    0.3198623859E+00    0.6411858223E+00
    0.4700000000E+06    0.3602687662E+00    0.2735332928E-01    0.2054990566E-02    0.3198861934E+00    0.6420708495E+00
    0.4900000000E+06    0.3602669440E+00    0.2685022832E-01    0.2012918971E-02    0.3199085908E+00    0.6429040399E+00
    0.1000000000E+06    0.3597399774E+00    0.5287991013E-01    0.4296517010E-02    0.3185326360E+00    0.5990063529E+00
    0.3000000000E+06    0.3602541512E+00    0.3333236214E-01    0.2561966429E-02    0.3196149529E+00    0.6321241668E+00
    0.5000000000E+06    0.3602658981E+00    0.2660934546E-01    0.1992809320E-02    0.3199193068E+00    0.6433027623E+00
    0.7000000000E+06    0.3602347995E+00    0.2287559836E-01    0.1684046029E-02    0.3200858210E+00    0.6494660118E+00
    0.9000000000E+06    0.3601977938E+00    0.2040750422E-01    0.1483186514E-02    0.3201981501E+00    0.6535224424E+00
    0.1100000000E+07    0.3601617737E+00    0.1861677464E-01    0.1339219934E-02    0.3202821895E+00    0.6564567488E+00
    0.1300000000E+07    0.3601282307E+00    0.1723926847E-01    0.1229562813E-02    0.3203490445E+00    0.6587088323E+00
    0.1500000000E+07    0.3600973327E+00    0.1613610257E-01    0.1142470394E-02    0.3204044241E+00    0.6605091573E+00
    0.1700000000E+07    0.3600688925E+00    0.1522623122E-01    0.1071150457E-02    0.3204516272E+00    0.6619918400E+00
    0.1900000000E+07    0.3600426431E+00    0.1445870477E-01    0.1011365638E-02    0.3204927228E+00    0.6632410057E+00
    0.2100000000E+07    0.3600183215E+00    0.1379964800E-01    0.9603173526E-03    0.3205290901E+00    0.6643124838E+00
    0.2300000000E+07    0.3599956927E+00    0.1322553050E-01    0.9160731056E-03    0.3205616922E+00    0.6652449939E+00
    0.2500000000E+07    0.3599745539E+00    0.1271942233E-01    0.8772498491E-03    0.3205912277E+00    0.6660663564E+00
    0.2700000000E+07    0.3599547321E+00    0.1226878525E-01    0.8428282255E-03    0.3206182185E+00    0.6667971504E+00
    0.2900000000E+07    0.3599360801E+00    0.1186410597E-01    0.8120382145E-03    0.3206430646E+00    0.6674529737E+00
    0.3100000000E+07    0.3599184726E+00    0.1149801646E-01    0.7842858576E-03    0.3206660792E+00    0.6680458950E+00
    0.3300000000E+07    0.3599018022E+00    0.1116470835E-01    0.7591046899E-03    0.3206875120E+00    0.6685854205E+00
    0.3500000000E+07    0.3598859768E+00    0.1085953177E-01    0.7361226005E-03    0.3207075649E+00    0.6690791539E+00
    0.3700000000E+07    0.3598709167E+00    0.1057871374E-01    0.7150386451E-03    0.3207264040E+00    0.6695332609E+00
    0.3900000000E+07    0.3598565526E+00    0.1031915595E-01    0.6956064615E-03    0.3207441670E+00    0.6699528012E+00
    0.4100000000E+07    0.3598428241E+00    0.1007828692E-01    0.6776221761E-03    0.3207609696E+00    0.6703419714E+00
    0.4300000000E+07    0.3598296782E+00    0.9853951909E-02    0.6609154303E-03    0.3207769098E+00    0.6707042863E+00
    0.4500000000E+07    0.3598170679E+00    0.9644329763E-02    0.6453426188E-03    0.3207920716E+00    0.6710427146E+00
    0.4700000000E+07    0.3598049520E+00    0.9447869208E-02    0.6307817241E-03    0.3208065270E+00    0.6713597840E+00
    0.4900000000E+07    0.3597932934E+00    0.9263239407E-02    0.6171283183E-03    0.3208203389E+00    0.6716576621E+00
    0.1000000000E+07    0.3601795153E+00    0.1944819339E-01    0.1405869359E-02    0.3202428276E+00    0.6550953078E+00
    0.3000000000E+07    0.3599271529E+00    0.1167663167E-01    0.7978140240E-03    0.3206547840E+00    0.6677566518E+00
    0.5000000000E+07    0.3597876251E+00    0.9174995714E-02    0.6106133158E-03    0.3208270208E+00    0.6717999991E+00
    0.7000000000E+07    0.3596918545E+00    0.7819961429E-02    0.5114813060E-03    0.3209371276E+00    0.6739828725E+00
    0.9000000000E+07    0.3596189397E+00    0.6937153916E-02    0.4478923419E-03    0.3210181802E+00    0.6754020830E+00
    0.1100000000E+08    0.3595600654E+00    0.6302899646E-02    0.4027470739E-03    0.3210823430E+00    0.6764202039E+00
    0.1300000000E+08    0.3595106933E+00    0.5818528089E-02    0.3686015426E-03    0.3211354523E+00    0.6771968356E+00
    0.1500000000E+08    0.3594681804E+00    0.5432803054E-02    0.3416302669E-03    0.3211807620E+00    0.6778147221E+00
    0.1700000000E+08    0.3594308522E+00    0.5116108014E-02    0.3196408529E-03    0.3212202720E+00    0.6783216331E+00
    0.1900000000E+08    0.3593975808E+00    0.4849964598E-02    0.3012754022E-03    0.3212553002E+00    0.6787473430E+00
    0.2100000000E+08    0.3593675704E+00    0.4622163069E-02    0.2856423955E-03    0.3212867606E+00    0.6791115083E+00
    0.2300000000E+08    0.3593402386E+00    0.4424266535E-02    0.2721292882E-03    0.3213153135E+00    0.6794277018E+00
    0.2500000000E+08    0.3593151463E+00    0.4250231902E-02    0.2602995723E-03    0.3213414514E+00    0.6797056387E+00
    0.2700000000E+08    0.3592919540E+00    0.4095601108E-02    0.2498327264E-03    0.3213655511E+00    0.6799524820E+00
