  Pressure (Pa) 22mC5-400 (mol/kg) 2mC6-400 (mol/kg) 33mC5-400 (mol/kg) 23mC5-400 (mol/kg) C7-400 (mol/kg)
    0.1000000000E+01    0.1061626248E-02    0.7928762616E-03    0.2582464336E-03    0.7456388408E-03    0.8526811377E-02
    0.3000000000E+01    0.3161599541E-02    0.2316111729E-02    0.7545231126E-03    0.2220579036E-02    0.2489993011E-01
    0.5000000000E+01    0.5231180317E-02    0.3761243891E-02    0.1225547622E-02    0.3674189497E-02    0.4042534389E-01
    0.7000000000E+01    0.7271121335E-02    0.5134014657E-02    0.1673180752E-02    0.5106998417E-02    0.5516817444E-01
    0.9000000000E+01    0.9282150106E-02    0.6439597030E-02    0.2099098393E-02    0.6519516280E-02    0.6918701569E-01
    0.1100000000E+02    0.1126496995E-01    0.7682664933E-02    0.2504814267E-02    0.7912236591E-02    0.8253473250E-01
    0.1300000000E+02    0.1322026097E-01    0.8867452968E-02    0.2891699384E-02    0.9285636576E-02    0.9525914493E-01
    0.1500000000E+02    0.1514868103E-01    0.9997807740E-02    0.3260998747E-02    0.1064017785E-01    0.1074036166E+00
    0.1700000000E+02    0.1705086663E-01    0.1107723212E-01    0.3613845757E-02    0.1197630703E-01    0.1190075629E+00
    0.1900000000E+02    0.1892743377E-01    0.1210892354E-01    0.3951274675E-02    0.1329445637E-01    0.1301068904E+00
    0.2100000000E+02    0.2077897877E-01    0.1309580728E-01    0.4274231441E-02    0.1459504431E-01    0.1407343800E+00
    0.2300000000E+02    0.2260607905E-01    0.1404056541E-01    0.4583583099E-02    0.1587847602E-01    0.1509200198E+00
    0.2500000000E+02    0.2440929388E-01    0.1494566213E-01    0.4880126033E-02    0.1714514393E-01    0.1606912968E+00
    0.2700000000E+02    0.2618916504E-01    0.1581336598E-01    0.5164593182E-02    0.1839542824E-01    0.1700734532E+00
    0.2900000000E+02    0.2794621759E-01    0.1664576933E-01    0.5437660386E-02    0.1962969736E-01    0.1790897107E+00
    0.3100000000E+02    0.2968096040E-01    0.1744480561E-01    0.5699951971E-02    0.2084830837E-01    0.1877614695E+00
    0.3300000000E+02    0.3139388685E-01    0.1821226448E-01    0.5952045695E-02    0.2205160750E-01    0.1961084838E+00
    0.3500000000E+02    0.3308547538E-01    0.1894980535E-01    0.6194477122E-02    0.2323993047E-01    0.2041490169E+00
    0.3700000000E+02    0.3475619006E-01    0.1965896930E-01    0.6427743508E-02    0.2441360291E-01    0.2118999801E+00
    0.3900000000E+02    0.3640648112E-01    0.2034118976E-01    0.6652307263E-02    0.2557294078E-01    0.2193770556E+00
    0.4100000000E+02    0.3803678547E-01    0.2099780204E-01    0.6868599037E-02    0.2671825066E-01    0.2265948060E+00
    0.4300000000E+02    0.3964752719E-01    0.2163005178E-01    0.7077020480E-02    0.2784983013E-01    0.2335667735E+00
    0.4500000000E+02    0.4123911798E-01    0.2223910263E-01    0.7277946718E-02    0.2896796810E-01    0.2403055672E+00
    0.4700000000E+02    0.4281195763E-01    0.2282604308E-01    0.7471728571E-02    0.3007294511E-01    0.2468229425E+00
    0.4900000000E+02    0.4436643445E-01    0.2339189260E-01    0.7658694556E-02    0.3116503364E-01    0.2531298725E+00
    0.1000000000E+02    0.1027704310E-01    0.7068670970E-02    0.2304392726E-02    0.7218320929E-02    0.7594166498E-01
    0.3000000000E+02    0.2881634652E-01    0.1704934329E-01    0.5570115983E-02    0.2024093824E-01    0.1834673812E+00
    0.5000000000E+02    0.4513690510E-01    0.2366720936E-01    0.7749718606E-02    0.3170632775E-01    0.2562076516E+00
    0.7000000000E+02    0.5966865837E-01    0.2826966223E-01    0.9277870389E-02    0.4191618753E-01    0.3088798385E+00
    0.9000000000E+02    0.7273387227E-01    0.3155928725E-01    0.1038077946E-01    0.5109666599E-01    0.3488973143E+00
    0.1100000000E+03    0.8457893809E-01    0.3394415318E-01    0.1118969053E-01    0.5942067206E-01    0.3804061725E+00
    0.1300000000E+03    0.9539556000E-01    0.3568007809E-01    0.1178686572E-01    0.6702274089E-01    0.4059097510E+00
    0.1500000000E+03    0.1053352326E+00    0.3693670074E-01    0.1222688828E-01    0.7400919194E-01    0.4270107649E+00
    0.1700000000E+03    0.1145193571E+00    0.3783140879E-01    0.1254757874E-01    0.8046522699E-01    0.4447840240E+00
    0.1900000000E+03    0.1230464508E+00    0.3844817170E-01    0.1277604327E-01    0.8645998928E-01    0.4599779532E+00
    0.2100000000E+03    0.1309973793E+00    0.3884866013E-01    0.1293223936E-01    0.9205023439E-01    0.4731301982E+00
    0.2300000000E+03    0.1384392132E+00    0.3907914700E-01    0.1303118640E-01    0.9728303697E-01    0.4846372523E+00
    0.2500000000E+03    0.1454281139E+00    0.3917496924E-01    0.1308439377E-01    0.1021978158E+00    0.4947981343E+00
    0.2700000000E+03    0.1520115222E+00    0.3916351226E-01    0.1310081569E-01    0.1068278693E+00    0.5038427549E+00
    0.2900000000E+03    0.1582298367E+00    0.3906626423E-01    0.1308750845E-01    0.1112015536E+00    0.5119508953E+00
    0.3100000000E+03    0.1641177176E+00    0.3890026495E-01    0.1305009394E-01    0.1153431974E+00    0.5192652399E+00
    0.3300000000E+03    0.1697051079E+00    0.3867914935E-01    0.1299309375E-01    0.1192738189E+00    0.5259005314E+00
    0.3500000000E+03    0.1750180431E+00    0.3841391278E-01    0.1292017434E-01    0.1230116936E+00    0.5319501332E+00
    0.3700000000E+03    0.1800792964E+00    0.3811348135E-01    0.1283432994E-01    0.1265728074E+00    0.5374908194E+00
    0.3900000000E+03    0.1849088998E+00    0.3778514288E-01    0.1273802092E-01    0.1299712222E+00    0.5425863268E+00
    0.4100000000E+03    0.1895245658E+00    0.3743487672E-01    0.1263327982E-01    0.1332193722E+00    0.5472900289E+00
    0.4300000000E+03    0.1939420331E+00    0.3706760891E-01    0.1252179358E-01    0.1363283057E+00    0.5516469752E+00
    0.4500000000E+03    0.1981753502E+00    0.3668741167E-01    0.1240496786E-01    0.1393078852E+00    0.5556954642E+00
    0.4700000000E+03    0.2022371111E+00    0.3629766067E-01    0.1228397792E-01    0.1421669519E+00    0.5594682724E+00
    0.4900000000E+03    0.2061386511E+00    0.3590116013E-01    0.1215980917E-01    0.1449134638E+00    0.5629936225E+00
    0.1000000000E+03    0.7879585593E-01    0.3284625276E-01    0.1081601626E-01    0.5535655739E-01    0.3655315995E+00
    0.3000000000E+03    0.1612131097E+00    0.3899093660E-01    0.1307150944E-01    0.1132999966E+00    0.5156995529E+00
    0.5000000000E+03    0.2080325776E+00    0.3570112392E-01    0.1209679691E-01    0.1462467858E+00    0.5646712680E+00
    0.7000000000E+03    0.2395369401E+00    0.3173791614E-01    0.1081183773E-01    0.1684345526E+00    0.5897370862E+00
    0.9000000000E+03    0.2624619300E+00    0.2825181140E-01    0.9640010197E-02    0.1845925849E+00    0.6052131030E+00
    0.1100000000E+04    0.2799329157E+00    0.2535547958E-01    0.8642954358E-02    0.1969158218E+00    0.6158225816E+00
    0.1300000000E+04    0.2936769824E+00    0.2297227921E-01    0.7807957746E-02    0.2066175270E+00    0.6236009610E+00
    0.1500000000E+04    0.3047510636E+00    0.2100308797E-01    0.7108597905E-02    0.2144403993E+00    0.6295771266E+00
    0.1700000000E+04    0.3138458878E+00    0.1936168204E-01    0.6519445270E-02    0.2208699462E+00    0.6343301012E+00
    0.1900000000E+04    0.3214341479E+00    0.1797962518E-01    0.6019249313E-02    0.2262385133E+00    0.6382120230E+00
    0.2100000000E+04    0.3278507386E+00    0.1680405468E-01    0.5591026333E-02    0.2307816270E+00    0.6414500277E+00
    0.2300000000E+04    0.3333395446E+00    0.1579435468E-01    0.5221391795E-02    0.2346708543E+00    0.6441975553E+00
    0.2500000000E+04    0.3380822475E+00    0.1491920957E-01    0.4899815911E-02    0.2380340387E+00    0.6465622043E+00
    0.2700000000E+04    0.3422168202E+00    0.1415429719E-01    0.4617983479E-02    0.2409682926E+00    0.6486217872E+00
    0.2900000000E+04    0.3458498005E+00    0.1348055797E-01    0.4369286477E-02    0.2435486233E+00    0.6504340494E+00
    0.3100000000E+04    0.3490646652E+00    0.1288291455E-01    0.4148434286E-02    0.2458338172E+00    0.6520427979E+00
    0.3300000000E+04    0.3519276779E+00    0.1234932645E-01    0.3951157617E-02    0.2478705512E+00    0.6534819029E+00
    0.3500000000E+04    0.3544920542E+00    0.1187008962E-01    0.3773984091E-02    0.2496963208E+00    0.6547779880E+00
    0.3700000000E+04    0.3568009838E+00    0.1143731394E-01    0.3614067647E-02    0.2513415653E+00    0.6559522870E+00
    0.3900000000E+04    0.3588898562E+00    0.1104453033E-01    0.3469058219E-02    0.2528312330E+00    0.6570219546E+00
    0.4100000000E+04    0.3607879235E+00    0.1068639288E-01    0.3337001512E-02    0.2541859511E+00    0.6580010101E+00
    0.4300000000E+04    0.3625195594E+00    0.1035845087E-01    0.3216261400E-02    0.2554229113E+00    0.6589010293E+00
    0.4500000000E+04    0.3641052236E+00    0.1005697294E-01    0.3105459390E-02    0.2565565482E+00    0.6597316597E+00
    0.4700000000E+04    0.3655622070E+00    0.9778810227E-02    0.3003427048E-02    0.2575990642E+00    0.6605010101E+00
    0.4900000000E+04    0.3669052159E+00    0.9521288970E-02    0.2909168361E-02    0.2585608404E+00    0.6612159487E+00
    0.1000000000E+04    0.2717501850E+00    0.2673333909E-01    0.9119779251E-02    0.1911429471E+00    0.6109646724E+00
    0.3000000000E+04    0.3475050079E+00    0.1317303877E-01    0.4255667617E-02    0.2447249502E+00    0.6512615495E+00
    0.5000000000E+04    0.3675379840E+00    0.9399541993E-02    0.2864682517E-02    0.2590142781E+00    0.6615548786E+00
    0.7000000000E+04    0.3764785854E+00    0.7637719162E-02    0.2228866302E-02    0.2654470165E+00    0.6665316194E+00
    0.9000000000E+04    0.3814803150E+00    0.6594143266E-02    0.1863014308E-02    0.2690777392E+00    0.6695406433E+00
    0.1100000000E+05    0.3846574598E+00    0.5890255180E-02    0.1623124894E-02    0.2714047829E+00    0.6715869667E+00
    0.1300000000E+05    0.3868467696E+00    0.5375794737E-02    0.1452213163E-02    0.2730228710E+00    0.6730839822E+00
    0.1500000000E+05    0.3884432194E+00    0.4978937783E-02    0.1323311125E-02    0.2742135620E+00    0.6742350953E+00
    0.1700000000E+05    0.3896568076E+00    0.4660782229E-02    0.1222000479E-02    0.2751269980E+00    0.6751528589E+00
    0.1900000000E+05    0.3906092168E+00    0.4398281894E-02    0.1139859319E-02    0.2758504381E+00    0.6759049739E+00
    0.2100000000E+05    0.3913757080E+00    0.4176833635E-02    0.1071626960E-02    0.2764380145E+00    0.6765347910E+00
    0.2300000000E+05    0.3920052762E+00    0.3986687573E-02    0.1013839991E-02    0.2769250736E+00    0.6770714554E+00
    0.2500000000E+05    0.3925311615E+00    0.3821056717E-02    0.9641198129E-03    0.2773356682E+00    0.6775353422E+00
    0.2700000000E+05    0.3929766955E+00    0.3675052946E-02    0.9207751784E-03    0.2776867329E+00    0.6779411591E+00
    0.2900000000E+05    0.3933587284E+00    0.3545054756E-02    0.8825682228E-03    0.2779905347E+00    0.6782998110E+00
    0.3100000000E+05    0.3936897280E+00    0.3428314298E-02    0.8485704152E-03    0.2782561784E+00    0.6786195686E+00
    0.3300000000E+05    0.3939791140E+00    0.3322703707E-02    0.8180704496E-03    0.2784905636E+00    0.6789068286E+00
    0.3500000000E+05    0.3942341335E+00    0.3226545973E-02    0.7905134020E-03    0.2786990150E+00    0.6791666224E+00
    0.3700000000E+05    0.3944604520E+00    0.3138498975E-02    0.7654593925E-03    0.2788857078E+00    0.6794029669E+00
    0.3900000000E+05    0.3946625607E+00    0.3057474007E-02    0.7425548004E-03    0.2790539622E+00    0.6796191113E+00
    0.4100000000E+05    0.3948440659E+00    0.2982577309E-02    0.7215117793E-03    0.2792064522E+00    0.6798177147E+00
    0.4300000000E+05    0.3950078953E+00    0.2913067279E-02    0.7020933957E-03    0.2793453554E+00    0.6800009762E+00
    0.4500000000E+05    0.3951564505E+00    0.2848322652E-02    0.6841026594E-03    0.2794724637E+00    0.6801707318E+00
    0.4700000000E+05    0.3952917196E+00    0.2787818452E-02    0.6673742997E-03    0.2795892648E+00    0.6803285271E+00
    0.4900000000E+05    0.3954153622E+00    0.2731107575E-02    0.6517685140E-03    0.2796970048E+00    0.6804756739E+00
    0.1000000000E+05    0.3832292496E+00    0.6211867197E-02    0.1731934029E-02    0.2703561322E+00    0.6706510576E+00
    0.3000000000E+05    0.3935299592E+00    0.3485172532E-02    0.8650918931E-03    0.2781276520E+00    0.6784641148E+00
    0.5000000000E+05    0.3954732688E+00    0.2704052626E-02    0.6443486539E-03    0.2797478118E+00    0.6805456109E+00
    0.7000000000E+05    0.3962665999E+00    0.2292321265E-02    0.5334378060E-03    0.2804742050E+00    0.6815878553E+00
    0.9000000000E+05    0.3966872321E+00    0.2027363952E-02    0.4640598924E-03    0.2808963991E+00    0.6822350664E+00
    0.1100000000E+06    0.3969426016E+00    0.1838351317E-02    0.4155291456E-03    0.2811771636E+00    0.6826846638E+00
    0.1300000000E+06    0.3971110471E+00    0.1694674738E-02    0.3791806731E-03    0.2813799945E+00    0.6830193812E+00
    0.1500000000E+06    0.3972285211E+00    0.1580636912E-02    0.3506686031E-03    0.2815349714E+00    0.6832805948E+00
    0.1700000000E+06    0.3973137578E+00    0.1487240025E-02    0.3275439483E-03    0.2816582657E+00    0.6834915292E+00
    0.1900000000E+06    0.3973774370E+00    0.1408904100E-02    0.3083085888E-03    0.2817593863E+00    0.6836663327E+00
    0.2100000000E+06    0.3974260703E+00    0.1341959052E-02    0.2919882704E-03    0.2818443120E+00    0.6838141683E+00
    0.2300000000E+06    0.3974638408E+00    0.1283878029E-02    0.2779186405E-03    0.2819170028E+00    0.6839412601E+00
    0.2500000000E+06    0.3974935503E+00    0.1232856418E-02    0.2656291706E-03    0.2819801932E+00    0.6840520003E+00
    0.2700000000E+06    0.3975171410E+00    0.1187566161E-02    0.2547761138E-03    0.2820358371E+00    0.6841495867E+00
    0.2900000000E+06    0.3975359979E+00    0.1147005119E-02    0.2451017683E-03    0.2820853709E+00    0.6842364091E+00
    0.3100000000E+06    0.3975511331E+00    0.1110400863E-02    0.2364086641E-03    0.2821298762E+00    0.6843142934E+00
    0.3300000000E+06    0.3975633014E+00    0.1077147060E-02    0.2285426174E-03    0.2821701846E+00    0.6843846615E+00
    0.3500000000E+06    0.3975730762E+00    0.1046760167E-02    0.2213812655E-03    0.2822069471E+00    0.6844486387E+00
    0.3700000000E+06    0.3975808997E+00    0.1018849173E-02    0.2148261040E-03    0.2822406812E+00    0.6845071292E+00
    0.3900000000E+06    0.3975871179E+00    0.9930939882E-03    0.2087968295E-03    0.2822718041E+00    0.6845608683E+00
    0.4100000000E+06    0.3975920048E+00    0.9692297062E-03    0.2032272389E-03    0.2823006566E+00    0.6846104608E+00
    0.4300000000E+06    0.3975957797E+00    0.9470349319E-03    0.1980622026E-03    0.2823275195E+00    0.6846564097E+00
    0.4500000000E+06    0.3975986199E+00    0.9263229967E-03    0.1932553954E-03    0.2823526273E+00    0.6846991368E+00
    0.4700000000E+06    0.3976006701E+00    0.9069352485E-03    0.1887675701E-03    0.2823761770E+00    0.6847389987E+00
    0.4900000000E+06    0.3976020494E+00    0.8887358625E-03    0.1845652279E-03    0.2823983356E+00    0.6847762996E+00
    0.1000000000E+06    0.3968291813E+00    0.1925785140E-02    0.4378785123E-03    0.2810493208E+00    0.6824779758E+00
    0.3000000000E+06    0.3975439785E+00    0.1128249596E-02    0.2406430568E-03    0.2821081952E+00    0.6842763717E+00
    0.5000000000E+06    0.3976025188E+00    0.8800445843E-03    0.1825619561E-03    0.2824089387E+00    0.6847940726E+00
    0.7000000000E+06    0.3975935246E+00    0.7471550020E-03    0.1522337002E-03    0.2825737731E+00    0.6850625432E+00
    0.9000000000E+06    0.3975698088E+00    0.6611435903E-03    0.1329271377E-03    0.2826850052E+00    0.6852329783E+00
    0.1100000000E+07    0.3975428448E+00    0.5996191299E-03    0.1192883600E-03    0.2827682121E+00    0.6853532527E+00
    0.1300000000E+07    0.3975159667E+00    0.5527841677E-03    0.1090095024E-03    0.2828343840E+00    0.6854438784E+00
    0.1500000000E+07    0.3974902356E+00    0.5155799191E-03    0.1009124383E-03    0.2828891773E+00    0.6855152856E+00
    0.1700000000E+07    0.3974659541E+00    0.4850946130E-03    0.9432529752E-04    0.2829358624E+00    0.6855734070E+00
    0.1900000000E+07    0.3974431478E+00    0.4595176226E-03    0.8883353703E-04    0.2829764913E+00    0.6856218961E+00
    0.2100000000E+07    0.3974217404E+00    0.4376558391E-03    0.8416583247E-04    0.2830124322E+00    0.6856631411E+00
    0.2300000000E+07    0.3974016220E+00    0.4186867217E-03    0.8013624065E-04    0.2830446408E+00    0.6856987771E+00
    0.2500000000E+07    0.3973826771E+00    0.4020222653E-03    0.7661254398E-04    0.2830738099E+00    0.6857299660E+00
    0.2700000000E+07    0.3973647957E+00    0.3872294313E-03    0.7349783885E-04    0.2831004574E+00    0.6857575591E+00
    0.2900000000E+07    0.3973478774E+00    0.3739812756E-03    0.7071928481E-04    0.2831249802E+00    0.6857821961E+00
    0.3100000000E+07    0.3973318323E+00    0.3620256903E-03    0.6822094176E-04    0.2831476890E+00    0.6858043681E+00
    0.3300000000E+07    0.3973165807E+00    0.3511647158E-03    0.6595904937E-04    0.2831688312E+00    0.6858244592E+00
    0.3500000000E+07    0.3973020519E+00    0.3412404412E-03    0.6389882246E-04    0.2831886074E+00    0.6858427749E+00
    0.3700000000E+07    0.3972881836E+00    0.3321251493E-03    0.6201221904E-04    0.2832071820E+00    0.6858595614E+00
    0.3900000000E+07    0.3972749207E+00    0.3237142723E-03    0.6027635068E-04    0.2832246916E+00    0.6858750197E+00
    0.4100000000E+07    0.3972622141E+00    0.3159212593E-03    0.5867232753E-04    0.2832412510E+00    0.6858893157E+00
    0.4300000000E+07    0.3972500205E+00    0.3086737694E-03    0.5718440450E-04    0.2832569573E+00    0.6859025877E+00
    0.4500000000E+07    0.3972383009E+00    0.3019108038E-03    0.5579933984E-04    0.2832718936E+00    0.6859149521E+00
    0.4700000000E+07    0.3972270208E+00    0.2955805166E-03    0.5450590660E-04    0.2832861314E+00    0.6859265075E+00
    0.4900000000E+07    0.3972161488E+00    0.2896385196E-03    0.5329451563E-04    0.2832997329E+00    0.6859373382E+00
    0.1000000000E+07    0.3975564394E+00    0.6280935396E-03    0.1255819958E-03    0.2827292429E+00    0.6852977596E+00
    0.3000000000E+07    0.3973397509E+00    0.3678553628E-03    0.6943806406E-04    0.2831365446E+00    0.6857935641E+00
    0.5000000000E+07    0.3972108571E+00    0.2868009658E-03    0.5271696343E-04    0.2833063122E+00    0.6859425049E+00
    0.7000000000E+07    0.3971209339E+00    0.2434239117E-03    0.4396780711E-04    0.2834146482E+00    0.6860210385E+00
    0.9000000000E+07    0.3970519427E+00    0.2153591355E-03    0.3839397136E-04    0.2834943022E+00    0.6860713851E+00
    0.1100000000E+08    0.3969959796E+00    0.1952900876E-03    0.3445502441E-04    0.2835573022E+00    0.6861071523E+00
    0.1300000000E+08    0.3969489027E+00    0.1800162123E-03    0.3148587922E-04    0.2836094130E+00    0.6861342359E+00
    0.1500000000E+08    0.3969082742E+00    0.1678853783E-03    0.2914671989E-04    0.2836538455E+00    0.6861556582E+00
    0.1700000000E+08    0.3968725385E+00    0.1579468620E-03    0.2724364860E-04    0.2836925723E+00    0.6861731486E+00
    0.1900000000E+08    0.3968406425E+00    0.1496095954E-03    0.2565698800E-04    0.2837268919E+00    0.6861877778E+00
    0.2100000000E+08    0.3968118402E+00    0.1424841653E-03    0.2430838823E-04    0.2837577050E+00    0.6862002483E+00
    0.2300000000E+08    0.3967855839E+00    0.1363021484E-03    0.2314414542E-04    0.2837856615E+00    0.6862110429E+00
    0.2500000000E+08    0.3967614594E+00    0.1308716856E-03    0.2212606777E-04    0.2838112461E+00    0.6862205056E+00
    0.2700000000E+08    0.3967391462E+00    0.1260514988E-03    0.2122616150E-04    0.2838348296E+00    0.6862288891E+00
