  Pressure (Pa) 22mC5-400 (mol/kg) 2mC6-400 (mol/kg) 33mC5-400 (mol/kg) 23mC5-400 (mol/kg) C7-400 (mol/kg)
    0.1000000000E+01    0.1058555783E-02    0.4714125076E-02    0.2559198541E-03    0.9293537083E-04    0.1182274372E-01
    0.3000000000E+01    0.3134724019E-02    0.1353655375E-01    0.7351006237E-03    0.2752135884E-03    0.3390237658E-01
    0.5000000000E+01    0.5158547220E-02    0.2163678155E-01    0.1175357612E-02    0.4528988293E-03    0.5412310872E-01
    0.7000000000E+01    0.7132562112E-02    0.2910240025E-01    0.1581420235E-02    0.6262136501E-03    0.7271888592E-01
    0.9000000000E+01    0.9059137864E-02    0.3600693266E-01    0.1957256623E-02    0.7953659081E-03    0.8988563350E-01
    0.1100000000E+02    0.1094048987E-01    0.4241258875E-01    0.2306222994E-02    0.9605499702E-03    0.1057886996E+00
    0.1300000000E+02    0.1277869217E-01    0.4837239503E-01    0.2631179010E-02    0.1121947804E-02    0.1205686142E+00
    0.1500000000E+02    0.1457568873E-01    0.5393185745E-01    0.2934577853E-02    0.1279729963E-02    0.1343455922E+00
    0.1700000000E+02    0.1633330358E-01    0.5913027324E-01    0.3218537245E-02    0.1434056482E-02    0.1472230894E+00
    0.1900000000E+02    0.1805325008E-01    0.6400177519E-01    0.3484895979E-02    0.1585077685E-02    0.1592906355E+00
    0.2100000000E+02    0.1973713929E-01    0.6857617034E-01    0.3735259297E-02    0.1732934921E-02    0.1706261108E+00
    0.2300000000E+02    0.2138648759E-01    0.7287961878E-01    0.3971035611E-02    0.1877761235E-02    0.1812975892E+00
    0.2500000000E+02    0.2300272369E-01    0.7693518721E-01    0.4193466437E-02    0.2019681977E-02    0.1913648419E+00
    0.2700000000E+02    0.2458719488E-01    0.8076330361E-01    0.4403650971E-02    0.2158815359E-02    0.2008805717E+00
    0.2900000000E+02    0.2614117293E-01    0.8438213298E-01    0.4602566401E-02    0.2295272962E-02    0.2098914335E+00
    0.3100000000E+02    0.2766585933E-01    0.8780788990E-01    0.4791084787E-02    0.2429160205E-02    0.2184388820E+00
    0.3300000000E+02    0.2916239018E-01    0.9105509999E-01    0.4969987185E-02    0.2560576768E-02    0.2265598810E+00
    0.3500000000E+02    0.3063184064E-01    0.9413681982E-01    0.5139975520E-02    0.2689616987E-02    0.2342874989E+00
    0.3700000000E+02    0.3207522903E-01    0.9706482279E-01    0.5301682619E-02    0.2816370210E-02    0.2416514119E+00
    0.3900000000E+02    0.3349352062E-01    0.9984975714E-01    0.5455680736E-02    0.2940921129E-02    0.2486783312E+00
    0.4100000000E+02    0.3488763106E-01    0.1025012807E+00    0.5602488823E-02    0.3063350086E-02    0.2553923662E+00
    0.4300000000E+02    0.3625842961E-01    0.1050281766E+00    0.5742578761E-02    0.3183733351E-02    0.2618153365E+00
    0.4500000000E+02    0.3760674211E-01    0.1074384524E+00    0.5876380726E-02    0.3302143384E-02    0.2679670391E+00
    0.4700000000E+02    0.3893335365E-01    0.1097394266E+00    0.6004287822E-02    0.3418649072E-02    0.2738654794E+00
    0.4900000000E+02    0.4023901114E-01    0.1119378026E+00    0.6126660097E-02    0.3533315951E-02    0.2795270709E+00
    0.1000000000E+02    0.1000533403E-01    0.3926861229E-01    0.2134909355E-02    0.8784423121E-03    0.9798581998E-01
    0.3000000000E+02    0.2690710510E-01    0.8611820082E-01    0.4698074425E-02    0.2362531518E-02    0.2142206764E+00
    0.5000000000E+02    0.4088420567E-01    0.1130004593E+00    0.6185875023E-02    0.3589979452E-02    0.2822737854E+00
    0.7000000000E+02    0.5284393614E-01    0.1301235559E+00    0.7147063840E-02    0.4640393679E-02    0.3278052430E+00
    0.9000000000E+02    0.6334054894E-01    0.1416827968E+00    0.7806950351E-02    0.5562407065E-02    0.3608531071E+00
    0.1100000000E+03    0.7273362450E-01    0.1497602316E+00    0.8277395502E-02    0.6387572218E-02    0.3861893903E+00
    0.1300000000E+03    0.8126777986E-01    0.1555181954E+00    0.8620930650E-02    0.7137354642E-02    0.4063899426E+00
    0.1500000000E+03    0.8911593496E-01    0.1596599448E+00    0.8875465943E-02    0.7826928802E-02    0.4229759362E+00
    0.1700000000E+03    0.9640426333E-01    0.1626366604E+00    0.9065384891E-02    0.8467367284E-02    0.4369080816E+00
    0.1900000000E+03    0.1032273126E+00    0.1647510423E+00    0.9207095333E-02    0.9066967503E-02    0.4488255774E+00
    0.2100000000E+03    0.1096575559E+00    0.1662134818E+00    0.9312039920E-02    0.9632089789E-02    0.4591717856E+00
    0.2300000000E+03    0.1157516414E+00    0.1671744711E+00    0.9388433960E-02    0.1016770577E-01    0.4682648755E+00
    0.2500000000E+03    0.1215546073E+00    0.1677442514E+00    0.9442319881E-02    0.1067776820E-01    0.4763397346E+00
    0.2700000000E+03    0.1271027998E+00    0.1680052182E+00    0.9478233671E-02    0.1116546708E-01    0.4835739697E+00
    0.2900000000E+03    0.1324259412E+00    0.1680200231E+00    0.9499640657E-02    0.1163341105E-01    0.4901046569E+00
    0.3100000000E+03    0.1375486248E+00    0.1678370189E+00    0.9509228809E-02    0.1208375867E-01    0.4960394845E+00
    0.3300000000E+03    0.1424914165E+00    0.1674940113E+00    0.9509111127E-02    0.1251831499E-01    0.5014643753E+00
    0.3500000000E+03    0.1472716786E+00    0.1670208995E+00    0.9500968334E-02    0.1293860395E-01    0.5064488287E+00
    0.3700000000E+03    0.1519041964E+00    0.1664415702E+00    0.9486151433E-02    0.1334592326E-01    0.5110497454E+00
    0.3900000000E+03    0.1564016596E+00    0.1657752802E+00    0.9465756658E-02    0.1374138675E-01    0.5153142185E+00
    0.4100000000E+03    0.1607750386E+00    0.1650376787E+00    0.9440681093E-02    0.1412595733E-01    0.5192816053E+00
    0.4300000000E+03    0.1650338795E+00    0.1642415762E+00    0.9411664508E-02    0.1450047292E-01    0.5229850884E+00
    0.4500000000E+03    0.1691865405E+00    0.1633975274E+00    0.9379321210E-02    0.1486566713E-01    0.5264528684E+00
    0.4700000000E+03    0.1732403804E+00    0.1625142798E+00    0.9344164573E-02    0.1522218589E-01    0.5297090871E+00
    0.4900000000E+03    0.1772019124E+00    0.1615991213E+00    0.9306626128E-02    0.1557060091E-01    0.5327745493E+00
    0.1000000000E+03    0.6815767187E-01    0.1460697703E+00    0.8061176763E-02    0.5985572584E-02    0.3742908395E+00
    0.3000000000E+03    0.1350109713E+00    0.1679506724E+00    0.9505768456E-02    0.1186066425E-01    0.4931407444E+00
    0.5000000000E+03    0.1791498982E+00    0.1611315221E+00    0.9287079955E-02    0.1574193061E-01    0.5342414790E+00
    0.7000000000E+03    0.2143847702E+00    0.1511559765E+00    0.8835232699E-02    0.1884150250E-01    0.5569035576E+00
    0.9000000000E+03    0.2443743176E+00    0.1412496794E+00    0.8349238398E-02    0.2148052466E-01    0.5717904540E+00
    0.1100000000E+04    0.2706623911E+00    0.1320556518E+00    0.7877163208E-02    0.2379450279E-01    0.5825338405E+00
    0.1300000000E+04    0.2940765322E+00    0.1236789942E+00    0.7432667830E-02    0.2585606587E-01    0.5907589110E+00
    0.1500000000E+04    0.3151335610E+00    0.1160861754E+00    0.7019085824E-02    0.2771056972E-01    0.5973175735E+00
    0.1700000000E+04    0.3341923312E+00    0.1092080586E+00    0.6636166857E-02    0.2938950648E-01    0.6027056182E+00
    0.1900000000E+04    0.3515214746E+00    0.1029704741E+00    0.6282344981E-02    0.3091645124E-01    0.6072339710E+00
    0.2100000000E+04    0.3673330816E+00    0.9730364231E-01    0.5955599693E-02    0.3231001834E-01    0.6111089044E+00
    0.2300000000E+04    0.3818009791E+00    0.9214474573E-01    0.5653809874E-02    0.3358546545E-01    0.6144734091E+00
    0.2500000000E+04    0.3950713948E+00    0.8743817550E-01    0.5374905637E-02    0.3475562937E-01    0.6174301710E+00
    0.2700000000E+04    0.4072695937E+00    0.8313500904E-01    0.5116933177E-02    0.3583150815E-01    0.6200551041E+00
    0.2900000000E+04    0.4185042565E+00    0.7919227870E-01    0.4878079899E-02    0.3682264519E-01    0.6224057095E+00
    0.3100000000E+04    0.4288705288E+00    0.7557223398E-01    0.4656680604E-02    0.3773739656E-01    0.6245264499E+00
    0.3300000000E+04    0.4384522509E+00    0.7224166597E-01    0.4451214467E-02    0.3858312656E-01    0.6264523213E+00
    0.3500000000E+04    0.4473236579E+00    0.6917131191E-01    0.4260297568E-02    0.3936635671E-01    0.6282112971E+00
    0.3700000000E+04    0.4555507227E+00    0.6633533836E-01    0.4082673436E-02    0.4009288354E-01    0.6298260416E+00
    0.3900000000E+04    0.4631922473E+00    0.6371089556E-01    0.3917202898E-02    0.4076787422E-01    0.6313151397E+00
    0.4100000000E+04    0.4703007687E+00    0.6127773394E-01    0.3762853927E-02    0.4139594602E-01    0.6326939938E+00
    0.4300000000E+04    0.4769233233E+00    0.5901787377E-01    0.3618691890E-02    0.4198123332E-01    0.6339754922E+00
    0.4500000000E+04    0.4831021004E+00    0.5691532059E-01    0.3483870358E-02    0.4252744490E-01    0.6351705127E+00
    0.4700000000E+04    0.4888750058E+00    0.5495581938E-01    0.3357622599E-02    0.4303791342E-01    0.6362883083E+00
    0.4900000000E+04    0.4942761504E+00    0.5312664198E-01    0.3239253767E-02    0.4351563824E-01    0.6373368065E+00
    0.1000000000E+04    0.2579192363E+00    0.1365516242E+00    0.8110226896E-02    0.2267272005E-01    0.5775524601E+00
    0.3000000000E+04    0.4237904585E+00    0.7734409526E-01    0.4765296865E-02    0.3728908750E-01    0.6234924367E+00
    0.5000000000E+04    0.4968470404E+00    0.5225731884E-01    0.3182824702E-02    0.4374307725E-01    0.6378372427E+00
    0.7000000000E+04    0.5347759484E+00    0.3951001645E-01    0.2343176333E-02    0.4710308556E-01    0.6454615139E+00
    0.9000000000E+04    0.5569276516E+00    0.3208150352E-01    0.1845113505E-02    0.4907145937E-01    0.6503622345E+00
    0.1100000000E+05    0.5710598032E+00    0.2729819093E-01    0.1522943514E-02    0.5033141680E-01    0.6538474644E+00
    0.1300000000E+05    0.5806954673E+00    0.2398304196E-01    0.1300338962E-02    0.5119355474E-01    0.6564877632E+00
    0.1500000000E+05    0.5876087437E+00    0.2155449293E-01    0.1138505979E-02    0.5181444090E-01    0.6585765916E+00
    0.1700000000E+05    0.5927707713E+00    0.1969777791E-01    0.1016058565E-02    0.5227987039E-01    0.6602822113E+00
    0.1900000000E+05    0.5967501991E+00    0.1822969089E-01    0.9203997434E-03    0.5264013485E-01    0.6617088752E+00
    0.2100000000E+05    0.5998988020E+00    0.1703714032E-01    0.8436952596E-03    0.5292638022E-01    0.6629250531E+00
    0.2300000000E+05    0.6024442951E+00    0.1604686033E-01    0.7808483525E-03    0.5315879149E-01    0.6639778062E+00
    0.2500000000E+05    0.6045397914E+00    0.1520943601E-01    0.7284154318E-03    0.5335095689E-01    0.6649006844E+00
    0.2700000000E+05    0.6062916081E+00    0.1449038705E-01    0.6839939611E-03    0.5351232319E-01    0.6657183332E+00
    0.2900000000E+05    0.6077756315E+00    0.1386494600E-01    0.6458609170E-03    0.5364964165E-01    0.6664493167E+00
    0.3100000000E+05    0.6090473342E+00    0.1331487168E-01    0.6127507587E-03    0.5376785372E-01    0.6671079197E+00
    0.3300000000E+05    0.6101481191E+00    0.1282643404E-01    0.5837143750E-03    0.5387065234E-01    0.6677053362E+00
    0.3500000000E+05    0.6111094591E+00    0.1238909949E-01    0.5580267742E-03    0.5396084847E-01    0.6682504795E+00
    0.3700000000E+05    0.6119556697E+00    0.1199464946E-01    0.5351250702E-03    0.5404061678E-01    0.6687505463E+00
    0.3900000000E+05    0.6127058111E+00    0.1163657493E-01    0.5145658405E-03    0.5411166424E-01    0.6692114193E+00
    0.4100000000E+05    0.6133750188E+00    0.1130965137E-01    0.4959951877E-03    0.5417534824E-01    0.6696379603E+00
    0.4300000000E+05    0.6139754532E+00    0.1100963455E-01    0.4791273239E-03    0.5423276091E-01    0.6700342273E+00
    0.4500000000E+05    0.6145169889E+00    0.1073303899E-01    0.4637289898E-03    0.5428479035E-01    0.6704036375E+00
    0.4700000000E+05    0.6150077220E+00    0.1047697401E-01    0.4496079446E-03    0.5433216577E-01    0.6707490915E+00
    0.4900000000E+05    0.6154543491E+00    0.1023902062E-01    0.4366043425E-03    0.5437549121E-01    0.6710730700E+00
    0.1000000000E+05    0.5647174552E+00    0.2945289638E-01    0.1668062843E-02    0.4976542514E-01    0.6522367201E+00
    0.3000000000E+05    0.6084351623E+00    0.1358143383E-01    0.6287434486E-03    0.5371088094E-01    0.6667869047E+00
    0.5000000000E+05    0.6156629051E+00    0.1012618534E-01    0.4304788456E-03    0.5439579614E-01    0.6712276849E+00
    0.7000000000E+05    0.6184868211E+00    0.8458800016E-02    0.3431751247E-03    0.5467698426E-01    0.6735831269E+00
    0.9000000000E+05    0.6199727709E+00    0.7428187076E-02    0.2923835524E-03    0.5483233641E-01    0.6750986529E+00
    0.1100000000E+06    0.6208846332E+00    0.6709060641E-02    0.2584257368E-03    0.5493229964E-01    0.6761781340E+00
    0.1300000000E+06    0.6214994633E+00    0.6169785029E-02    0.2337593020E-03    0.5500286931E-01    0.6769972166E+00
    0.1500000000E+06    0.6219412581E+00    0.5745572415E-02    0.2148309103E-03    0.5505588165E-01    0.6776461797E+00
    0.1700000000E+06    0.6222736212E+00    0.5400304175E-02    0.1997290415E-03    0.5509751283E-01    0.6781767987E+00
    0.1900000000E+06    0.6225324713E+00    0.5112020971E-02    0.1873254159E-03    0.5513131051E-01    0.6786211730E+00
    0.2100000000E+06    0.6227395998E+00    0.4866490336E-02    0.1769067627E-03    0.5515946361E-01    0.6790004012E+00
    0.2300000000E+06    0.6229089827E+00    0.4654022734E-02    0.1679977099E-03    0.5518339961E-01    0.6793289972E+00
    0.2500000000E+06    0.6230499899E+00    0.4467758829E-02    0.1602678722E-03    0.5520409151E-01    0.6796173167E+00
    0.2700000000E+06    0.6231691356E+00    0.4302686087E-02    0.1534796695E-03    0.5522222684E-01    0.6798729736E+00
    0.2900000000E+06    0.6232710871E+00    0.4155043709E-02    0.1474573629E-03    0.5523830628E-01    0.6801017075E+00
    0.3100000000E+06    0.6233592753E+00    0.4021946601E-02    0.1420678265E-03    0.5525270373E-01    0.6803079384E+00
    0.3300000000E+06    0.6234362778E+00    0.3901138980E-02    0.1372081451E-03    0.5526570462E-01    0.6804951325E+00
    0.3500000000E+06    0.6235040685E+00    0.3790827858E-02    0.1327973497E-03    0.5527753089E-01    0.6806660517E+00
    0.3700000000E+06    0.6235641841E+00    0.3689567466E-02    0.1287707550E-03    0.5528835804E-01    0.6808229276E+00
    0.3900000000E+06    0.6236178386E+00    0.3596177156E-02    0.1250759833E-03    0.5529832683E-01    0.6809675854E+00
    0.4100000000E+06    0.6236660038E+00    0.3509681875E-02    0.1216701132E-03    0.5530755163E-01    0.6811015344E+00
    0.4300000000E+06    0.6237094666E+00    0.3429268221E-02    0.1185175954E-03    0.5531612643E-01    0.6812260354E+00
    0.4500000000E+06    0.6237488709E+00    0.3354251481E-02    0.1155887027E-03    0.5532412929E-01    0.6813421502E+00
    0.4700000000E+06    0.6237847487E+00    0.3284050534E-02    0.1128583606E-03    0.5533162562E-01    0.6814507811E+00
    0.4900000000E+06    0.6238175434E+00    0.3218168495E-02    0.1103052522E-03    0.5533867072E-01    0.6815526997E+00
    0.1000000000E+06    0.6204776795E+00    0.7040234229E-02    0.2739122951E-03    0.5488711330E-01    0.6756790209E+00
    0.3000000000E+06    0.6233167239E+00    0.4086830477E-02    0.1446905262E-03    0.5524569568E-01    0.6802074002E+00
    0.5000000000E+06    0.6238329033E+00    0.3186711037E-02    0.1090893528E-03    0.5534203905E-01    0.6816013533E+00
    0.7000000000E+06    0.6240435815E+00    0.2706039726E-02    0.9076570327E-04    0.5539419449E-01    0.6823437230E+00
    0.9000000000E+06    0.6241557630E+00    0.2395113428E-02    0.7917179454E-04    0.5542920550E-01    0.6828225935E+00
    0.1100000000E+07    0.6242242411E+00    0.2172723185E-02    0.7100796345E-04    0.5545532113E-01    0.6831643016E+00
    0.1300000000E+07    0.6242696752E+00    0.2003415212E-02    0.6486732696E-04    0.5547605343E-01    0.6834239375E+00
    0.1500000000E+07    0.6243015529E+00    0.1868902143E-02    0.6003629696E-04    0.5549319998E-01    0.6836298731E+00
    0.1700000000E+07    0.6243248263E+00    0.1758663239E-02    0.5610962772E-04    0.5550779637E-01    0.6837984054E+00
    0.1900000000E+07    0.6243423244E+00    0.1666157942E-02    0.5283801467E-04    0.5552049072E-01    0.6839396514E+00
    0.2100000000E+07    0.6243557766E+00    0.1587076779E-02    0.5005863372E-04    0.5553171430E-01    0.6840602680E+00
    0.2300000000E+07    0.6243662964E+00    0.1518448808E-02    0.4766007991E-04    0.5554176793E-01    0.6841648391E+00
    0.2500000000E+07    0.6243746320E+00    0.1458150145E-02    0.4556323723E-04    0.5555086950E-01    0.6842566378E+00
    0.2700000000E+07    0.6243813030E+00    0.1404616553E-02    0.4371017908E-04    0.5555918166E-01    0.6843380726E+00
    0.2900000000E+07    0.6243866814E+00    0.1356666947E-02    0.4205739870E-04    0.5556682899E-01    0.6844109600E+00
    0.3100000000E+07    0.6243910396E+00    0.1313390508E-02    0.4057150613E-04    0.5557390891E-01    0.6844766998E+00
    0.3300000000E+07    0.6243945811E+00    0.1274071982E-02    0.3922639590E-04    0.5558049905E-01    0.6845363905E+00
    0.3500000000E+07    0.6243974614E+00    0.1238140762E-02    0.3800132645E-04    0.5558666221E-01    0.6845909076E+00
    0.3700000000E+07    0.6243998003E+00    0.1205135301E-02    0.3687958372E-04    0.5559244991E-01    0.6846409588E+00
    0.3900000000E+07    0.6244016920E+00    0.1174677678E-02    0.3584752999E-04    0.5559790493E-01    0.6846871233E+00
    0.4100000000E+07    0.6244032113E+00    0.1146455056E-02    0.3489391336E-04    0.5560306316E-01    0.6847298801E+00
    0.4300000000E+07    0.6244044181E+00    0.1120205936E-02    0.3400935752E-04    0.5560795501E-01    0.6847696296E+00
    0.4500000000E+07    0.6244053613E+00    0.1095709803E-02    0.3318597869E-04    0.5561260648E-01    0.6848067090E+00
    0.4700000000E+07    0.6244060806E+00    0.1072779211E-02    0.3241709394E-04    0.5561703993E-01    0.6848414050E+00
    0.4900000000E+07    0.6244066088E+00    0.1051253665E-02    0.3169699623E-04    0.5562127477E-01    0.6848739628E+00
    0.1000000000E+07    0.6241937790E+00    0.2275649729E-02    0.7477273811E-04    0.5544309706E-01    0.6830062426E+00
    0.3000000000E+07    0.6243889740E+00    0.1334493181E-02    0.4129536778E-04    0.5557043463E-01    0.6844446487E+00
    0.5000000000E+07    0.6244068099E+00    0.1040973800E-02    0.3135368190E-04    0.5562332309E-01    0.6848895071E+00
    0.7000000000E+07    0.6244054865E+00    0.8837853646E-03    0.2615314473E-04    0.5565703766E-01    0.6851268425E+00
    0.9000000000E+07    0.6243997079E+00    0.7820409222E-03    0.2284000859E-04    0.5568181154E-01    0.6852800930E+00
    0.1100000000E+08    0.6243927831E+00    0.7092615000E-03    0.2049851558E-04    0.5570139789E-01    0.6853895227E+00
    0.1300000000E+08    0.6243857187E+00    0.6538587736E-03    0.1873338527E-04    0.5571759412E-01    0.6854727104E+00
    0.1500000000E+08    0.6243788597E+00    0.6098487558E-03    0.1734267301E-04    0.5573140082E-01    0.6855387176E+00
    0.1700000000E+08    0.6243723224E+00    0.5737869983E-03    0.1621115201E-04    0.5574343238E-01    0.6855927524E+00
    0.1900000000E+08    0.6243661354E+00    0.5435315968E-03    0.1526770119E-04    0.5575409317E-01    0.6856380499E+00
    0.2100000000E+08    0.6243602922E+00    0.5176711345E-03    0.1446575798E-04    0.5576366350E-01    0.6856767396E+00
    0.2300000000E+08    0.6243547728E+00    0.4952325635E-03    0.1377340554E-04    0.5577234568E-01    0.6857102882E+00
    0.2500000000E+08    0.6243495525E+00    0.4755202870E-03    0.1316794512E-04    0.5578029050E-01    0.6857397437E+00
    0.2700000000E+08    0.6243446065E+00    0.4580220310E-03    0.1263273835E-04    0.5578761334E-01    0.6857658771E+00
