  Pressure (Pa) 22mC5-400 (mol/kg) 2mC6-400 (mol/kg) 33mC5-400 (mol/kg) 23mC5-400 (mol/kg) C7-400 (mol/kg)
    0.1000000000E+01    0.1061559027E-02    0.7944270286E-03    0.3234311444E-03    0.7455916505E-03    0.6837903524E-02
    0.3000000000E+01    0.3161006071E-02    0.2329335477E-02    0.9484648110E-03    0.2220162411E-02    0.2006087011E-01
    0.5000000000E+01    0.5229562940E-02    0.3796091736E-02    0.1545923770E-02    0.3673054067E-02    0.3271326327E-01
    0.7000000000E+01    0.7268010701E-02    0.5198891181E-02    0.2117508066E-02    0.5104814680E-02    0.4483192257E-01
    0.9000000000E+01    0.9277103671E-02    0.6541582662E-02    0.2664776971E-02    0.6515973546E-02    0.5645056839E-01
    0.1100000000E+02    0.1125757055E-01    0.7827704221E-02    0.3189163517E-02    0.7907041989E-02    0.6760012563E-01
    0.1300000000E+02    0.1321011551E-01    0.9060514450E-02    0.3691987262E-02    0.9278514114E-02    0.7830900791E-01
    0.1500000000E+02    0.1513541919E-01    0.1024302009E-01    0.4174465510E-02    0.1063086753E-01    0.8860336779E-01
    0.1700000000E+02    0.1703413968E-01    0.1137800040E-01    0.4637723227E-02    0.1196456401E-01    0.9850731759E-01
    0.1900000000E+02    0.1890691347E-01    0.1246802870E-01    0.5082801808E-02    0.1328005019E-01    0.1080431249E+00
    0.2100000000E+02    0.2075435628E-01    0.1351549155E-01    0.5510666857E-02    0.1457775812E-01    0.1172313859E+00
    0.2300000000E+02    0.2257706395E-01    0.1452260568E-01    0.5922215104E-02    0.1585810589E-01    0.1260911798E+00
    0.2500000000E+02    0.2437561319E-01    0.1549143326E-01    0.6318280573E-02    0.1712149820E-01    0.1346402057E+00
    0.2700000000E+02    0.2615056238E-01    0.1642389537E-01    0.6699640084E-02    0.1836832685E-01    0.1428949062E+00
    0.2900000000E+02    0.2790245225E-01    0.1732178417E-01    0.7067018191E-02    0.1959897131E-01    0.1508705764E+00
    0.3100000000E+02    0.2963180661E-01    0.1818677376E-01    0.7421091601E-02    0.2081379912E-01    0.1585814628E+00
    0.3300000000E+02    0.3133913299E-01    0.1902043002E-01    0.7762493148E-02    0.2201316643E-01    0.1660408522E+00
    0.3500000000E+02    0.3302492328E-01    0.1982421936E-01    0.8091815379E-02    0.2319741841E-01    0.1732611506E+00
    0.3700000000E+02    0.3468965429E-01    0.2059951671E-01    0.8409613783E-02    0.2436688965E-01    0.1802539558E+00
    0.3900000000E+02    0.3633378838E-01    0.2134761274E-01    0.8716409711E-02    0.2552190460E-01    0.1870301221E+00
    0.4100000000E+02    0.3795777395E-01    0.2206972032E-01    0.9012693021E-02    0.2666277791E-01    0.1935998190E+00
    0.4300000000E+02    0.3956204600E-01    0.2276698046E-01    0.9298924479E-02    0.2778981483E-01    0.1999725845E+00
    0.4500000000E+02    0.4114702663E-01    0.2344046770E-01    0.9575537938E-02    0.2890331157E-01    0.2061573738E+00
    0.4700000000E+02    0.4271312547E-01    0.2409119494E-01    0.9842942323E-02    0.3000355558E-01    0.2121626027E+00
    0.4900000000E+02    0.4426074019E-01    0.2472011798E-01    0.1010152344E-01    0.3109082592E-01    0.2179961884E+00
    0.1000000000E+02    0.1027087080E-01    0.7191504810E-02    0.2929745545E-02    0.7213987794E-02    0.6208215145E-01
    0.3000000000E+02    0.2876991427E-01    0.1775829107E-01    0.7245677447E-02    0.2020833977E-01    0.1547582656E+00
    0.5000000000E+02    0.4502773711E-01    0.2502668699E-01    0.1022761992E-01    0.3162968095E-01    0.2208509617E+00
    0.7000000000E+02    0.5948558456E-01    0.3020811103E-01    0.1236491577E-01    0.4178764552E-01    0.2705328376E+00
    0.9000000000E+02    0.7247248942E-01    0.3398382225E-01    0.1393239860E-01    0.5091313255E-01    0.3093511501E+00
    0.1100000000E+03    0.8423890150E-01    0.3676962038E-01    0.1509769377E-01    0.5918190072E-01    0.3405924560E+00
    0.1300000000E+03    0.9497893490E-01    0.3883499252E-01    0.1596942893E-01    0.6673017768E-01    0.3663302022E+00
    0.1500000000E+03    0.1048454754E+00    0.4036274756E-01    0.1662132271E-01    0.7366526021E-01    0.3879386504E+00
    0.1700000000E+03    0.1139606791E+00    0.4148139191E-01    0.1710524236E-01    0.8007288079E-01    0.4063656262E+00
    0.1900000000E+03    0.1224234195E+00    0.4228386920E-01    0.1745875167E-01    0.8602243312E-01    0.4222866382E+00
    0.2100000000E+03    0.1303146678E+00    0.4283898088E-01    0.1770970587E-01    0.9157074756E-01    0.4361965403E+00
    0.2300000000E+03    0.1377014450E+00    0.4319864667E-01    0.1787917025E-01    0.9676486444E-01    0.4484664274E+00
    0.2500000000E+03    0.1446397691E+00    0.4340268543E-01    0.1798334069E-01    0.1016441020E+00    0.4593802509E+00
    0.2700000000E+03    0.1511768817E+00    0.4348205778E-01    0.1803484583E-01    0.1062416192E+00    0.4691591261E+00
    0.2900000000E+03    0.1573529534E+00    0.4346112190E-01    0.1804365275E-01    0.1105856125E+00    0.4779779087E+00
    0.3100000000E+03    0.1632024033E+00    0.4335923729E-01    0.1801771086E-01    0.1147002415E+00    0.4859767706E+00
    0.3300000000E+03    0.1687549310E+00    0.4319192692E-01    0.1796341862E-01    0.1186063536E+00    0.4932694527E+00
    0.3500000000E+03    0.1740363329E+00    0.4297173350E-01    0.1788596753E-01    0.1223220567E+00    0.4999492595E+00
    0.3700000000E+03    0.1790691517E+00    0.4270885973E-01    0.1778959953E-01    0.1258631750E+00    0.5060934869E+00
    0.3900000000E+03    0.1838731996E+00    0.4241165346E-01    0.1767780219E-01    0.1292436162E+00    0.5117667419E+00
    0.4100000000E+03    0.1884659817E+00    0.4208697959E-01    0.1755345846E-01    0.1324756688E+00    0.5170234647E+00
    0.4300000000E+03    0.1928630414E+00    0.4174050827E-01    0.1741896286E-01    0.1355702443E+00    0.5219098702E+00
    0.4500000000E+03    0.1970782449E+00    0.4137694040E-01    0.1727631254E-01    0.1385370770E+00    0.5264654588E+00
    0.4700000000E+03    0.2011240159E+00    0.4100018554E-01    0.1712717917E-01    0.1413848889E+00    0.5307242037E+00
    0.4900000000E+03    0.2050115317E+00    0.4061350359E-01    0.1697296631E-01    0.1441215268E+00    0.5347154945E+00
    0.1000000000E+03    0.7849500896E-01    0.3548106945E-01    0.1455750376E-01    0.5514530917E-01    0.3257685508E+00
    0.3000000000E+03    0.1603165497E+00    0.4341924935E-01    0.1803459368E-01    0.1126702243E+00    0.4820721808E+00
    0.5000000000E+03    0.2068991367E+00    0.4041730942E-01    0.1689433190E-01    0.1454503971E+00    0.5366189644E+00
    0.7000000000E+03    0.2383498757E+00    0.3643453745E-01    0.1525874507E-01    0.1676002908E+00    0.5653925013E+00
    0.9000000000E+03    0.2613044070E+00    0.3284122372E-01    0.1373793736E-01    0.1837789197E+00    0.5835024260E+00
    0.1100000000E+04    0.2788406684E+00    0.2981185654E-01    0.1243003182E-01    0.1961479037E+00    0.5960930690E+00
    0.1300000000E+04    0.2926629604E+00    0.2729139701E-01    0.1132586851E-01    0.2059044915E+00    0.6054261178E+00
    0.1500000000E+04    0.3038172261E+00    0.2518899667E-01    0.1039467802E-01    0.2137836515E+00    0.6126616936E+00
    0.1700000000E+04    0.3129890307E+00    0.2342155116E-01    0.9605310774E-02    0.2202672561E+00    0.6184602597E+00
    0.1900000000E+04    0.3206488382E+00    0.2192156965E-01    0.8931208855E-02    0.2256860791E+00    0.6232273292E+00
    0.2100000000E+04    0.3271307978E+00    0.2063618408E-01    0.8350902151E-02    0.2302751187E+00    0.6272265940E+00
    0.2300000000E+04    0.3326787862E+00    0.1952436448E-01    0.7847335908E-02    0.2342059330E+00    0.6306374489E+00
    0.2500000000E+04    0.3374748268E+00    0.1855422369E-01    0.7407010309E-02    0.2376066031E+00    0.6335864781E+00
    0.2700000000E+04    0.3416573804E+00    0.1770082930E-01    0.7019210089E-02    0.2405745828E+00    0.6361657347E+00
    0.2900000000E+04    0.3453335143E+00    0.1694452813E-01    0.6675381773E-02    0.2431852501E+00    0.6384438770E+00
    0.3100000000E+04    0.3485872239E+00    0.1626969008E-01    0.6368649460E-02    0.2454977548E+00    0.6404732303E+00
    0.3300000000E+04    0.3514852549E+00    0.1566377154E-01    0.6093443933E-02    0.2475591118E+00    0.6422944211E+00
    0.3500000000E+04    0.3540812598E+00    0.1511661604E-01    0.5845219711E-02    0.2494071233E+00    0.6439395083E+00
    0.3700000000E+04    0.3564188171E+00    0.1461992925E-01    0.5620238867E-02    0.2510725012E+00    0.6454341528E+00
    0.3900000000E+04    0.3585336594E+00    0.1416688209E-01    0.5415405131E-02    0.2525804349E+00    0.6467991558E+00
    0.4100000000E+04    0.3604553402E+00    0.1375180828E-01    0.5228135851E-02    0.2539517630E+00    0.6480515702E+00
    0.4300000000E+04    0.3622084972E+00    0.1336997194E-01    0.5056262486E-02    0.2552038624E+00    0.6492055179E+00
    0.4500000000E+04    0.3638138204E+00    0.1301738757E-01    0.4897952760E-02    0.2563513298E+00    0.6502728017E+00
    0.4700000000E+04    0.3652888025E+00    0.1269067944E-01    0.4751649301E-02    0.2574065093E+00    0.6512633676E+00
    0.4900000000E+04    0.3666483263E+00    0.1238697088E-01    0.4616020959E-02    0.2583799057E+00    0.6521856610E+00
    0.1000000000E+04    0.2706226364E+00    0.3125763704E-01    0.1305696788E-01    0.1903502790E+00    0.5903090139E+00
    0.3000000000E+04    0.3470086516E+00    0.1659777335E-01    0.6517753629E-02    0.2443755888E+00    0.6394868813E+00
    0.5000000000E+04    0.3672888445E+00    0.1224295694E-01    0.4551846093E-02    0.2588387969E+00    0.6526235036E+00
    0.7000000000E+04    0.3763353267E+00    0.1012413602E-01    0.3621168734E-02    0.2653460611E+00    0.6591012170E+00
    0.9000000000E+04    0.3813912285E+00    0.8833512207E-02    0.3071442112E-02    0.2690149341E+00    0.6630666499E+00
    0.1100000000E+05    0.3845996290E+00    0.7945576360E-02    0.2703643662E-02    0.2713639995E+00    0.6657875033E+00
    0.1300000000E+05    0.3868085354E+00    0.7287072495E-02    0.2437398677E-02    0.2729959001E+00    0.6677916657E+00
    0.1500000000E+05    0.3884180338E+00    0.6773445382E-02    0.2234004661E-02    0.2741957916E+00    0.6693412683E+00
    0.1700000000E+05    0.3896407129E+00    0.6358103172E-02    0.2072456378E-02    0.2751156398E+00    0.6705824154E+00
    0.1900000000E+05    0.3905996819E+00    0.6013044217E-02    0.1940322193E-02    0.2758437084E+00    0.6716035159E+00
    0.2100000000E+05    0.3913710404E+00    0.5720308338E-02    0.1829746398E-02    0.2764347202E+00    0.6724614681E+00
    0.2300000000E+05    0.3920043020E+00    0.5467779330E-02    0.1735503804E-02    0.2769243871E+00    0.6731946927E+00
    0.2500000000E+05    0.3925330423E+00    0.5246947411E-02    0.1653972883E-02    0.2773369983E+00    0.6738301525E+00
    0.2700000000E+05    0.3929808172E+00    0.5051636093E-02    0.1582557444E-02    0.2776896461E+00    0.6743873771E+00
    0.2900000000E+05    0.3933646313E+00    0.4877238329E-02    0.1519343192E-02    0.2779947070E+00    0.6748808909E+00
    0.3100000000E+05    0.3936970619E+00    0.4720237660E-02    0.1462884587E-02    0.2782613625E+00    0.6753217402E+00
    0.3300000000E+05    0.3939876078E+00    0.4577896679E-02    0.1412067531E-02    0.2784965682E+00    0.6757184901E+00
    0.3500000000E+05    0.3942435745E+00    0.4448047872E-02    0.1366018048E-02    0.2787056899E+00    0.6760778933E+00
    0.3700000000E+05    0.3944706709E+00    0.4328949291E-02    0.1324039840E-02    0.2788929335E+00    0.6764053521E+00
    0.3900000000E+05    0.3946734218E+00    0.4219182577E-02    0.1285570549E-02    0.2790616428E+00    0.6767052456E+00
    0.4100000000E+05    0.3948554590E+00    0.4117579378E-02    0.1250150457E-02    0.2792145099E+00    0.6769811637E+00
    0.4300000000E+05    0.3950197303E+00    0.4023167264E-02    0.1217399663E-02    0.2793537265E+00    0.6772360806E+00
    0.4500000000E+05    0.3951686532E+00    0.3935129304E-02    0.1187001160E-02    0.2794810958E+00    0.6774724833E+00
    0.4700000000E+05    0.3953042284E+00    0.3852773414E-02    0.1158688079E-02    0.2795981143E+00    0.6776924690E+00
    0.4900000000E+05    0.3954281257E+00    0.3775508786E-02    0.1132233965E-02    0.2797060353E+00    0.6778978197E+00
    0.1000000000E+05    0.3831577366E+00    0.8353110727E-02    0.2871272302E-02    0.2703057077E+00    0.6645405148E+00
    0.3000000000E+05    0.3935366158E+00    0.4796749866E-02    0.1490345590E-02    0.2781323572E+00    0.6751073142E+00
    0.5000000000E+05    0.3954861429E+00    0.3738624161E-02    0.1119642415E-02    0.2797569211E+00    0.6779954923E+00
    0.7000000000E+05    0.3962803475E+00    0.3175497859E-02    0.9303971809E-03    0.2804839408E+00    0.6794567995E+00
    0.9000000000E+05    0.3967008152E+00    0.2811497454E-02    0.8110892409E-03    0.2809060253E+00    0.6803699773E+00
    0.1100000000E+06    0.3969557666E+00    0.2551158020E-02    0.7272414690E-03    0.2811864993E+00    0.6810071261E+00
    0.1300000000E+06    0.3971237450E+00    0.2352926616E-02    0.6642461365E-03    0.2813890041E+00    0.6814830419E+00
    0.1500000000E+06    0.3972407647E+00    0.2195398276E-02    0.6147224766E-03    0.2815436632E+00    0.6818554170E+00
    0.1700000000E+06    0.3973255783E+00    0.2066266200E-02    0.5744896423E-03    0.2816666611E+00    0.6821567579E+00
    0.1900000000E+06    0.3973888695E+00    0.1957881450E-02    0.5409802018E-03    0.2817675097E+00    0.6824069285E+00
    0.2100000000E+06    0.3974371485E+00    0.1865204645E-02    0.5125195230E-03    0.2818521870E+00    0.6826188270E+00
    0.2300000000E+06    0.3974745954E+00    0.1784761551E-02    0.4879629430E-03    0.2819246508E+00    0.6828012340E+00
    0.2500000000E+06    0.3975040088E+00    0.1714068284E-02    0.4664981797E-03    0.2819876336E+00    0.6829603576E+00
    0.2700000000E+06    0.3975273276E+00    0.1651295259E-02    0.4475308583E-03    0.2820430868E+00    0.6831007253E+00
    0.2900000000E+06    0.3975459341E+00    0.1595060854E-02    0.4306147776E-03    0.2820924449E+00    0.6832257259E+00
    0.3100000000E+06    0.3975608378E+00    0.1544299453E-02    0.4154076262E-03    0.2821367878E+00    0.6833379519E+00
    0.3300000000E+06    0.3975727915E+00    0.1498174123E-02    0.4016418584E-03    0.2821769456E+00    0.6834394245E+00
    0.3500000000E+06    0.3975823665E+00    0.1456017087E-02    0.3891049577E-03    0.2822135679E+00    0.6835317456E+00
    0.3700000000E+06    0.3975900036E+00    0.1417288128E-02    0.3776257105E-03    0.2822471711E+00    0.6836162031E+00
    0.3900000000E+06    0.3975960473E+00    0.1381544843E-02    0.3670644424E-03    0.2822781716E+00    0.6836938454E+00
    0.4100000000E+06    0.3976007704E+00    0.1348420975E-02    0.3573059321E-03    0.2823069091E+00    0.6837655361E+00
    0.4300000000E+06    0.3976043912E+00    0.1317610329E-02    0.3482541776E-03    0.2823336640E+00    0.6838319934E+00
    0.4500000000E+06    0.3976070861E+00    0.1288854666E-02    0.3398284675E-03    0.2823586698E+00    0.6838938202E+00
    0.4700000000E+06    0.3976089989E+00    0.1261934450E-02    0.3319603913E-03    0.2823821231E+00    0.6839515268E+00
    0.4900000000E+06    0.3976102480E+00    0.1236661687E-02    0.3245915331E-03    0.2824041904E+00    0.6840055484E+00
    0.1000000000E+06    0.3968425688E+00    0.2671651527E-02    0.7658932051E-03    0.2810588114E+00    0.6807139234E+00
    0.3000000000E+06    0.3975537968E+00    0.1569052892E-02    0.4228157926E-03    0.2821151864E+00    0.6832832980E+00
    0.5000000000E+06    0.3976106550E+00    0.1224591574E-02    0.3210783378E-03    0.2824147496E+00    0.6840312961E+00
    0.7000000000E+06    0.3976006737E+00    0.1039971284E-02    0.2678581056E-03    0.2825788919E+00    0.6844208439E+00
    0.9000000000E+06    0.3975762884E+00    0.9204128498E-03    0.2339489817E-03    0.2826896551E+00    0.6846687542E+00
    0.1100000000E+07    0.3975488309E+00    0.8348627280E-03    0.2099816964E-03    0.2827725165E+00    0.6848439951E+00
    0.1300000000E+07    0.3975215686E+00    0.7697227855E-03    0.1919122085E-03    0.2828384199E+00    0.6849762006E+00
    0.1500000000E+07    0.3974955270E+00    0.7179682961E-03    0.1776743819E-03    0.2828929963E+00    0.6850804700E+00
    0.1700000000E+07    0.3974709875E+00    0.6755544649E-03    0.1660892382E-03    0.2829395013E+00    0.6851654050E+00
    0.1900000000E+07    0.3974479620E+00    0.6399654285E-03    0.1564290327E-03    0.2829799775E+00    0.6852363093E+00
    0.2100000000E+07    0.3974263653E+00    0.6095430033E-03    0.1482172845E-03    0.2830157866E+00    0.6852966536E+00
    0.2300000000E+07    0.3974060812E+00    0.5831438172E-03    0.1411273640E-03    0.2830478799E+00    0.6853488160E+00
    0.2500000000E+07    0.3973869895E+00    0.5599503930E-03    0.1349269643E-03    0.2830769470E+00    0.6853944876E+00
    0.2700000000E+07    0.3973689768E+00    0.5393606193E-03    0.1294457932E-03    0.2831035034E+00    0.6854349083E+00
    0.2900000000E+07    0.3973519401E+00    0.5209198523E-03    0.1245558247E-03    0.2831279441E+00    0.6854710102E+00
    0.3100000000E+07    0.3973357876E+00    0.5042774803E-03    0.1201587235E-03    0.2831505784E+00    0.6855035093E+00
    0.3300000000E+07    0.3973204377E+00    0.4891581732E-03    0.1161775554E-03    0.2831716527E+00    0.6855329662E+00
    0.3500000000E+07    0.3973058187E+00    0.4753422856E-03    0.1125511585E-03    0.2831913664E+00    0.6855598264E+00
    0.3700000000E+07    0.3972918671E+00    0.4626521573E-03    0.1092302226E-03    0.2832098835E+00    0.6855844494E+00
    0.3900000000E+07    0.3972785270E+00    0.4509423212E-03    0.1061744960E-03    0.2832273398E+00    0.6856071288E+00
    0.4100000000E+07    0.3972657486E+00    0.4400923671E-03    0.1033507566E-03    0.2832438497E+00    0.6856281068E+00
    0.4300000000E+07    0.3972534878E+00    0.4300016481E-03    0.1007313110E-03    0.2832595097E+00    0.6856475856E+00
    0.4500000000E+07    0.3972417054E+00    0.4205852942E-03    0.9829286723E-04    0.2832744028E+00    0.6856657352E+00
    0.4700000000E+07    0.3972303661E+00    0.4117711662E-03    0.9601567621E-04    0.2832886000E+00    0.6856826999E+00
    0.4900000000E+07    0.3972194386E+00    0.4034974995E-03    0.9388286890E-04    0.2833021632E+00    0.6856986029E+00
    0.1000000000E+07    0.3975626555E+00    0.8744595141E-03    0.2210427028E-03    0.2827337082E+00    0.6847631107E+00
    0.3000000000E+07    0.3973437586E+00    0.5123925748E-03    0.1223008996E-03    0.2831394704E+00    0.6854876720E+00
    0.5000000000E+07    0.3972141202E+00    0.3995464125E-03    0.9286599536E-04    0.2833087242E+00    0.6857061901E+00
    0.7000000000E+07    0.3971237838E+00    0.3391420371E-03    0.7746017078E-04    0.2834167777E+00    0.6858215765E+00
    0.9000000000E+07    0.3970545187E+00    0.3000557382E-03    0.6764410573E-04    0.2834962461E+00    0.6858956108E+00
    0.1100000000E+08    0.3969983560E+00    0.2721029025E-03    0.6070657470E-04    0.2835591119E+00    0.6859482363E+00
    0.1300000000E+08    0.3969511250E+00    0.2508276588E-03    0.5547676584E-04    0.2836111198E+00    0.6859881025E+00
    0.1500000000E+08    0.3969103726E+00    0.2339296283E-03    0.5135639229E-04    0.2836554703E+00    0.6860196459E+00
    0.1700000000E+08    0.3968745343E+00    0.2200849434E-03    0.4800404073E-04    0.2836941296E+00    0.6860454071E+00
    0.1900000000E+08    0.3968425515E+00    0.2084704987E-03    0.4520896876E-04    0.2837283926E+00    0.6860669591E+00
    0.2100000000E+08    0.3968136744E+00    0.1985439792E-03    0.4283320027E-04    0.2837591571E+00    0.6860853346E+00
    0.2300000000E+08    0.3967873526E+00    0.1899315502E-03    0.4078215668E-04    0.2837870715E+00    0.6861012435E+00
    0.2500000000E+08    0.3967631702E+00    0.1823659982E-03    0.3898857516E-04    0.2838126191E+00    0.6861151917E+00
    0.2700000000E+08    0.3967408053E+00    0.1756505509E-03    0.3740315167E-04    0.2838361698E+00    0.6861275510E+00
