  Pressure (Pa) 22mC5-400 (mol/kg) 2mC6-400 (mol/kg) 33mC5-400 (mol/kg) 23mC5-400 (mol/kg) C7-400 (mol/kg)
    0.1000000000E+01    0.1055384846E-02    0.7869768616E-02    0.1922395361E-03    0.9265710911E-04    0.6780857294E-02
    0.3000000000E+01    0.3107361512E-02    0.2266384705E-01    0.5537056592E-03    0.2728124082E-03    0.1958052976E-01
    0.5000000000E+01    0.5085599898E-02    0.3631587497E-01    0.8873747604E-03    0.4464973377E-03    0.3146215401E-01
    0.7000000000E+01    0.6995211162E-02    0.4894988849E-01    0.1196266736E-02    0.6141603381E-03    0.4252782061E-01
    0.9000000000E+01    0.8840825356E-02    0.6067243077E-01    0.1482975281E-02    0.7762076421E-03    0.5286479821E-01
    0.1100000000E+02    0.1062664757E-01    0.7157556214E-01    0.1749741278E-02    0.9330082001E-03    0.6254814280E-01
    0.1300000000E+02    0.1235650635E-01    0.8173926443E-01    0.1998511407E-02    0.1084897926E-02    0.7164277329E-01
    0.1500000000E+02    0.1403389556E-01    0.9123337776E-01    0.2230985352E-02    0.1232183374E-02    0.8020513681E-01
    0.1700000000E+02    0.1566201078E-01    0.1001191733E+00    0.2448654131E-02    0.1375144925E-02    0.8828455527E-01
    0.1900000000E+02    0.1724378099E-01    0.1084506400E+00    0.2652831448E-02    0.1514039573E-02    0.9592432243E-01
    0.2100000000E+02    0.1878189628E-01    0.1162755438E+00    0.2844679507E-02    0.1649103353E-02    0.1031626037E+00
    0.2300000000E+02    0.2027883216E-01    0.1236363069E+00    0.3025230415E-02    0.1780553471E-02    0.1100331790E+00
    0.2500000000E+02    0.2173687087E-01    0.1305707395E+00    0.3195404031E-02    0.1908590181E-02    0.1165660596E+00
    0.2700000000E+02    0.2315812031E-01    0.1371126551E+00    0.3356022924E-02    0.2033398435E-02    0.1227880038E+00
    0.2900000000E+02    0.2454453058E-01    0.1432923878E+00    0.3507824995E-02    0.2155149346E-02    0.1287229491E+00
    0.3100000000E+02    0.2589790886E-01    0.1491372315E+00    0.3651474163E-02    0.2274001483E-02    0.1343923780E+00
    0.3300000000E+02    0.2721993246E-01    0.1546718139E+00    0.3787569464E-02    0.2390102024E-02    0.1398156270E+00
    0.3500000000E+02    0.2851216054E-01    0.1599184156E+00    0.3916652829E-02    0.2503587778E-02    0.1450101513E+00
    0.3700000000E+02    0.2977604452E-01    0.1648972447E+00    0.4039215765E-02    0.2614586104E-02    0.1499917493E+00
    0.3900000000E+02    0.3101293746E-01    0.1696266730E+00    0.4155705109E-02    0.2723215727E-02    0.1547747573E+00
    0.4100000000E+02    0.3222410242E-01    0.1741234412E+00    0.4266528015E-02    0.2829587479E-02    0.1593722163E+00
    0.4300000000E+02    0.3341071994E-01    0.1784028362E+00    0.4372056275E-02    0.2933804950E-02    0.1637960165E+00
    0.4500000000E+02    0.3457389490E-01    0.1824788461E+00    0.4472630090E-02    0.3035965091E-02    0.1680570227E+00
    0.4700000000E+02    0.3571466253E-01    0.1863642957E+00    0.4568561363E-02    0.3136158744E-02    0.1721651844E+00
    0.4900000000E+02    0.3683399404E-01    0.1900709650E+00    0.4660136590E-02    0.3234471130E-02    0.1761296303E+00
    0.1000000000E+02    0.9740962873E-02    0.6622116556E-01    0.1618723137E-02    0.8552420410E-03    0.5778390088E-01
    0.3000000000E+02    0.2522524099E-01    0.1462550730E+00    0.3580629829E-02    0.2214928308E-02    0.1315895976E+00
    0.5000000000E+02    0.3738590845E-01    0.1918606786E+00    0.4704373899E-02    0.3282947051E-02    0.1780606092E+00
    0.7000000000E+02    0.4749337916E-01    0.2204895005E+00    0.5414432231E-02    0.4170773546E-02    0.2108522653E+00
    0.9000000000E+02    0.5622117725E-01    0.2395563495E+00    0.5891148251E-02    0.4937511025E-02    0.2357010064E+00
    0.1100000000E+03    0.6396384705E-01    0.2527475648E+00    0.6224206678E-02    0.5617783336E-02    0.2554662867E+00
    0.1300000000E+03    0.7097007371E-01    0.2620983441E+00    0.6463148017E-02    0.6233415180E-02    0.2717465359E+00
    0.1500000000E+03    0.7740565711E-01    0.2688204262E+00    0.6637490054E-02    0.6798957776E-02    0.2855121572E+00
    0.1700000000E+03    0.8338615748E-01    0.2736777622E+00    0.6765859813E-02    0.7324553478E-02    0.2973902281E+00
    0.1900000000E+03    0.8899507267E-01    0.2771741496E+00    0.6860554731E-02    0.7817530856E-02    0.3078062783E+00
    0.2100000000E+03    0.9429455810E-01    0.2796541132E+00    0.6929995273E-02    0.8283345416E-02    0.3170606597E+00
    0.2300000000E+03    0.9933205496E-01    0.2813604235E+00    0.6980123605E-02    0.8726161274E-02    0.3253723411E+00
    0.2500000000E+03    0.1041445540E+00    0.2824685030E+00    0.7015240486E-02    0.9149225336E-02    0.3329053376E+00
    0.2700000000E+03    0.1087614323E+00    0.2831078485E+00    0.7038526506E-02    0.9555116273E-02    0.3397853546E+00
    0.2900000000E+03    0.1132063965E+00    0.2833758282E+00    0.7052377952E-02    0.9945915041E-02    0.3461106536E+00
    0.3100000000E+03    0.1174988474E+00    0.2833468319E+00    0.7058629639E-02    0.1032332467E-01    0.3519593681E+00
    0.3300000000E+03    0.1216548604E+00    0.2830784943E+00    0.7058706546E-02    0.1068875629E-01    0.3573945637E+00
    0.3500000000E+03    0.1256879033E+00    0.2826160229E+00    0.7053729338E-02    0.1104339216E-01    0.3624678204E+00
    0.3700000000E+03    0.1296093713E+00    0.2819952675E+00    0.7044589244E-02    0.1138823260E-01    0.3672218223E+00
    0.3900000000E+03    0.1334289924E+00    0.2812449355E+00    0.7032002146E-02    0.1172413158E-01    0.3716922642E+00
    0.4100000000E+03    0.1371551383E+00    0.2803882165E+00    0.7016548264E-02    0.1205182404E-01    0.3759092786E+00
    0.4300000000E+03    0.1407950668E+00    0.2794439899E+00    0.6998701688E-02    0.1237194710E-01    0.3798985204E+00
    0.4500000000E+03    0.1443551118E+00    0.2784277349E+00    0.6978852644E-02    0.1268505680E-01    0.3836820014E+00
    0.4700000000E+03    0.1478408351E+00    0.2773522238E+00    0.6957324477E-02    0.1299164142E-01    0.3872787415E+00
    0.4900000000E+03    0.1512571483E+00    0.2762280559E+00    0.6934386747E-02    0.1329213210E-01    0.3907052812E+00
    0.1000000000E+03    0.6019763633E-01    0.2467334519E+00    0.6071912070E-02    0.5286874181E-02    0.2460995494E+00
    0.3000000000E+03    0.1153706129E+00    0.2833945153E+00    0.7056356515E-02    0.1013619929E-01    0.3490903369E+00
    0.5000000000E+03    0.1529406578E+00    0.2756505480E+00    0.6922461382E-02    0.1344021351E-01    0.3923593192E+00
    0.7000000000E+03    0.1838084546E+00    0.2630631850E+00    0.6649137413E-02    0.1615579691E-01    0.4192263573E+00
    0.9000000000E+03    0.2107193220E+00    0.2503010429E+00    0.6357741532E-02    0.1852395324E-01    0.4384555266E+00
    0.1100000000E+04    0.2348189351E+00    0.2382923933E+00    0.6075206084E-02    0.2064525213E-01    0.4532868685E+00
    0.1300000000E+04    0.2567140624E+00    0.2272084465E+00    0.5808421509E-02    0.2257295076E-01    0.4652704952E+00
    0.1500000000E+04    0.2767774618E+00    0.2170274872E+00    0.5558698195E-02    0.2433976259E-01    0.4752663935E+00
    0.1700000000E+04    0.2952634453E+00    0.2076776967E+00    0.5325592567E-02    0.2596800369E-01    0.4838003194E+00
    0.1900000000E+04    0.3123596443E+00    0.1990788592E+00    0.5108109317E-02    0.2747413782E-01    0.4912166086E+00
    0.2100000000E+04    0.3282129453E+00    0.1911549849E+00    0.4905117684E-02    0.2887105327E-01    0.4977526976E+00
    0.2300000000E+04    0.3429435723E+00    0.1838376713E+00    0.4715501269E-02    0.3016929932E-01    0.5035789991E+00
    0.2500000000E+04    0.3566532214E+00    0.1770664049E+00    0.4538210148E-02    0.3137780011E-01    0.5088218057E+00
    0.2700000000E+04    0.3694300022E+00    0.1707879008E+00    0.4372275624E-02    0.3250428837E-01    0.5135772035E+00
    0.2900000000E+04    0.3813515776E+00    0.1649552144E+00    0.4216810626E-02    0.3355558084E-01    0.5179199171E+00
    0.3100000000E+04    0.3924872432E+00    0.1595268801E+00    0.4071004886E-02    0.3453776068E-01    0.5219091490E+00
    0.3300000000E+04    0.4028993641E+00    0.1544661499E+00    0.3934118562E-02    0.3545630347E-01    0.5255925591E+00
    0.3500000000E+04    0.4126444089E+00    0.1497403455E+00    0.3805475767E-02    0.3631616776E-01    0.5290090507E+00
    0.3700000000E+04    0.4217737250E+00    0.1453203130E+00    0.3684458512E-02    0.3712186312E-01    0.5321907681E+00
    0.3900000000E+04    0.4303341435E+00    0.1411799648E+00    0.3570501222E-02    0.3787750303E-01    0.5351645579E+00
    0.4100000000E+04    0.4383684682E+00    0.1372958938E+00    0.3463085833E-02    0.3858684774E-01    0.5379530581E+00
    0.4300000000E+04    0.4459158825E+00    0.1336470464E+00    0.3361737410E-02    0.3925333994E-01    0.5405755225E+00
    0.4500000000E+04    0.4530122972E+00    0.1302144435E+00    0.3266020217E-02    0.3988013517E-01    0.5430484538E+00
    0.4700000000E+04    0.4596906536E+00    0.1269809416E+00    0.3175534205E-02    0.4047012843E-01    0.5453860964E+00
    0.4900000000E+04    0.4659811912E+00    0.1239310260E+00    0.3089911836E-02    0.4102597760E-01    0.5476008246E+00
    0.1000000000E+04    0.2230750192E+00    0.2441842561E+00    0.6214724656E-02    0.1961146467E-01    0.4463012357E+00
    0.3000000000E+04    0.3870136025E+00    0.1621929024E+00    0.4142748162E-02    0.3405495457E-01    0.5199555063E+00
    0.5000000000E+04    0.4689897985E+00    0.1224704656E+00    0.3048817842E-02    0.4129186910E-01    0.5486655286E+00
    0.7000000000E+04    0.5144396608E+00    0.1001050609E+00    0.2413546423E-02    0.4531287015E-01    0.5655350661E+00
    0.9000000000E+04    0.5418347613E+00    0.8603966216E-01    0.2011087779E-02    0.4774235596E-01    0.5770794362E+00
    0.1100000000E+05    0.5595587846E+00    0.7642474395E-01    0.1737225798E-02    0.4931832221E-01    0.5856610231E+00
    0.1300000000E+05    0.5717028451E+00    0.6942509333E-01    0.1539994301E-02    0.5040121874E-01    0.5923839465E+00
    0.1500000000E+05    0.5804159412E+00    0.6407906765E-01    0.1391444754E-02    0.5118054620E-01    0.5978461072E+00
    0.1700000000E+05    0.5869045798E+00    0.5984178395E-01    0.1275501201E-02    0.5176278679E-01    0.6024045260E+00
    0.1900000000E+05    0.5918860882E+00    0.5638393869E-01    0.1182370067E-02    0.5221130477E-01    0.6062878720E+00
    0.2100000000E+05    0.5958082382E+00    0.5349560754E-01    0.1105787933E-02    0.5256568913E-01    0.6096505675E+00
    0.2300000000E+05    0.5989623466E+00    0.5103688013E-01    0.1041580780E-02    0.5285172006E-01    0.6126013105E+00
    0.2500000000E+05    0.6015447580E+00    0.4891095310E-01    0.9868677858E-03    0.5308678975E-01    0.6152192130E+00
    0.2700000000E+05    0.6036918895E+00    0.4704868624E-01    0.9396000034E-03    0.5328299395E-01    0.6175634600E+00
    0.2900000000E+05    0.6055010504E+00    0.4539933494E-01    0.8982817950E-03    0.5344896957E-01    0.6196793619E+00
    0.3100000000E+05    0.6070432680E+00    0.4392476999E-01    0.8617964432E-03    0.5359102740E-01    0.6216022946E+00
    0.3300000000E+05    0.6083714450E+00    0.4259574919E-01    0.8292934521E-03    0.5371387286E-01    0.6233603488E+00
    0.3500000000E+05    0.6095256960E+00    0.4138944026E-01    0.8001136450E-03    0.5382107788E-01    0.6249761608E+00
    0.3700000000E+05    0.6105369277E+00    0.4028773151E-01    0.7737381249E-03    0.5391539755E-01    0.6264682095E+00
    0.3900000000E+05    0.6114292947E+00    0.3927605271E-01    0.7497527138E-03    0.5399898756E-01    0.6278517536E+00
    0.4100000000E+05    0.6122219193E+00    0.3834253485E-01    0.7278226758E-03    0.5407355647E-01    0.6291395223E+00
    0.4300000000E+05    0.6129301167E+00    0.3747740002E-01    0.7076744229E-03    0.5414047430E-01    0.6303422323E+00
    0.4500000000E+05    0.6135662834E+00    0.3667251102E-01    0.6890820589E-03    0.5420085136E-01    0.6314689815E+00
    0.4700000000E+05    0.6141405507E+00    0.3592103366E-01    0.6718573309E-03    0.5425559615E-01    0.6325275516E+00
    0.4900000000E+05    0.6146612721E+00    0.3521718005E-01    0.6558420259E-03    0.5430545872E-01    0.6335246442E+00
    0.1000000000E+05    0.5515865806E+00    0.8081937591E-01    0.1862108743E-02    0.4860892337E-01    0.5816547375E+00
    0.3000000000E+05    0.6063018690E+00    0.4464220635E-01    0.8794933869E-03    0.5352266296E-01    0.6206630476E+00
    0.5000000000E+05    0.6149037699E+00    0.3488153996E-01    0.6482452172E-03    0.5432875843E-01    0.6340019820E+00
    0.7000000000E+05    0.6181401101E+00    0.2977734862E-01    0.5359324214E-03    0.5464634782E-01    0.6413954002E+00
    0.9000000000E+05    0.6198003957E+00    0.2648472043E-01    0.4666537897E-03    0.5481709741E-01    0.6462770621E+00
    0.1100000000E+06    0.6208006871E+00    0.2412505223E-01    0.4184936313E-03    0.5492487529E-01    0.6498161971E+00
    0.1300000000E+06    0.6214657187E+00    0.2232268384E-01    0.3825210940E-03    0.5499988380E-01    0.6525370620E+00
    0.1500000000E+06    0.6219382539E+00    0.2088559196E-01    0.3543316908E-03    0.5505561570E-01    0.6547150411E+00
    0.1700000000E+06    0.6222904746E+00    0.1970371221E-01    0.3314700591E-03    0.5509900464E-01    0.6565107183E+00
    0.1900000000E+06    0.6225626609E+00    0.1870868820E-01    0.3124448795E-03    0.5513398352E-01    0.6580249868E+00
    0.2100000000E+06    0.6227790051E+00    0.1785546213E-01    0.2962909900E-03    0.5516295341E-01    0.6593248960E+00
    0.2300000000E+06    0.6229548892E+00    0.1711293415E-01    0.2823523975E-03    0.5518746604E-01    0.6604570007E+00
    0.2500000000E+06    0.6231005483E+00    0.1645883548E-01    0.2701655296E-03    0.5520857091E-01    0.6614547850E+00
    0.2700000000E+06    0.6232230510E+00    0.1587673509E-01    0.2593922255E-03    0.5522700456E-01    0.6623430396E+00
    0.2900000000E+06    0.6233274319E+00    0.1535420255E-01    0.2497792144E-03    0.5524330016E-01    0.6631405690E+00
    0.3100000000E+06    0.6234173722E+00    0.1488163303E-01    0.2411325328E-03    0.5525785378E-01    0.6638619336E+00
    0.3300000000E+06    0.6234956245E+00    0.1445146913E-01    0.2333007783E-03    0.5527096631E-01    0.6645186094E+00
    0.3500000000E+06    0.6235642875E+00    0.1405767027E-01    0.2261638040E-03    0.5528287073E-01    0.6651197813E+00
    0.3700000000E+06    0.6236249883E+00    0.1369534122E-01    0.2196248815E-03    0.5529375058E-01    0.6656729011E+00
    0.3900000000E+06    0.6236790078E+00    0.1336046644E-01    0.2136051387E-03    0.5530375251E-01    0.6661840866E+00
    0.4100000000E+06    0.6237273678E+00    0.1304971614E-01    0.2080395331E-03    0.5531299534E-01    0.6666584149E+00
    0.4300000000E+06    0.6237708930E+00    0.1276030228E-01    0.2028738818E-03    0.5532157640E-01    0.6671001396E+00
    0.4500000000E+06    0.6238102565E+00    0.1248986995E-01    0.1980626360E-03    0.5532957633E-01    0.6675128551E+00
    0.4700000000E+06    0.6238460125E+00    0.1223641432E-01    0.1935671886E-03    0.5533706254E-01    0.6678996229E+00
    0.4900000000E+06    0.6238786220E+00    0.1199821624E-01    0.1893545712E-03    0.5534409186E-01    0.6682630692E+00
    0.1000000000E+06    0.6203562045E+00    0.2521801616E-01    0.4406487915E-03    0.5487637192E-01    0.6481732998E+00
    0.3000000000E+06    0.6233740171E+00    0.1511218557E-01    0.2453453895E-03    0.5525077406E-01    0.6635099930E+00
    0.5000000000E+06    0.6238938699E+00    0.1188436702E-01    0.1873453079E-03    0.5534745058E-01    0.6684367675E+00
    0.7000000000E+06    0.6241011246E+00    0.1013573691E-01    0.1568332871E-03    0.5539930753E-01    0.6711031305E+00
    0.9000000000E+06    0.6242096191E+00    0.8995827652E-02    0.1373092970E-03    0.5543399514E-01    0.6728393459E+00
    0.1100000000E+07    0.6242748797E+00    0.8176389018E-02    0.1234642952E-03    0.5545982809E-01    0.6740862533E+00
    0.1300000000E+07    0.6243175834E+00    0.7550281772E-02    0.1129991219E-03    0.5548032035E-01    0.6750382157E+00
    0.1500000000E+07    0.6243471366E+00    0.7051472554E-02    0.1047356345E-03    0.5549726246E-01    0.6757961185E+00
    0.1700000000E+07    0.6243684105E+00    0.6641779261E-02    0.9799983482E-04    0.5551168298E-01    0.6764182587E+00
    0.1900000000E+07    0.6243841695E+00    0.6297371134E-02    0.9237475895E-04    0.5552422433E-01    0.6769409994E+00
    0.2100000000E+07    0.6243960926E+00    0.6002496546E-02    0.8758687327E-04    0.5553531339E-01    0.6773883626E+00
    0.2300000000E+07    0.6244052553E+00    0.5746267729E-02    0.8344834700E-04    0.5554524764E-01    0.6777769442E+00
    0.2500000000E+07    0.6244123759E+00    0.5520883802E-02    0.7982538579E-04    0.5555424233E-01    0.6781186294E+00
    0.2700000000E+07    0.6244179511E+00    0.5320588394E-02    0.7661977719E-04    0.5556245810E-01    0.6784221848E+00
    0.2900000000E+07    0.6244223345E+00    0.5141027819E-02    0.7375759335E-04    0.5557001792E-01    0.6786942380E+00
    0.3100000000E+07    0.6244257839E+00    0.4978839671E-02    0.7118198709E-04    0.5557701793E-01    0.6789399059E+00
    0.3300000000E+07    0.6244284912E+00    0.4831379997E-02    0.6884843715E-04    0.5558353470E-01    0.6791632107E+00
    0.3500000000E+07    0.6244306017E+00    0.4696537031E-02    0.6672151611E-04    0.5558963019E-01    0.6793673641E+00
    0.3700000000E+07    0.6244322276E+00    0.4572600789E-02    0.6477263649E-04    0.5559535521E-01    0.6795549659E+00
    0.3900000000E+07    0.6244334562E+00    0.4458169734E-02    0.6297844365E-04    0.5560075194E-01    0.6797281464E+00
    0.4100000000E+07    0.6244343567E+00    0.4352082658E-02    0.6131964695E-04    0.5560585579E-01    0.6798886701E+00
    0.4300000000E+07    0.6244349844E+00    0.4253368109E-02    0.5978015472E-04    0.5561069674E-01    0.6800380130E+00
    0.4500000000E+07    0.6244353837E+00    0.4161206254E-02    0.5834642396E-04    0.5561530043E-01    0.6801774203E+00
    0.4700000000E+07    0.6244355910E+00    0.4074899714E-02    0.5700696450E-04    0.5561968890E-01    0.6803079510E+00
    0.4900000000E+07    0.6244356361E+00    0.3993850986E-02    0.5575195607E-04    0.5562388131E-01    0.6804305123E+00
    0.1000000000E+07    0.6242459617E+00    0.8556063192E-02    0.1298587502E-03    0.5544773972E-01    0.6735086523E+00
    0.3000000000E+07    0.6244241627E+00    0.5057941764E-02    0.7243699580E-04    0.5557358272E-01    0.6788200969E+00
    0.5000000000E+07    0.6244356057E+00    0.3955134457E-02    0.5515343381E-04    0.5562590929E-01    0.6804890532E+00
    0.7000000000E+07    0.6244306705E+00    0.3362286496E-02    0.4607259419E-04    0.5565930690E-01    0.6813849647E+00
    0.9000000000E+07    0.6244224804E+00    0.2977714228E-02    0.4027342653E-04    0.5568386950E-01    0.6819656108E+00
    0.1100000000E+08    0.6244137925E+00    0.2702222015E-02    0.3616846653E-04    0.5570330162E-01    0.6823812971E+00
    0.1300000000E+08    0.6244053629E+00    0.2492281784E-02    0.3307039702E-04    0.5571937863E-01    0.6826979175E+00
    0.1500000000E+08    0.6243974044E+00    0.2325374603E-02    0.3062734017E-04    0.5573308944E-01    0.6829495384E+00
    0.1700000000E+08    0.6243899555E+00    0.2188520123E-02    0.2863820767E-04    0.5574504163E-01    0.6831557853E+00
    0.1900000000E+08    0.6243829958E+00    0.2073637634E-02    0.2697873168E-04    0.5575563524E-01    0.6833288705E+00
    0.2100000000E+08    0.6243764861E+00    0.1975397475E-02    0.2556747463E-04    0.5576514773E-01    0.6834768458E+00
    0.2300000000E+08    0.6243703837E+00    0.1890122505E-02    0.2434856847E-04    0.5577377938E-01    0.6836052643E+00
    0.2500000000E+08    0.6243646476E+00    0.1815182352E-02    0.2328225305E-04    0.5578167955E-01    0.6837180974E+00
    0.2700000000E+08    0.6243592406E+00    0.1748638774E-02    0.2233936631E-04    0.5578896255E-01    0.6838182709E+00
