  Pressure (Pa) 22mC5-400 (mol/kg) 2mC6-400 (mol/kg) 33mC5-400 (mol/kg) 23mC5-400 (mol/kg) C7-400 (mol/kg)
    0.1000000000E+01    0.1055090419E-02    0.7885128498E-02    0.6420298853E-04    0.3705251544E-03    0.5098982865E-02
    0.3000000000E+01    0.3104832982E-02    0.2279108408E-01    0.1855879005E-03    0.1090362655E-02    0.1479680241E-01
    0.5000000000E+01    0.5078889237E-02    0.3664220187E-01    0.2984040428E-03    0.1783635346E-02    0.2388461997E-01
    0.7000000000E+01    0.6982629317E-02    0.4954214506E-01    0.4034935722E-03    0.2452227846E-02    0.3242266122E-01
    0.9000000000E+01    0.8820907017E-02    0.6158144316E-01    0.5015919058E-03    0.3097843583E-02    0.4046334537E-01
    0.1100000000E+02    0.1059812125E-01    0.7283951612E-01    0.5933441781E-03    0.3722026355E-02    0.4805251749E-01
    0.1300000000E+02    0.1231826885E-01    0.8338633366E-01    0.6793187304E-03    0.4326178868E-02    0.5523045404E-01
    0.1500000000E+02    0.1398499020E-01    0.9328378439E-01    0.7600182413E-03    0.4911578728E-02    0.6203268879E-01
    0.1700000000E+02    0.1560160865E-01    0.1025868128E+00    0.8358889683E-03    0.5479392295E-02    0.6849069551E-01
    0.1900000000E+02    0.1717116485E-01    0.1113443685E+00    0.9073284644E-03    0.6030686723E-02    0.7463245582E-01
    0.2100000000E+02    0.1869644668E-01    0.1196002039E+00    0.9746920583E-03    0.6566440450E-02    0.8048293392E-01
    0.2300000000E+02    0.2018001539E-01    0.1273935465E+00    0.1038298323E-02    0.7087552390E-02    0.8606447571E-01
    0.2500000000E+02    0.2162422856E-01    0.1347596701E+00    0.1098433712E-02    0.7594849980E-02    0.9139714602E-01
    0.2700000000E+02    0.2303126031E-01    0.1417303808E+00    0.1155356512E-02    0.8089096270E-02    0.9649901478E-01
    0.2900000000E+02    0.2440311910E-01    0.1483344327E+00    0.1209300221E-02    0.8570996182E-02    0.1013864010E+00
    0.3100000000E+02    0.2574166355E-01    0.1545978857E+00    0.1260476454E-02    0.9041202036E-02    0.1060740819E+00
    0.3300000000E+02    0.2704861634E-01    0.1605444133E+00    0.1309077443E-02    0.9500318463E-02    0.1105754720E+00
    0.3500000000E+02    0.2832557671E-01    0.1661955695E+00    0.1355278209E-02    0.9948906764E-02    0.1149027787E+00
    0.3700000000E+02    0.2957403154E-01    0.1715710207E+00    0.1399238440E-02    0.1038748880E-01    0.1190671359E+00
    0.3900000000E+02    0.3079536520E-01    0.1766887471E+00    0.1441104133E-02    0.1081655047E-01    0.1230787210E+00
    0.4100000000E+02    0.3199086843E-01    0.1815652197E+00    0.1481009029E-02    0.1123654481E-01    0.1269468563E+00
    0.4300000000E+02    0.3316174632E-01    0.1862155547E+00    0.1519075866E-02    0.1164789478E-01    0.1306800981E+00
    0.4500000000E+02    0.3430912542E-01    0.1906536498E+00    0.1555417490E-02    0.1205099580E-01    0.1342863143E+00
    0.4700000000E+02    0.3543406016E-01    0.1948923041E+00    0.1590137824E-02    0.1244621796E-01    0.1377727537E+00
    0.4900000000E+02    0.3653753869E-01    0.1989433242E+00    0.1623332733E-02    0.1283390811E-01    0.1411461055E+00
    0.1000000000E+02    0.9716888406E-02    0.6730355549E-01    0.5482241192E-03    0.3412523313E-02    0.4431173309E-01
    0.3000000000E+02    0.2507644492E-01    0.1515072018E+00    0.1235221830E-02    0.8807522013E-02    0.1037543362E+00
    0.5000000000E+02    0.3708152385E-01    0.2009019130E+00    0.1639386098E-02    0.1302503115E-01    0.1427923246E+00
    0.7000000000E+02    0.4703215184E-01    0.2324742678E+00    0.1898649090E-02    0.1652134006E-01    0.1710582396E+00
    0.9000000000E+02    0.5561022536E-01    0.2537830916E+00    0.2074388084E-02    0.1953579793E-01    0.1928579650E+00
    0.1100000000E+03    0.6321205489E-01    0.2686905851E+00    0.2197969021E-02    0.2220751876E-01    0.2104250204E+00
    0.1300000000E+03    0.7008591976E-01    0.2793679225E+00    0.2287029957E-02    0.2462365807E-01    0.2250429073E+00
    0.1500000000E+03    0.7639654342E-01    0.2871246124E+00    0.2352213618E-02    0.2684204230E-01    0.2375067365E+00
    0.1700000000E+03    0.8225827688E-01    0.2927943994E+00    0.2400299846E-02    0.2890281593E-01    0.2483382529E+00
    0.1900000000E+03    0.8775346752E-01    0.2969314458E+00    0.2435798031E-02    0.3083488899E-01    0.2578957778E+00
    0.2100000000E+03    0.9294323964E-01    0.2999172113E+00    0.2461814710E-02    0.3265972120E-01    0.2664346623E+00
    0.2300000000E+03    0.9787413287E-01    0.3020220184E+00    0.2480553376E-02    0.3439365225E-01    0.2741425297E+00
    0.2500000000E+03    0.1025823576E+00    0.3034421850E+00    0.2493615966E-02    0.3604939555E-01    0.2811608306E+00
    0.2700000000E+03    0.1070966177E+00    0.3043232994E+00    0.2502191875E-02    0.3763702917E-01    0.2875985708E+00
    0.2900000000E+03    0.1114400385E+00    0.3047752981E+00    0.2507180428E-02    0.3916467268E-01    0.2935413559E+00
    0.3100000000E+03    0.1156315184E+00    0.3048825139E+00    0.2509272513E-02    0.4063896155E-01    0.2990575314E+00
    0.3300000000E+03    0.1196866966E+00    0.3047105399E+00    0.2509006365E-02    0.4206538704E-01    0.3042024572E+00
    0.3500000000E+03    0.1236186616E+00    0.3043110208E+00    0.2506806519E-02    0.4344854479E-01    0.3090215522E+00
    0.3700000000E+03    0.1274384777E+00    0.3037250639E+00    0.2503011545E-02    0.4479231972E-01    0.3135525073E+00
    0.3900000000E+03    0.1311555829E+00    0.3029857081E+00    0.2497894141E-02    0.4610002580E-01    0.3178269207E+00
    0.4100000000E+03    0.1347780949E+00    0.3021197398E+00    0.2491675912E-02    0.4737451333E-01    0.3218715281E+00
    0.4300000000E+03    0.1383130476E+00    0.3011490477E+00    0.2484538394E-02    0.4861825213E-01    0.3257091402E+00
    0.4500000000E+03    0.1417665779E+00    0.3000916447E+00    0.2476631393E-02    0.4983339707E-01    0.3293593667E+00
    0.4700000000E+03    0.1451440740E+00    0.2989624498E+00    0.2468079349E-02    0.5102184004E-01    0.3328391827E+00
    0.4900000000E+03    0.1484502939E+00    0.2977738913E+00    0.2458986260E-02    0.5218525170E-01    0.3361633759E+00
    0.1000000000E+03    0.5951515301E-01    0.2618745369E+00    0.2141378614E-02    0.2090817568E-01    0.2020752537E+00
    0.3000000000E+03    0.1135537266E+00    0.3048675293E+00    0.2508551834E-02    0.3990811971E-01    0.2963490461E+00
    0.5000000000E+03    0.1500780140E+00    0.2971606714E+00    0.2454264695E-02    0.5275804083E-01    0.3377712264E+00
    0.7000000000E+03    0.1797068698E+00    0.2835788488E+00    0.2346649182E-02    0.6318635413E-01    0.3642022402E+00
    0.9000000000E+03    0.2051115345E+00    0.2696701481E+00    0.2232873190E-02    0.7213096527E-01    0.3835219825E+00
    0.1100000000E+04    0.2274296097E+00    0.2566011899E+00    0.2123652450E-02    0.7999125370E-01    0.3986834107E+00
    0.1300000000E+04    0.2472879492E+00    0.2446143019E+00    0.2021751641E-02    0.8698726237E-01    0.4111151113E+00
    0.1500000000E+04    0.2650924725E+00    0.2337018330E+00    0.1927646494E-02    0.9326147019E-01    0.4216177820E+00
    0.1700000000E+04    0.2811360159E+00    0.2237839774E+00    0.1841062491E-02    0.9891666450E-01    0.4306856478E+00
    0.1900000000E+04    0.2956456729E+00    0.2147639526E+00    0.1761476879E-02    0.1040325630E+00    0.4386453351E+00
    0.2100000000E+04    0.3088061211E+00    0.2065464764E+00    0.1688302136E-02    0.1086740024E+00    0.4457240026E+00
    0.2300000000E+04    0.3207722260E+00    0.1990438444E+00    0.1620957338E-02    0.1128953621E+00    0.4520860080E+00
    0.2500000000E+04    0.3316764342E+00    0.1921774995E+00    0.1558896050E-02    0.1167431575E+00    0.4578540897E+00
    0.2700000000E+04    0.3416334567E+00    0.1858779198E+00    0.1501616146E-02    0.1202576826E+00    0.4631223058E+00
    0.2900000000E+04    0.3507434601E+00    0.1800839033E+00    0.1448661755E-02    0.1234741291E+00    0.4679643053E+00
    0.3100000000E+04    0.3590943873E+00    0.1747416795E+00    0.1399621744E-02    0.1264233993E+00    0.4724388174E+00
    0.3300000000E+04    0.3667637391E+00    0.1698040202E+00    0.1354126700E-02    0.1291327312E+00    0.4765934126E+00
    0.3500000000E+04    0.3738200001E+00    0.1652294164E+00    0.1311845376E-02    0.1316261978E+00    0.4804671486E+00
    0.3700000000E+04    0.3803238162E+00    0.1609813413E+00    0.1272481042E-02    0.1339251202E+00    0.4840924773E+00
    0.3900000000E+04    0.3863289874E+00    0.1570276036E+00    0.1235767970E-02    0.1360484156E+00    0.4874966462E+00
    0.4100000000E+04    0.3918833158E+00    0.1533397831E+00    0.1201468157E-02    0.1380128946E+00    0.4907027481E+00
    0.4300000000E+04    0.3970293379E+00    0.1498927419E+00    0.1169368320E-02    0.1398335184E+00    0.4937305190E+00
    0.4500000000E+04    0.4018049592E+00    0.1466642023E+00    0.1139277182E-02    0.1415236211E+00    0.4965969536E+00
    0.4700000000E+04    0.4062440077E+00    0.1436343815E+00    0.1111023038E-02    0.1430951039E+00    0.4993167865E+00
    0.4900000000E+04    0.4103767161E+00    0.1407856762E+00    0.1084451576E-02    0.1445586048E+00    0.5019028727E+00
    0.1000000000E+04    0.2166100548E+00    0.2630059617E+00    0.2177435104E-02    0.7618038237E-01    0.3915125084E+00
    0.3000000000E+04    0.3550087378E+00    0.1773594124E+00    0.1423676478E-02    0.1249803793E+00    0.4702442979E+00
    0.5000000000E+04    0.4123367623E+00    0.1394242692E+00    0.1071752907E-02    0.1452528776E+00    0.5031493399E+00
    0.7000000000E+04    0.4406898755E+00    0.1186830815E+00    0.8789901243E-03    0.1553120070E+00    0.5231885312E+00
    0.9000000000E+04    0.4567174417E+00    0.1055112561E+00    0.7585291619E-03    0.1610192798E+00    0.5372309134E+00
    0.1100000000E+05    0.4667140782E+00    0.9627015914E-01    0.6758490463E-03    0.1645934629E+00    0.5478524069E+00
    0.1300000000E+05    0.4734187337E+00    0.8933196705E-01    0.6151781128E-03    0.1670011416E+00    0.5562866665E+00
    0.1500000000E+05    0.4781690044E+00    0.8386752274E-01    0.5684301718E-03    0.1687149276E+00    0.5632146042E+00
    0.1700000000E+05    0.4816806900E+00    0.7941049961E-01    0.5310645111E-03    0.1699880494E+00    0.5690491800E+00
    0.1900000000E+05    0.4843657344E+00    0.7567774799E-01    0.5003412672E-03    0.1709664291E+00    0.5740583608E+00
    0.2100000000E+05    0.4864755214E+00    0.7248665205E-01    0.4745092539E-03    0.1717392340E+00    0.5784251357E+00
    0.2300000000E+05    0.4881709957E+00    0.6971360039E-01    0.4523955825E-03    0.1723636318E+00    0.5822795659E+00
    0.2500000000E+05    0.4895593933E+00    0.6727155875E-01    0.4331837731E-03    0.1728777678E+00    0.5857171233E+00
    0.2700000000E+05    0.4907146065E+00    0.6509721669E-01    0.4162868082E-03    0.1733079657E+00    0.5888097773E+00
    0.2900000000E+05    0.4916890326E+00    0.6314324545E-01    0.4012709574E-03    0.1736729203E+00    0.5916130030E+00
    0.3100000000E+05    0.4925207561E+00    0.6137343423E-01    0.3878081729E-03    0.1739862412E+00    0.5941703813E+00
    0.3300000000E+05    0.4932380602E+00    0.5975952249E-01    0.3756452799E-03    0.1742580516E+00    0.5965167138E+00
    0.3500000000E+05    0.4938623493E+00    0.5827907193E-01    0.3645834211E-03    0.1744960253E+00    0.5986801901E+00
    0.3700000000E+05    0.4944100945E+00    0.5691399747E-01    0.3544639724E-03    0.1747060773E+00    0.6006839320E+00
    0.3900000000E+05    0.4948941607E+00    0.5564952890E-01    0.3451586631E-03    0.1748928356E+00    0.6025471167E+00
    0.4100000000E+05    0.4953247300E+00    0.5447346127E-01    0.3365625000E-03    0.1750599692E+00    0.6042858077E+00
    0.4300000000E+05    0.4957099592E+00    0.5337560361E-01    0.3285886032E-03    0.1752104228E+00    0.6059135812E+00
    0.4500000000E+05    0.4960564530E+00    0.5234736653E-01    0.3211643744E-03    0.1753465847E+00    0.6074420036E+00
    0.4700000000E+05    0.4963696127E+00    0.5138144926E-01    0.3142286103E-03    0.1754704119E+00    0.6088810011E+00
    0.4900000000E+05    0.4966538956E+00    0.5047159863E-01    0.3077292976E-03    0.1755835221E+00    0.6102391497E+00
    0.1000000000E+05    0.4622508898E+00    0.1005280332E+00    0.7137094113E-03    0.1629958395E+00    0.5428739236E+00
    0.3000000000E+05    0.4921207749E+00    0.6223724358E-01    0.3943627305E-03    0.1738353348E+00    0.5929200713E+00
    0.5000000000E+05    0.4967863920E+00    0.5003598361E-01    0.3046291417E-03    0.1756364886E+00    0.6108902736E+00
    0.7000000000E+05    0.4985610953E+00    0.4327640797E-01    0.2574616724E-03    0.1763669860E+00    0.6210539139E+00
    0.9000000000E+05    0.4994746726E+00    0.3878827921E-01    0.2270874101E-03    0.1767680135E+00    0.6278468907E+00
    0.1100000000E+06    0.5000239616E+00    0.3551518878E-01    0.2053936020E-03    0.1770250081E+00    0.6328134916E+00
    0.1300000000E+06    0.5003870344E+00    0.3298540809E-01    0.1888856606E-03    0.1772059104E+00    0.6366560457E+00
    0.1500000000E+06    0.5006428250E+00    0.3095090755E-01    0.1757722892E-03    0.1773415094E+00    0.6397472916E+00
    0.1700000000E+06    0.5008314804E+00    0.2926666578E-01    0.1650260830E-03    0.1774478156E+00    0.6423063207E+00
    0.1900000000E+06    0.5009754960E+00    0.2784127106E-01    0.1560092440E-03    0.1775340009E+00    0.6444716727E+00
    0.2100000000E+06    0.5010884189E+00    0.2661377068E-01    0.1483017894E-03    0.1776057121E+00    0.6463359081E+00
    0.2300000000E+06    0.5011788755E+00    0.2554170375E-01    0.1416142243E-03    0.1776666249E+00    0.6479635876E+00
    0.2500000000E+06    0.5012526091E+00    0.2459443509E-01    0.1357395696E-03    0.1777192411E+00    0.6494013282E+00
    0.2700000000E+06    0.5013135855E+00    0.2374921647E-01    0.1305253476E-03    0.1777653260E+00    0.6506837629E+00
    0.2900000000E+06    0.5013646271E+00    0.2298874488E-01    0.1258563927E-03    0.1778061635E+00    0.6518372418E+00
    0.3100000000E+06    0.5014077946E+00    0.2229958782E-01    0.1216438622E-03    0.1778427116E+00    0.6528822242E+00
    0.3300000000E+06    0.5014446261E+00    0.2167113289E-01    0.1178179647E-03    0.1778757008E+00    0.6538348746E+00
    0.3500000000E+06    0.5014762917E+00    0.2109486692E-01    0.1143230043E-03    0.1779056987E+00    0.6547081597E+00
    0.3700000000E+06    0.5015036963E+00    0.2056386877E-01    0.1111139161E-03    0.1779331538E+00    0.6555126207E+00
    0.3900000000E+06    0.5015275501E+00    0.2007244458E-01    0.1081537895E-03    0.1779584255E+00    0.6562569285E+00
    0.4100000000E+06    0.5015484178E+00    0.1961586057E-01    0.1054120622E-03    0.1779818056E+00    0.6569482912E+00
    0.4300000000E+06    0.5015667539E+00    0.1919014372E-01    0.1028631817E-03    0.1780035339E+00    0.6575927574E+00
    0.4500000000E+06    0.5015829275E+00    0.1879193094E-01    0.1004855952E-03    0.1780238094E+00    0.6581954463E+00
    0.4700000000E+06    0.5015972419E+00    0.1841835340E-01    0.9826097896E-04    0.1780427986E+00    0.6587607239E+00
    0.4900000000E+06    0.5016099478E+00    0.1806694656E-01    0.9617364126E-04    0.1780606425E+00    0.6592923405E+00
    0.1000000000E+06    0.4997801716E+00    0.3703687892E-01    0.2154318951E-03    0.1769089447E+00    0.6305035422E+00
    0.3000000000E+06    0.5013870889E+00    0.2263597170E-01    0.1236978159E-03    0.1778249236E+00    0.6523721989E+00
    0.5000000000E+06    0.5016157645E+00    0.1789887983E-01    0.9517715081E-04    0.1780691731E+00    0.6595465564E+00
    0.7000000000E+06    0.5016839517E+00    0.1530887672E-01    0.7997462649E-04    0.1782012171E+00    0.6634607924E+00
    0.9000000000E+06    0.5017062638E+00    0.1361196530E-01    0.7018036662E-04    0.1782898409E+00    0.6660216837E+00
    0.1100000000E+07    0.5017107805E+00    0.1238807638E-01    0.6320498615E-04    0.1783559621E+00    0.6678668282E+00
    0.1300000000E+07    0.5017072763E+00    0.1145070169E-01    0.5791642672E-04    0.1784084720E+00    0.6692789175E+00
    0.1500000000E+07    0.5016998707E+00    0.1070253847E-01    0.5373097352E-04    0.1784519176E+00    0.6704052704E+00
    0.1700000000E+07    0.5016905212E+00    0.1008713741E-01    0.5031319136E-04    0.1784889167E+00    0.6713312760E+00
    0.1900000000E+07    0.5016802349E+00    0.9569175456E-02    0.4745485405E-04    0.1785211074E+00    0.6721103266E+00
    0.2100000000E+07    0.5016695587E+00    0.9125255949E-02    0.4501899024E-04    0.1785495793E+00    0.6727777650E+00
    0.2300000000E+07    0.5016587997E+00    0.8739178566E-02    0.4291133407E-04    0.1785750925E+00    0.6733580499E+00
    0.2500000000E+07    0.5016481335E+00    0.8399318899E-02    0.4106461310E-04    0.1785981974E+00    0.6738687230E+00
    0.2700000000E+07    0.5016376602E+00    0.8097088171E-02    0.3942936684E-04    0.1786193052E+00    0.6743227400E+00
    0.2900000000E+07    0.5016274357E+00    0.7825983207E-02    0.3796831319E-04    0.1786387305E+00    0.6747299066E+00
    0.3100000000E+07    0.5016174889E+00    0.7580976542E-02    0.3665274920E-04    0.1786567197E+00    0.6750978010E+00
    0.3300000000E+07    0.5016078323E+00    0.7358111436E-02    0.3546017127E-04    0.1786734688E+00    0.6754323855E+00
    0.3500000000E+07    0.5015984683E+00    0.7154225060E-02    0.3437265520E-04    0.1786891367E+00    0.6757384249E+00
    0.3700000000E+07    0.5015893932E+00    0.6966754486E-02    0.3337572489E-04    0.1787038536E+00    0.6760197791E+00
    0.3900000000E+07    0.5015805995E+00    0.6793597693E-02    0.3245754477E-04    0.1787177277E+00    0.6762796132E+00
    0.4100000000E+07    0.5015720777E+00    0.6633012053E-02    0.3160833185E-04    0.1787308498E+00    0.6765205506E+00
    0.4300000000E+07    0.5015638168E+00    0.6483538890E-02    0.3081992008E-04    0.1787432967E+00    0.6767447866E+00
    0.4500000000E+07    0.5015558057E+00    0.6343946549E-02    0.3008543266E-04    0.1787551343E+00    0.6769541749E+00
    0.4700000000E+07    0.5015480330E+00    0.6213186841E-02    0.2939903191E-04    0.1787664192E+00    0.6771502923E+00
    0.4900000000E+07    0.5015404875E+00    0.6090361288E-02    0.2875572597E-04    0.1787772003E+00    0.6773344904E+00
    0.1000000000E+07    0.5017099320E+00    0.1295556213E-01    0.6642966966E-04    0.1783250099E+00    0.6670114828E+00
    0.3000000000E+07    0.5016224265E+00    0.7700486244E-02    0.3729387487E-04    0.1786478914E+00    0.6749183580E+00
    0.5000000000E+07    0.5015367965E+00    0.6031677352E-02    0.2844886701E-04    0.1787824157E+00    0.6774224905E+00
    0.7000000000E+07    0.5014725377E+00    0.5132203230E-02    0.2378828504E-04    0.1788683196E+00    0.6787707633E+00
    0.9000000000E+07    0.5014217120E+00    0.4547850512E-02    0.2080718138E-04    0.1789315150E+00    0.6796461278E+00
    0.1100000000E+08    0.5013797820E+00    0.4128820526E-02    0.1869474888E-04    0.1789815189E+00    0.6802735617E+00
    0.1300000000E+08    0.5013441278E+00    0.3809259792E-02    0.1709923267E-04    0.1790228942E+00    0.6807518972E+00
    0.1500000000E+08    0.5013131259E+00    0.3555055797E-02    0.1584030031E-04    0.1790581831E+00    0.6811323034E+00
    0.1700000000E+08    0.5012857063E+00    0.3346526354E-02    0.1481479059E-04    0.1790889478E+00    0.6814442921E+00
    0.1900000000E+08    0.5012611286E+00    0.3171409209E-02    0.1395890064E-04    0.1791162172E+00    0.6817062437E+00
    0.2100000000E+08    0.5012388599E+00    0.3021611646E-02    0.1323079038E-04    0.1791407047E+00    0.6819302855E+00
    0.2300000000E+08    0.5012185037E+00    0.2891547227E-02    0.1260174071E-04    0.1791629256E+00    0.6821247870E+00
    0.2500000000E+08    0.5011997577E+00    0.2777217988E-02    0.1205130325E-04    0.1791832642E+00    0.6822957370E+00
    0.2700000000E+08    0.5011823858E+00    0.2675676785E-02    0.1156447403E-04    0.1792020144E+00    0.6824475492E+00
