  Pressure (Pa) 22mC5-400 (mol/kg) 2mC6-400 (mol/kg) 33mC5-400 (mol/kg) 23mC5-400 (mol/kg) C7-400 (mol/kg)
    0.1000000000E+01    0.1057925832E-02    0.4769534105E-02    0.4530523967E-03    0.3715204309E-03    0.1713839449E-02
    0.3000000000E+01    0.3129244276E-02    0.1400162991E-01    0.1329987083E-02    0.1098931484E-02    0.5053117782E-02
    0.5000000000E+01    0.5143825539E-02    0.2284481034E-01    0.2169964695E-02    0.1806429396E-02    0.8279997336E-02
    0.7000000000E+01    0.7104637251E-02    0.3132188292E-01    0.2975152165E-02    0.2495055595E-02    0.1140061343E-01
    0.9000000000E+01    0.9014436029E-02    0.3945392902E-01    0.3747552433E-02    0.3165777464E-02    0.1442065372E-01
    0.1100000000E+02    0.1087578612E-01    0.4726046314E-01    0.4489019569E-02    0.3819494879E-02    0.1734539857E-01
    0.1300000000E+02    0.1269107607E-01    0.5475957485E-01    0.5201272271E-02    0.4457046073E-02    0.2017975720E-01
    0.1500000000E+02    0.1446253374E-01    0.6196805574E-01    0.5885905913E-02    0.5079212878E-02    0.2292829992E-01
    0.1700000000E+02    0.1619223972E-01    0.6890151300E-01    0.6544403345E-02    0.5686725460E-02    0.2559528717E-01
    0.1900000000E+02    0.1788213948E-01    0.7557447137E-01    0.7178144579E-02    0.6280266561E-02    0.2818469553E-01
    0.2100000000E+02    0.1953405428E-01    0.8200046477E-01    0.7788415486E-02    0.6860475347E-02    0.3070024116E-01
    0.2300000000E+02    0.2114969109E-01    0.8819211883E-01    0.8376415647E-02    0.7427950868E-02    0.3314540098E-01
    0.2500000000E+02    0.2273065153E-01    0.9416122528E-01    0.8943265416E-02    0.7983255206E-02    0.3552343176E-01
    0.2700000000E+02    0.2427843996E-01    0.9991880929E-01    0.9490012313E-02    0.8526916320E-02    0.3783738747E-01
    0.2900000000E+02    0.2579447089E-01    0.1054751903E+00    0.1001763681E-01    0.9059430632E-02    0.4009013491E-01
    0.3100000000E+02    0.2728007568E-01    0.1108400371E+00    0.1052705757E-01    0.9581265386E-02    0.4228436800E-01
    0.3300000000E+02    0.2873650864E-01    0.1160224183E+00    0.1101913623E-01    0.1009286079E-01    0.4442262073E-01
    0.3500000000E+02    0.3016495262E-01    0.1210308476E+00    0.1149468167E-01    0.1059463197E-01    0.4650727898E-01
    0.3700000000E+02    0.3156652409E-01    0.1258733251E+00    0.1195445405E-01    0.1108697077E-01    0.4854059126E-01
    0.3900000000E+02    0.3294227784E-01    0.1305573756E+00    0.1239916832E-01    0.1157024737E-01    0.5052467860E-01
    0.4100000000E+02    0.3429321121E-01    0.1350900832E+00    0.1282949755E-01    0.1204481180E-01    0.5246154351E-01
    0.4300000000E+02    0.3562026805E-01    0.1394781222E+00    0.1324607590E-01    0.1251099532E-01    0.5435307824E-01
    0.4500000000E+02    0.3692434228E-01    0.1437277868E+00    0.1364950142E-01    0.1296911166E-01    0.5620107238E-01
    0.4700000000E+02    0.3820628124E-01    0.1478450172E+00    0.1404033852E-01    0.1341945822E-01    0.5800721973E-01
    0.4900000000E+02    0.3946688871E-01    0.1518354242E+00    0.1441912030E-01    0.1386231709E-01    0.5977312477E-01
    0.1000000000E+02    0.9951013940E-02    0.4339672264E-01    0.4122042199E-02    0.3494707958E-02    0.1589462294E-01
    0.3000000000E+02    0.2654099643E-01    0.1081809752E+00    0.1027456752E-01    0.9321654831E-02    0.4119440377E-01
    0.5000000000E+02    0.4008943311E-01    0.1537847377E+00    0.1460414900E-01    0.1408102286E-01    0.6064146484E-01
    0.7000000000E+02    0.5158676978E-01    0.1872582021E+00    0.1778065329E-01    0.1812042006E-01    0.7622611851E-01
    0.9000000000E+02    0.6162077871E-01    0.2126058746E+00    0.2018457909E-01    0.2164614142E-01    0.8911242524E-01
    0.1100000000E+03    0.7056441557E-01    0.2322644290E+00    0.2204746497E-01    0.2478909155E-01    0.1000293346E+00
    0.1300000000E+03    0.7866699403E-01    0.2477980507E+00    0.2351795295E-01    0.2763678085E-01    0.1094581945E+00
    0.1500000000E+03    0.8610228585E-01    0.2602547913E+00    0.2469564563E-01    0.3025020616E-01    0.1177306325E+00
    0.1700000000E+03    0.9299562914E-01    0.2703619500E+00    0.2564966935E-01    0.3267336455E-01    0.1250832030E+00
    0.1900000000E+03    0.9944004879E-01    0.2786392284E+00    0.2642942512E-01    0.3493891115E-01    0.1316896046E+00
    0.2100000000E+03    0.1055062794E+00    0.2854673073E+00    0.2707110417E-01    0.3707167696E-01    0.1376805507E+00
    0.2300000000E+03    0.1112492359E+00    0.2911310285E+00    0.2760179082E-01    0.3909093997E-01    0.1431564999E+00
    0.2500000000E+03    0.1167123273E+00    0.2958474908E+00    0.2804213189E-01    0.4101193929E-01    0.1481960822E+00
    0.2700000000E+03    0.1219304135E+00    0.2997848537E+00    0.2840812341E-01    0.4284691302E-01    0.1528618337E+00
    0.2900000000E+03    0.1269318828E+00    0.3030752393E+00    0.2871233645E-01    0.4460582732E-01    0.1572041978E+00
    0.3100000000E+03    0.1317401413E+00    0.3058237779E+00    0.2896477664E-01    0.4629689955E-01    0.1612643777E+00
    0.3300000000E+03    0.1363747039E+00    0.3081150756E+00    0.2917349870E-01    0.4792698090E-01    0.1650764090E+00
    0.3500000000E+03    0.1408520047E+00    0.3100179181E+00    0.2934505345E-01    0.4950184102E-01    0.1686686924E+00
    0.3700000000E+03    0.1451860095E+00    0.3115887465E+00    0.2948481805E-01    0.5102638315E-01    0.1720651439E+00
    0.3900000000E+03    0.1493886858E+00    0.3128742614E+00    0.2959724352E-01    0.5250480881E-01    0.1752860718E+00
    0.4100000000E+03    0.1534703660E+00    0.3139133998E+00    0.2968604256E-01    0.5394074556E-01    0.1783488514E+00
    0.4300000000E+03    0.1574400332E+00    0.3147388525E+00    0.2975433380E-01    0.5533734732E-01    0.1812684530E+00
    0.4500000000E+03    0.1613055482E+00    0.3153782430E+00    0.2980475379E-01    0.5669737384E-01    0.1840578571E+00
    0.4700000000E+03    0.1650738300E+00    0.3158550500E+00    0.2983954477E-01    0.5802325436E-01    0.1867283854E+00
    0.4900000000E+03    0.1687510031E+00    0.3161893389E+00    0.2986062412E-01    0.5931713903E-01    0.1892899669E+00
    0.1000000000E+03    0.6621111512E-01    0.2230333233E+00    0.2117291707E-01    0.2325922260E-01    0.9478259898E-01
    0.3000000000E+03    0.1293588631E+00    0.3045115327E+00    0.2884448491E-01    0.4545938721E-01    0.1592672857E+00
    0.5000000000E+03    0.1705571501E+00    0.3163085220E+00    0.2986654616E-01    0.5995268900E-01    0.1905326785E+00
    0.7000000000E+03    0.2029537956E+00    0.3143303110E+00    0.2956389737E-01    0.7135497306E-01    0.2113327130E+00
    0.9000000000E+03    0.2300134067E+00    0.3083537644E+00    0.2887366447E-01    0.8088259041E-01    0.2270404680E+00
    0.1100000000E+04    0.2532385653E+00    0.3012047371E+00    0.2806966251E-01    0.8906303519E-01    0.2397279523E+00
    0.1300000000E+04    0.2734707846E+00    0.2938977320E+00    0.2725176177E-01    0.9619171710E-01    0.2504080262E+00
    0.1500000000E+04    0.2912609851E+00    0.2868314689E+00    0.2646008938E-01    0.1024620399E+00    0.2596517594E+00
    0.1700000000E+04    0.3070072868E+00    0.2801604551E+00    0.2571072154E-01    0.1080137790E+00    0.2678134670E+00
    0.1900000000E+04    0.3210159336E+00    0.2739331615E+00    0.2500907415E-01    0.1129544680E+00    0.2751285985E+00
    0.2100000000E+04    0.3335319812E+00    0.2681499768E+00    0.2435559115E-01    0.1173701697E+00    0.2817618963E+00
    0.2300000000E+04    0.3447565293E+00    0.2627895968E+00    0.2374838001E-01    0.1213315224E+00    0.2878333503E+00
    0.2500000000E+04    0.3548573476E+00    0.2578217010E+00    0.2318450700E-01    0.1248974676E+00    0.2934332050E+00
    0.2700000000E+04    0.3639759710E+00    0.2532132194E+00    0.2266065685E-01    0.1281177393E+00    0.2986311368E+00
    0.2900000000E+04    0.3722327534E+00    0.2489314351E+00    0.2217347290E-01    0.1310346358E+00    0.3034821284E+00
    0.3100000000E+04    0.3797306491E+00    0.2449454670E+00    0.2171972966E-01    0.1336843471E+00    0.3080303742E+00
    0.3300000000E+04    0.3865581471E+00    0.2412269036E+00    0.2129641498E-01    0.1360979832E+00    0.3123119616E+00
    0.3500000000E+04    0.3927916077E+00    0.2377499901E+00    0.2090076280E-01    0.1383023945E+00    0.3163567625E+00
    0.3700000000E+04    0.3984971566E+00    0.2344915835E+00    0.2053025894E-01    0.1403208366E+00    0.3201898000E+00
    0.3900000000E+04    0.4037322409E+00    0.2314309944E+00    0.2018263242E-01    0.1421735157E+00    0.3238322564E+00
    0.4100000000E+04    0.4085469180E+00    0.2285497778E+00    0.1985583974E-01    0.1438780415E+00    0.3273022305E+00
    0.4300000000E+04    0.4129849314E+00    0.2258315112E+00    0.1954804587E-01    0.1454498049E+00    0.3306153151E+00
    0.4500000000E+04    0.4170846126E+00    0.2232615755E+00    0.1925760460E-01    0.1469022945E+00    0.3337850450E+00
    0.4700000000E+04    0.4208796409E+00    0.2208269506E+00    0.1898303932E-01    0.1482473635E+00    0.3368232480E+00
    0.4900000000E+04    0.4243996846E+00    0.2185160291E+00    0.1872302502E-01    0.1494954548E+00    0.3397403239E+00
    0.1000000000E+04    0.2420433532E+00    0.3048406456E+00    0.2847754067E-01    0.8511946578E-01    0.2336839197E+00
    0.3000000000E+04    0.3760707223E+00    0.2469033113E+00    0.2194261501E-01    0.1323908366E+00    0.3057916743E+00
    0.5000000000E+04    0.4260648978E+00    0.2174036745E+00    0.1859809778E-01    0.1500860595E+00    0.3411563545E+00
    0.7000000000E+04    0.4498917972E+00    0.1996540261E+00    0.1663191249E-01    0.1585531697E+00    0.3648810602E+00
    0.9000000000E+04    0.4632166237E+00    0.1872975208E+00    0.1530466530E-01    0.1633093010E+00    0.3826981747E+00
    0.1100000000E+05    0.4715238733E+00    0.1778991501E+00    0.1432445899E-01    0.1662887325E+00    0.3969165212E+00
    0.1300000000E+05    0.4771165738E+00    0.1703407274E+00    0.1355625554E-01    0.1683048272E+00    0.4087080826E+00
    0.1500000000E+05    0.4811007829E+00    0.1640311448E+00    0.1292900313E-01    0.1697487707E+00    0.4187521431E+00
    0.1700000000E+05    0.4840640427E+00    0.1586236098E+00    0.1240147500E-01    0.1708286700E+00    0.4274783589E+00
    0.1900000000E+05    0.4863436666E+00    0.1538981586E+00    0.1194789008E-01    0.1716641843E+00    0.4351759701E+00
    0.2100000000E+05    0.4881455658E+00    0.1497067000E+00    0.1155115740E-01    0.1723284753E+00    0.4420490375E+00
    0.2300000000E+05    0.4896018258E+00    0.1459447779E+00    0.1119940923E-01    0.1728685503E+00    0.4482469002E+00
    0.2500000000E+05    0.4908007037E+00    0.1425359283E+00    0.1088408995E-01    0.1733158718E+00    0.4538821181E+00
    0.2700000000E+05    0.4918032183E+00    0.1394224661E+00    0.1059883864E-01    0.1736922299E+00    0.4590416120E+00
    0.2900000000E+05    0.4926527959E+00    0.1365597773E+00    0.1033880305E-01    0.1740131594E+00    0.4637938806E+00
    0.3100000000E+05    0.4933811191E+00    0.1339126312E+00    0.1010020056E-01    0.1742900146E+00    0.4681938453E+00
    0.3300000000E+05    0.4940118060E+00    0.1314527112E+00    0.9880027249E-02    0.1745312753E+00    0.4722862018E+00
    0.3500000000E+05    0.4945627980E+00    0.1291569101E+00    0.9675859144E-02    0.1747433950E+00    0.4761077978E+00
    0.3700000000E+05    0.4950479525E+00    0.1270061222E+00    0.9485712804E-02    0.1749313677E+00    0.4796893593E+00
    0.3900000000E+05    0.4954781317E+00    0.1249843673E+00    0.9307945305E-02    0.1750991155E+00    0.4830567667E+00
    0.4100000000E+05    0.4958619631E+00    0.1230781431E+00    0.9141180976E-02    0.1752497597E+00    0.4862320169E+00
    0.4300000000E+05    0.4962063811E+00    0.1212759378E+00    0.8984256780E-02    0.1753858138E+00    0.4892339572E+00
    0.4500000000E+05    0.4965170196E+00    0.1195678564E+00    0.8836180924E-02    0.1755093241E+00    0.4920788546E+00
    0.4700000000E+05    0.4967985001E+00    0.1179453323E+00    0.8696101047E-02    0.1756219726E+00    0.4947808427E+00
    0.4900000000E+05    0.4970546480E+00    0.1164008995E+00    0.8563279447E-02    0.1757251542E+00    0.4973522759E+00
    0.1000000000E+05    0.4678124416E+00    0.1823161293E+00    0.1478175950E-01    0.1649557907E+00    0.3901679618E+00
    0.3000000000E+05    0.4930304819E+00    0.1352111703E+00    0.1021702598E-01    0.1741565106E+00    0.4660348995E+00
    0.5000000000E+05    0.4971742409E+00    0.1156558901E+00    0.8499386428E-02    0.1757735671E+00    0.4985924797E+00
    0.7000000000E+05    0.4987903799E+00    0.1036191079E+00    0.7482542818E-02    0.1764480970E+00    0.5186005965E+00
    0.9000000000E+05    0.4996342632E+00    0.9511090898E-01    0.6780496925E-02    0.1768245193E+00    0.5326973624E+00
    0.1100000000E+06    0.5001462352E+00    0.8863154315E-01    0.6254704278E-02    0.1770683386E+00    0.5434010127E+00
    0.1300000000E+06    0.5004866895E+00    0.8345827672E-01    0.5840270518E-02    0.1772412558E+00    0.5519256982E+00
    0.1500000000E+06    0.5007275488E+00    0.7918973101E-01    0.5501873468E-02    0.1773715845E+00    0.5589447116E+00
    0.1700000000E+06    0.5009057126E+00    0.7558112532E-01    0.5218301187E-02    0.1774741884E+00    0.5648678563E+00
    0.1900000000E+06    0.5010419969E+00    0.7247284517E-01    0.4975892524E-02    0.1775576463E+00    0.5699618211E+00
    0.2100000000E+06    0.5011490052E+00    0.6975542163E-01    0.4765374657E-02    0.1776272718E+00    0.5744091646E+00
    0.2300000000E+06    0.5012347984E+00    0.6735074990E-01    0.4580189862E-02    0.1776865409E+00    0.5783399123E+00
    0.2500000000E+06    0.5013047631E+00    0.6520129973E-01    0.4415545028E-02    0.1777378291E+00    0.5818496846E+00
    0.2700000000E+06    0.5013626297E+00    0.6326356900E-01    0.4267840510E-02    0.1777828188E+00    0.5850106801E+00
    0.2900000000E+06    0.5014110602E+00    0.6150393115E-01    0.4134310851E-02    0.1778227372E+00    0.5878786321E+00
    0.3100000000E+06    0.5014520025E+00    0.5989590164E-01    0.4012790028E-02    0.1778585024E+00    0.5904973823E+00
    0.3300000000E+06    0.5014869130E+00    0.5841828145E-01    0.3901553072E-02    0.1778908161E+00    0.5929019833E+00
    0.3500000000E+06    0.5015169016E+00    0.5705386176E-01    0.3799206220E-02    0.1779202247E+00    0.5951208598E+00
    0.3700000000E+06    0.5015428277E+00    0.5578849895E-01    0.3704608911E-02    0.1779471605E+00    0.5971773508E+00
    0.3900000000E+06    0.5015653668E+00    0.5461044052E-01    0.3616817206E-02    0.1779719706E+00    0.5990908319E+00
    0.4100000000E+06    0.5015850566E+00    0.5350982469E-01    0.3535042004E-02    0.1779949374E+00    0.6008775480E+00
    0.4300000000E+06    0.5016023298E+00    0.5247830321E-01    0.3458617661E-02    0.1780162930E+00    0.6025512399E+00
    0.4500000000E+06    0.5016175386E+00    0.5150875266E-01    0.3386978082E-02    0.1780362303E+00    0.6041236236E+00
    0.4700000000E+06    0.5016309724E+00    0.5059505080E-01    0.3319638260E-02    0.1780549111E+00    0.6056047614E+00
    0.4900000000E+06    0.5016428705E+00    0.4973190109E-01    0.3256179852E-02    0.1780724721E+00    0.6070033528E+00
    0.1000000000E+06    0.4999185574E+00    0.9167337971E-01    0.6500607628E-02    0.1769579638E+00    0.5383796275E+00
    0.3000000000E+06    0.5014323668E+00    0.6068239681E-01    0.4072166008E-02    0.1778410909E+00    0.5892167896E+00
    0.5000000000E+06    0.5016483076E+00    0.4931781910E-01    0.3225790819E-02    0.1780808699E+00    0.6076740971E+00
    0.7000000000E+06    0.5017111212E+00    0.4283130654E-01    0.2754468142E-02    0.1782110381E+00    0.6181635883E+00
    0.9000000000E+06    0.5017302953E+00    0.3847159050E-01    0.2442911106E-02    0.1782985721E+00    0.6251950641E+00
    0.1100000000E+07    0.5017326816E+00    0.3527145623E-01    0.2217087936E-02    0.1783639568E+00    0.6303466177E+00
    0.1300000000E+07    0.5017276014E+00    0.3278819673E-01    0.2043625591E-02    0.1784159245E+00    0.6343383985E+00
    0.1500000000E+07    0.5017189646E+00    0.3078575204E-01    0.1904936631E-02    0.1784589481E+00    0.6375535640E+00
    0.1700000000E+07    0.5017086158E+00    0.2912485804E-01    0.1790744290E-02    0.1784956061E+00    0.6402177738E+00
    0.1900000000E+07    0.5016974959E+00    0.2771718925E-01    0.1694583391E-02    0.1785275132E+00    0.6424739494E+00
    0.2100000000E+07    0.5016861091E+00    0.2650358642E-01    0.1612154006E-02    0.1785557443E+00    0.6444177070E+00
    0.2300000000E+07    0.5016747343E+00    0.2544269799E-01    0.1540469160E-02    0.1785810495E+00    0.6461158143E+00
    0.2500000000E+07    0.5016635272E+00    0.2450461005E-01    0.1477380058E-02    0.1786039725E+00    0.6476165299E+00
    0.2700000000E+07    0.5016525734E+00    0.2366706263E-01    0.1421295750E-02    0.1786249191E+00    0.6489557371E+00
    0.2900000000E+07    0.5016419181E+00    0.2291309471E-01    0.1371009577E-02    0.1786442004E+00    0.6501607584E+00
    0.3100000000E+07    0.5016315819E+00    0.2222952014E-01    0.1325587409E-02    0.1786620598E+00    0.6512528225E+00
    0.3300000000E+07    0.5016215708E+00    0.2160590842E-01    0.1284293229E-02    0.1786786912E+00    0.6522487123E+00
    0.3500000000E+07    0.5016118824E+00    0.2103388348E-01    0.1246538149E-02    0.1786942517E+00    0.6531618981E+00
    0.3700000000E+07    0.5016025087E+00    0.2050662946E-01    0.1211844611E-02    0.1787088700E+00    0.6540033359E+00
    0.3900000000E+07    0.5015934389E+00    0.2001853468E-01    0.1179820693E-02    0.1787226532E+00    0.6547820422E+00
    0.4100000000E+07    0.5015846606E+00    0.1956493038E-01    0.1150141318E-02    0.1787356912E+00    0.6555055155E+00
    0.4300000000E+07    0.5015761607E+00    0.1914189566E-01    0.1122534261E-02    0.1787480599E+00    0.6561800506E+00
    0.4500000000E+07    0.5015679261E+00    0.1874610975E-01    0.1096769594E-02    0.1787598246E+00    0.6568109771E+00
    0.4700000000E+07    0.5015599437E+00    0.1837473846E-01    0.1072651586E-02    0.1787710412E+00    0.6574028421E+00
    0.4900000000E+07    0.5015522010E+00    0.1802534589E-01    0.1050012431E-02    0.1787817584E+00    0.6579595524E+00
    0.1000000000E+07    0.5017328093E+00    0.3676115988E-01    0.2321899209E-02    0.1783333417E+00    0.6279495349E+00
    0.3000000000E+07    0.5016367094E+00    0.2256321531E-01    0.1347740449E-02    0.1786532947E+00    0.6507197722E+00
    0.5000000000E+07    0.5015484157E+00    0.1785822194E-01    0.1039201384E-02    0.1787869432E+00    0.6582257983E+00
    0.7000000000E+07    0.5014827005E+00    0.1528115061E-01    0.8740301747E-03    0.1788723821E+00    0.6623276625E+00
    0.9000000000E+07    0.5014309153E+00    0.1359119899E-01    0.7674044637E-03    0.1789352793E+00    0.6650135952E+00
    0.1100000000E+08    0.5013882889E+00    0.1237164602E-01    0.6913766621E-03    0.1789850723E+00    0.6669498396E+00
    0.1300000000E+08    0.5013520980E+00    0.1143722444E-01    0.6336887275E-03    0.1790262891E+00    0.6684321588E+00
    0.1500000000E+08    0.5013206653E+00    0.1069119734E-01    0.5880075592E-03    0.1790614538E+00    0.6696148152E+00
    0.1700000000E+08    0.5012928895E+00    0.1007741014E-01    0.5506888454E-03    0.1790921183E+00    0.6705872781E+00
    0.1900000000E+08    0.5012680106E+00    0.9560708302E-02    0.5194680695E-03    0.1791193050E+00    0.6714055180E+00
    0.2100000000E+08    0.5012454825E+00    0.9117798443E-02    0.4928544886E-03    0.1791437229E+00    0.6721065978E+00
    0.2300000000E+08    0.5012248998E+00    0.8732547032E-02    0.4698215246E-03    0.1791658846E+00    0.6727161749E+00
    0.2500000000E+08    0.5012059537E+00    0.8393374746E-02    0.4496362000E-03    0.1791861720E+00    0.6732526551E+00
    0.2700000000E+08    0.5011884031E+00    0.8091724330E-02    0.4317593863E-03    0.1792048776E+00    0.6737296349E+00
