  Pressure (Pa) 22mC5-400 (mol/kg) 2mC6-400 (mol/kg) 33mC5-400 (mol/kg) 23mC5-400 (mol/kg) C7-400 (mol/kg)
    0.1000000000E+01    0.1059675457E-02    0.3155411489E-02    0.1927073591E-03    0.4651682444E-03    0.1017868767E-01
    0.3000000000E+01    0.3144473934E-02    0.9128797996E-02    0.5576539781E-03    0.1380346918E-02    0.2942988578E-01
    0.5000000000E+01    0.5184765126E-02    0.1469132331E-01    0.8976834004E-03    0.2276000594E-02    0.4733915514E-01
    0.7000000000E+01    0.7182333457E-02    0.1988417252E-01    0.1215297968E-02    0.3152911985E-02    0.6404648039E-01
    0.9000000000E+01    0.9138866059E-02    0.2474303160E-01    0.1512665139E-02    0.4011821131E-02    0.7967288377E-01
    0.1100000000E+02    0.1105595936E-01    0.2929898949E-01    0.1791672513E-02    0.4853428290E-02    0.9432353803E-01
    0.1300000000E+02    0.1293512516E-01    0.3357926727E-01    0.2053972297E-02    0.5678396597E-02    0.1080902853E+00
    0.1500000000E+02    0.1477779619E-01    0.3760781200E-01    0.2301017502E-02    0.6487354515E-02    0.1210536897E+00
    0.1700000000E+02    0.1658533126E-01    0.4140578354E-01    0.2534091622E-02    0.7280898083E-02    0.1332847220E+00
    0.1900000000E+02    0.1835902004E-01    0.4499195641E-01    0.2754333115E-02    0.8059593007E-02    0.1448461509E+00
    0.2100000000E+02    0.2010008738E-01    0.4838305344E-01    0.2962755733E-02    0.8823976574E-02    0.1557936977E+00
    0.2300000000E+02    0.2180969744E-01    0.5159402448E-01    0.3160265490E-02    0.9574559436E-02    0.1661770026E+00
    0.2500000000E+02    0.2348895735E-01    0.5463828035E-01    0.3347674912E-02    0.1031182726E-01    0.1760404347E+00
    0.2700000000E+02    0.2513892080E-01    0.5752789037E-01    0.3525715060E-02    0.1103624223E-01    0.1854237765E+00
    0.2900000000E+02    0.2676059115E-01    0.6027374984E-01    0.3695045718E-02    0.1174824449E-01    0.1943628038E+00
    0.3100000000E+02    0.2835492452E-01    0.6288572279E-01    0.3856264081E-02    0.1244825345E-01    0.2028897801E+00
    0.3300000000E+02    0.2992283250E-01    0.6537276408E-01    0.4009912179E-02    0.1313666899E-01    0.2110338789E+00
    0.3500000000E+02    0.3146518477E-01    0.6774302435E-01    0.4156483262E-02    0.1381387262E-01    0.2188215469E+00
    0.3700000000E+02    0.3298281152E-01    0.7000394055E-01    0.4296427299E-02    0.1448022849E-01    0.2262768167E+00
    0.3900000000E+02    0.3447650564E-01    0.7216231436E-01    0.4430155749E-02    0.1513608444E-01    0.2334215778E+00
    0.4100000000E+02    0.3594702489E-01    0.7422438031E-01    0.4558045692E-02    0.1578177286E-01    0.2402758109E+00
    0.4300000000E+02    0.3739509378E-01    0.7619586517E-01    0.4680443447E-02    0.1641761158E-01    0.2468577932E+00
    0.4500000000E+02    0.3882140542E-01    0.7808203997E-01    0.4797667720E-02    0.1704390465E-01    0.2531842769E+00
    0.4700000000E+02    0.4022662324E-01    0.7988776557E-01    0.4910012381E-02    0.1766094310E-01    0.2592706461E+00
    0.4900000000E+02    0.4161138255E-01    0.8161753284E-01    0.5017748892E-02    0.1826900561E-01    0.2651310541E+00
    0.1000000000E+02    0.1010224622E-01    0.2705708876E-01    0.1654355481E-02    0.4434745172E-02    0.8711415304E-01
    0.3000000000E+02    0.2756111697E-01    0.6159589245E-01    0.3776633846E-02    0.1209972270E-01    0.1986759071E+00
    0.5000000000E+02    0.4229628149E-01    0.8245524314E-01    0.5069968335E-02    0.1856975478E-01    0.2679806393E+00
    0.7000000000E+02    0.5505546781E-01    0.9608334928E-01    0.5924502648E-02    0.2417284666E-01    0.3157902529E+00
    0.9000000000E+02    0.6632630933E-01    0.1053910457E+00    0.6516128403E-02    0.2912291652E-01    0.3510854734E+00
    0.1100000000E+03    0.7644131333E-01    0.1119086887E+00    0.6937303344E-02    0.3356583597E-01    0.3784064552E+00
    0.1300000000E+03    0.8563562871E-01    0.1165254577E+00    0.7241785179E-02    0.3760476857E-01    0.4003062729E+00
    0.1500000000E+03    0.9408068407E-01    0.1197956632E+00    0.7463132513E-02    0.4131492491E-01    0.4183365213E+00
    0.1700000000E+03    0.1019047120E+00    0.1220833733E+00    0.7623429319E-02    0.4475256569E-01    0.4334977272E+00
    0.1900000000E+03    0.1092057747E+00    0.1236375312E+00    0.7737812884E-02    0.4796071566E-01    0.4464659487E+00
    0.2100000000E+03    0.1160603128E+00    0.1246339031E+00    0.7817001458E-02    0.5097291385E-01    0.4577156195E+00
    0.2300000000E+03    0.1225289219E+00    0.1251998756E+00    0.7868788400E-02    0.5381574751E-01    0.4675902536E+00
    0.2500000000E+03    0.1286603551E+00    0.1254298008E+00    0.7898967094E-02    0.5651060823E-01    0.4763451913E+00
    0.2700000000E+03    0.1344943597E+00    0.1253948581E+00    0.7911925653E-02    0.5907493637E-01    0.4841745248E+00
    0.2900000000E+03    0.1400637278E+00    0.1251495954E+00    0.7911041688E-02    0.6152312060E-01    0.4912286617E+00
    0.3100000000E+03    0.1453958046E+00    0.1247363866E+00    0.7898951551E-02    0.6386715974E-01    0.4976261298E+00
    0.3300000000E+03    0.1505136161E+00    0.1241885401E+00    0.7877738315E-02    0.6611715746E-01    0.5034617215E+00
    0.3500000000E+03    0.1554367243E+00    0.1235325109E+00    0.7849065724E-02    0.6828169752E-01    0.5088122424E+00
    0.3700000000E+03    0.1601818840E+00    0.1227895033E+00    0.7814275375E-02    0.7036813194E-01    0.5137406524E+00
    0.3900000000E+03    0.1647635537E+00    0.1219766510E+00    0.7774458353E-02    0.7238280518E-01    0.5182991024E+00
    0.4100000000E+03    0.1691942972E+00    0.1211078972E+00    0.7730508806E-02    0.7433123028E-01    0.5225311985E+00
    0.4300000000E+03    0.1734851021E+00    0.1201946608E+00    0.7683164516E-02    0.7621822871E-01    0.5264737134E+00
    0.4500000000E+03    0.1776456355E+00    0.1192463457E+00    0.7633038004E-02    0.7804804242E-01    0.5301578993E+00
    0.4700000000E+03    0.1816844501E+00    0.1182707345E+00    0.7580640609E-02    0.7982442442E-01    0.5336105053E+00
    0.4900000000E+03    0.1856091524E+00    0.1172742956E+00    0.7526401334E-02    0.8155071253E-01    0.5368545754E+00
    0.1000000000E+03    0.7151178953E-01    0.1089327587E+00    0.6744041512E-02    0.3140053065E-01    0.3655519833E+00
    0.3000000000E+03    0.1427578984E+00    0.1249617195E+00    0.7906256015E-02    0.6270748730E-01    0.4945030753E+00
    0.5000000000E+03    0.1875308642E+00    0.1167699884E+00    0.7498706263E-02    0.8239601604E-01    0.5384047562E+00
    0.7000000000E+03    0.2213039729E+00    0.1065103584E+00    0.6911097060E-02    0.9725567346E-01    0.5621512305E+00
    0.9000000000E+03    0.2484587078E+00    0.9696050057E-01    0.6336326609E-02    0.1092091021E+00    0.5775155618E+00
    0.1100000000E+04    0.2709676365E+00    0.8855922670E-01    0.5814211700E-02    0.1191219077E+00    0.5884697907E+00
    0.1300000000E+04    0.2899615753E+00    0.8127467335E-01    0.5350394622E-02    0.1274903566E+00    0.5967730804E+00
    0.1500000000E+04    0.3061857045E+00    0.7497242125E-01    0.4941231515E-02    0.1346415214E+00    0.6033388069E+00
    0.1700000000E+04    0.3201732074E+00    0.6950773963E-01    0.4580677335E-02    0.1408094675E+00    0.6086940183E+00
    0.1900000000E+04    0.3323250650E+00    0.6475006311E-01    0.4262475739E-02    0.1461702592E+00    0.6131667327E+00
    0.2100000000E+04    0.3429524484E+00    0.6058804175E-01    0.3980873968E-02    0.1508605545E+00    0.6169730726E+00
    0.2300000000E+04    0.3523019332E+00    0.5692871856E-01    0.3730819288E-02    0.1549886651E+00    0.6202619258E+00
    0.2500000000E+04    0.3605718318E+00    0.5369509726E-01    0.3507964119E-02    0.1586417202E+00    0.6231396050E+00
    0.2700000000E+04    0.3679234487E+00    0.5082351172E-01    0.3308602919E-02    0.1618906029E+00    0.6256842931E+00
    0.2900000000E+04    0.3744891842E+00    0.4826124849E-01    0.3129589712E-02    0.1647935064E+00    0.6279549223E+00
    0.3100000000E+04    0.3803785550E+00    0.4596453487E-01    0.2968255910E-02    0.1673985746E+00    0.6299968557E+00
    0.3300000000E+04    0.3856827651E+00    0.4389688455E-01    0.2822335828E-02    0.1697459084E+00    0.6318456472E+00
    0.3500000000E+04    0.3904782359E+00    0.4202775545E-01    0.2689902061E-02    0.1718691150E+00    0.6335296037E+00
    0.3700000000E+04    0.3948293643E+00    0.4033146698E-01    0.2569310678E-02    0.1737965189E+00    0.6350715748E+00
    0.3900000000E+04    0.3987907025E+00    0.3878632798E-01    0.2459155295E-02    0.1755521184E+00    0.6364902317E+00
    0.4100000000E+04    0.4024086924E+00    0.3737393382E-01    0.2358228842E-02    0.1771563474E+00    0.6378009977E+00
    0.4300000000E+04    0.4057230577E+00    0.3607859854E-01    0.2265491815E-02    0.1786266870E+00    0.6390167384E+00
    0.4500000000E+04    0.4087679274E+00    0.3488689485E-01    0.2180045957E-02    0.1799781586E+00    0.6401482808E+00
    0.4700000000E+04    0.4115727488E+00    0.3378728000E-01    0.2101112411E-02    0.1812237253E+00    0.6412048094E+00
    0.4900000000E+04    0.4141630328E+00    0.3276979044E-01    0.2028013556E-02    0.1823746191E+00    0.6421941722E+00
    0.1000000000E+04    0.2602110295E+00    0.9261387722E-01    0.6067974327E-02    0.1143842167E+00    0.5834054125E+00
    0.3000000000E+04    0.3775123314E+00    0.4708213202E-01    0.3046863127E-02    0.1661305951E+00    0.6290020585E+00
    0.5000000000E+04    0.4153847718E+00    0.3228909832E-01    0.1993464291E-02    0.1829176675E+00    0.6426658135E+00
    0.7000000000E+04    0.4326539368E+00    0.2540165880E-01    0.1498966457E-02    0.1906132827E+00    0.6498053629E+00
    0.9000000000E+04    0.4422047308E+00    0.2144338076E-01    0.1218074771E-02    0.1948941522E+00    0.6543480133E+00
    0.1100000000E+05    0.4481638517E+00    0.1885672359E-01    0.1037973721E-02    0.1975816155E+00    0.6575556628E+00
    0.1300000000E+05    0.4521972602E+00    0.1701790452E-01    0.9126442847E-03    0.1994122841E+00    0.6599725271E+00
    0.1500000000E+05    0.4550909237E+00    0.1563198194E-01    0.8201889551E-03    0.2007343260E+00    0.6618762899E+00
    0.1700000000E+05    0.4572592786E+00    0.1454203952E-01    0.7489630378E-03    0.2017316822E+00    0.6634251963E+00
    0.1900000000E+05    0.4589397983E+00    0.1365694810E-01    0.6922346966E-03    0.2025099610E+00    0.6647168105E+00
    0.2100000000E+05    0.4602776032E+00    0.1292009377E-01    0.6458514551E-03    0.2031338310E+00    0.6658149452E+00
    0.2300000000E+05    0.4613660416E+00    0.1229437936E-01    0.6071159112E-03    0.2036449769E+00    0.6667633049E+00
    0.2500000000E+05    0.4622677197E+00    0.1175442555E-01    0.5742004177E-03    0.2040714148E+00    0.6675929499E+00
    0.2700000000E+05    0.4630261063E+00    0.1128224199E-01    0.5458225593E-03    0.2044326387E+00    0.6683266337E+00
    0.2900000000E+05    0.4636722769E+00    0.1086469156E-01    0.5210555965E-03    0.2047426155E+00    0.6689814531E+00
    0.3100000000E+05    0.4642290083E+00    0.1049193655E-01    0.4992127799E-03    0.2050116048E+00    0.6695705340E+00
    0.3300000000E+05    0.4647133576E+00    0.1015644921E-01    0.4797740541E-03    0.2052473071E+00    0.6701041414E+00
    0.3500000000E+05    0.4651383414E+00    0.9852360665E-02    0.4623380965E-03    0.2054556119E+00    0.6705904333E+00
    0.3700000000E+05    0.4655140575E+00    0.9575020019E-02    0.4465900371E-03    0.2056410990E+00    0.6710359851E+00
    0.3900000000E+05    0.4658484557E+00    0.9320688176E-02    0.4322791890E-03    0.2058073817E+00    0.6714461631E+00
    0.4100000000E+05    0.4661478762E+00    0.9086320516E-02    0.4192033450E-03    0.2059573488E+00    0.6718253955E+00
    0.4300000000E+05    0.4664174358E+00    0.8869409531E-02    0.4071974849E-03    0.2060933369E+00    0.6721773733E+00
    0.4500000000E+05    0.4666613074E+00    0.8667868877E-02    0.3961255126E-03    0.2062172563E+00    0.6725052003E+00
    0.4700000000E+05    0.4668829272E+00    0.8479946572E-02    0.3858741125E-03    0.2063306833E+00    0.6728115083E+00
    0.4900000000E+05    0.4670851493E+00    0.8304159076E-02    0.3763481161E-03    0.2064349308E+00    0.6730985448E+00
    0.1000000000E+05    0.4454985852E+00    0.2002903625E-01    0.1119136694E-02    0.1963775457E+00    0.6560756228E+00
    0.3000000000E+05    0.4639606454E+00    0.1067323036E-01    0.5098044237E-03    0.2048817026E+00    0.6692835125E+00
    0.5000000000E+05    0.4671797485E+00    0.8220412952E-02    0.3718314778E-03    0.2064839636E+00    0.6732354511E+00
    0.7000000000E+05    0.4684706634E+00    0.6954145371E-02    0.3052389286E-03    0.2071759037E+00    0.6753147346E+00
    0.9000000000E+05    0.4691550416E+00    0.6145892326E-02    0.2643911167E-03    0.2075701538E+00    0.6766461070E+00
    0.1100000000E+06    0.4695739935E+00    0.5571581097E-02    0.2361393644E-03    0.2078291168E+00    0.6775912497E+00
    0.1300000000E+06    0.4698540956E+00    0.5135956705E-02    0.2151323718E-03    0.2080146344E+00    0.6783066104E+00
    0.1500000000E+06    0.4700528616E+00    0.4790624861E-02    0.1987360551E-03    0.2081555278E+00    0.6788722851E+00
    0.1700000000E+06    0.4702000922E+00    0.4508008535E-02    0.1854853928E-03    0.2082671092E+00    0.6793340688E+00
    0.1900000000E+06    0.4703127284E+00    0.4271073045E-02    0.1744927798E-03    0.2083583009E+00    0.6797202837E+00
    0.2100000000E+06    0.4704010905E+00    0.4068644983E-02    0.1651852127E-03    0.2084346731E+00    0.6800495074E+00
    0.2300000000E+06    0.4704718118E+00    0.3893046665E-02    0.1571741962E-03    0.2084998937E+00    0.6803344974E+00
    0.2500000000E+06    0.4705293429E+00    0.3738802887E-02    0.1501858438E-03    0.2085564836E+00    0.6805843428E+00
    0.2700000000E+06    0.4705767763E+00    0.3601888735E-02    0.1440208177E-03    0.2086062368E+00    0.6808057170E+00
    0.2900000000E+06    0.4706163250E+00    0.3479269598E-02    0.1385301427E-03    0.2086504675E+00    0.6810036451E+00
    0.3100000000E+06    0.4706496119E+00    0.3368607966E-02    0.1335999616E-03    0.2086901626E+00    0.6811819927E+00
    0.3300000000E+06    0.4706778529E+00    0.3268069893E-02    0.1291415728E-03    0.2087260789E+00    0.6813437883E+00
    0.3500000000E+06    0.4707019760E+00    0.3176193396E-02    0.1250847153E-03    0.2087588073E+00    0.6814914432E+00
    0.3700000000E+06    0.4707227007E+00    0.3091796627E-02    0.1213729208E-03    0.2087888170E+00    0.6816269039E+00
    0.3900000000E+06    0.4707405933E+00    0.3013912336E-02    0.1179602211E-03    0.2088164853E+00    0.6817517616E+00
    0.4100000000E+06    0.4707561046E+00    0.2941740169E-02    0.1148087672E-03    0.2088421198E+00    0.6818673310E+00
    0.4300000000E+06    0.4707695980E+00    0.2874611336E-02    0.1118870759E-03    0.2088659740E+00    0.6819747096E+00
    0.4500000000E+06    0.4707813692E+00    0.2811962005E-02    0.1091687180E-03    0.2088882590E+00    0.6820748216E+00
    0.4700000000E+06    0.4707916613E+00    0.2753313011E-02    0.1066313225E-03    0.2089091520E+00    0.6821684514E+00
    0.4900000000E+06    0.4708006755E+00    0.2698254155E-02    0.1042558096E-03    0.2089288032E+00    0.6822562698E+00
    0.1000000000E+06    0.4693873334E+00    0.5837050146E-02    0.2491192833E-03    0.2077115166E+00    0.6771545810E+00
    0.3000000000E+06    0.4706336673E+00    0.3422568739E-02    0.1360010328E-03    0.2086708302E+00    0.6810950605E+00
    0.5000000000E+06    0.4708047570E+00    0.2671958625E-02    0.1031235472E-03    0.2089382039E+00    0.6822981833E+00
    0.7000000000E+06    0.4708484384E+00    0.2269744960E-02    0.8599187647E-04    0.2090841554E+00    0.6829369984E+00
    0.9000000000E+06    0.4708565819E+00    0.2009234952E-02    0.7509313624E-04    0.2091824750E+00    0.6833483610E+00
    0.1100000000E+07    0.4708515625E+00    0.1822788889E-02    0.6739563509E-04    0.2092559525E+00    0.6836415591E+00
    0.1300000000E+07    0.4708410351E+00    0.1680796529E-02    0.6159477073E-04    0.2093143514E+00    0.6838641488E+00
    0.1500000000E+07    0.4708281428E+00    0.1567961893E-02    0.5702515201E-04    0.2093626877E+00    0.6840405861E+00
    0.1700000000E+07    0.4708143261E+00    0.1475477118E-02    0.5330750335E-04    0.2094038581E+00    0.6841849030E+00
    0.1900000000E+07    0.4708002908E+00    0.1397863180E-02    0.5020788089E-04    0.2094396787E+00    0.6843058026E+00
    0.2100000000E+07    0.4707863946E+00    0.1331508502E-02    0.4757319191E-04    0.2094713596E+00    0.6844090076E+00
    0.2300000000E+07    0.4707728197E+00    0.1273922502E-02    0.4529853025E-04    0.2094997457E+00    0.6844984560E+00
    0.2500000000E+07    0.4707596548E+00    0.1223324292E-02    0.4330930517E-04    0.2095254494E+00    0.6845769583E+00
    0.2700000000E+07    0.4707469381E+00    0.1178402021E-02    0.4155084989E-04    0.2095489280E+00    0.6846465816E+00
    0.2900000000E+07    0.4707346793E+00    0.1138165031E-02    0.3998207274E-04    0.2095705322E+00    0.6847088844E+00
    0.3100000000E+07    0.4707228725E+00    0.1101849277E-02    0.3857141590E-04    0.2095905361E+00    0.6847650673E+00
    0.3300000000E+07    0.4707115032E+00    0.1068854710E-02    0.3729419215E-04    0.2096091585E+00    0.6848160720E+00
    0.3500000000E+07    0.4707005526E+00    0.1038702599E-02    0.3613077707E-04    0.2096265762E+00    0.6848626490E+00
    0.3700000000E+07    0.4706899999E+00    0.1011005689E-02    0.3506535008E-04    0.2096429344E+00    0.6849054046E+00
    0.3900000000E+07    0.4706798238E+00    0.9854468768E-03    0.3408499764E-04    0.2096583537E+00    0.6849448352E+00
    0.4100000000E+07    0.4706700031E+00    0.9617636597E-03    0.3317906185E-04    0.2096729352E+00    0.6849813510E+00
    0.4300000000E+07    0.4706605177E+00    0.9397366064E-03    0.3233865881E-04    0.2096867647E+00    0.6850152948E+00
    0.4500000000E+07    0.4706513481E+00    0.9191806700E-03    0.3155631682E-04    0.2096999155E+00    0.6850469554E+00
    0.4700000000E+07    0.4706424764E+00    0.8999385519E-03    0.3082570078E-04    0.2097124507E+00    0.6850765782E+00
    0.4900000000E+07    0.4706338855E+00    0.8818755677E-03    0.3014139957E-04    0.2097244250E+00    0.6851043731E+00
    0.1000000000E+07    0.4708550760E+00    0.1909089956E-02    0.7094755066E-04    0.2092215466E+00    0.6835059737E+00
    0.3000000000E+07    0.4707287201E+00    0.1119557770E-02    0.3925865882E-04    0.2095807194E+00    0.6847376768E+00
    0.5000000000E+07    0.4706296903E+00    0.8732493383E-03    0.2981513709E-04    0.2097302170E+00    0.6851176426E+00
    0.7000000000E+07    0.4705572442E+00    0.7413501504E-03    0.2487187645E-04    0.2098255715E+00    0.6853201822E+00
    0.9000000000E+07    0.4705004976E+00    0.6559795929E-03    0.2172180785E-04    0.2098956605E+00    0.6854509029E+00
    0.1100000000E+08    0.4704539191E+00    0.5949155477E-03    0.1949526058E-04    0.2099510843E+00    0.6855442163E+00
    0.1300000000E+08    0.4704144329E+00    0.5484328679E-03    0.1781665263E-04    0.2099969215E+00    0.6856151372E+00
    0.1500000000E+08    0.4703801682E+00    0.5115098325E-03    0.1649404656E-04    0.2100360002E+00    0.6856714018E+00
    0.1700000000E+08    0.4703499060E+00    0.4812559776E-03    0.1541790516E-04    0.2100700573E+00    0.6857174552E+00
    0.1900000000E+08    0.4703228088E+00    0.4558739441E-03    0.1452061051E-04    0.2101002364E+00    0.6857560577E+00
    0.2100000000E+08    0.4702982767E+00    0.4341793881E-03    0.1375788956E-04    0.2101273300E+00    0.6857890262E+00
    0.2300000000E+08    0.4702758655E+00    0.4153558291E-03    0.1309939280E-04    0.2101519104E+00    0.6858176118E+00
    0.2500000000E+08    0.4702552372E+00    0.3988196081E-03    0.1252353507E-04    0.2101744041E+00    0.6858427081E+00
    0.2700000000E+08    0.4702361286E+00    0.3841408969E-03    0.1201449362E-04    0.2101951376E+00    0.6858649728E+00
