  Pressure (Pa) 22mC5-400 (mol/kg) 2mC6-400 (mol/kg) 33mC5-400 (mol/kg) 23mC5-400 (mol/kg) C7-400 (mol/kg)
    0.1000000000E+01    0.1061414466E-02    0.7959884004E-03    0.3240580607E-03    0.8386764863E-03    0.5141222682E-02
    0.3000000000E+01    0.3159726352E-02    0.2342776920E-02    0.9538596093E-03    0.2496672461E-02    0.1515626373E-01
    0.5000000000E+01    0.5226065880E-02    0.3831836706E-02    0.1560264472E-02    0.4129425125E-02    0.2483032119E-01
    0.7000000000E+01    0.7261266690E-02    0.5266018956E-02    0.2144428619E-02    0.5737592545E-02    0.3418093459E-01
    0.9000000000E+01    0.9266133002E-02    0.6647989185E-02    0.2707432596E-02    0.7321809566E-02    0.4322445386E-01
    0.1100000000E+02    0.1124144090E-01    0.7980242347E-02    0.3250287679E-02    0.8882688826E-02    0.5197613867E-01
    0.1300000000E+02    0.1318793954E-01    0.9265116484E-02    0.3773941427E-02    0.1042082171E-01    0.6045024793E-01
    0.1500000000E+02    0.1510635232E-01    0.1050480507E-01    0.4279282700E-02    0.1193677927E-01    0.6866012073E-01
    0.1700000000E+02    0.1699737797E-01    0.1170136821E-01    0.4767146210E-02    0.1343111308E-01    0.7661824937E-01
    0.1900000000E+02    0.1886169157E-01    0.1285674274E-01    0.5238316644E-02    0.1490435606E-01    0.8433634571E-01
    0.2100000000E+02    0.2069994558E-01    0.1397275151E-01    0.5693532417E-02    0.1635702327E-01    0.9182540128E-01
    0.2300000000E+02    0.2251277075E-01    0.1505111173E-01    0.6133489083E-02    0.1778961263E-01    0.9909574191E-01
    0.2500000000E+02    0.2430077702E-01    0.1609344266E-01    0.6558842445E-02    0.1920260563E-01    0.1061570775E+00
    0.2700000000E+02    0.2606455438E-01    0.1710127257E-01    0.6970211402E-02    0.2059646803E-01    0.1130185474E+00
    0.2900000000E+02    0.2780467365E-01    0.1807604516E-01    0.7368180539E-02    0.2197165046E-01    0.1196887618E+00
    0.3100000000E+02    0.2952168731E-01    0.1901912539E-01    0.7753302511E-02    0.2332858904E-01    0.1261758394E+00
    0.3300000000E+02    0.3121613015E-01    0.1993180486E-01    0.8126100221E-02    0.2466770596E-01    0.1324874425E+00
    0.3500000000E+02    0.3288852006E-01    0.2081530673E-01    0.8487068825E-02    0.2598941005E-01    0.1386308081E+00
    0.3700000000E+02    0.3453935861E-01    0.2167079026E-01    0.8836677568E-02    0.2729409727E-01    0.1446127777E+00
    0.3900000000E+02    0.3616913174E-01    0.2249935498E-01    0.9175371483E-02    0.2858215125E-01    0.1504398236E+00
    0.4100000000E+02    0.3777831036E-01    0.2330204452E-01    0.9503572947E-02    0.2985394374E-01    0.1561180736E+00
    0.4300000000E+02    0.3936735091E-01    0.2407985018E-01    0.9821683125E-02    0.3110983507E-01    0.1616533339E+00
    0.4500000000E+02    0.4093669593E-01    0.2483371417E-01    0.1013008330E-01    0.3235017459E-01    0.1670511098E+00
    0.4700000000E+02    0.4248677455E-01    0.2556453270E-01    0.1042913610E-01    0.3357530109E-01    0.1723166251E+00
    0.4900000000E+02    0.4401800305E-01    0.2627315873E-01    0.1071918665E-01    0.3478554321E-01    0.1774548396E+00
    0.1000000000E+02    0.1025743431E-01    0.7320180745E-02    0.2981318095E-02    0.8105128968E-02    0.4763586192E-01
    0.3000000000E+02    0.2866603485E-01    0.1855146444E-01    0.7562314066E-02    0.2265237352E-01    0.1229547035E+00
    0.5000000000E+02    0.4477667518E-01    0.2661940493E-01    0.1086093939E-01    0.3538518263E-01    0.1799776912E+00
    0.7000000000E+02    0.5905271367E-01    0.3255746691E-01    0.1329548322E-01    0.4666935008E-01    0.2247804401E+00
    0.9000000000E+02    0.7183701071E-01    0.3699931997E-01    0.1512227094E-01    0.5677555286E-01    0.2610020449E+00
    0.1100000000E+03    0.8338880978E-01    0.4035581712E-01    0.1650746013E-01    0.6590846152E-01    0.2909574984E+00
    0.1300000000E+03    0.9390788625E-01    0.4290504781E-01    0.1756352996E-01    0.7422580160E-01    0.3161911803E+00
    0.1500000000E+03    0.1035507989E+00    0.4484176233E-01    0.1836928644E-01    0.8185118192E-01    0.3377738417E+00
    0.1700000000E+03    0.1124420941E+00    0.4630616784E-01    0.1898150701E-01    0.8888293871E-01    0.3564718933E+00
    0.1900000000E+03    0.1206821966E+00    0.4740153550E-01    0.1944205483E-01    0.9540036493E-01    0.3728488101E+00
    0.2100000000E+03    0.1283530750E+00    0.4820540313E-01    0.1978240223E-01    0.1014681823E+00    0.3873284465E+00
    0.2300000000E+03    0.1355223788E+00    0.4877694431E-01    0.2002660478E-01    0.1071398076E+00    0.4002359863E+00
    0.2500000000E+03    0.1422465077E+00    0.4916195496E-01    0.2019331303E-01    0.1124597756E+00    0.4118252421E+00
    0.2700000000E+03    0.1485729202E+00    0.4939631069E-01    0.2029716697E-01    0.1174655615E+00    0.4222973415E+00
    0.2900000000E+03    0.1545418934E+00    0.4950841524E-01    0.2034978356E-01    0.1221889705E+00    0.4318138150E+00
    0.3100000000E+03    0.1601878793E+00    0.4952096678E-01    0.2036046911E-01    0.1266572085E+00    0.4405059551E+00
    0.3300000000E+03    0.1655405631E+00    0.4945225331E-01    0.2033674183E-01    0.1308937176E+00    0.4484816301E+00
    0.3500000000E+03    0.1706256952E+00    0.4931711659E-01    0.2028472087E-01    0.1349188330E+00    0.4558303274E+00
    0.3700000000E+03    0.1754657540E+00    0.4912767901E-01    0.2020941974E-01    0.1387503063E+00    0.4626269428E+00
    0.3900000000E+03    0.1800804757E+00    0.4889389810E-01    0.2011497033E-01    0.1424037241E+00    0.4689346646E+00
    0.4100000000E+03    0.1844872840E+00    0.4862399420E-01    0.2000479578E-01    0.1458928467E+00    0.4748071968E+00
    0.4300000000E+03    0.1887016386E+00    0.4832478350E-01    0.1988174523E-01    0.1492298838E+00    0.4802904911E+00
    0.4500000000E+03    0.1927373225E+00    0.4800193974E-01    0.1974819982E-01    0.1524257207E+00    0.4854241119E+00
    0.4700000000E+03    0.1966066777E+00    0.4766020147E-01    0.1960615670E-01    0.1554901055E+00    0.4902423197E+00
    0.4900000000E+03    0.2003208022E+00    0.4730353757E-01    0.1945729623E-01    0.1584318034E+00    0.4947749409E+00
    0.1000000000E+03    0.7775331328E-01    0.3879345846E-01    0.1586206587E-01    0.6145288491E-01    0.2766527684E+00
    0.3000000000E+03    0.1574033034E+00    0.4952590142E-01    0.2035986102E-01    0.1244534410E+00    0.4362557023E+00
    0.5000000000E+03    0.2021228219E+00    0.4712067159E-01    0.1938076149E-01    0.1598591478E+00    0.4969424407E+00
    0.7000000000E+03    0.2320039710E+00    0.4325151684E-01    0.1773785089E-01    0.1835371149E+00    0.5301919131E+00
    0.9000000000E+03    0.2536236753E+00    0.3962769188E-01    0.1616974460E-01    0.2006825256E+00    0.5516259966E+00
    0.1100000000E+04    0.2700192598E+00    0.3651598930E-01    0.1480574916E-01    0.2136952489E+00    0.5667893442E+00
    0.1300000000E+04    0.2828630939E+00    0.3389276158E-01    0.1364534523E-01    0.2238970549E+00    0.5781836137E+00
    0.1500000000E+04    0.2931745205E+00    0.3167973563E-01    0.1266019624E-01    0.2320938306E+00    0.5871162144E+00
    0.1700000000E+04    0.3016168195E+00    0.2979952430E-01    0.1181971722E-01    0.2388101179E+00    0.5943424033E+00
    0.1900000000E+04    0.3086419230E+00    0.2818748927E-01    0.1109733946E-01    0.2444034234E+00    0.6003314829E+00
    0.2100000000E+04    0.3145686783E+00    0.2679227049E-01    0.1047141700E-01    0.2491260481E+00    0.6053917408E+00
    0.2300000000E+04    0.3196283772E+00    0.2557365056E-01    0.9924686671E-02    0.2531610636E+00    0.6097347688E+00
    0.2500000000E+04    0.3239927040E+00    0.2450016670E-01    0.9443448767E-02    0.2566443989E+00    0.6135110372E+00
    0.2700000000E+04    0.3277916145E+00    0.2354708199E-01    0.9016807184E-02    0.2596789739E+00    0.6168307345E+00
    0.2900000000E+04    0.3311251606E+00    0.2269479901E-01    0.8636047347E-02    0.2623440478E+00    0.6197765647E+00
    0.3100000000E+04    0.3340715289E+00    0.2192765659E-01    0.8294149919E-02    0.2647015754E+00    0.6224119208E+00
    0.3300000000E+04    0.3366926341E+00    0.2123302622E-01    0.7985417395E-02    0.2668006313E+00    0.6247862829E+00
    0.3500000000E+04    0.3390380919E+00    0.2060063378E-01    0.7705188899E-02    0.2686805527E+00    0.6269388869E+00
    0.3700000000E+04    0.3411480911E+00    0.2002204847E-01    0.7449622154E-02    0.2703732112E+00    0.6289012811E+00
    0.3900000000E+04    0.3430555034E+00    0.1949029505E-01    0.7215526092E-02    0.2719046830E+00    0.6306991472E+00
    0.4100000000E+04    0.3447874559E+00    0.1899955754E-01    0.7000231612E-02    0.2732964933E+00    0.6323536220E+00
    0.4300000000E+04    0.3463665187E+00    0.1854495088E-01    0.6801491096E-02    0.2745665560E+00    0.6338822752E+00
    0.4500000000E+04    0.3478116116E+00    0.1812234358E-01    0.6617399739E-02    0.2757298919E+00    0.6352998419E+00
    0.4700000000E+04    0.3491387045E+00    0.1772821877E-01    0.6446333511E-02    0.2767991837E+00    0.6366187804E+00
    0.4900000000E+04    0.3503613648E+00    0.1735956450E-01    0.6286899881E-02    0.2777852088E+00    0.6378497026E+00
    0.1000000000E+04    0.2623494378E+00    0.3800676708E-01    0.1546105155E-01    0.2076066520E+00    0.5597950429E+00
    0.3000000000E+04    0.3326425439E+00    0.2230143670E-01    0.8460624190E-02    0.2635579277E+00    0.6211296830E+00
    0.5000000000E+04    0.3509372233E+00    0.1718396381E-01    0.6211163560E-02    0.2782499287E+00    0.6384350527E+00
    0.7000000000E+04    0.3590593228E+00    0.1453547763E-01    0.5087883939E-02    0.2848325089E+00    0.6471742036E+00
    0.9000000000E+04    0.3635907960E+00    0.1285499646E-01    0.4397592074E-02    0.2885395353E+00    0.6526038532E+00
    0.1100000000E+05    0.3664640105E+00    0.1166585770E-01    0.3921811297E-02    0.2909123770E+00    0.6563686775E+00
    0.1300000000E+05    0.3684411154E+00    0.1076593690E-01    0.3569429810E-02    0.2925608511E+00    0.6591640742E+00
    0.1500000000E+05    0.3698811206E+00    0.1005329855E-01    0.3295334241E-02    0.2937731058E+00    0.6613392741E+00
    0.1700000000E+05    0.3709746284E+00    0.9470256530E-02    0.3074444743E-02    0.2947026010E+00    0.6630906651E+00
    0.1900000000E+05    0.3718319637E+00    0.8981375130E-02    0.2891607339E-02    0.2954384431E+00    0.6645379494E+00
    0.2100000000E+05    0.3725213045E+00    0.8563509900E-02    0.2737072355E-02    0.2960358718E+00    0.6657586370E+00
    0.2300000000E+05    0.3730870033E+00    0.8200807725E-02    0.2604252314E-02    0.2965309372E+00    0.6668053419E+00
    0.2500000000E+05    0.3735591319E+00    0.7881989522E-02    0.2488518171E-02    0.2969481602E+00    0.6677151570E+00
    0.2700000000E+05    0.3739587868E+00    0.7598777767E-02    0.2386510833E-02    0.2973047983E+00    0.6685150578E+00
    0.2900000000E+05    0.3743011966E+00    0.7344938956E-02    0.2295726541E-02    0.2976133487E+00    0.6692251789E+00
    0.3100000000E+05    0.3745976239E+00    0.7115675388E-02    0.2214256266E-02    0.2978830841E+00    0.6698608835E+00
    0.3300000000E+05    0.3748565744E+00    0.6907224860E-02    0.2140615864E-02    0.2981210299E+00    0.6704341187E+00
    0.3500000000E+05    0.3750845896E+00    0.6716589089E-02    0.2073631905E-02    0.2983326064E+00    0.6709543292E+00
    0.3700000000E+05    0.3752867809E+00    0.6541344580E-02    0.2012362853E-02    0.2985220630E+00    0.6714290900E+00
    0.3900000000E+05    0.3754671995E+00    0.6379507856E-02    0.1956043350E-02    0.2986927785E+00    0.6718645547E+00
    0.4100000000E+05    0.3756290965E+00    0.6229437486E-02    0.1904044026E-02    0.2988474731E+00    0.6722657796E+00
    0.4300000000E+05    0.3757751109E+00    0.6089761573E-02    0.1855841958E-02    0.2989883623E+00    0.6726369614E+00
    0.4500000000E+05    0.3759074065E+00    0.5959323222E-02    0.1810998612E-02    0.2991172683E+00    0.6729816160E+00
    0.4700000000E+05    0.3760277742E+00    0.5837138945E-02    0.1769143114E-02    0.2992357042E+00    0.6733027133E+00
    0.4900000000E+05    0.3761377082E+00    0.5722366515E-02    0.1729959413E-02    0.2993449369E+00    0.6736027813E+00
    0.1000000000E+05    0.3651729720E+00    0.1221507378E-01    0.4140165047E-02    0.2898433906E+00    0.6546390510E+00
    0.3000000000E+05    0.3744545727E+00    0.7227491001E-02    0.2253928320E-02    0.2977525853E+00    0.6695515189E+00
    0.5000000000E+05    0.3761891633E+00    0.5667528873E-02    0.1711283205E-02    0.2993964426E+00    0.6737456186E+00
    0.7000000000E+05    0.3768914457E+00    0.4826724098E-02    0.1428663745E-02    0.3001324124E+00    0.6758916920E+00
    0.9000000000E+05    0.3772606301E+00    0.4279977150E-02    0.1248742693E-02    0.3005597513E+00    0.6772418245E+00
    0.1100000000E+06    0.3774827250E+00    0.3887554237E-02    0.1121559280E-02    0.3008437249E+00    0.6781882361E+00
    0.1300000000E+06    0.3776277743E+00    0.3588048716E-02    0.1025634236E-02    0.3010487530E+00    0.6788976188E+00
    0.1500000000E+06    0.3777278344E+00    0.3349640002E-02    0.9500130761E-03    0.3012053337E+00    0.6794541905E+00
    0.1700000000E+06    0.3777995632E+00    0.3153957986E-02    0.8884499792E-03    0.3013298547E+00    0.6799055988E+00
    0.1900000000E+06    0.3778524305E+00    0.2989551012E-02    0.8370908219E-03    0.3014319480E+00    0.6802810560E+00
    0.2100000000E+06    0.3778921943E+00    0.2848856970E-02    0.7934122998E-03    0.3015176668E+00    0.6805995831E+00
    0.2300000000E+06    0.3779225430E+00    0.2726652888E-02    0.7556845098E-03    0.3015910194E+00    0.6808741590E+00
    0.2500000000E+06    0.3779459400E+00    0.2619199063E-02    0.7226768777E-03    0.3016547725E+00    0.6811139789E+00
    0.2700000000E+06    0.3779640878E+00    0.2523737482E-02    0.6934871234E-03    0.3017109024E+00    0.6813257607E+00
    0.2900000000E+06    0.3779781969E+00    0.2438183223E-02    0.6674367366E-03    0.3017608616E+00    0.6815145405E+00
    0.3100000000E+06    0.3779891491E+00    0.2360926781E-02    0.6440044192E-03    0.3018057436E+00    0.6816841767E+00
    0.3300000000E+06    0.3779976000E+00    0.2290703055E-02    0.6227822116E-03    0.3018463889E+00    0.6818376813E+00
    0.3500000000E+06    0.3780040460E+00    0.2226501950E-02    0.6034457007E-03    0.3018834553E+00    0.6819774440E+00
    0.3700000000E+06    0.3780088687E+00    0.2167505814E-02    0.5857332653E-03    0.3019174656E+00    0.6821053883E+00
    0.3900000000E+06    0.3780123654E+00    0.2113044682E-02    0.5694312888E-03    0.3019488414E+00    0.6822230816E+00
    0.4100000000E+06    0.3780147710E+00    0.2062563624E-02    0.5543634138E-03    0.3019779265E+00    0.6823318160E+00
    0.4300000000E+06    0.3780162727E+00    0.2015598512E-02    0.5403825948E-03    0.3020050049E+00    0.6824326671E+00
    0.4500000000E+06    0.3780170212E+00    0.1971757747E-02    0.5273651271E-03    0.3020303131E+00    0.6825265386E+00
    0.4700000000E+06    0.3780171391E+00    0.1930708297E-02    0.5152060972E-03    0.3020540500E+00    0.6826141957E+00
    0.4900000000E+06    0.3780167268E+00    0.1892164884E-02    0.5038158711E-03    0.3020763841E+00    0.6826962916E+00
    0.1000000000E+06    0.3773843433E+00    0.4069315208E-02    0.1180259988E-02    0.3007144439E+00    0.6777522565E+00
    0.3000000000E+06    0.3779840222E+00    0.2398603709E-02    0.6554210702E-03    0.3017838798E+00    0.6816015465E+00
    0.5000000000E+06    0.3780163482E+00    0.1873754727E-02    0.4983845393E-03    0.3020870710E+00    0.6827354327E+00
    0.7000000000E+06    0.3779949747E+00    0.1591997890E-02    0.4160387589E-03    0.3022532025E+00    0.6833286127E+00
    0.9000000000E+06    0.3779637955E+00    0.1409379694E-02    0.3635091404E-03    0.3023653186E+00    0.6837071206E+00
    0.1100000000E+07    0.3779317281E+00    0.1278636083E-02    0.3263530813E-03    0.3024492021E+00    0.6839751666E+00
    0.1300000000E+07    0.3779010808E+00    0.1179046352E-02    0.2983258893E-03    0.3025159265E+00    0.6841776623E+00
    0.1500000000E+07    0.3778724177E+00    0.1099898037E-02    0.2762335213E-03    0.3025711895E+00    0.6843375404E+00
    0.1700000000E+07    0.3778457685E+00    0.1035019511E-02    0.2582519444E-03    0.3026182848E+00    0.6844678865E+00
    0.1900000000E+07    0.3778209960E+00    0.9805703680E-03    0.2432545694E-03    0.3026592791E+00    0.6845767802E+00
    0.2100000000E+07    0.3777979196E+00    0.9340185581E-03    0.2305034297E-03    0.3026955501E+00    0.6846695139E+00
    0.2300000000E+07    0.3777763597E+00    0.8936176549E-03    0.2194924536E-03    0.3027280603E+00    0.6847497177E+00
    0.2500000000E+07    0.3777561518E+00    0.8581187166E-03    0.2098615961E-03    0.3027575075E+00    0.6848199751E+00
    0.2700000000E+07    0.3777371507E+00    0.8266016497E-03    0.2013468563E-03    0.3027844133E+00    0.6848821813E+00
    0.2900000000E+07    0.3777192297E+00    0.7983715836E-03    0.1937497118E-03    0.3028091774E+00    0.6849377623E+00
    0.3100000000E+07    0.3777022791E+00    0.7728925658E-03    0.1869176497E-03    0.3028321127E+00    0.6849878140E+00
    0.3300000000E+07    0.3776862035E+00    0.7497436618E-03    0.1807313272E-03    0.3028534686E+00    0.6850331947E+00
    0.3500000000E+07    0.3776709203E+00    0.7285890283E-03    0.1750958538E-03    0.3028734471E+00    0.6850745870E+00
    0.3700000000E+07    0.3776563574E+00    0.7091569878E-03    0.1699347153E-03    0.3028922139E+00    0.6851125419E+00
    0.3900000000E+07    0.3776424515E+00    0.6912250700E-03    0.1651854460E-03    0.3029099066E+00    0.6851475094E+00
    0.4100000000E+07    0.3776291473E+00    0.6746091079E-03    0.1607964828E-03    0.3029266408E+00    0.6851798612E+00
    0.4300000000E+07    0.3776163959E+00    0.6591551496E-03    0.1567248394E-03    0.3029425145E+00    0.6852099074E+00
    0.4500000000E+07    0.3776041539E+00    0.6447333653E-03    0.1529343580E-03    0.3029576114E+00    0.6852379090E+00
    0.4700000000E+07    0.3775923827E+00    0.6312333922E-03    0.1493943777E-03    0.3029720036E+00    0.6852640874E+00
    0.4900000000E+07    0.3775810481E+00    0.6185607331E-03    0.1460787069E-03    0.3029857537E+00    0.6852886320E+00
    0.1000000000E+07    0.3779476619E+00    0.1339157838E-02    0.3435035209E-03    0.3024099138E+00    0.6838513957E+00
    0.3000000000E+07    0.3777106394E+00    0.7853167937E-03    0.1902461639E-03    0.3028208568E+00    0.6849634209E+00
    0.5000000000E+07    0.3775755347E+00    0.6125087475E-03    0.1444978237E-03    0.3029924053E+00    0.6853003434E+00
    0.7000000000E+07    0.3774821495E+00    0.5199729016E-03    0.1205434268E-03    0.3031019695E+00    0.6854785748E+00
    0.9000000000E+07    0.3774108139E+00    0.4600823525E-03    0.1052769213E-03    0.3031825710E+00    0.6855930570E+00
    0.1100000000E+08    0.3773530994E+00    0.4172451784E-03    0.9448562527E-04    0.3032463461E+00    0.6856744968E+00
    0.1300000000E+08    0.3773046344E+00    0.3846379431E-03    0.8634978915E-04    0.3032991145E+00    0.6857362273E+00
    0.1500000000E+08    0.3772628613E+00    0.3587373468E-03    0.7993932693E-04    0.3033441191E+00    0.6857850937E+00
    0.1700000000E+08    0.3772261547E+00    0.3375154516E-03    0.7472340328E-04    0.3033833527E+00    0.6858250180E+00
    0.1900000000E+08    0.3771934177E+00    0.3197112652E-03    0.7037431370E-04    0.3034181278E+00    0.6858584301E+00
    0.2100000000E+08    0.3771638747E+00    0.3044938910E-03    0.6667748487E-04    0.3034493546E+00    0.6858869261E+00
    0.2300000000E+08    0.3771369574E+00    0.2912905238E-03    0.6348582147E-04    0.3034776904E+00    0.6859116032E+00
    0.2500000000E+08    0.3771122369E+00    0.2796917020E-03    0.6069470457E-04    0.3035036251E+00    0.6859332440E+00
    0.2700000000E+08    0.3770893813E+00    0.2693958876E-03    0.5822744352E-04    0.3035275341E+00    0.6859524237E+00
