  Pressure (Pa) 22mC5-400 (mol/kg) 2mC6-400 (mol/kg) 33mC5-400 (mol/kg) 23mC5-400 (mol/kg) C7-400 (mol/kg)
    0.1000000000E+01    0.1060769470E-02    0.2350839416E-02    0.6381583563E-04    0.3725185860E-03    0.1681682091E-01
    0.3000000000E+01    0.3154068795E-02    0.6718970786E-02    0.1824788416E-03    0.1107645280E-02    0.4783567406E-01
    0.5000000000E+01    0.5210746417E-02    0.1069729153E-01    0.2906661477E-03    0.1829919815E-02    0.7580433140E-01
    0.7000000000E+01    0.7231991292E-02    0.1434051060E-01    0.3898536505E-03    0.2539759395E-02    0.1011585711E+00
    0.9000000000E+01    0.9218939850E-02    0.1769321525E-01    0.4812432905E-03    0.3237562789E-02    0.1242546054E+00
    0.1100000000E+02    0.1117267888E-01    0.2079211731E-01    0.5658239679E-03    0.3923711351E-02    0.1453864691E+00
    0.1300000000E+02    0.1309424821E-01    0.2366772804E-01    0.6444169443E-03    0.4598569961E-02    0.1647990363E+00
    0.1500000000E+02    0.1498464327E-01    0.2634562369E-01    0.7177101369E-03    0.5262487913E-02    0.1826978982E+00
    0.1700000000E+02    0.1684481741E-01    0.2884741373E-01    0.7862843432E-03    0.5915799741E-02    0.1992569492E+00
    0.1900000000E+02    0.1867568411E-01    0.3119148990E-01    0.8506335209E-03    0.6558825994E-02    0.2146242800E+00
    0.2100000000E+02    0.2047811910E-01    0.3339361167E-01    0.9111806337E-03    0.7191873970E-02    0.2289268015E+00
    0.2300000000E+02    0.2225296227E-01    0.3546736841E-01    0.9682901504E-03    0.7815238390E-02    0.2422739088E+00
    0.2500000000E+02    0.2400101949E-01    0.3742454724E-01    0.1022277993E-02    0.8429202044E-02    0.2547604092E+00
    0.2700000000E+02    0.2572306436E-01    0.3927542845E-01    0.1073419518E-02    0.9034036393E-02    0.2664688808E+00
    0.2900000000E+02    0.2741983978E-01    0.4102902436E-01    0.1121955970E-02    0.9630002132E-02    0.2774715881E+00
    0.3100000000E+02    0.2909205950E-01    0.4269327409E-01    0.1168099740E-02    0.1021734972E-01    0.2878320478E+00
    0.3300000000E+02    0.3074040954E-01    0.4427520319E-01    0.1212038670E-02    0.1079631990E-01    0.2976063171E+00
    0.3500000000E+02    0.3236554952E-01    0.4578105544E-01    0.1253939612E-02    0.1136714414E-01    0.3068440612E+00
    0.3700000000E+02    0.3396811395E-01    0.4721640240E-01    0.1293951376E-02    0.1193004510E-01    0.3155894419E+00
    0.3900000000E+02    0.3554871339E-01    0.4858623473E-01    0.1332207196E-02    0.1248523703E-01    0.3238818616E+00
    0.4100000000E+02    0.3710793562E-01    0.4989503895E-01    0.1368826792E-02    0.1303292620E-01    0.3317565904E+00
    0.4300000000E+02    0.3864634668E-01    0.5114686220E-01    0.1403918115E-02    0.1357331124E-01    0.3392452954E+00
    0.4500000000E+02    0.4016449187E-01    0.5234536709E-01    0.1437578821E-02    0.1410658351E-01    0.3463764914E+00
    0.4700000000E+02    0.4166289670E-01    0.5349387848E-01    0.1469897532E-02    0.1463292743E-01    0.3531759249E+00
    0.4900000000E+02    0.4314206780E-01    0.5459542341E-01    0.1500954903E-02    0.1515252078E-01    0.3596669038E+00
    0.1000000000E+02    0.1019989449E-01    0.1927235584E-01    0.5243299392E-03    0.3582070743E-02    0.1350497304E+00
    0.3000000000E+02    0.2825897559E-01    0.4187185866E-01    0.1145314670E-02    0.9924737928E-02    0.2827284340E+00
    0.5000000000E+02    0.4387459407E-01    0.5512945652E-01    0.1516033844E-02    0.1540983982E-01    0.3628034100E+00
    0.7000000000E+02    0.5762546725E-01    0.6390379407E-01    0.1766287700E-02    0.2024045942E-01    0.4135631584E+00
    0.9000000000E+02    0.6991476458E-01    0.7005884423E-01    0.1945706714E-02    0.2455808145E-01    0.4488696006E+00
    0.1100000000E+03    0.8103242806E-01    0.7450782692E-01    0.2078605882E-02    0.2846445871E-01    0.4749874537E+00
    0.1300000000E+03    0.9119264922E-01    0.7776916542E-01    0.2178821158E-02    0.3203476211E-01    0.4951741954E+00
    0.1500000000E+03    0.1005573441E+00    0.8016656108E-01    0.2255025274E-02    0.3532581786E-01    0.5112970125E+00
    0.1700000000E+03    0.1092513781E+00    0.8191571469E-01    0.2313025266E-02    0.3838144977E-01    0.5245059954E+00
    0.1900000000E+03    0.1173727401E+00    0.8316722220E-01    0.2356897366E-02    0.4123604970E-01    0.5355498664E+00
    0.2100000000E+03    0.1249995232E+00    0.8402995871E-01    0.2389605621E-02    0.4391702698E-01    0.5449379654E+00
    0.2300000000E+03    0.1321948245E+00    0.8458479677E-01    0.2413365123E-02    0.4644652801E-01    0.5530294104E+00
    0.2500000000E+03    0.1390102558E+00    0.8489312332E-01    0.2429867894E-02    0.4884266828E-01    0.5600850376E+00
    0.2700000000E+03    0.1454885058E+00    0.8500236912E-01    0.2440429848E-02    0.5112043146E-01    0.5662991047E+00
    0.2900000000E+03    0.1516652394E+00    0.8494972992E-01    0.2446089937E-02    0.5329233619E-01    0.5718194167E+00
    0.3100000000E+03    0.1575705292E+00    0.8476474571E-01    0.2447679066E-02    0.5536893808E-01    0.5767605370E+00
    0.3300000000E+03    0.1632299455E+00    0.8447113300E-01    0.2445869195E-02    0.5735921272E-01    0.5812127106E+00
    0.3500000000E+03    0.1686654002E+00    0.8408811389E-01    0.2441209057E-02    0.5927085143E-01    0.5852480467E+00
    0.3700000000E+03    0.1738958042E+00    0.8363139770E-01    0.2434150634E-02    0.6111049235E-01    0.5889248963E+00
    0.3900000000E+03    0.1789375874E+00    0.8311391725E-01    0.2425069070E-02    0.6288390270E-01    0.5922910139E+00
    0.4100000000E+03    0.1838051124E+00    0.8254638895E-01    0.2414277876E-02    0.6459612407E-01    0.5953858806E+00
    0.4300000000E+03    0.1885110068E+00    0.8193774396E-01    0.2402040668E-02    0.6625158907E-01    0.5982424387E+00
    0.4500000000E+03    0.1930664330E+00    0.8129546390E-01    0.2388580349E-02    0.6785421599E-01    0.6008884047E+00
    0.4700000000E+03    0.1974813076E+00    0.8062584471E-01    0.2374086336E-02    0.6940748590E-01    0.6033472763E+00
    0.4900000000E+03    0.2017644831E+00    0.7993420606E-01    0.2358720329E-02    0.7091450621E-01    0.6056391135E+00
    0.1000000000E+03    0.7560521397E-01    0.7245812038E-01    0.2016945520E-02    0.2655746879E-01    0.4628289678E+00
    0.3000000000E+03    0.1546501221E+00    0.8487217976E-01    0.2447348121E-02    0.5434195581E-01    0.5743562486E+00
    0.5000000000E+03    0.2038591962E+00    0.7958156677E-01    0.2350754437E-02    0.7165155476E-01    0.6067278767E+00
    0.7000000000E+03    0.2403991277E+00    0.7216464187E-01    0.2170549078E-02    0.8451199284E-01    0.6228722114E+00
    0.9000000000E+03    0.2694108739E+00    0.6502985074E-01    0.1983617641E-02    0.9472793433E-01    0.6327564818E+00
    0.1100000000E+04    0.2932275917E+00    0.5866713517E-01    0.1809446120E-02    0.1031184492E+00    0.6395159967E+00
    0.1300000000E+04    0.3131756406E+00    0.5312113654E-01    0.1652770168E-02    0.1101492109E+00    0.6444719631E+00
    0.1500000000E+04    0.3301162906E+00    0.4831897548E-01    0.1513701027E-02    0.1161226480E+00    0.6482841595E+00
    0.1700000000E+04    0.3446558358E+00    0.4416225592E-01    0.1390835949E-02    0.1212516941E+00    0.6513212994E+00
    0.1900000000E+04    0.3572431677E+00    0.4055541617E-01    0.1282358520E-02    0.1256940326E+00    0.6538067123E+00
    0.2100000000E+04    0.3682217595E+00    0.3741400590E-01    0.1186452441E-02    0.1295703405E+00    0.6558841234E+00
    0.2300000000E+04    0.3778604440E+00    0.3466611993E-01    0.1101453149E-02    0.1329750890E+00    0.6576505156E+00
    0.2500000000E+04    0.3863731445E+00    0.3225150738E-01    0.1025892821E-02    0.1359834683E+00    0.6591738705E+00
    0.2700000000E+04    0.3939322835E+00    0.3012000780E-01    0.9585013418E-03    0.1386560936E+00    0.6605033550E+00
    0.2900000000E+04    0.4006782906E+00    0.2822992928E-01    0.8981899400E-03    0.1410423419E+00    0.6616754715E+00
    0.3100000000E+04    0.4067265561E+00    0.2654658435E-01    0.8440292915E-03    0.1431827939E+00    0.6627179287E+00
    0.3300000000E+04    0.4121726341E+00    0.2504104173E-01    0.7952272251E-03    0.1451110600E+00    0.6636521664E+00
    0.3500000000E+04    0.4170962062E+00    0.2368909070E-01    0.7511081795E-03    0.1468551728E+00    0.6644950516E+00
    0.3700000000E+04    0.4215641423E+00    0.2247039373E-01    0.7110951418E-03    0.1484386615E+00    0.6652600488E+00
    0.3900000000E+04    0.4256328914E+00    0.2136779734E-01    0.6746941610E-03    0.1498813923E+00    0.6659580459E+00
    0.4100000000E+04    0.4293503679E+00    0.2036677320E-01    0.6414812537E-03    0.1512002304E+00    0.6665979491E+00
    0.4300000000E+04    0.4327574516E+00    0.1945496467E-01    0.6110914185E-03    0.1524095675E+00    0.6671871195E+00
    0.4500000000E+04    0.4358891895E+00    0.1862181845E-01    0.5832094553E-03    0.1535217439E+00    0.6677316976E+00
    0.4700000000E+04    0.4387757663E+00    0.1785828462E-01    0.5575623055E-03    0.1545473897E+00    0.6682368492E+00
    0.4900000000E+04    0.4414432918E+00    0.1715657151E-01    0.5339126628E-03    0.1554957014E+00    0.6687069541E+00
    0.1000000000E+04    0.2818710200E+00    0.6174452813E-01    0.1894470518E-02    0.9911710793E-01    0.6364215865E+00
    0.3000000000E+04    0.4037832556E+00    0.2736434511E-01    0.8703932448E-03    0.1421410465E+00    0.6622114436E+00
    0.5000000000E+04    0.4427021160E+00    0.1682675670E-01    0.5227711925E-03    0.1559433954E+00    0.6689300541E+00
    0.7000000000E+04    0.4605602854E+00    0.1224640547E-01    0.3665020714E-03    0.1623109133E+00    0.6722263756E+00
    0.9000000000E+04    0.4705182940E+00    0.9775979997E-02    0.2814457590E-03    0.1658821148E+00    0.6742423694E+00
    0.1100000000E+05    0.4767797145E+00    0.8249951531E-02    0.2290574144E-03    0.1681412509E+00    0.6756264158E+00
    0.1300000000E+05    0.4810469953E+00    0.7217095387E-02    0.1939321581E-03    0.1696905430E+00    0.6766471276E+00
    0.1500000000E+05    0.4841270863E+00    0.6471093915E-02    0.1688908795E-03    0.1708159754E+00    0.6774375054E+00
    0.1700000000E+05    0.4864475831E+00    0.5905689894E-02    0.1501941221E-03    0.1716693809E+00    0.6780715613E+00
    0.1900000000E+05    0.4882546657E+00    0.5461064145E-02    0.1357236484E-03    0.1723383466E+00    0.6785940439E+00
    0.2100000000E+05    0.4896994478E+00    0.5101135437E-02    0.1241985232E-03    0.1728767449E+00    0.6790337436E+00
    0.2300000000E+05    0.4908795366E+00    0.4802911098E-02    0.1148025399E-03    0.1733194442E+00    0.6794101013E+00
    0.2500000000E+05    0.4918606467E+00    0.4551068357E-02    0.1069928771E-03    0.1736899689E+00    0.6797367637E+00
    0.2700000000E+05    0.4926885675E+00    0.4335009619E-02    0.1003954326E-03    0.1740047451E+00    0.6800236192E+00
    0.2900000000E+05    0.4933961419E+00    0.4147172641E-02    0.9474449865E-04    0.1742755798E+00    0.6802780259E+00
    0.3100000000E+05    0.4940075159E+00    0.3982015414E-02    0.8984642496E-04    0.1745111721E+00    0.6805055831E+00
    0.3300000000E+05    0.4945408242E+00    0.3835382087E-02    0.8555689263E-04    0.1747180696E+00    0.6807106350E+00
    0.3500000000E+05    0.4950099423E+00    0.3704093346E-02    0.8176622971E-04    0.1749012932E+00    0.6808966090E+00
    0.3700000000E+05    0.4954256619E+00    0.3585673916E-02    0.7838964977E-04    0.1750647564E+00    0.6810662493E+00
    0.3900000000E+05    0.4957964986E+00    0.3478166552E-02    0.7536059868E-04    0.1752115542E+00    0.6812217814E+00
    0.4100000000E+05    0.4961292595E+00    0.3380002137E-02    0.7262611821E-04    0.1753441661E+00    0.6813650314E+00
    0.4300000000E+05    0.4964294494E+00    0.3289907097E-02    0.7014355031E-04    0.1754646016E+00    0.6814975133E+00
    0.4500000000E+05    0.4967015667E+00    0.3206836198E-02    0.6787815244E-04    0.1755745068E+00    0.6816204937E+00
    0.4700000000E+05    0.4969493226E+00    0.3129922953E-02    0.6580134400E-04    0.1756752426E+00    0.6817350418E+00
    0.4900000000E+05    0.4971758053E+00    0.3058442485E-02    0.6388939802E-04    0.1757679440E+00    0.6818420666E+00
    0.1000000000E+05    0.4739736242E+00    0.8931723754E-02    0.2524172576E-03    0.1671270922E+00    0.6749919259E+00
    0.3000000000E+05    0.4937126037E+00    0.4062045656E-02    0.9221132849E-04    0.1743973301E+00    0.6803948643E+00
    0.5000000000E+05    0.4972818953E+00    0.3024544658E-02    0.6298891240E-04    0.1758115861E+00    0.6818930055E+00
    0.7000000000E+05    0.4987404089E+00    0.2523486009E-02    0.5016310879E-04    0.1764303885E+00    0.6826579727E+00
    0.9000000000E+05    0.4995246183E+00    0.2213758976E-02    0.4270628574E-04    0.1767856784E+00    0.6831391037E+00
    0.1100000000E+06    0.5000105530E+00    0.1997732981E-02    0.3772257816E-04    0.1770202561E+00    0.6834764595E+00
    0.1300000000E+06    0.5003391063E+00    0.1835832980E-02    0.3410364250E-04    0.1771889337E+00    0.6837294410E+00
    0.1500000000E+06    0.5005747831E+00    0.1708561063E-02    0.3132748149E-04    0.1773174026E+00    0.6839280297E+00
    0.1700000000E+06    0.5007512189E+00    0.1605041733E-02    0.2911329279E-04    0.1774193719E+00    0.6840891803E+00
    0.1900000000E+06    0.5008876412E+00    0.1518661740E-02    0.2729532694E-04    0.1775028581E+00    0.6842232856E+00
    0.2100000000E+06    0.5009958219E+00    0.1445134992E-02    0.2576879932E-04    0.1775728801E+00    0.6843371128E+00
    0.2300000000E+06    0.5010833626E+00    0.1381543972E-02    0.2446387543E-04    0.1776327512E+00    0.6844352798E+00
    0.2500000000E+06    0.5011553856E+00    0.1325823840E-02    0.2333202231E-04    0.1776847529E+00    0.6845210588E+00
    0.2700000000E+06    0.5012154652E+00    0.1276466136E-02    0.2233834261E-04    0.1777305122E+00    0.6845968409E+00
    0.2900000000E+06    0.5012661690E+00    0.1232339456E-02    0.2145702513E-04    0.1777712227E+00    0.6846644190E+00
    0.3100000000E+06    0.5013093875E+00    0.1192576137E-02    0.2066851969E-04    0.1778077820E+00    0.6847251669E+00
    0.3300000000E+06    0.5013465423E+00    0.1156498004E-02    0.1995771463E-04    0.1778408794E+00    0.6847801575E+00
    0.3500000000E+06    0.5013787223E+00    0.1123566202E-02    0.1931272247E-04    0.1778710536E+00    0.6848302422E+00
    0.3700000000E+06    0.5014067752E+00    0.1093346372E-02    0.1872404777E-04    0.1778987329E+00    0.6848761063E+00
    0.3900000000E+06    0.5014313701E+00    0.1065483923E-02    0.1818400302E-04    0.1779242619E+00    0.6849183087E+00
    0.4100000000E+06    0.5014530417E+00    0.1039686105E-02    0.1768628954E-04    0.1779479220E+00    0.6849573098E+00
    0.4300000000E+06    0.5014722228E+00    0.1015708781E-02    0.1722569132E-04    0.1779699451E+00    0.6849934934E+00
    0.4500000000E+06    0.5014892665E+00    0.9933464991E-03    0.1679784728E-04    0.1779905245E+00    0.6850271816E+00
    0.4700000000E+06    0.5015044642E+00    0.9724249420E-03    0.1639907949E-04    0.1780098226E+00    0.6850586476E+00
    0.4900000000E+06    0.5015180580E+00    0.9527951031E-03    0.1602626166E-04    0.1780279772E+00    0.6850881245E+00
    0.1000000000E+06    0.4997933596E+00    0.2097202878E-02    0.3999521806E-04    0.1769136057E+00    0.6833210342E+00
    0.3000000000E+06    0.5012886159E+00    0.1211958524E-02    0.2105220289E-04    0.1777899741E+00    0.6846955737E+00
    0.5000000000E+06    0.5015243181E+00    0.9434237952E-03    0.1584873232E-04    0.1780366630E+00    0.6851021807E+00
    0.7000000000E+06    0.5016007170E+00    0.8003602277E-03    0.1317522647E-04    0.1781715874E+00    0.6853154107E+00
    0.9000000000E+06    0.5016295948E+00    0.7079534047E-03    0.1148558651E-04    0.1782625176E+00    0.6854516972E+00
    0.1100000000E+07    0.5016393163E+00    0.6419269099E-03    0.1029683301E-04    0.1783304679E+00    0.6855483287E+00
    0.1300000000E+07    0.5016400273E+00    0.5916988541E-03    0.9403261343E-05    0.1783844595E+00    0.6856213992E+00
    0.1500000000E+07    0.5016361143E+00    0.5518174094E-03    0.8700625653E-05    0.1784291327E+00    0.6856791362E+00
    0.1700000000E+07    0.5016297164E+00    0.5191490316E-03    0.8129766578E-05    0.1784671692E+00    0.6857262391E+00
    0.1900000000E+07    0.5016219666E+00    0.4917471182E-03    0.7654311129E-05    0.1785002511E+00    0.6857656117E+00
    0.2100000000E+07    0.5016135006E+00    0.4683298917E-03    0.7250515598E-05    0.1785294995E+00    0.6857991575E+00
    0.2300000000E+07    0.5016046903E+00    0.4480141718E-03    0.6902141515E-05    0.1785556971E+00    0.6858281831E+00
    0.2500000000E+07    0.5015957594E+00    0.4301688797E-03    0.6597661295E-05    0.1785794114E+00    0.6858536186E+00
    0.2700000000E+07    0.5015868448E+00    0.4143294176E-03    0.6328637620E-05    0.1786010663E+00    0.6858761470E+00
    0.2900000000E+07    0.5015780306E+00    0.4001451149E-03    0.6088735426E-05    0.1786209866E+00    0.6858962821E+00
    0.3100000000E+07    0.5015693682E+00    0.3873456333E-03    0.5873094100E-05    0.1786394264E+00    0.6859144192E+00
    0.3300000000E+07    0.5015608881E+00    0.3757187411E-03    0.5677914389E-05    0.1786565882E+00    0.6859308678E+00
    0.3500000000E+07    0.5015526072E+00    0.3650951723E-03    0.5500178366E-05    0.1786726359E+00    0.6859458742E+00
    0.3700000000E+07    0.5015445338E+00    0.3553380458E-03    0.5337454616E-05    0.1786877040E+00    0.6859596374E+00
    0.3900000000E+07    0.5015366702E+00    0.3463353060E-03    0.5187759627E-05    0.1787019040E+00    0.6859723199E+00
    0.4100000000E+07    0.5015290152E+00    0.3379942149E-03    0.5049457183E-05    0.1787153298E+00    0.6859840558E+00
    0.4300000000E+07    0.5015215648E+00    0.3302372678E-03    0.4921184035E-05    0.1787280606E+00    0.6859949572E+00
    0.4500000000E+07    0.5015143139E+00    0.3229991185E-03    0.4801794116E-05    0.1787401644E+00    0.6860051184E+00
    0.4700000000E+07    0.5015072561E+00    0.3162242296E-03    0.4690316069E-05    0.1787516995E+00    0.6860146194E+00
    0.4900000000E+07    0.5015003848E+00    0.3098650565E-03    0.4585920495E-05    0.1787627166E+00    0.6860235287E+00
    0.1000000000E+07    0.5016360099E+00    0.6724781602E-03    0.1084492324E-04    0.1782986519E+00    0.6855036961E+00
    0.3000000000E+07    0.5015736781E+00    0.3935866933E-03    0.5978140694E-05    0.1786303779E+00    0.6859055793E+00
    0.5000000000E+07    0.5014970168E+00    0.3068283349E-03    0.4536151859E-05    0.1787680449E+00    0.6860277802E+00
    0.7000000000E+07    0.5014377815E+00    0.2604104342E-03    0.3782500857E-05    0.1788557039E+00    0.6860925170E+00
    0.9000000000E+07    0.5013902985E+00    0.2303815584E-03    0.3302613162E-05    0.1789200638E+00    0.6861341336E+00
    0.1100000000E+08    0.5013508081E+00    0.2089093255E-03    0.2963579794E-05    0.1789709152E+00    0.6861637551E+00
    0.1300000000E+08    0.5013170407E+00    0.1925681892E-03    0.2708065609E-05    0.1790129442E+00    0.6861862169E+00
    0.1500000000E+08    0.5012875572E+00    0.1795900782E-03    0.2506791066E-05    0.1790487578E+00    0.6862040032E+00
    0.1700000000E+08    0.5012613959E+00    0.1689576280E-03    0.2343055069E-05    0.1790799562E+00    0.6862185383E+00
    0.1900000000E+08    0.5012378844E+00    0.1600383742E-03    0.2206551910E-05    0.1791075920E+00    0.6862307048E+00
    0.2100000000E+08    0.5012165347E+00    0.1524156470E-03    0.2090535937E-05    0.1791323948E+00    0.6862410827E+00
    0.2300000000E+08    0.5011969823E+00    0.1458022446E-03    0.1990384095E-05    0.1791548907E+00    0.6862500710E+00
    0.2500000000E+08    0.5011789474E+00    0.1399928907E-03    0.1902809050E-05    0.1791754719E+00    0.6862579543E+00
    0.2700000000E+08    0.5011622108E+00    0.1348364307E-03    0.1825401481E-05    0.1791944384E+00    0.6862649416E+00
