  Pressure (Pa) 22mC5-400 (mol/kg) 2mC6-400 (mol/kg) 33mC5-400 (mol/kg) 23mC5-400 (mol/kg) C7-400 (mol/kg)
    0.1000000000E+01    0.1059521532E-02    0.3155423087E-02    0.6423582857E-04    0.6511410663E-03    0.1018023263E-01
    0.3000000000E+01    0.3143121130E-02    0.9128702104E-02    0.1858810056E-03    0.1931655369E-02    0.2944270822E-01
    0.5000000000E+01    0.5181094183E-02    0.1469058180E-01    0.2992080915E-03    0.3184147704E-02    0.4737209663E-01
    0.7000000000E+01    0.7175302093E-02    0.1988192257E-01    0.4050446854E-03    0.4409761119E-02    0.6410635598E-01
    0.9000000000E+01    0.9127503127E-02    0.2473818471E-01    0.5041087634E-03    0.5609575334E-02    0.7976490421E-01
    0.1100000000E+02    0.1103935951E-01    0.2929030598E-01    0.5970265222E-03    0.6784611090E-02    0.9445163921E-01
    0.1300000000E+02    0.1291244391E-01    0.3356541241E-01    0.6843468268E-03    0.7935834154E-02    0.1082573868E+00
    0.1500000000E+02    0.1474824548E-01    0.3758739813E-01    0.7665529953E-03    0.9064158991E-02    0.1212618994E+00
    0.1700000000E+02    0.1654817532E-01    0.4137740172E-01    0.8440724765E-03    0.1017045215E-01    0.1335354978E+00
    0.1900000000E+02    0.1831357157E-01    0.4495419999E-01    0.9172848495E-03    0.1125553539E-01    0.1451404302E+00
    0.2100000000E+02    0.2004570414E-01    0.4833453557E-01    0.9865284743E-03    0.1232018854E-01    0.1561320013E+00
    0.2300000000E+02    0.2174577896E-01    0.5153339079E-01    0.1052106054E-02    0.1336515218E-01    0.1665595178E+00
    0.2500000000E+02    0.2341494208E-01    0.5456421812E-01    0.1114289312E-02    0.1439113011E-01    0.1764670825E+00
    0.2700000000E+02    0.2505428331E-01    0.5743913489E-01    0.1173322940E-02    0.1539879158E-01    0.1858942662E+00
    0.2900000000E+02    0.2666483967E-01    0.6016908864E-01    0.1229427957E-02    0.1638877344E-01    0.1948766771E+00
    0.3100000000E+02    0.2824759860E-01    0.6276399820E-01    0.1282804568E-02    0.1736168209E-01    0.2034464469E+00
    0.3300000000E+02    0.2980350087E-01    0.6523287458E-01    0.1333634615E-02    0.1831809528E-01    0.2116326469E+00
    0.3500000000E+02    0.3133344339E-01    0.6758392499E-01    0.1382083685E-02    0.1925856381E-01    0.2194616453E+00
    0.3700000000E+02    0.3283828169E-01    0.6982464259E-01    0.1428302932E-02    0.2018361308E-01    0.2269574156E+00
    0.3900000000E+02    0.3431883238E-01    0.7196188440E-01    0.1472430651E-02    0.2109374460E-01    0.2341418039E+00
    0.4100000000E+02    0.3577587529E-01    0.7400193905E-01    0.1514593653E-02    0.2198943727E-01    0.2410347612E+00
    0.4300000000E+02    0.3721015558E-01    0.7595058585E-01    0.1554908461E-02    0.2287114873E-01    0.2476545449E+00
    0.4500000000E+02    0.3862238566E-01    0.7781314660E-01    0.1593482359E-02    0.2373931649E-01    0.2540178964E+00
    0.4700000000E+02    0.4001324698E-01    0.7959453111E-01    0.1630414311E-02    0.2459435905E-01    0.2601401959E+00
    0.4900000000E+02    0.4138339172E-01    0.8129927721E-01    0.1665795773E-02    0.2543667693E-01    0.2660355984E+00
    0.1000000000E+02    0.1008837408E-01    0.2705048560E-01    0.5512999657E-03    0.6200128915E-02    0.8722379073E-01
    0.3000000000E+02    0.2745963396E-01    0.6148284077E-01    0.1256445544E-02    0.1687732516E-01    0.1992112579E+00
    0.5000000000E+02    0.4206089156E-01    0.8212423601E-01    0.1682931775E-02    0.2585318461E-01    0.2689023319E+00
    0.7000000000E+02    0.5466187061E-01    0.9547145751E-01    0.1961811787E-02    0.3360041517E-01    0.3170089121E+00
    0.9000000000E+02    0.6576145597E-01    0.1044694782E+00    0.2152419821E-02    0.4042540781E-01    0.3525266961E+00
    0.1100000000E+03    0.7569807858E-01    0.1106686367E+00    0.2285988207E-02    0.4653601793E-01    0.3800147151E+00
    0.1300000000E+03    0.8471003873E-01    0.1149693842E+00    0.2380670903E-02    0.5207860798E-01    0.4020407731E+00
    0.1500000000E+03    0.9297042282E-01    0.1179322586E+00    0.2447785554E-02    0.5715948953E-01    0.4201670786E+00
    0.1700000000E+03    0.1006082982E+00    0.1199246450E+00    0.2494765228E-02    0.6185793913E-01    0.4354017189E+00
    0.1900000000E+03    0.1077221034E+00    0.1211971117E+00    0.2526692608E-02    0.6623442172E-01    0.4484261791E+00
    0.2100000000E+03    0.1143884015E+00    0.1219260614E+00    0.2547156879E-02    0.7033596629E-01    0.4597188415E+00
    0.2300000000E+03    0.1206677729E+00    0.1222389385E+00    0.2558760178E-02    0.7419978513E-01    0.4696261368E+00
    0.2500000000E+03    0.1266088857E+00    0.1222298193E+00    0.2563430898E-02    0.7785577383E-01    0.4784055918E+00
    0.2700000000E+03    0.1322513725E+00    0.1219694204E+00    0.2562624940E-02    0.8132827780E-01    0.4862529604E+00
    0.2900000000E+03    0.1376279029E+00    0.1215117291E+00    0.2557459134E-02    0.8463736558E-01    0.4933199296E+00
    0.3100000000E+03    0.1427657052E+00    0.1208985144E+00    0.2548802114E-02    0.8779976344E-01    0.4997260238E+00
    0.3300000000E+03    0.1476877015E+00    0.1201624691E+00    0.2537337664E-02    0.9082955233E-01    0.5055668195E+00
    0.3500000000E+03    0.1524133660E+00    0.1193294404E+00    0.2523609779E-02    0.9373869527E-01    0.5109197458E+00
    0.3700000000E+03    0.1569593831E+00    0.1184200448E+00    0.2508055308E-02    0.9653744171E-01    0.5158482622E+00
    0.3900000000E+03    0.1613401588E+00    0.1174508537E+00    0.2491027969E-02    0.9923464136E-01    0.5204049236E+00
    0.4100000000E+03    0.1655682212E+00    0.1164352765E+00    0.2472816282E-02    0.1018379903E+00    0.5246336643E+00
    0.4300000000E+03    0.1696545379E+00    0.1153842281E+00    0.2453657123E-02    0.1043542262E+00    0.5285715267E+00
    0.4500000000E+03    0.1736087705E+00    0.1143066373E+00    0.2433746095E-02    0.1067892843E+00    0.5322499846E+00
    0.4700000000E+03    0.1774394793E+00    0.1132098402E+00    0.2413245548E-02    0.1091484234E+00    0.5356959708E+00
    0.4900000000E+03    0.1811542903E+00    0.1120998855E+00    0.2392290838E-02    0.1114363282E+00    0.5389326824E+00
    0.1000000000E+03    0.7085839322E-01    0.1078521936E+00    0.2224989285E-02    0.4355972648E-01    0.3670826371E+00
    0.3000000000E+03    0.1402251227E+00    0.1212223359E+00    0.2553520557E-02    0.8623596557E-01    0.4965991287E+00
    0.5000000000E+03    0.1829703957E+00    0.1115415726E+00    0.2381679324E-02    0.1125548957E+00    0.5404789478E+00
    0.7000000000E+03    0.2145492867E+00    0.1005205076E+00    0.2165049468E-02    0.1320105145E+00    0.5641303278E+00
    0.9000000000E+03    0.2394024392E+00    0.9064735522E-01    0.1962508668E-02    0.1473308492E+00    0.5793936463E+00
    0.1100000000E+04    0.2595791488E+00    0.8219257809E-01    0.1783993271E-02    0.1597749466E+00    0.5902541470E+00
    0.1300000000E+04    0.2762750880E+00    0.7501982881E-01    0.1629184952E-02    0.1700775151E+00    0.5984732331E+00
    0.1500000000E+04    0.2902817915E+00    0.6892768579E-01    0.1495372748E-02    0.1787250310E+00    0.6049638431E+00
    0.1700000000E+04    0.3021617508E+00    0.6372799010E-01    0.1379514090E-02    0.1860632800E+00    0.6102519700E+00
    0.1900000000E+04    0.3123319147E+00    0.5926207358E-01    0.1278818717E-02    0.1923486374E+00    0.6146645343E+00
    0.2100000000E+04    0.3211098475E+00    0.5540058560E-01    0.1190888701E-02    0.1977764143E+00    0.6184166758E+00
    0.2300000000E+04    0.3287420606E+00    0.5203925758E-01    0.1113715821E-02    0.2024982570E+00    0.6216564437E+00
    0.2500000000E+04    0.3354226960E+00    0.4909420858E-01    0.1045635636E-02    0.2066336222E+00    0.6244894476E+00
    0.2700000000E+04    0.3413064586E+00    0.4649780605E-01    0.9852730729E-03    0.2102777215E+00    0.6269932830E+00
    0.2900000000E+04    0.3465178724E+00    0.4419527989E-01    0.9314915844E-03    0.2135072079E+00    0.6292263913E+00
    0.3100000000E+04    0.3511580639E+00    0.4214203582E-01    0.8833494416E-03    0.2163843448E+00    0.6312337237E+00
    0.3300000000E+04    0.3553098238E+00    0.4030155038E-01    0.8400635246E-03    0.2189601165E+00    0.6330504870E+00
    0.3500000000E+04    0.3590414360E+00    0.3864372830E-01    0.8009798546E-03    0.2212765821E+00    0.6347046936E+00
    0.3700000000E+04    0.3624096094E+00    0.3714362042E-01    0.7655498130E-03    0.2233686781E+00    0.6362189424E+00
    0.3900000000E+04    0.3654617446E+00    0.3578042023E-01    0.7333110097E-03    0.2252656122E+00    0.6376116893E+00
    0.4100000000E+04    0.3682377025E+00    0.3453667532E-01    0.7038718951E-03    0.2269919511E+00    0.6388981726E+00
    0.4300000000E+04    0.3707711952E+00    0.3339766468E-01    0.6768993625E-03    0.2285684759E+00    0.6400910975E+00
    0.4500000000E+04    0.3730908885E+00    0.3235090438E-01    0.6521087334E-03    0.2300128605E+00    0.6412011514E+00
    0.4700000000E+04    0.3752212819E+00    0.3138575304E-01    0.6292556379E-03    0.2313402127E+00    0.6422373966E+00
    0.4900000000E+04    0.3771834146E+00    0.3049309513E-01    0.6081294078E-03    0.2325635095E+00    0.6432075741E+00
    0.1000000000E+04    0.2499880097E+00    0.8624788654E-01    0.1870167736E-02    0.1538587628E+00    0.5852354750E+00
    0.3000000000E+04    0.3489038167E+00    0.4313994824E-01    0.9067678814E-03    0.2149863999E+00    0.6302558851E+00
    0.5000000000E+04    0.3781071549E+00    0.3007145592E-01    0.5981558995E-03    0.2331396977E+00    0.6436700045E+00
    0.7000000000E+04    0.3910586529E+00    0.2401915254E-01    0.4559173367E-03    0.2412434927E+00    0.6506650396E+00
    0.9000000000E+04    0.3981556458E+00    0.2050655675E-01    0.3750678506E-03    0.2457155087E+00    0.6551108277E+00
    0.1100000000E+05    0.4025715737E+00    0.1818201074E-01    0.3228827348E-03    0.2485187540E+00    0.6582478035E+00
    0.1300000000E+05    0.4055598559E+00    0.1650948097E-01    0.2862610052E-03    0.2504302683E+00    0.6606101816E+00
    0.1500000000E+05    0.4077054854E+00    0.1523539481E-01    0.2590115312E-03    0.2518135336E+00    0.6624702841E+00
    0.1700000000E+05    0.4093152503E+00    0.1422418211E-01    0.2378459192E-03    0.2528596166E+00    0.6639831915E+00
    0.1900000000E+05    0.4105644803E+00    0.1339657494E-01    0.2208597998E-03    0.2536779744E+00    0.6652444634E+00
    0.2100000000E+05    0.4115602087E+00    0.1270296019E-01    0.2068745515E-03    0.2543355908E+00    0.6663165733E+00
    0.2300000000E+05    0.4123712758E+00    0.1211058307E-01    0.1951213472E-03    0.2548756552E+00    0.6672422922E+00
    0.2500000000E+05    0.4130438709E+00    0.1159687141E-01    0.1850768577E-03    0.2553272198E+00    0.6680520068E+00
    0.2700000000E+05    0.4136100883E+00    0.1114571401E-01    0.1763721179E-03    0.2557105232E+00    0.6687679711E+00
    0.2900000000E+05    0.4140928936E+00    0.1074526982E-01    0.1687392115E-03    0.2560400850E+00    0.6694069027E+00
    0.3100000000E+05    0.4145091365E+00    0.1038661829E-01    0.1619786611E-03    0.2563265864E+00    0.6699816329E+00
    0.3300000000E+05    0.4148714499E+00    0.1006289548E-01    0.1559387106E-03    0.2565780565E+00    0.6705021948E+00
    0.3500000000E+05    0.4151894840E+00    0.9768722493E-02    0.1505017286E-03    0.2568006454E+00    0.6709765607E+00
    0.3700000000E+05    0.4154707340E+00    0.9499816463E-02    0.1455750280E-03    0.2569991421E+00    0.6714111550E+00
    0.3900000000E+05    0.4157211062E+00    0.9252719092E-02    0.1410845122E-03    0.2571773313E+00    0.6718112203E+00
    0.4100000000E+05    0.4159453166E+00    0.9024603000E-02    0.1369701791E-03    0.2573382427E+00    0.6721810822E+00
    0.4300000000E+05    0.4161471745E+00    0.8813130883E-02    0.1331828784E-03    0.2574843303E+00    0.6725243453E+00
    0.4500000000E+05    0.4163297896E+00    0.8616351277E-02    0.1296819296E-03    0.2576176029E+00    0.6728440408E+00
    0.4700000000E+05    0.4164957248E+00    0.8432620208E-02    0.1264333468E-03    0.2577397208E+00    0.6731427385E+00
    0.4900000000E+05    0.4166471108E+00    0.8260541448E-02    0.1234084943E-03    0.2578520679E+00    0.6734226330E+00
    0.1000000000E+05    0.4005970601E+00    0.1923914293E-01    0.3464515884E-03    0.2472627277E+00    0.6568006063E+00
    0.3000000000E+05    0.4143084639E+00    0.1056118938E-01    0.1652603091E-03    0.2561881649E+00    0.6697016102E+00
    0.5000000000E+05    0.4167179174E+00    0.8178491535E-02    0.1219722227E-03    0.2579049483E+00    0.6735561292E+00
    0.7000000000E+05    0.4176823849E+00    0.6932717156E-02    0.1006413796E-03    0.2586539510E+00    0.6755833684E+00
    0.9000000000E+05    0.4181904358E+00    0.6133102555E-02    0.8741656063E-04    0.2590832214E+00    0.6768812153E+00
    0.1100000000E+06    0.4184986638E+00    0.5563207335E-02    0.7821080158E-04    0.2593662606E+00    0.6778024990E+00
    0.1300000000E+06    0.4187025196E+00    0.5130128351E-02    0.7133649457E-04    0.2595695652E+00    0.6784997873E+00
    0.1500000000E+06    0.4188454040E+00    0.4786389295E-02    0.6595479043E-04    0.2597242692E+00    0.6790511727E+00
    0.1700000000E+06    0.4189497959E+00    0.4504831074E-02    0.6159585289E-04    0.2598469709E+00    0.6795012992E+00
    0.1900000000E+06    0.4190284588E+00    0.4268631206E-02    0.5797351904E-04    0.2599473684E+00    0.6798777739E+00
    0.2100000000E+06    0.4190891545E+00    0.4066733181E-02    0.5490229410E-04    0.2600315296E+00    0.6801987043E+00
    0.2300000000E+06    0.4191368612E+00    0.3891527936E-02    0.5225600096E-04    0.2601034573E+00    0.6804765245E+00
    0.2500000000E+06    0.4191749104E+00    0.3737582653E-02    0.4994544803E-04    0.2601659068E+00    0.6807200927E+00
    0.2700000000E+06    0.4192056105E+00    0.3600899710E-02    0.4790557696E-04    0.2602208411E+00    0.6809359127E+00
    0.2900000000E+06    0.4192306086E+00    0.3478462699E-02    0.4608767584E-04    0.2602697002E+00    0.6811288818E+00
    0.3100000000E+06    0.4192511083E+00    0.3367946608E-02    0.4445445659E-04    0.2603135664E+00    0.6813027673E+00
    0.3300000000E+06    0.4192680086E+00    0.3267526299E-02    0.4297682982E-04    0.2603532702E+00    0.6814605206E+00
    0.3500000000E+06    0.4192819928E+00    0.3175746131E-02    0.4163172632E-04    0.2603894607E+00    0.6816044916E+00
    0.3700000000E+06    0.4192935891E+00    0.3091428912E-02    0.4040058623E-04    0.2604226534E+00    0.6817365773E+00
    0.3900000000E+06    0.4193032110E+00    0.3013610869E-02    0.3926828691E-04    0.2604532635E+00    0.6818583284E+00
    0.4100000000E+06    0.4193111868E+00    0.2941494290E-02    0.3822236659E-04    0.2604816294E+00    0.6819710261E+00
    0.4300000000E+06    0.4193177799E+00    0.2874412407E-02    0.3725245189E-04    0.2605080301E+00    0.6820757402E+00
    0.4500000000E+06    0.4193232035E+00    0.2811802970E-02    0.3634982898E-04    0.2605326980E+00    0.6821733710E+00
    0.4700000000E+06    0.4193276323E+00    0.2753188054E-02    0.3550711757E-04    0.2605558286E+00    0.6822646833E+00
    0.4900000000E+06    0.4193312100E+00    0.2698158448E-02    0.3471801986E-04    0.2605775872E+00    0.6823503307E+00
    0.1000000000E+06    0.4183617159E+00    0.5826795784E-02    0.8244604445E-04    0.2592376190E+00    0.6773768576E+00
    0.3000000000E+06    0.4192413586E+00    0.3421838564E-02    0.4524996171E-04    0.2602922006E+00    0.6812180093E+00
    0.5000000000E+06    0.4193327179E+00    0.2671875986E-02    0.3434185502E-04    0.2605879970E+00    0.6823912091E+00
    0.7000000000E+06    0.4193387364E+00    0.2269799066E-02    0.2864667228E-04    0.2607496856E+00    0.6830143334E+00
    0.9000000000E+06    0.4193239658E+00    0.2009327055E-02    0.2502042209E-04    0.2608586666E+00    0.6834156956E+00
    0.1100000000E+07    0.4193030922E+00    0.1822890689E-02    0.2245807721E-04    0.2609401345E+00    0.6837018275E+00
    0.1300000000E+07    0.4192807083E+00    0.1680898320E-02    0.2052650910E-04    0.2610048944E+00    0.6839190931E+00
    0.1500000000E+07    0.4192584769E+00    0.1568060133E-02    0.1900461168E-04    0.2610585010E+00    0.6840913380E+00
    0.1700000000E+07    0.4192370270E+00    0.1475570596E-02    0.1776627953E-04    0.2611041634E+00    0.6842322461E+00
    0.1900000000E+07    0.4192165783E+00    0.1397951634E-02    0.1673369609E-04    0.2611438942E+00    0.6843503054E+00
    0.2100000000E+07    0.4191971778E+00    0.1331592066E-02    0.1585592247E-04    0.2611790345E+00    0.6844510977E+00
    0.2300000000E+07    0.4191787981E+00    0.1274001468E-02    0.1509804462E-04    0.2612105210E+00    0.6845384644E+00
    0.2500000000E+07    0.4191613813E+00    0.1223399002E-02    0.1443523312E-04    0.2612390325E+00    0.6846151474E+00
    0.2700000000E+07    0.4191448589E+00    0.1178472821E-02    0.1384928793E-04    0.2612650764E+00    0.6846831635E+00
    0.2900000000E+07    0.4191291614E+00    0.1138232250E-02    0.1332652681E-04    0.2612890412E+00    0.6847440334E+00
    0.3100000000E+07    0.4191142223E+00    0.1101913217E-02    0.1285644088E-04    0.2613112313E+00    0.6847989287E+00
    0.3300000000E+07    0.4190999799E+00    0.1068915646E-02    0.1243080843E-04    0.2613318888E+00    0.6848487681E+00
    0.3500000000E+07    0.4190863779E+00    0.1038760777E-02    0.1204309335E-04    0.2613512102E+00    0.6848942843E+00
    0.3700000000E+07    0.4190733656E+00    0.1011061332E-02    0.1168802609E-04    0.2613693563E+00    0.6849360691E+00
    0.3900000000E+07    0.4190608969E+00    0.9855001824E-03    0.1136130511E-04    0.2613864609E+00    0.6849746068E+00
    0.4100000000E+07    0.4190489308E+00    0.9618148063E-03    0.1105938008E-04    0.2614026363E+00    0.6850102980E+00
    0.4300000000E+07    0.4190374300E+00    0.9397857538E-03    0.1077929144E-04    0.2614179774E+00    0.6850434772E+00
    0.4500000000E+07    0.4190263610E+00    0.9192279619E-03    0.1051855002E-04    0.2614325657E+00    0.6850744264E+00
    0.4700000000E+07    0.4190156937E+00    0.8999841179E-03    0.1027504522E-04    0.2614464712E+00    0.6851033851E+00
    0.4900000000E+07    0.4190054008E+00    0.8819195246E-03    0.1004697421E-04    0.2614597544E+00    0.6851305584E+00
    0.1000000000E+07    0.4193138968E+00    0.1909188802E-02    0.2364055393E-04    0.2609019850E+00    0.6835695027E+00
    0.3000000000E+07    0.4191216011E+00    0.1119623313E-02    0.1308545877E-04    0.2613003417E+00    0.6847721654E+00
    0.5000000000E+07    0.4190003869E+00    0.8732925310E-03    0.9938233287E-05    0.2614661796E+00    0.6851435316E+00
    0.7000000000E+07    0.4189148485E+00    0.7413821134E-03    0.8290625377E-05    0.2615719576E+00    0.6853415908E+00
    0.9000000000E+07    0.4188488800E+00    0.6560048912E-03    0.7240649974E-05    0.2616497082E+00    0.6854694668E+00
    0.1100000000E+08    0.4187952065E+00    0.5949364489E-03    0.6498484558E-05    0.2617111900E+00    0.6855607754E+00
    0.1300000000E+08    0.4187499648E+00    0.5484506554E-03    0.5938954064E-05    0.2617620370E+00    0.6856301885E+00
    0.1500000000E+08    0.4187108639E+00    0.5115253017E-03    0.5498086021E-05    0.2618053866E+00    0.6856852674E+00
    0.1700000000E+08    0.4186764341E+00    0.4812696545E-03    0.5139370728E-05    0.2618431655E+00    0.6857303579E+00
    0.1900000000E+08    0.4186456773E+00    0.4558861947E-03    0.4840270092E-05    0.2618766423E+00    0.6857681589E+00
    0.2100000000E+08    0.4186178843E+00    0.4341904769E-03    0.4586026998E-05    0.2619066964E+00    0.6858004469E+00
    0.2300000000E+08    0.4185925333E+00    0.4153659535E-03    0.4366525222E-05    0.2619339625E+00    0.6858284458E+00
    0.2500000000E+08    0.4185692292E+00    0.3988289194E-03    0.4174569846E-05    0.2619589138E+00    0.6858530296E+00
    0.2700000000E+08    0.4185476657E+00    0.3841495135E-03    0.4004886689E-05    0.2619819123E+00    0.6858748417E+00
