  Pressure (Pa) 22mC5-400 (mol/kg) 2mC6-400 (mol/kg) 33mC5-400 (mol/kg) 23mC5-400 (mol/kg) C7-400 (mol/kg)
    0.1000000000E+01    0.1059138619E-02    0.3924972702E-02    0.6392493681E-04    0.3719461336E-03    0.1349427538E-01
    0.3000000000E+01    0.3139790366E-02    0.1125242844E-01    0.1833309097E-03    0.1102633312E-02    0.3860190032E-01
    0.5000000000E+01    0.5172147700E-02    0.1796032466E-01    0.2927273599E-03    0.1816370943E-02    0.6148793889E-01
    0.7000000000E+01    0.7158338359E-02    0.2412698078E-01    0.3933825889E-03    0.2513905690E-02    0.8244309650E-01
    0.9000000000E+01    0.9100362538E-02    0.2981759610E-01    0.4863518861E-03    0.3195939466E-02    0.1017091282E+00
    0.1100000000E+02    0.1100010240E-01    0.3508692061E-01    0.5725209651E-03    0.3863132764E-02    0.1194887475E+00
    0.1300000000E+02    0.1285933072E-01    0.3998129680E-01    0.6526391592E-03    0.4516107699E-02    0.1359532198E+00
    0.1500000000E+02    0.1467971884E-01    0.4454023896E-01    0.7273450892E-03    0.5155450786E-02    0.1512482491E+00
    0.1700000000E+02    0.1646284386E-01    0.4879766767E-01    0.7971867189E-03    0.5781715473E-02    0.1654985884E+00
    0.1900000000E+02    0.1821019526E-01    0.5278288428E-01    0.8626371824E-03    0.6395424468E-02    0.1788116862E+00
    0.2100000000E+02    0.1992318099E-01    0.5652134723E-01    0.9241073875E-03    0.6997071861E-02    0.1912805961E+00
    0.2300000000E+02    0.2160313301E-01    0.6003529575E-01    0.9819561379E-03    0.7587125085E-02    0.2029863175E+00
    0.2500000000E+02    0.2325131242E-01    0.6334425484E-01    0.1036498325E-02    0.8166026706E-02    0.2139996940E+00
    0.2700000000E+02    0.2486891418E-01    0.6646544720E-01    0.1088011610E-02    0.8734196074E-02    0.2243829625E+00
    0.2900000000E+02    0.2645707140E-01    0.6941413162E-01    0.1136741906E-02    0.9292030846E-02    0.2341910271E+00
    0.3100000000E+02    0.2801685938E-01    0.7220388265E-01    0.1182907915E-02    0.9839908386E-02    0.2434725136E+00
    0.3300000000E+02    0.2954929927E-01    0.7484682324E-01    0.1226704890E-02    0.1037818706E-01    0.2522706452E+00
    0.3500000000E+02    0.3105536151E-01    0.7735381934E-01    0.1268307795E-02    0.1090720744E-01    0.2606239769E+00
    0.3700000000E+02    0.3253596893E-01    0.7973464358E-01    0.1307873945E-02    0.1142729338E-01    0.2685670120E+00
    0.3900000000E+02    0.3399199973E-01    0.8199811364E-01    0.1345545250E-02    0.1193875309E-01    0.2761307238E+00
    0.4100000000E+02    0.3542429014E-01    0.8415220972E-01    0.1381450115E-02    0.1244188004E-01    0.2833429979E+00
    0.4300000000E+02    0.3683363695E-01    0.8620417492E-01    0.1415705062E-02    0.1293695386E-01    0.2902290103E+00
    0.4500000000E+02    0.3822079985E-01    0.8816060112E-01    0.1448416119E-02    0.1342424117E-01    0.2968115503E+00
    0.4700000000E+02    0.3958650357E-01    0.9002750302E-01    0.1479680013E-02    0.1390399631E-01    0.3031112986E+00
    0.4900000000E+02    0.4093143990E-01    0.9181038206E-01    0.1509585208E-02    0.1437646207E-01    0.3091470674E+00
    0.1000000000E+02    0.1005540474E-01    0.3250184669E-01    0.5302367553E-03    0.3531351427E-02    0.1107733744E+00
    0.3000000000E+02    0.2724044649E-01    0.7082808455E-01    0.1160132733E-02    0.9567191441E-02    0.2388947738E+00
    0.5000000000E+02    0.4159632796E-01    0.9267190565E-01    0.1524053900E-02    0.1461003431E-01    0.3120713790E+00
    0.7000000000E+02    0.5394968265E-01    0.1065188009E+00    0.1758615840E-02    0.1894998511E-01    0.3601529661E+00
    0.9000000000E+02    0.6482268111E-01    0.1157982500E+00    0.1918954045E-02    0.2277030600E-01    0.3945445369E+00
    0.1100000000E+03    0.7456268440E-01    0.1222061135E+00    0.2032344297E-02    0.2619291211E-01    0.4205833415E+00
    0.1300000000E+03    0.8341057958E-01    0.1266914122E+00    0.2114076759E-02    0.2930235166E-01    0.4411165332E+00
    0.1500000000E+03    0.9153922498E-01    0.1298312243E+00    0.2173473711E-02    0.3215929748E-01    0.4578095429E+00
    0.1700000000E+03    0.9907626042E-01    0.1319979817E+00    0.2216571669E-02    0.3480855200E-01    0.4717057032E+00
    0.1900000000E+03    0.1061182526E+00    0.1334430591E+00    0.2247460907E-02    0.3728401164E-01    0.4834942556E+00
    0.2100000000E+03    0.1127398014E+00    0.1343421716E+00    0.2269013119E-02    0.3961186260E-01    0.4936502114E+00
    0.2300000000E+03    0.1189995922E+00    0.1348216604E+00    0.2283303016E-02    0.4181270524E-01    0.5025124474E+00
    0.2500000000E+03    0.1249445326E+00    0.1349745011E+00    0.2291865366E-02    0.4390300574E-01    0.5103297689E+00
    0.2700000000E+03    0.1306126480E+00    0.1348704619E+00    0.2295858322E-02    0.4589611264E-01    0.5172893383E+00
    0.2900000000E+03    0.1360351538E+00    0.1345627717E+00    0.2296170816E-02    0.4780298391E-01    0.5235349028E+00
    0.3100000000E+03    0.1412379654E+00    0.1340926256E+00    0.2293495249E-02    0.4963271712E-01    0.5291788673E+00
    0.3300000000E+03    0.1462428181E+00    0.1334923034E+00    0.2288377913E-02    0.5139294259E-01    0.5343105197E+00
    0.3500000000E+03    0.1510681113E+00    0.1327873759E+00    0.2281254734E-02    0.5309011947E-01    0.5390017733E+00
    0.3700000000E+03    0.1557295519E+00    0.1319982937E+00    0.2272477084E-02    0.5472976180E-01    0.5433112633E+00
    0.3900000000E+03    0.1602406526E+00    0.1311415521E+00    0.2262330734E-02    0.5631661338E-01    0.5472873263E+00
    0.4100000000E+03    0.1646131216E+00    0.1302305558E+00    0.2251049985E-02    0.5785478446E-01    0.5509702037E+00
    0.4300000000E+03    0.1688571703E+00    0.1292762710E+00    0.2238828329E-02    0.5934785993E-01    0.5543936979E+00
    0.4500000000E+03    0.1729817594E+00    0.1282877222E+00    0.2225826616E-02    0.6079898555E-01    0.5575864327E+00
    0.4700000000E+03    0.1769947967E+00    0.1272723753E+00    0.2212179348E-02    0.6221093747E-01    0.5605728266E+00
    0.4900000000E+03    0.1809032981E+00    0.1262364348E+00    0.2197999606E-02    0.6358617869E-01    0.5633738517E+00
    0.1000000000E+03    0.6981730698E-01    0.1192902132E+00    0.1980375881E-02    0.2452535662E-01    0.4083925538E+00
    0.3000000000E+03    0.1386625760E+00    0.1343458087E+00    0.2295169449E-02    0.4872698536E-01    0.5264260397E+00
    0.5000000000E+03    0.1828203293E+00    0.1257123948E+00    0.2190740507E-02    0.6426072839E-01    0.5647106123E+00
    0.7000000000E+03    0.2168907081E+00    0.1150349227E+00    0.2034356336E-02    0.7625196643E-01    0.5850480570E+00
    0.9000000000E+03    0.2448730732E+00    0.1049955820E+00    0.1877663226E-02    0.8610471250E-01    0.5980635981E+00
    0.1100000000E+04    0.2685288373E+00    0.9604357290E-01    0.1732280920E-02    0.9443731220E-01    0.6072717305E+00
    0.1300000000E+04    0.2888537309E+00    0.8817427568E-01    0.1600649905E-02    0.1015993223E+00    0.6142103051E+00
    0.1500000000E+04    0.3065017124E+00    0.8127786420E-01    0.1482531301E-02    0.1078203363E+00    0.6196708833E+00
    0.1700000000E+04    0.3219437746E+00    0.7522788813E-01    0.1376851260E-02    0.1132657332E+00    0.6241071444E+00
    0.1900000000E+04    0.3355390292E+00    0.6990609323E-01    0.1282321657E-02    0.1180616287E+00    0.6277998963E+00
    0.2100000000E+04    0.3475712320E+00    0.6520871770E-01    0.1197668163E-02    0.1223076924E+00    0.6309333070E+00
    0.2300000000E+04    0.3582698106E+00    0.6104693165E-01    0.1121714143E-02    0.1260845265E+00    0.6336337526E+00
    0.2500000000E+04    0.3678231548E+00    0.5734544737E-01    0.1053406743E-02    0.1294583283E+00    0.6359911639E+00
    0.2700000000E+04    0.3763876617E+00    0.5404068251E-01    0.9918187542E-03    0.1324840636E+00    0.6380714773E+00
    0.2900000000E+04    0.3840942442E+00    0.5107896126E-01    0.9361404443E-03    0.1352077501E+00    0.6399242605E+00
    0.3100000000E+04    0.3910532070E+00    0.4841491176E-01    0.8856677098E-03    0.1376681682E+00    0.6415875758E+00
    0.3300000000E+04    0.3973580071E+00    0.4601009497E-01    0.8397894519E-03    0.1398981807E+00    0.6430911895E+00
    0.3500000000E+04    0.4030882129E+00    0.4383185388E-01    0.7979754937E-03    0.1419257713E+00    0.6444587520E+00
    0.3700000000E+04    0.4083118680E+00    0.4185235707E-01    0.7597655902E-03    0.1437748744E+00    0.6457093189E+00
    0.3900000000E+04    0.4130873988E+00    0.4004780738E-01    0.7247597043E-03    0.1454660449E+00    0.6468584337E+00
    0.4100000000E+04    0.4174651677E+00    0.3839778805E-01    0.6926095420E-03    0.1470170034E+00    0.6479189153E+00
    0.4300000000E+04    0.4214887456E+00    0.3688472272E-01    0.6630112555E-03    0.1484430832E+00    0.6489014404E+00
    0.4500000000E+04    0.4251959604E+00    0.3549342867E-01    0.6356991903E-03    0.1497575984E+00    0.6498149809E+00
    0.4700000000E+04    0.4286197654E+00    0.3421074670E-01    0.6104405446E-03    0.1509721495E+00    0.6506671372E+00
    0.4900000000E+04    0.4317889608E+00    0.3302523363E-01    0.5870308171E-03    0.1520968761E+00    0.6514643954E+00
    0.1000000000E+04    0.2571686269E+00    0.1003795813E+00    0.1803305229E-02    0.9043535008E-01    0.6030221688E+00
    0.3000000000E+04    0.3876609802E+00    0.4971227796E-01    0.9102936075E-03    0.1364686884E+00    0.6407775763E+00
    0.5000000000E+04    0.4332860948E+00    0.3246574478E-01    0.5759621626E-03    0.1526283774E+00    0.6518442101E+00
    0.7000000000E+04    0.4545848820E+00    0.2452638294E-01    0.4177631738E-03    0.1602062161E+00    0.6575739169E+00
    0.9000000000E+04    0.4664361175E+00    0.2008483126E-01    0.3289677542E-03    0.1644437298E+00    0.6612000084E+00
    0.1100000000E+05    0.4738313705E+00    0.1726608184E-01    0.2730624855E-03    0.1671020611E+00    0.6637513437E+00
    0.1300000000E+05    0.4788264779E+00    0.1531666073E-01    0.2349204972E-03    0.1689076811E+00    0.6656687932E+00
    0.1500000000E+05    0.4824000238E+00    0.1388314187E-01    0.2073263563E-03    0.1702069449E+00    0.6671762622E+00
    0.1700000000E+05    0.4850699033E+00    0.1277992490E-01    0.1864578608E-03    0.1711834567E+00    0.6684008958E+00
    0.1900000000E+05    0.4871331611E+00    0.1190084240E-01    0.1701210937E-03    0.1719427050E+00    0.6694208634E+00
    0.2100000000E+05    0.4887712367E+00    0.1118097429E-01    0.1569746955E-03    0.1725492373E+00    0.6702871753E+00
    0.2300000000E+05    0.4901006934E+00    0.1057844671E-01    0.1461557878E-03    0.1730445962E+00    0.6710347019E+00
    0.2500000000E+05    0.4911995750E+00    0.1006504806E-01    0.1370856250E-03    0.1734566477E+00    0.6716881852E+00
    0.2700000000E+05    0.4921219660E+00    0.9621071333E-02    0.1293622605E-03    0.1738047394E+00    0.6722657255E+00
    0.2900000000E+05    0.4929064534E+00    0.9232324462E-02    0.1226981723E-03    0.1741027016E+00    0.6727809069E+00
    0.3100000000E+05    0.4935812622E+00    0.8888318063E-02    0.1168824171E-03    0.1743606706E+00    0.6732441476E+00
    0.3300000000E+05    0.4941674878E+00    0.8581123920E-02    0.1117568054E-03    0.1745862370E+00    0.6736635876E+00
    0.3500000000E+05    0.4946811966E+00    0.8304631854E-02    0.1072004138E-03    0.1747851938E+00    0.6740456908E+00
    0.3700000000E+05    0.4951348295E+00    0.8054051765E-02    0.1031192330E-03    0.1749620356E+00    0.6743956632E+00
    0.3900000000E+05    0.4955381626E+00    0.7825571401E-02    0.9943907457E-04    0.1751203018E+00    0.6747177506E+00
    0.4100000000E+05    0.4958989799E+00    0.7616115813E-02    0.9610060388E-04    0.1752628162E+00    0.6750154547E+00
    0.4300000000E+05    0.4962235526E+00    0.7423174861E-02    0.9305579302E-04    0.1753918585E+00    0.6752916924E+00
    0.4500000000E+05    0.4965169873E+00    0.7244677276E-02    0.9026534242E-04    0.1755092892E+00    0.6755489156E+00
    0.4700000000E+05    0.4967834826E+00    0.7078897220E-02    0.8769677706E-04    0.1756166410E+00    0.6757892019E+00
    0.4900000000E+05    0.4970265213E+00    0.6924383922E-02    0.8532302001E-04    0.1757151881E+00    0.6760143253E+00
    0.1000000000E+05    0.4705250791E+00    0.1853361100E-01    0.2981218769E-03    0.1659117774E+00    0.6625750634E+00
    0.3000000000E+05    0.4932561109E+00    0.9055274053E-02    0.1196951638E-03    0.1742361614E+00    0.6730184659E+00
    0.5000000000E+05    0.4971401734E+00    0.6850960677E-02    0.8420193717E-04    0.1757615004E+00    0.6761216859E+00
    0.7000000000E+05    0.4986891620E+00    0.5754589559E-02    0.6800199326E-04    0.1764122625E+00    0.6777510698E+00
    0.9000000000E+05    0.4995103492E+00    0.5066869473E-02    0.5836477108E-04    0.1767806250E+00    0.6787932801E+00
    0.1100000000E+06    0.5000143841E+00    0.4583017307E-02    0.5182605473E-04    0.1770216066E+00    0.6795326701E+00
    0.1300000000E+06    0.5003527971E+00    0.4218314508E-02    0.4702727895E-04    0.1771937753E+00    0.6800920547E+00
    0.1500000000E+06    0.5005942179E+00    0.3930454616E-02    0.4331697154E-04    0.1773242800E+00    0.6805342487E+00
    0.1700000000E+06    0.5007741429E+00    0.3695612743E-02    0.4033977200E-04    0.1774274872E+00    0.6808951417E+00
    0.1900000000E+06    0.5009127331E+00    0.3499197393E-02    0.3788358554E-04    0.1775117436E+00    0.6811969178E+00
    0.2100000000E+06    0.5010222676E+00    0.3331699340E-02    0.3581311345E-04    0.1775822474E+00    0.6814541224E+00
    0.2300000000E+06    0.5011106406E+00    0.3186617238E-02    0.3403750697E-04    0.1776424154E+00    0.6816767409E+00
    0.2500000000E+06    0.5011831517E+00    0.3059333372E-02    0.3249322913E-04    0.1776945921E+00    0.6818718849E+00
    0.2700000000E+06    0.5012434871E+00    0.2946464296E-02    0.3113434710E-04    0.1777404439E+00    0.6820447751E+00
    0.2900000000E+06    0.5012942870E+00    0.2845465968E-02    0.2992672905E-04    0.1777811903E+00    0.6821993417E+00
    0.3100000000E+06    0.5013374906E+00    0.2754383234E-02    0.2884441743E-04    0.1778177460E+00    0.6823386076E+00
    0.3300000000E+06    0.5013745528E+00    0.2671685125E-02    0.2786727625E-04    0.1778508121E+00    0.6824649408E+00
    0.3500000000E+06    0.5014065857E+00    0.2596153235E-02    0.2697941553E-04    0.1778809356E+00    0.6825802263E+00
    0.3700000000E+06    0.5014344533E+00    0.2526804058E-02    0.2616810698E-04    0.1779085505E+00    0.6826859856E+00
    0.3900000000E+06    0.5014588363E+00    0.2462833701E-02    0.2542301965E-04    0.1779340057E+00    0.6827834623E+00
    0.4100000000E+06    0.5014802782E+00    0.2403577737E-02    0.2473566975E-04    0.1779575855E+00    0.6828736841E+00
    0.4300000000E+06    0.5014992177E+00    0.2348481513E-02    0.2409901717E-04    0.1779795241E+00    0.6829575086E+00
    0.4500000000E+06    0.5015160128E+00    0.2297077847E-02    0.2350716470E-04    0.1780000164E+00    0.6830356577E+00
    0.4700000000E+06    0.5015309581E+00    0.2248970032E-02    0.2295513029E-04    0.1780192261E+00    0.6831087445E+00
    0.4900000000E+06    0.5015442982E+00    0.2203818707E-02    0.2243867251E-04    0.1780372916E+00    0.6831772930E+00
    0.1000000000E+06    0.4997895929E+00    0.4806216802E-02    0.5481775160E-04    0.1769122675E+00    0.6791911092E+00
    0.3000000000E+06    0.5013167380E+00    0.2798789269E-02    0.2937128348E-04    0.1777999439E+00    0.6822707262E+00
    0.5000000000E+06    0.5015504316E+00    0.2182258790E-02    0.2219262790E-04    0.1780459330E+00    0.6832100088E+00
    0.7000000000E+06    0.5016244842E+00    0.1852769518E-02    0.1847864594E-04    0.1781800324E+00    0.6837085900E+00
    0.9000000000E+06    0.5016514860E+00    0.1639619993E-02    0.1612363675E-04    0.1782703021E+00    0.6840296040E+00
    0.1100000000E+07    0.5016597203E+00    0.1487176481E-02    0.1446349183E-04    0.1783377284E+00    0.6842583863E+00
    0.1300000000E+07    0.5016592269E+00    0.1371133199E-02    0.1321393761E-04    0.1783912955E+00    0.6844320627E+00
    0.1500000000E+07    0.5016543159E+00    0.1278949527E-02    0.1223045461E-04    0.1784356168E+00    0.6845697225E+00
    0.1700000000E+07    0.5016470746E+00    0.1203410129E-02    0.1143084773E-04    0.1784733559E+00    0.6846823175E+00
    0.1900000000E+07    0.5016386000E+00    0.1140029299E-02    0.1076449874E-04    0.1785061822E+00    0.6847766399E+00
    0.2100000000E+07    0.5016295024E+00    0.1085851559E-02    0.1019832336E-04    0.1785352079E+00    0.6848571557E+00
    0.2300000000E+07    0.5016201353E+00    0.1038839514E-02    0.9709672434E-05    0.1785612091E+00    0.6849269378E+00
    0.2500000000E+07    0.5016107084E+00    0.9975367461E-03    0.9282454302E-05    0.1785847485E+00    0.6849881794E+00
    0.2700000000E+07    0.5016013484E+00    0.9608706799E-03    0.8904883059E-05    0.1786062463E+00    0.6850424934E+00
    0.2900000000E+07    0.5015921311E+00    0.9280315153E-03    0.8568104270E-05    0.1786260245E+00    0.6850910960E+00
    0.3100000000E+07    0.5015831017E+00    0.8983948017E-03    0.8265320941E-05    0.1786443349E+00    0.6851349239E+00
    0.3300000000E+07    0.5015742853E+00    0.8714701971E-03    0.7991217964E-05    0.1786613781E+00    0.6851747119E+00
    0.3500000000E+07    0.5015656949E+00    0.8468665491E-03    0.7741571690E-05    0.1786773167E+00    0.6852110454E+00
    0.3700000000E+07    0.5015573352E+00    0.8242674855E-03    0.7512978158E-05    0.1786922838E+00    0.6852443978E+00
    0.3900000000E+07    0.5015492058E+00    0.8034139711E-03    0.7302659634E-05    0.1787063902E+00    0.6852751560E+00
    0.4100000000E+07    0.5015413030E+00    0.7840915940E-03    0.7108324119E-05    0.1787197286E+00    0.6853036403E+00
    0.4300000000E+07    0.5015336210E+00    0.7661211385E-03    0.6928061514E-05    0.1787323778E+00    0.6853301181E+00
    0.4500000000E+07    0.5015261528E+00    0.7493514833E-03    0.6760265669E-05    0.1787444050E+00    0.6853548147E+00
    0.4700000000E+07    0.5015188907E+00    0.7336541774E-03    0.6603575000E-05    0.1787558681E+00    0.6853779215E+00
    0.4900000000E+07    0.5015118266E+00    0.7189192439E-03    0.6456826695E-05    0.1787668173E+00    0.6853996024E+00
    0.1000000000E+07    0.5016571162E+00    0.1557728280E-02    0.1522924305E-04    0.1783061599E+00    0.6841525910E+00
    0.3000000000E+07    0.5015875910E+00    0.9128461700E-03    0.8412824818E-05    0.1786353496E+00    0.6851135569E+00
    0.5000000000E+07    0.5015083663E+00    0.7118825275E-03    0.6386862939E-05    0.1787721131E+00    0.6854099529E+00
    0.7000000000E+07    0.5014476950E+00    0.6042999911E-03    0.5327069748E-05    0.1788592663E+00    0.6855679343E+00
    0.9000000000E+07    0.5013992563E+00    0.5346799659E-03    0.4651940206E-05    0.1789232900E+00    0.6856698914E+00
    0.1100000000E+08    0.5013590684E+00    0.4848874400E-03    0.4174835133E-05    0.1789738962E+00    0.6857426692E+00
    0.1300000000E+08    0.5013247615E+00    0.4469877315E-03    0.3815190431E-05    0.1790157357E+00    0.6857979804E+00
    0.1500000000E+08    0.5012948438E+00    0.4168842742E-03    0.3531847261E-05    0.1790513970E+00    0.6858418596E+00
    0.1700000000E+08    0.5012683226E+00    0.3922193778E-03    0.3301321624E-05    0.1790824693E+00    0.6858777743E+00
    0.1900000000E+08    0.5012445061E+00    0.3715271002E-03    0.3109119039E-05    0.1791099984E+00    0.6859078776E+00
    0.2100000000E+08    0.5012228936E+00    0.3538415462E-03    0.2945750373E-05    0.1791347092E+00    0.6859335867E+00
    0.2300000000E+08    0.5012031113E+00    0.3384968708E-03    0.2804711404E-05    0.1791571248E+00    0.6859558774E+00
    0.2500000000E+08    0.5011848729E+00    0.3250171191E-03    0.2681376584E-05    0.1791776350E+00    0.6859754468E+00
    0.2700000000E+08    0.5011679545E+00    0.3130517947E-03    0.2572355443E-05    0.1791965382E+00    0.6859928077E+00
