  Pressure (Pa) 22mC5-400 (mol/kg) 2mC6-400 (mol/kg) 33mC5-400 (mol/kg) 23mC5-400 (mol/kg) C7-400 (mol/kg)
    0.1000000000E+01    0.1058355696E-02    0.4741586600E-02    0.4504340987E-03    0.9291781295E-04    0.6804466079E-02
    0.3000000000E+01    0.3132984408E-02    0.1376358608E-01    0.1307694912E-02    0.2750609340E-03    0.1977723439E-01
    0.5000000000E+01    0.5153876055E-02    0.2221804411E-01    0.2111293872E-02    0.4524889226E-03    0.3196943982E-01
    0.7000000000E+01    0.7123706266E-02    0.3015573582E-01    0.2866035081E-02    0.6254365223E-03    0.4345337481E-01
    0.9000000000E+01    0.9044969119E-02    0.3762145167E-01    0.3576155718E-02    0.7941225499E-03    0.5429256070E-01
    0.1100000000E+02    0.1091999248E-01    0.4465486675E-01    0.4245408474E-02    0.9587512404E-03    0.6454304417E-01
    0.1300000000E+02    0.1275095178E-01    0.5129126140E-01    0.4877129879E-02    0.1119513458E-02    0.7425446992E-01
    0.1500000000E+02    0.1453988252E-01    0.5756212220E-01    0.5474297264E-02    0.1276587786E-02    0.8347097352E-01
    0.1700000000E+02    0.1628869141E-01    0.6349564594E-01    0.6039576535E-02    0.1430141516E-02    0.9223192861E-01
    0.1900000000E+02    0.1799916661E-01    0.6911716456E-01    0.6575362439E-02    0.1580331534E-02    0.1005725754E+00
    0.2100000000E+02    0.1967298691E-01    0.7444950517E-01    0.7083812677E-02    0.1727305133E-02    0.1085245522E+00
    0.2300000000E+02    0.2131173007E-01    0.7951329657E-01    0.7566876941E-02    0.1871200743E-02    0.1161163465E+00
    0.2500000000E+02    0.2291688046E-01    0.8432723132E-01    0.8026321742E-02    0.2012148598E-02    0.1233736800E+00
    0.2700000000E+02    0.2448983594E-01    0.8890829081E-01    0.8463751722E-02    0.2150271346E-02    0.1303198382E+00
    0.2900000000E+02    0.2603191417E-01    0.9327193933E-01    0.8880628031E-02    0.2285684598E-02    0.1369759542E+00
    0.3100000000E+02    0.2754435840E-01    0.9743229199E-01    0.9278284228E-02    0.2418497436E-02    0.1433612532E+00
    0.3300000000E+02    0.2902834271E-01    0.1014022606E+00    0.9657940092E-02    0.2548812873E-02    0.1494932644E+00
    0.3500000000E+02    0.3048497684E-01    0.1051936808E+00    0.1002071365E-01    0.2676728278E-02    0.1553880057E+00
    0.3700000000E+02    0.3191531061E-01    0.1088174234E+00    0.1036763172E-01    0.2802335765E-02    0.1610601438E+00
    0.3900000000E+02    0.3332033799E-01    0.1122834915E+00    0.1069963911E-01    0.2925722544E-02    0.1665231351E+00
    0.4100000000E+02    0.3470100079E-01    0.1156011068E+00    0.1101760675E-01    0.3046971253E-02    0.1717893489E+00
    0.4300000000E+02    0.3605819216E-01    0.1187787849E+00    0.1132233886E-01    0.3166160258E-02    0.1768701760E+00
    0.4500000000E+02    0.3739275971E-01    0.1218244027E+00    0.1161457930E-01    0.3283363930E-02    0.1817761240E+00
    0.4700000000E+02    0.3870550842E-01    0.1247452575E+00    0.1189501716E-01    0.3398652901E-02    0.1865169027E+00
    0.4900000000E+02    0.3999720336E-01    0.1275481197E+00    0.1216429177E-01    0.3512094301E-02    0.1911014981E+00
    0.1000000000E+02    0.9988121348E-02    0.4118989635E-01    0.3915673011E-02    0.8769318332E-03    0.5948814865E-01
    0.3000000000E+02    0.2679176559E-01    0.9537669403E-01    0.9081779889E-02    0.2352409493E-02    0.1402013228E+00
    0.5000000000E+02    0.4063538445E-01    0.1289072872E+00    0.1229493015E-01    0.3568142236E-02    0.1933378542E+00
    0.7000000000E+02    0.5245292623E-01    0.1512094601E+00    0.1444564121E-01    0.4606076135E-02    0.2315964457E+00
    0.9000000000E+02    0.6280927328E-01    0.1667389645E+00    0.1595462562E-01    0.5515777063E-02    0.2608289136E+00
    0.1100000000E+03    0.7206816856E-01    0.1778856002E+00    0.1704753765E-01    0.6329163091E-02    0.2841257568E+00
    0.1300000000E+03    0.8047563177E-01    0.1860476406E+00    0.1785645613E-01    0.7067822967E-02    0.3032826678E+00
    0.1500000000E+03    0.8820478060E-01    0.1920971528E+00    0.1846380719E-01    0.7746948626E-02    0.3194196076E+00
    0.1700000000E+03    0.9538146964E-01    0.1966053444E+00    0.1892362669E-01    0.8377584758E-02    0.3332743951E+00
    0.1900000000E+03    0.1020997261E+00    0.1999612033E+00    0.1927275175E-01    0.8967983179E-02    0.3453547627E+00
    0.2100000000E+03    0.1084314473E+00    0.2024381555E+00    0.1953710831E-01    0.9524453745E-02    0.3560227577E+00
    0.2300000000E+03    0.1144327170E+00    0.2042335254E+00    0.1973543336E-01    0.1005191859E-01    0.3655442881E+00
    0.2500000000E+03    0.1201480487E+00    0.2054929193E+00    0.1988157540E-01    0.1055428447E-01    0.3741195859E+00
    0.2700000000E+03    0.1256133140E+00    0.2063258459E+00    0.1998596848E-01    0.1103469974E-01    0.3819026796E+00
    0.2900000000E+03    0.1308578116E+00    0.2068160334E+00    0.2005660609E-01    0.1149573591E-01    0.3890142620E+00
    0.3100000000E+03    0.1359057594E+00    0.2070284271E+00    0.2009970198E-01    0.1193951862E-01    0.3955504405E+00
    0.3300000000E+03    0.1407773920E+00    0.2070140449E+00    0.2012014891E-01    0.1236782384E-01    0.4015888378E+00
    0.3500000000E+03    0.1454897792E+00    0.2068134173E+00    0.2012184383E-01    0.1278214985E-01    0.4071929403E+00
    0.3700000000E+03    0.1500574478E+00    0.2064590668E+00    0.2010792235E-01    0.1318377172E-01    0.4124152589E+00
    0.3900000000E+03    0.1544928593E+00    0.2059773254E+00    0.2008093084E-01    0.1357378323E-01    0.4172996655E+00
    0.4100000000E+03    0.1588067812E+00    0.2053896854E+00    0.2004295432E-01    0.1395312951E-01    0.4218831497E+00
    0.4300000000E+03    0.1630085798E+00    0.2047138175E+00    0.1999571297E-01    0.1432263269E-01    0.4261971561E+00
    0.4500000000E+03    0.1671064526E+00    0.2039643460E+00    0.1994063567E-01    0.1468301230E-01    0.4302686174E+00
    0.4700000000E+03    0.1711076150E+00    0.2031534465E+00    0.1987891682E-01    0.1503490169E-01    0.4341207604E+00
    0.4900000000E+03    0.1750184512E+00    0.2022913116E+00    0.1981156046E-01    0.1537886126E-01    0.4377737424E+00
    0.1000000000E+03    0.6755841734E-01    0.1727566418E+00    0.1654331587E-01    0.5932975106E-02    0.2730862607E+00
    0.3000000000E+03    0.1334050069E+00    0.2069534853E+00    0.2008126433E-01    0.1171966570E-01    0.3923490499E+00
    0.5000000000E+03    0.1769417959E+00    0.2018437652E+00    0.1977603866E-01    0.1554802524E-01    0.4395311351E+00
    0.7000000000E+03    0.2117650944E+00    0.1916957117E+00    0.1891878764E-01    0.1861141417E-01    0.4675175050E+00
    0.9000000000E+03    0.2414589301E+00    0.1811096407E+00    0.1797207545E-01    0.2122442434E-01    0.4868793532E+00
    0.1100000000E+04    0.2675334605E+00    0.1710931340E+00    0.1704709594E-01    0.2351960596E-01    0.5014225281E+00
    0.1300000000E+04    0.2907970174E+00    0.1618718725E+00    0.1617521041E-01    0.2556790295E-01    0.5129230056E+00
    0.1500000000E+04    0.3117535178E+00    0.1534559730E+00    0.1536407597E-01    0.2741353911E-01    0.5223445422E+00
    0.1700000000E+04    0.3307521964E+00    0.1457918127E+00    0.1461328736E-01    0.2908716248E-01    0.5302649569E+00
    0.1900000000E+04    0.3480540677E+00    0.1388095663E+00    0.1391957911E-01    0.3061167952E-01    0.5370561926E+00
    0.2100000000E+04    0.3638649925E+00    0.1324392205E+00    0.1327876053E-01    0.3200515762E-01    0.5429707855E+00
    0.2300000000E+04    0.3783536233E+00    0.1266158970E+00    0.1268648530E-01    0.3328240000E-01    0.5481874760E+00
    0.2500000000E+04    0.3916618644E+00    0.1212812952E+00    0.1213856473E-01    0.3445586363E-01    0.5528370619E+00
    0.2700000000E+04    0.4039113646E+00    0.1163836941E+00    0.1163109011E-01    0.3553622880E-01    0.5570179113E+00
    0.2900000000E+04    0.4152077860E+00    0.1118774458E+00    0.1116047143E-01    0.3653277359E-01    0.5608057144E+00
    0.3100000000E+04    0.4256437634E+00    0.1077223236E+00    0.1072343883E-01    0.3745363332E-01    0.5642598515E+00
    0.3300000000E+04    0.4353010580E+00    0.1038828693E+00    0.1031702741E-01    0.3830598944E-01    0.5674276911E+00
    0.3500000000E+04    0.4442521917E+00    0.1003277915E+00    0.9938555297E-02    0.3909621280E-01    0.5703475706E+00
    0.3700000000E+04    0.4525617341E+00    0.9702943268E-01    0.9585599553E-02    0.3982997642E-01    0.5730509154E+00
    0.3900000000E+04    0.4602873442E+00    0.9396330182E-01    0.9255972205E-02    0.4051234688E-01    0.5755637756E+00
    0.4100000000E+04    0.4674806345E+00    0.9110767075E-01    0.8947697431E-02    0.4114786007E-01    0.5779079635E+00
    0.4300000000E+04    0.4741879000E+00    0.8844322443E-01    0.8658990396E-02    0.4174058504E-01    0.5801019072E+00
    0.4500000000E+04    0.4804507404E+00    0.8595275930E-01    0.8388237885E-02    0.4229417865E-01    0.5821613025E+00
    0.4700000000E+04    0.4863065980E+00    0.8362092246E-01    0.8133980745E-02    0.4281193268E-01    0.5840996168E+00
    0.4900000000E+04    0.4917892246E+00    0.8143398623E-01    0.7894898041E-02    0.4329681482E-01    0.5859284826E+00
    0.1000000000E+04    0.2548882109E+00    0.1760078587E+00    0.1750403198E-01    0.2240644275E-01    0.4946152398E+00
    0.3000000000E+04    0.4205279865E+00    0.1097583145E+00    0.1093794909E-01    0.3700219474E-01    0.5625712892E+00
    0.5000000000E+04    0.4944002160E+00    0.8039096168E-01    0.7780668574E-02    0.4352777662E-01    0.5868050839E+00
    0.7000000000E+04    0.5330183860E+00    0.6475039747E-01    0.6055871355E-02    0.4694836235E-01    0.6004699234E+00
    0.9000000000E+04    0.5556520591E+00    0.5520346897E-01    0.4999935721E-02    0.4895912285E-01    0.6095800595E+00
    0.1100000000E+05    0.5701161592E+00    0.4878341943E-01    0.4295308918E-02    0.5024828682E-01    0.6162265188E+00
    0.1300000000E+05    0.5799850219E+00    0.4415390915E-01    0.3793732226E-02    0.5113095035E-01    0.6213591641E+00
    0.1500000000E+05    0.5870665231E+00    0.4063894855E-01    0.3418703179E-02    0.5176664794E-01    0.6254814992E+00
    0.1700000000E+05    0.5923530762E+00    0.3786398138E-01    0.3127384881E-02    0.5224304441E-01    0.6288891294E+00
    0.1900000000E+05    0.5964268448E+00    0.3560591923E-01    0.2894147507E-02    0.5261161962E-01    0.6317687666E+00
    0.2100000000E+05    0.5996483876E+00    0.3372392814E-01    0.2702802838E-02    0.5290429202E-01    0.6342450225E+00
    0.2300000000E+05    0.6022512799E+00    0.3212476962E-01    0.2542657749E-02    0.5314176210E-01    0.6364047259E+00
    0.2500000000E+05    0.6043926449E+00    0.3074423281E-01    0.2406379083E-02    0.5333797098E-01    0.6383105137E+00
    0.2700000000E+05    0.6061816102E+00    0.2953660886E-01    0.2288775702E-02    0.5350261275E-01    0.6400088782E+00
    0.2900000000E+05    0.6076960747E+00    0.2846843187E-01    0.2186071624E-02    0.5364261581E-01    0.6415351633E+00
    0.3100000000E+05    0.6089929803E+00    0.2751460149E-01    0.2095455019E-02    0.5376305098E-01    0.6429167889E+00
    0.3300000000E+05    0.6101148219E+00    0.2665589458E-01    0.2014788765E-02    0.5386770734E-01    0.6441754027E+00
    0.3500000000E+05    0.6110938967E+00    0.2587731827E-01    0.1942419123E-02    0.5395946846E-01    0.6453283576E+00
    0.3700000000E+05    0.6119551518E+00    0.2516699023E-01    0.1877045913E-02    0.5404056462E-01    0.6463897503E+00
    0.3900000000E+05    0.6127181371E+00    0.2451535878E-01    0.1817632380E-02    0.5411274593E-01    0.6473711693E+00
    0.4100000000E+05    0.6133983727E+00    0.2391464822E-01    0.1763341300E-02    0.5417740367E-01    0.6482822415E+00
    0.4300000000E+05    0.6140083244E+00    0.2335845659E-01    0.1713488840E-02    0.5423565686E-01    0.6491310409E+00
    0.4500000000E+05    0.6145581112E+00    0.2284145907E-01    0.1667510680E-02    0.5428841517E-01    0.6499243966E+00
    0.4700000000E+05    0.6150560269E+00    0.2235918581E-01    0.1624936757E-02    0.5433642521E-01    0.6506681301E+00
    0.4900000000E+05    0.6155089297E+00    0.2190785318E-01    0.1585372172E-02    0.5438030525E-01    0.6513672388E+00
    0.1000000000E+05    0.5636229406E+00    0.5170828723E-01    0.4615356065E-02    0.4966901933E-01    0.6131369125E+00
    0.3000000000E+05    0.6083687861E+00    0.2797854008E-01    0.2139399159E-02    0.5370501768E-01    0.6422425902E+00
    0.5000000000E+05    0.6157203257E+00    0.2169276227E-01    0.1566611861E-02    0.5440086122E-01    0.6517014314E+00
    0.7000000000E+05    0.6185757825E+00    0.1843323653E-01    0.1289864330E-02    0.5468484047E-01    0.6568371041E+00
    0.9000000000E+05    0.6200714009E+00    0.1634328547E-01    0.1119854105E-02    0.5484105187E-01    0.6601862846E+00
    0.1100000000E+06    0.6209857125E+00    0.1485240360E-01    0.1002066035E-02    0.5494123572E-01    0.6625936310E+00
    0.1300000000E+06    0.6216001922E+00    0.1371776776E-01    0.9143324970E-03    0.5501177787E-01    0.6644325086E+00
    0.1500000000E+06    0.6220404736E+00    0.1281575492E-01    0.8457442014E-03    0.5506465930E-01    0.6658970315E+00
    0.1700000000E+06    0.6223708473E+00    0.1207575624E-01    0.7902320557E-03    0.5510611701E-01    0.6670994960E+00
    0.1900000000E+06    0.6226275437E+00    0.1145405494E-01    0.7441170014E-03    0.5513972634E-01    0.6681100053E+00
    0.2100000000E+06    0.6228325024E+00    0.1092191306E-01    0.7050222983E-03    0.5516768937E-01    0.6689748992E+00
    0.2300000000E+06    0.6229997699E+00    0.1045954288E-01    0.6713352449E-03    0.5519143990E-01    0.6697262079E+00
    0.2500000000E+06    0.6231387489E+00    0.1005280607E-01    0.6419179514E-03    0.5521195383E-01    0.6703868786E+00
    0.2700000000E+06    0.6232559668E+00    0.9691290832E-02    0.6159415516E-03    0.5522991992E-01    0.6709738423E+00
    0.2900000000E+06    0.6233560939E+00    0.9367134217E-02    0.5927860756E-03    0.5524583912E-01    0.6714999028E+00
    0.3100000000E+06    0.6234425591E+00    0.9074270270E-02    0.5719773131E-03    0.5526008520E-01    0.6719749471E+00
    0.3300000000E+06    0.6235179353E+00    0.8807933075E-02    0.5531455319E-03    0.5527294316E-01    0.6724067485E+00
    0.3500000000E+06    0.6235841905E+00    0.8564318324E-02    0.5359976411E-03    0.5528463447E-01    0.6728015147E+00
    0.3700000000E+06    0.6236428553E+00    0.8340346874E-02    0.5202979120E-03    0.5529533407E-01    0.6731642714E+00
    0.3900000000E+06    0.6236951376E+00    0.8133495785E-02    0.5058543124E-03    0.5530518220E-01    0.6734991373E+00
    0.4100000000E+06    0.6237420032E+00    0.7941675194E-02    0.4925086199E-03    0.5531429271E-01    0.6738095241E+00
    0.4300000000E+06    0.6237842335E+00    0.7763136991E-02    0.4801291380E-03    0.5532275911E-01    0.6740982857E+00
    0.4500000000E+06    0.6238224675E+00    0.7596406013E-02    0.4686052425E-03    0.5533065902E-01    0.6743678301E+00
    0.4700000000E+06    0.6238572323E+00    0.7440227472E-02    0.4578432377E-03    0.5533805743E-01    0.6746202055E+00
    0.4900000000E+06    0.6238889671E+00    0.7293526274E-02    0.4477631678E-03    0.5534500928E-01    0.6748571663E+00
    0.1000000000E+06    0.6205780562E+00    0.1554221307E-01    0.1056207775E-02    0.5489598530E-01    0.6614782908E+00
    0.3000000000E+06    0.6234008568E+00    0.9217114427E-02    0.5821135349E-03    0.5525315175E-01    0.6717432740E+00
    0.5000000000E+06    0.6239038158E+00    0.7223434862E-02    0.4429570059E-03    0.5534833264E-01    0.6749703472E+00
    0.7000000000E+06    0.6241062825E+00    0.6149001714E-02    0.3701062782E-03    0.5539976535E-01    0.6767022329E+00
    0.9000000000E+06    0.6242127734E+00    0.5450736587E-02    0.3236258508E-03    0.5543427534E-01    0.6778243488E+00
    0.1100000000E+07    0.6242770080E+00    0.4949828527E-02    0.2907310674E-03    0.5546001730E-01    0.6786274535E+00
    0.1300000000E+07    0.6243191164E+00    0.4567692758E-02    0.2659034464E-03    0.5548045674E-01    0.6792390104E+00
    0.1500000000E+07    0.6243482935E+00    0.4263619128E-02    0.2463218956E-03    0.5549736547E-01    0.6797249097E+00
    0.1700000000E+07    0.6243693148E+00    0.4014114457E-02    0.2303754670E-03    0.5551176355E-01    0.6801231067E+00
    0.1900000000E+07    0.6243848957E+00    0.3804538998E-02    0.2170690301E-03    0.5552428910E-01    0.6804572164E+00
    0.2100000000E+07    0.6243966887E+00    0.3625228798E-02    0.2057505656E-03    0.5553536660E-01    0.6807428064E+00
    0.2300000000E+07    0.6244057533E+00    0.3469511341E-02    0.1959728078E-03    0.5554529214E-01    0.6809906127E+00
    0.2500000000E+07    0.6244127982E+00    0.3332610422E-02    0.1874174482E-03    0.5555428010E-01    0.6812083121E+00
    0.2700000000E+07    0.6244183138E+00    0.3211004528E-02    0.1798510136E-03    0.5556249058E-01    0.6814015591E+00
    0.2900000000E+07    0.6244226494E+00    0.3102032199E-02    0.1730978826E-03    0.5557004614E-01    0.6815746239E+00
    0.3100000000E+07    0.6244260599E+00    0.3003639292E-02    0.1670230936E-03    0.5557704269E-01    0.6817307993E+00
    0.3300000000E+07    0.6244287349E+00    0.2914211521E-02    0.1615210068E-03    0.5558355660E-01    0.6818726716E+00
    0.3500000000E+07    0.6244308187E+00    0.2832460216E-02    0.1565076029E-03    0.5558964970E-01    0.6820023037E+00
    0.3700000000E+07    0.6244324219E+00    0.2757342394E-02    0.1519151152E-03    0.5559537271E-01    0.6821213644E+00
    0.3900000000E+07    0.6244336312E+00    0.2688003579E-02    0.1476882049E-03    0.5560076773E-01    0.6822312199E+00
    0.4100000000E+07    0.6244345152E+00    0.2623736110E-02    0.1437811805E-03    0.5560587010E-01    0.6823330012E+00
    0.4300000000E+07    0.6244351285E+00    0.2563948186E-02    0.1401559415E-03    0.5561070978E-01    0.6824276538E+00
    0.4500000000E+07    0.6244355154E+00    0.2508140551E-02    0.1367804324E-03    0.5561531235E-01    0.6825159746E+00
    0.4700000000E+07    0.6244357118E+00    0.2455888654E-02    0.1336274654E-03    0.5561969986E-01    0.6825986413E+00
    0.4900000000E+07    0.6244357473E+00    0.2406828860E-02    0.1306738106E-03    0.5562389141E-01    0.6826762340E+00
    0.1000000000E+07    0.6242485275E+00    0.5181807299E-02    0.3059169949E-03    0.5544796773E-01    0.6782557241E+00
    0.3000000000E+07    0.6244244572E+00    0.3051622977E-02    0.1699828809E-03    0.5557360913E-01    0.6816546470E+00
    0.5000000000E+07    0.6244357125E+00    0.2383396314E-02    0.1292653703E-03    0.5562591900E-01    0.6827132865E+00
    0.7000000000E+07    0.6244307251E+00    0.2024830681E-02    0.1079105993E-03    0.5565931196E-01    0.6832795813E+00
    0.9000000000E+07    0.6244225135E+00    0.1792481024E-02    0.9428722769E-04    0.5568387263E-01    0.6836458187E+00
    0.1100000000E+08    0.6244138146E+00    0.1626154479E-02    0.8465063320E-04    0.5570330377E-01    0.6839076161E+00
    0.1300000000E+08    0.6244053788E+00    0.1499471462E-02    0.7738151357E-04    0.5571938022E-01    0.6841067948E+00
    0.1500000000E+08    0.6243974163E+00    0.1398796966E-02    0.7165157181E-04    0.5573309068E-01    0.6842649392E+00
    0.1700000000E+08    0.6243899647E+00    0.1316276878E-02    0.6698777109E-04    0.5574504263E-01    0.6843944680E+00
    0.1900000000E+08    0.6243830032E+00    0.1247024405E-02    0.6309793891E-04    0.5575563607E-01    0.6845031006E+00
    0.2100000000E+08    0.6243764923E+00    0.1187817882E-02    0.5979068576E-04    0.5576514843E-01    0.6845959219E+00
    0.2300000000E+08    0.6243703888E+00    0.1136435397E-02    0.5693476156E-04    0.5577378000E-01    0.6846764365E+00
    0.2500000000E+08    0.6243646519E+00    0.1091288058E-02    0.5443678745E-04    0.5578168009E-01    0.6847471487E+00
    0.2700000000E+08    0.6243592443E+00    0.1051205387E-02    0.5222829325E-04    0.5578896304E-01    0.6848099026E+00
