  Pressure (Pa) 22mC5-400 (mol/kg) 2mC6-400 (mol/kg) 33mC5-400 (mol/kg) 23mC5-400 (mol/kg) C7-400 (mol/kg)
    0.1000000000E+01    0.1588740651E-02    0.3160177889E-02    0.4503168894E-03    0.9298846367E-04    0.8500642436E-02
    0.3000000000E+01    0.4709953512E-02    0.9168254690E-02    0.1306702808E-02    0.2756741459E-03    0.2467929648E-01
    0.5000000000E+01    0.7758896531E-02    0.1479240046E-01    0.2108694080E-02    0.4541326106E-03    0.3985009813E-01
    0.7000000000E+01    0.1073870246E-01    0.2006732598E-01    0.2861214148E-02    0.6285470754E-03    0.5410798121E-01
    0.9000000000E+01    0.1365231961E-01    0.2502358330E-01    0.3568595500E-02    0.7990899713E-03    0.6753621241E-01
    0.1100000000E+02    0.1650252531E-01    0.2968818073E-01    0.4234667178E-02    0.9659237310E-03    0.8020813509E-01
    0.1300000000E+02    0.1929193821E-01    0.3408509082E-01    0.4862827051E-02    0.1129201508E-02    0.9218860912E-01
    0.1500000000E+02    0.2202302959E-01    0.3823567265E-01    0.5456101883E-02    0.1289067837E-02    0.1035352069E+00
    0.1700000000E+02    0.2469813360E-01    0.4215902482E-01    0.6017197527E-02    0.1445659233E-02    0.1142992122E+00
    0.1900000000E+02    0.2731945680E-01    0.4587228217E-01    0.6548541119E-02    0.1599104749E-02    0.1245264593E+00
    0.2100000000E+02    0.2988908674E-01    0.4939086641E-01    0.7052316702E-02    0.1749526480E-02    0.1342580403E+00
    0.2300000000E+02    0.3240900005E-01    0.5272869896E-01    0.7530495480E-02    0.1897040032E-02    0.1435309059E+00
    0.2500000000E+02    0.3488106971E-01    0.5589838241E-01    0.7984861595E-02    0.2041754952E-02    0.1523783762E+00
    0.2700000000E+02    0.3730707182E-01    0.5891135596E-01    0.8417034219E-02    0.2183775119E-02    0.1608305777E+00
    0.2900000000E+02    0.3968869191E-01    0.6177802913E-01    0.8828486540E-02    0.2323199115E-02    0.1689148191E+00
    0.3100000000E+02    0.4202753062E-01    0.6450789721E-01    0.9220562154E-02    0.2460120560E-02    0.1766559146E+00
    0.3300000000E+02    0.4432510908E-01    0.6710964126E-01    0.9594489273E-02    0.2594628422E-02    0.1840764634E+00
    0.3500000000E+02    0.4658287383E-01    0.6959121519E-01    0.9951393078E-02    0.2726807306E-02    0.1911970934E+00
    0.3700000000E+02    0.4880220136E-01    0.7195992168E-01    0.1029230649E-01    0.2856737723E-02    0.1980366722E+00
    0.3900000000E+02    0.5098440241E-01    0.7422247866E-01    0.1061817962E-01    0.2984496336E-02    0.2046124922E+00
    0.4100000000E+02    0.5313072581E-01    0.7638507772E-01    0.1092988803E-01    0.3110156189E-02    0.2109404324E+00
    0.4300000000E+02    0.5524236220E-01    0.7845343555E-01    0.1122824006E-01    0.3233786922E-02    0.2170351011E+00
    0.4500000000E+02    0.5732044740E-01    0.8043283935E-01    0.1151398324E-01    0.3355454969E-02    0.2229099608E+00
    0.4700000000E+02    0.5936606557E-01    0.8232818714E-01    0.1178781002E-01    0.3475223742E-02    0.2285774397E+00
    0.4900000000E+02    0.6138025213E-01    0.8414402340E-01    0.1205036282E-01    0.3593153805E-02    0.2340490291E+00
    0.1000000000E+02    0.1508518164E-01    0.2739077539E-01    0.3906573333E-02    0.8829607116E-03    0.7396247482E-01
    0.3000000000E+02    0.4086336206E-01    0.6315950324E-01    0.9026867121E-02    0.2391966991E-02    0.1728267987E+00
    0.5000000000E+02    0.6237586948E-01    0.8502345613E-01    0.1217759968E-01    0.3651447506E-02    0.2367147220E+00
    0.7000000000E+02    0.8085673261E-01    0.9931967972E-01    0.1425510178E-01    0.4733579801E-02    0.2819519282E+00
    0.9000000000E+02    0.9708948696E-01    0.1090422630E+00    0.1568254030E-01    0.5684194303E-02    0.3159881129E+00
    0.1100000000E+03    0.1115972304E+00    0.1158022803E+00    0.1668760790E-01    0.6533889113E-02    0.3427260474E+00
    0.1300000000E+03    0.1247436433E+00    0.1205464701E+00    0.1740418211E-01    0.7303938068E-02    0.3644174358E+00
    0.1500000000E+03    0.1367901810E+00    0.1238677969E+00    0.1791620213E-01    0.8009635703E-02    0.3824576601E+00
    0.1700000000E+03    0.1479301697E+00    0.1261560488E+00    0.1827892773E-01    0.8662291453E-02    0.3977604898E+00
    0.1900000000E+03    0.1583100282E+00    0.1276773800E+00    0.1853016204E-01    0.9270470907E-02    0.4109511692E+00
    0.2100000000E+03    0.1680429681E+00    0.1286191902E+00    0.1869658184E-01    0.9840797151E-02    0.4224731072E+00
    0.2300000000E+03    0.1772181200E+00    0.1291168110E+00    0.1879750185E-01    0.1037848459E-01    0.4326502479E+00
    0.2500000000E+03    0.1859067810E+00    0.1292700704E+00    0.1884721156E-01    0.1088770436E-01    0.4417252688E+00
    0.2700000000E+03    0.1941667938E+00    0.1291539485E+00    0.1885647907E-01    0.1137184053E-01    0.4498839097E+00
    0.2900000000E+03    0.2020456830E+00    0.1288256424E+00    0.1883354861E-01    0.1183367355E-01    0.4572709923E+00
    0.3100000000E+03    0.2095829427E+00    0.1283293744E+00    0.1878481990E-01    0.1227551406E-01    0.4640012775E+00
    0.3300000000E+03    0.2168117340E+00    0.1276997376E+00    0.1871532132E-01    0.1269930219E-01    0.4701670108E+00
    0.3500000000E+03    0.2237601637E+00    0.1269640724E+00    0.1862904616E-01    0.1310668239E-01    0.4758432827E+00
    0.3700000000E+03    0.2304522605E+00    0.1261441826E+00    0.1852919581E-01    0.1349906049E-01    0.4810919134E+00
    0.3900000000E+03    0.2369087303E+00    0.1252575955E+00    0.1841835850E-01    0.1387764796E-01    0.4859643161E+00
    0.4100000000E+03    0.2431475462E+00    0.1243184991E+00    0.1829864243E-01    0.1424349637E-01    0.4905036422E+00
    0.4300000000E+03    0.2491844160E+00    0.1233384497E+00    0.1817177634E-01    0.1459752473E-01    0.4947464109E+00
    0.4500000000E+03    0.2550331538E+00    0.1223269100E+00    0.1803918624E-01    0.1494054129E-01    0.4987237633E+00
    0.4700000000E+03    0.2607059803E+00    0.1212916649E+00    0.1790205471E-01    0.1527326105E-01    0.5024624387E+00
    0.4900000000E+03    0.2662137657E+00    0.1202391447E+00    0.1776136703E-01    0.1559632002E-01    0.5059855431E+00
    0.1000000000E+03    0.1045333366E+00    0.1127226103E+00    0.1622797694E-01    0.6120156353E-02    0.3301022146E+00
    0.3000000000E+03    0.2058548122E+00    0.1285961476E+00    0.1881206710E-01    0.1205696391E-01    0.4607120130E+00
    0.5000000000E+03    0.2689088456E+00    0.1197081088E+00    0.1768995269E-01    0.1575440677E-01    0.5076726363E+00
    0.7000000000E+03    0.3160501748E+00    0.1090765782E+00    0.1621649283E-01    0.1852037271E-01    0.5338276262E+00
    0.9000000000E+03    0.3535732092E+00    0.9938804569E-01    0.1482163735E-01    0.2072313977E-01    0.5510980602E+00
    0.1100000000E+04    0.3843539788E+00    0.9099030731E-01    0.1358096640E-01    0.2253098965E-01    0.5636034808E+00
    0.1300000000E+04    0.4100652760E+00    0.8379151974E-01    0.1249615096E-01    0.2404181243E-01    0.5732008788E+00
    0.1500000000E+04    0.4318176980E+00    0.7761932527E-01    0.1155116228E-01    0.2532061088E-01    0.5808682447E+00
    0.1700000000E+04    0.4504060714E+00    0.7230525141E-01    0.1072694306E-01    0.2641391573E-01    0.5871766998E+00
    0.1900000000E+04    0.4664251275E+00    0.6770407347E-01    0.1000563181E-01    0.2735655158E-01    0.5924853705E+00
    0.2100000000E+04    0.4803325700E+00    0.6369560636E-01    0.9371664161E-02    0.2817532540E-01    0.5970330192E+00
    0.2300000000E+04    0.4924874678E+00    0.6018179212E-01    0.8811860502E-02    0.2889127192E-01    0.6009854521E+00
    0.2500000000E+04    0.5031755229E+00    0.5708291664E-01    0.8315191509E-02    0.2952113155E-01    0.6044619153E+00
    0.2700000000E+04    0.5126266212E+00    0.5433410142E-01    0.7872465271E-02    0.3007837703E-01    0.6075506739E+00
    0.2900000000E+04    0.5210274802E+00    0.5188235542E-01    0.7476022909E-02    0.3057395341E-01    0.6103186552E+00
    0.3100000000E+04    0.5285310042E+00    0.4968419210E-01    0.7119470844E-02    0.3101682542E-01    0.6128176569E+00
    0.3300000000E+04    0.5352633341E+00    0.4770373514E-01    0.6797455343E-02    0.3141439014E-01    0.6150884800E+00
    0.3500000000E+04    0.5413292386E+00    0.4591122221E-01    0.6505476607E-02    0.3177279251E-01    0.6171637600E+00
    0.3700000000E+04    0.5468162841E+00    0.4428182457E-01    0.6239737033E-02    0.3209716947E-01    0.6190699551E+00
    0.3900000000E+04    0.5517980909E+00    0.4279471431E-01    0.5997017903E-02    0.3239184066E-01    0.6208287723E+00
    0.4100000000E+04    0.5563368986E+00    0.4143232495E-01    0.5774579307E-02    0.3266045864E-01    0.6224582110E+00
    0.4300000000E+04    0.5604856016E+00    0.4017976281E-01    0.5570078839E-02    0.3290612809E-01    0.6239733393E+00
    0.4500000000E+04    0.5642893760E+00    0.3902433633E-01    0.5381505411E-02    0.3313150116E-01    0.6253868803E+00
    0.4700000000E+04    0.5677869879E+00    0.3795517775E-01    0.5207125222E-02    0.3333885410E-01    0.6267096613E+00
    0.4900000000E+04    0.5710118519E+00    0.3696293747E-01    0.5045437495E-02    0.3353014928E-01    0.6279509619E+00
    0.1000000000E+04    0.3696842059E+00    0.9502979262E-01    0.1418119756E-01    0.2166928038E-01    0.5578007854E+00
    0.3000000000E+04    0.5248829681E+00    0.5075397730E-01    0.7293117209E-02    0.3080148250E-01    0.6115990089E+00
    0.5000000000E+04    0.5725311976E+00    0.3649309304E-01    0.4968938939E-02    0.3362031527E-01    0.6285436023E+00
    0.7000000000E+04    0.5939018284E+00    0.2965640986E-01    0.3864729333E-02    0.3489220060E-01    0.6375877785E+00
    0.9000000000E+04    0.6056549985E+00    0.2559527319E-01    0.3223695638E-02    0.3559624638E-01    0.6434166546E+00
    0.1100000000E+05    0.6129773506E+00    0.2286177882E-01    0.2803193994E-02    0.3603787477E-01    0.6475691560E+00
    0.1300000000E+05    0.6179349216E+00    0.2086942986E-01    0.2504247917E-02    0.3633899386E-01    0.6507186183E+00
    0.1500000000E+05    0.6214957086E+00    0.1933622463E-01    0.2279413844E-02    0.3655684067E-01    0.6532122483E+00
    0.1700000000E+05    0.6241682309E+00    0.1810937417E-01    0.2103197089E-02    0.3672154851E-01    0.6552495348E+00
    0.1900000000E+05    0.6262432905E+00    0.1709853433E-01    0.1960685577E-02    0.3685038766E-01    0.6569542838E+00
    0.2100000000E+05    0.6278984218E+00    0.1624661093E-01    0.1842569349E-02    0.3695392555E-01    0.6584079159E+00
    0.2300000000E+05    0.6292477808E+00    0.1551559173E-01    0.1742728068E-02    0.3703897284E-01    0.6596664547E+00
    0.2500000000E+05    0.6303679308E+00    0.1487908702E-01    0.1656966471E-02    0.3711010818E-01    0.6607698744E+00
    0.2700000000E+05    0.6313120463E+00    0.1431813689E-01    0.1582307907E-02    0.3717051906E-01    0.6617475615E+00
    0.2900000000E+05    0.6321181585E+00    0.1381872488E-01    0.1516578366E-02    0.3722249080E-01    0.6626216649E+00
    0.3100000000E+05    0.6328141579E+00    0.1337023609E-01    0.1458150542E-02    0.3726770341E-01    0.6634092359E+00
    0.3300000000E+05    0.6334209454E+00    0.1296446417E-01    0.1405780341E-02    0.3730741901E-01    0.6641236426E+00
    0.3500000000E+05    0.6339544812E+00    0.1259495068E-01    0.1358499033E-02    0.3734260377E-01    0.6647755330E+00
    0.3700000000E+05    0.6344271565E+00    0.1225653319E-01    0.1315540091E-02    0.3737400967E-01    0.6653735070E+00
    0.3900000000E+05    0.6348487336E+00    0.1194502837E-01    0.1276288326E-02    0.3740223064E-01    0.6659245962E+00
    0.4100000000E+05    0.6352270046E+00    0.1165700495E-01    0.1240243745E-02    0.3742774198E-01    0.6664346132E+00
    0.4300000000E+05    0.6355682627E+00    0.1138961794E-01    0.1206995380E-02    0.3745092850E-01    0.6669084103E+00
    0.4500000000E+05    0.6358776445E+00    0.1114048549E-01    0.1176201997E-02    0.3747210512E-01    0.6673500745E+00
    0.4700000000E+05    0.6361593830E+00    0.1090759592E-01    0.1147577655E-02    0.3749153199E-01    0.6677630752E+00
    0.4900000000E+05    0.6364169972E+00    0.1068923672E-01    0.1120880748E-02    0.3750942595E-01    0.6681503798E+00
    0.1000000000E+05    0.6097026428E+00    0.2410979718E-01    0.2993848799E-02    0.3583999147E-01    0.6456493090E+00
    0.3000000000E+05    0.6324784803E+00    0.1358867544E-01    0.1486537004E-02    0.3724585499E-01    0.6630253581E+00
    0.5000000000E+05    0.6365376981E+00    0.1058503884E-01    0.1108189589E-02    0.3751785618E-01    0.6683352086E+00
    0.7000000000E+05    0.6382008170E+00    0.8996841328E-02    0.9185870468E-03    0.3763798791E-01    0.6711501194E+00
    0.9000000000E+05    0.6391014022E+00    0.7971744687E-02    0.8000017587E-03    0.3770777004E-01    0.6729601884E+00
    0.1100000000E+06    0.6396646420E+00    0.7238666097E-02    0.7170061137E-03    0.3775439287E-01    0.6742487718E+00
    0.1300000000E+06    0.6400495308E+00    0.6680293102E-02    0.6547998618E-03    0.3778830428E-01    0.6752260548E+00
    0.1500000000E+06    0.6403288421E+00    0.6236358745E-02    0.6059684679E-03    0.3781441384E-01    0.6760000411E+00
    0.1700000000E+06    0.6405405530E+00    0.5872258493E-02    0.5663354447E-03    0.3783534997E-01    0.6766326534E+00
    0.1900000000E+06    0.6407064044E+00    0.5566498337E-02    0.5333460161E-03    0.3785265543E-01    0.6771622712E+00
    0.2100000000E+06    0.6408397332E+00    0.5304920680E-02    0.5053384947E-03    0.3786729991E-01    0.6776141139E+00
    0.2300000000E+06    0.6409491717E+00    0.5077765216E-02    0.4811794476E-03    0.3787992620E-01    0.6780055259E+00
    0.2500000000E+06    0.6410405517E+00    0.4878053073E-02    0.4600658478E-03    0.3789097880E-01    0.6783488791E+00
    0.2700000000E+06    0.6411179544E+00    0.4700642748E-02    0.4414108218E-03    0.3790077593E-01    0.6786532676E+00
    0.2900000000E+06    0.6411843205E+00    0.4541650675E-02    0.4247742300E-03    0.3790955210E-01    0.6789255457E+00
    0.3100000000E+06    0.6412418220E+00    0.4398080747E-02    0.4098186740E-03    0.3791748434E-01    0.6791709903E+00
    0.3300000000E+06    0.6412920979E+00    0.4267579157E-02    0.3962806130E-03    0.3792470914E-01    0.6793937391E+00
    0.3500000000E+06    0.6413364080E+00    0.4148267310E-02    0.3839508174E-03    0.3793133366E-01    0.6795970884E+00
    0.3700000000E+06    0.6413757363E+00    0.4038625013E-02    0.3726607914E-03    0.3793744332E-01    0.6797837009E+00
    0.3900000000E+06    0.6414108625E+00    0.3937406983E-02    0.3622731238E-03    0.3794310724E-01    0.6799557543E+00
    0.4100000000E+06    0.6414424126E+00    0.3843581973E-02    0.3526744918E-03    0.3794838198E-01    0.6801150491E+00
    0.4300000000E+06    0.6414708943E+00    0.3756287622E-02    0.3437704962E-03    0.3795331438E-01    0.6802630888E+00
    0.4500000000E+06    0.6414967243E+00    0.3674796437E-02    0.3354817882E-03    0.3795794357E-01    0.6804011399E+00
    0.4700000000E+06    0.6415202474E+00    0.3598489790E-02    0.3277411222E-03    0.3796230259E-01    0.6805302781E+00
    0.4900000000E+06    0.6415417514E+00    0.3526837809E-02    0.3204910840E-03    0.3796641953E-01    0.6806514234E+00
    0.1000000000E+06    0.6394121986E+00    0.7577976114E-02    0.7552341050E-03    0.3773312852E-01    0.6736530576E+00
    0.3000000000E+06    0.6412140665E+00    0.4468097853E-02    0.4171042603E-03    0.3791361438E-01    0.6790513409E+00
    0.5000000000E+06    0.6415518235E+00    0.3492612055E-02    0.3170343526E-03    0.3796839488E-01    0.6807092507E+00
    0.7000000000E+06    0.6416898608E+00    0.2968672880E-02    0.2646514862E-03    0.3799956724E-01    0.6815912046E+00
    0.9000000000E+06    0.6417630429E+00    0.2628921901E-02    0.2312536048E-03    0.3802111303E-01    0.6821596985E+00
    0.1100000000E+07    0.6418074131E+00    0.2385584344E-02    0.2076345171E-03    0.3803750166E-01    0.6825651419E+00
    0.1300000000E+07    0.6418366086E+00    0.2200169808E-02    0.1898193326E-03    0.3805069672E-01    0.6828730760E+00
    0.1500000000E+07    0.6418568981E+00    0.2052773136E-02    0.1757764582E-03    0.3806172701E-01    0.6831172370E+00
    0.1700000000E+07    0.6418715525E+00    0.1931923394E-02    0.1643461851E-03    0.3807119621E-01    0.6833169947E+00
    0.1900000000E+07    0.6418824383E+00    0.1830480735E-02    0.1548124096E-03    0.3807948783E-01    0.6834843695E+00
    0.2100000000E+07    0.6418906944E+00    0.1743736624E-02    0.1467061214E-03    0.3808686026E-01    0.6836272681E+00
    0.2300000000E+07    0.6418970530E+00    0.1668442769E-02    0.1397057172E-03    0.3809349565E-01    0.6837511336E+00
    0.2500000000E+07    0.6419020046E+00    0.1602275734E-02    0.1335824040E-03    0.3809952713E-01    0.6838598518E+00
    0.2700000000E+07    0.6419058893E+00    0.1543523555E-02    0.1281684242E-03    0.3810505489E-01    0.6839562811E+00
    0.2900000000E+07    0.6419089497E+00    0.1490893119E-02    0.1233376294E-03    0.3811015619E-01    0.6840425773E+00
    0.3100000000E+07    0.6419113630E+00    0.1443386908E-02    0.1189931065E-03    0.3811489185E-01    0.6841204012E+00
    0.3300000000E+07    0.6419132614E+00    0.1400221371E-02    0.1150590193E-03    0.3811931056E-01    0.6841910557E+00
    0.3500000000E+07    0.6419147453E+00    0.1360771274E-02    0.1114750685E-03    0.3812345194E-01    0.6842555793E+00
    0.3700000000E+07    0.6419158920E+00    0.1324530782E-02    0.1081926311E-03    0.3812734864E-01    0.6843148115E+00
    0.3900000000E+07    0.6419167620E+00    0.1291085633E-02    0.1051720106E-03    0.3813102786E-01    0.6843694388E+00
    0.4100000000E+07    0.6419174032E+00    0.1260092858E-02    0.1023804384E-03    0.3813451253E-01    0.6844200294E+00
    0.4300000000E+07    0.6419178540E+00    0.1231265730E-02    0.9979059517E-04    0.3813782215E-01    0.6844670577E+00
    0.4500000000E+07    0.6419181451E+00    0.1204362424E-02    0.9737950110E-04    0.3814097340E-01    0.6845109237E+00
    0.4700000000E+07    0.6419183020E+00    0.1179177362E-02    0.9512766920E-04    0.3814398073E-01    0.6845519670E+00
    0.4900000000E+07    0.6419183452E+00    0.1155534503E-02    0.9301845249E-04    0.3814685668E-01    0.6845904783E+00
    0.1000000000E+07    0.6417877170E+00    0.2498236993E-02    0.2185362992E-03    0.3802979756E-01    0.6823776252E+00
    0.3000000000E+07    0.6419102281E+00    0.1466552721E-02    0.1211097428E-03    0.3811256644E-01    0.6840824597E+00
    0.5000000000E+07    0.6419183296E+00    0.1144243150E-02    0.9201277139E-04    0.3814824887E-01    0.6846088641E+00
    0.7000000000E+07    0.6419149753E+00    0.9715628833E-03    0.7677207414E-04    0.3817126197E-01    0.6848895082E+00
    0.9000000000E+07    0.6419093121E+00    0.8597674752E-03    0.6705674587E-04    0.3818827516E-01    0.6850706445E+00
    0.1100000000E+08    0.6419032788E+00    0.7797881333E-03    0.6018823051E-04    0.3820177713E-01    0.6851999458E+00
    0.1300000000E+08    0.6418974118E+00    0.7188991226E-03    0.5500922391E-04    0.3821297163E-01    0.6852982164E+00
    0.1500000000E+08    0.6418918648E+00    0.6705278114E-03    0.5092811952E-04    0.3822253324E-01    0.6853761764E+00
    0.1700000000E+08    0.6418866677E+00    0.6308903922E-03    0.4760721816E-04    0.3823087818E-01    0.6854399861E+00
    0.1900000000E+08    0.6418818083E+00    0.5976336860E-03    0.4483802133E-04    0.3823828138E-01    0.6854934706E+00
    0.2100000000E+08    0.6418772603E+00    0.5692069280E-03    0.4248399555E-04    0.3824493401E-01    0.6855391477E+00
    0.2300000000E+08    0.6418729946E+00    0.5445409310E-03    0.4045153572E-04    0.3825097435E-01    0.6855787513E+00
    0.2500000000E+08    0.6418689834E+00    0.5228713296E-03    0.3867406190E-04    0.3825650567E-01    0.6856135199E+00
    0.2700000000E+08    0.6418652009E+00    0.5036351782E-03    0.3710276455E-04    0.3826160716E-01    0.6856443647E+00
