  Pressure (Pa) 22mC5-400 (mol/kg) 2mC6-400 (mol/kg) 33mC5-400 (mol/kg) 23mC5-400 (mol/kg) C7-400 (mol/kg)
    0.1000000000E+01    0.1582409610E-02    0.7114942688E-02    0.6436653403E-04    0.4630905173E-03    0.3410977623E-02
    0.3000000000E+01    0.4655275282E-02    0.2066565588E-01    0.1869585533E-03    0.1362377482E-02    0.9962937245E-02
    0.5000000000E+01    0.7613008659E-02    0.3337662559E-01    0.3019575552E-03    0.2227990920E-02    0.1618004194E-01
    0.7000000000E+01    0.1046380293E-01    0.4531912785E-01    0.4100079124E-03    0.3062326861E-02    0.2208953732E-01
    0.9000000000E+01    0.1321506378E-01    0.5655669965E-01    0.5116840271E-03    0.3867551057E-02    0.2771573728E-01
    0.1100000000E+02    0.1587350287E-01    0.6714615596E-01    0.6074995270E-03    0.4645626304E-02    0.3308041052E-01
    0.1300000000E+02    0.1844521814E-01    0.7713845082E-01    0.6979150518E-03    0.5398335943E-02    0.3820310741E-01
    0.1500000000E+02    0.2093576328E-01    0.8657940976E-01    0.7833448750E-03    0.6127304159E-02    0.4310143741E-01
    0.1700000000E+02    0.2335020785E-01    0.9551035538E-01    0.8641625606E-03    0.6834013559E-02    0.4779130592E-01
    0.1900000000E+02    0.2569318957E-01    0.1039686438E+00    0.9407058133E-03    0.7519820476E-02    0.5228711706E-01
    0.2100000000E+02    0.2796895998E-01    0.1119881265E+00    0.1013280654E-02    0.8185968304E-02    0.5660194809E-01
    0.2300000000E+02    0.3018142433E-01    0.1195995490E+00    0.1082165026E-02    0.8833599175E-02    0.6074769995E-01
    0.2500000000E+02    0.3233417665E-01    0.1268308973E+00    0.1147611923E-02    0.9463764211E-02    0.6473522777E-01
    0.2700000000E+02    0.3443053061E-01    0.1337076980E+00    0.1209852107E-02    0.1007743254E-01    0.6857445422E-01
    0.2900000000E+02    0.3647354671E-01    0.1402532810E+00    0.1269096484E-02    0.1067549925E-01    0.7227446843E-01
    0.3100000000E+02    0.3846605638E-01    0.1464890094E+00    0.1325538175E-02    0.1125879245E-01    0.7584361248E-01
    0.3300000000E+02    0.4041068341E-01    0.1524344805E+00    0.1379354342E-02    0.1182807953E-01    0.7928955736E-01
    0.3500000000E+02    0.4230986287E-01    0.1581077038E+00    0.1430707792E-02    0.1238407267E-01    0.8261936974E-01
    0.3700000000E+02    0.4416585813E-01    0.1635252568E+00    0.1479748388E-02    0.1292743385E-01    0.8583957096E-01
    0.3900000000E+02    0.4598077593E-01    0.1687024238E+00    0.1526614303E-02    0.1345877925E-01    0.8895618911E-01
    0.4100000000E+02    0.4775658000E-01    0.1736533187E+00    0.1571433128E-02    0.1397868320E-01    0.9197480534E-01
    0.4300000000E+02    0.4949510314E-01    0.1783909937E+00    0.1614322858E-02    0.1448768177E-01    0.9490059494E-01
    0.4500000000E+02    0.5119805821E-01    0.1829275368E+00    0.1655392771E-02    0.1498627595E-01    0.9773836397E-01
    0.4700000000E+02    0.5286704794E-01    0.1872741582E+00    0.1694744213E-02    0.1547493449E-01    0.1004925820E+00
    0.4900000000E+02    0.5450357383E-01    0.1914412681E+00    0.1732471295E-02    0.1595409657E-01    0.1031674114E+00
    0.1000000000E+02    0.1455549140E-01    0.6192912940E-01    0.5602944048E-03    0.4259866886E-02    0.3042949432E-01
    0.3000000000E+02    0.3747594623E-01    0.1434086130E+00    0.1297656238E-02    0.1096894322E-01    0.7407490488E-01
    0.5000000000E+02    0.5531010635E-01    0.1934605579E+00    0.1750753290E-02    0.1619024615E-01    0.1044762786E+00
    0.7000000000E+02    0.7003600667E-01    0.2264444391E+00    0.2049398431E-02    0.2050230411E-01    0.1273018656E+00
    0.9000000000E+02    0.8268787113E-01    0.2492171637E+00    0.2255584353E-02    0.2420762122E-01    0.1453384639E+00
    0.1100000000E+03    0.9386470414E-01    0.2654473472E+00    0.2402483602E-02    0.2748141134E-01    0.1601263582E+00
    0.1300000000E+03    0.1039404863E+00    0.2772657499E+00    0.2509367298E-02    0.3043307161E-01    0.1725915586E+00
    0.1500000000E+03    0.1131625350E+00    0.2859894041E+00    0.2588150530E-02    0.3313495010E-01    0.1833272781E+00
    0.1700000000E+03    0.1217020243E+00    0.2924731372E+00    0.2646569759E-02    0.3563712217E-01    0.1927329115E+00
    0.1900000000E+03    0.1296818900E+00    0.2972940748E+00    0.2689850556E-02    0.3797555235E-01    0.2010883408E+00
    0.2100000000E+03    0.1371931693E+00    0.3008547012E+00    0.2721639214E-02    0.4017687392E-01    0.2085962609E+00
    0.2300000000E+03    0.1443050401E+00    0.3034434354E+00    0.2744550335E-02    0.4226132549E-01    0.2154075664E+00
    0.2500000000E+03    0.1510712421E+00    0.3052717795E+00    0.2760502677E-02    0.4424462925E-01    0.2216372487E+00
    0.2700000000E+03    0.1575343263E+00    0.3064979335E+00    0.2770932662E-02    0.4613923417E-01    0.2273747181E+00
    0.2900000000E+03    0.1637285519E+00    0.3072422792E+00    0.2776934379E-02    0.4795516334E-01    0.2326907199E+00
    0.3100000000E+03    0.1696819116E+00    0.3075978067E+00    0.2779353881E-02    0.4970060653E-01    0.2376420939E+00
    0.3300000000E+03    0.1754175799E+00    0.3076373037E+00    0.2778854208E-02    0.5138234391E-01    0.2422751293E+00
    0.3500000000E+03    0.1809549702E+00    0.3074184156E+00    0.2775961163E-02    0.5300605517E-01    0.2466279796E+00
    0.3700000000E+03    0.1863105189E+00    0.3069872743E+00    0.2771096146E-02    0.5457654906E-01    0.2507324328E+00
    0.3900000000E+03    0.1914982773E+00    0.3063811434E+00    0.2764600089E-02    0.5609793651E-01    0.2546152308E+00
    0.4100000000E+03    0.1965303642E+00    0.3056303752E+00    0.2756751179E-02    0.5757376308E-01    0.2582990692E+00
    0.4300000000E+03    0.2014173174E+00    0.3047598794E+00    0.2747778150E-02    0.5900711164E-01    0.2618033628E+00
    0.4500000000E+03    0.2061683681E+00    0.3037902372E+00    0.2737870379E-02    0.6040068292E-01    0.2651448417E+00
    0.4700000000E+03    0.2107916597E+00    0.3027385578E+00    0.2727185642E-02    0.6175685932E-01    0.2683380178E+00
    0.4900000000E+03    0.2152944224E+00    0.3016191426E+00    0.2715856138E-02    0.6307775601E-01    0.2713955571E+00
    0.1000000000E+03    0.8843349839E-01    0.2579919392E+00    0.2335014724E-02    0.2589050999E-01    0.1530705139E+00
    0.3000000000E+03    0.1667337926E+00    0.3074636902E+00    0.2778546790E-02    0.4883624297E-01    0.2352088771E+00
    0.5000000000E+03    0.2175026502E+00    0.3010378656E+00    0.2709985096E-02    0.6372557269E-01    0.2728769905E+00
    0.7000000000E+03    0.2566065048E+00    0.2879413731E+00    0.2578143276E-02    0.7520039626E-01    0.2974871647E+00
    0.9000000000E+03    0.2882668082E+00    0.2745845287E+00    0.2442947385E-02    0.8449566992E-01    0.3158208160E+00
    0.1100000000E+04    0.3144827700E+00    0.2623035461E+00    0.2317544840E-02    0.9219624453E-01    0.3304452300E+00
    0.1300000000E+04    0.3364819557E+00    0.2513321839E+00    0.2204616019E-02    0.9866128089E-01    0.3426104236E+00
    0.1500000000E+04    0.3551217327E+00    0.2416076759E+00    0.2103872275E-02    0.1041416836E+00    0.3530210914E+00
    0.1700000000E+04    0.3710411983E+00    0.2329896359E+00    0.2014155837E-02    0.1088245305E+00    0.3621147313E+00
    0.1900000000E+04    0.3847334241E+00    0.2253284004E+00    0.1934129312E-02    0.1128541933E+00    0.3701821841E+00
    0.2100000000E+04    0.3965864092E+00    0.2184867673E+00    0.1862515218E-02    0.1163443077E+00    0.3774269215E+00
    0.2300000000E+04    0.4069093757E+00    0.2123457025E+00    0.1798173339E-02    0.1193854607E+00    0.3839970359E+00
    0.2500000000E+04    0.4159510619E+00    0.2068043306E+00    0.1740115922E-02    0.1220505375E+00    0.3900037688E+00
    0.2700000000E+04    0.4239130738E+00    0.2017780134E+00    0.1687499162E-02    0.1243986263E+00    0.3955328613E+00
    0.2900000000E+04    0.4309599108E+00    0.1971959710E+00    0.1639606655E-02    0.1264779505E+00    0.4006518318E+00
    0.3100000000E+04    0.4372266287E+00    0.1929989967E+00    0.1595831333E-02    0.1283281105E+00    0.4054148203E+00
    0.3300000000E+04    0.4428247617E+00    0.1891374520E+00    0.1555658512E-02    0.1299818164E+00    0.4098659182E+00
    0.3500000000E+04    0.4478469397E+00    0.1855695761E+00    0.1518650971E-02    0.1314662400E+00    0.4140415186E+00
    0.3700000000E+04    0.4523705117E+00    0.1822600912E+00    0.1484436229E-02    0.1328040749E+00    0.4179720157E+00
    0.3900000000E+04    0.4564604067E+00    0.1791790621E+00    0.1452695883E-02    0.1340143748E+00    0.4216830578E+00
    0.4100000000E+04    0.4601714050E+00    0.1763009689E+00    0.1423156740E-02    0.1351132182E+00    0.4251964887E+00
    0.4300000000E+04    0.4635499506E+00    0.1736039527E+00    0.1395583497E-02    0.1361142395E+00    0.4285310661E+00
    0.4500000000E+04    0.4666356060E+00    0.1710692034E+00    0.1369772683E-02    0.1370290552E+00    0.4317030174E+00
    0.4700000000E+04    0.4694622240E+00    0.1686804594E+00    0.1345547664E-02    0.1378676072E+00    0.4347264754E+00
    0.4900000000E+04    0.4720588984E+00    0.1664235994E+00    0.1322754505E-02    0.1386384414E+00    0.4376138244E+00
    0.1000000000E+04    0.3019671889E+00    0.2682834330E+00    0.2378741702E-02    0.8851950737E-01    0.3235006082E+00
    0.3000000000E+04    0.4341833221E+00    0.1950526557E+00    0.1617238493E-02    0.1274294876E+00    0.4030748639E+00
    0.5000000000E+04    0.4732789905E+00    0.1653407146E+00    0.1311852119E-02    0.1390008099E+00    0.4390099192E+00
    0.7000000000E+04    0.4901851715E+00    0.1483145662E+00    0.1143817639E-02    0.1440379944E+00    0.4618647269E+00
    0.9000000000E+04    0.4992367754E+00    0.1366985986E+00    0.1033430060E-02    0.1467548427E+00    0.4783660620E+00
    0.1100000000E+05    0.5047623600E+00    0.1279939258E+00    0.9532251846E-03    0.1484264763E+00    0.4911318199E+00
    0.1300000000E+05    0.5084436228E+00    0.1210890880E+00    0.8911663740E-03    0.1495493976E+00    0.5014518834E+00
    0.1500000000E+05    0.5110529722E+00    0.1154010041E+00    0.8410672632E-03    0.1503521832E+00    0.5100547197E+00
    0.1700000000E+05    0.5129896696E+00    0.1105877106E+00    0.7993768672E-03    0.1509532725E+00    0.5173906720E+00
    0.1900000000E+05    0.5144789834E+00    0.1064320934E+00    0.7638866566E-03    0.1514196592E+00    0.5237567878E+00
    0.2100000000E+05    0.5156568756E+00    0.1027879369E+00    0.7331373588E-03    0.1517918830E+00    0.5293588249E+00
    0.2300000000E+05    0.5166099110E+00    0.9955220342E-01    0.7061182917E-03    0.1520958241E+00    0.5343448769E+00
    0.2500000000E+05    0.5173956472E+00    0.9664962876E-01    0.6821026638E-03    0.1523487375E+00    0.5388248792E+00
    0.2700000000E+05    0.5180537529E+00    0.9402361232E-01    0.6605515777E-03    0.1525625487E+00    0.5428825450E+00
    0.2900000000E+05    0.5186124053E+00    0.9163055273E-01    0.6410551679E-03    0.1527457526E+00    0.5465829972E+00
    0.3100000000E+05    0.5190921406E+00    0.8943617637E-01    0.6232949575E-03    0.1529045584E+00    0.5499778264E+00
    0.3300000000E+05    0.5195082613E+00    0.8741307360E-01    0.6070189149E-03    0.1530436064E+00    0.5531085490E+00
    0.3500000000E+05    0.5198723922E+00    0.8553899575E-01    0.5920244176E-03    0.1531664321E+00    0.5560090343E+00
    0.3700000000E+05    0.5201935157E+00    0.8379564782E-01    0.5781463074E-03    0.1532757756E+00    0.5587072471E+00
    0.3900000000E+05    0.5204786771E+00    0.8216781341E-01    0.5652483240E-03    0.1533737926E+00    0.5612265244E+00
    0.4100000000E+05    0.5207334767E+00    0.8064270805E-01    0.5532168348E-03    0.1534622018E+00    0.5635865275E+00
    0.4300000000E+05    0.5209624203E+00    0.7920949311E-01    0.5419561654E-03    0.1535423901E+00    0.5658039631E+00
    0.4500000000E+05    0.5211691720E+00    0.7785890476E-01    0.5313850652E-03    0.1536154892E+00    0.5678931374E+00
    0.4700000000E+05    0.5213567411E+00    0.7658296690E-01    0.5214339949E-03    0.1536824312E+00    0.5698663869E+00
    0.4900000000E+05    0.5215276215E+00    0.7537476621E-01    0.5120430170E-03    0.1537439909E+00    0.5717344186E+00
    0.1000000000E+05    0.5023033039E+00    0.1320696940E+00    0.9905057402E-03    0.1476808828E+00    0.4851168987E+00
    0.3000000000E+05    0.5188610800E+00    0.9051038024E-01    0.6319751172E-03    0.1528278849E+00    0.5483158163E+00
    0.5000000000E+05    0.5216074680E+00    0.7479415290E-01    0.5075410421E-03    0.1537729595E+00    0.5726319454E+00
    0.7000000000E+05    0.5226907239E+00    0.6561059924E-01    0.4372670949E-03    0.1541833882E+00    0.5868089278E+00
    0.9000000000E+05    0.5232594196E+00    0.5933950096E-01    0.3902780241E-03    0.1544197255E+00    0.5964639597E+00
    0.1100000000E+06    0.5236050892E+00    0.5468290712E-01    0.3559106379E-03    0.1545767799E+00    0.6036171770E+00
    0.1300000000E+06    0.5238348667E+00    0.5103718400E-01    0.3293197795E-03    0.1546905993E+00    0.6092072389E+00
    0.1500000000E+06    0.5239971047E+00    0.4807633723E-01    0.3079321440E-03    0.1547780041E+00    0.6137402485E+00
    0.1700000000E+06    0.5241167288E+00    0.4560603516E-01    0.2902334985E-03    0.1548479536E+00    0.6175173952E+00
    0.1900000000E+06    0.5242078506E+00    0.4350195181E-01    0.2752652800E-03    0.1549056857E+00    0.6207310638E+00
    0.2100000000E+06    0.5242790366E+00    0.4168019755E-01    0.2623864270E-03    0.1549544827E+00    0.6235108802E+00
    0.2300000000E+06    0.5243357766E+00    0.4008175879E-01    0.2511494261E-03    0.1549965148E+00    0.6259479137E+00
    0.2500000000E+06    0.5243817439E+00    0.3866370524E-01    0.2412309182E-03    0.1550332798E+00    0.6281083364E+00
    0.2700000000E+06    0.5244194852E+00    0.3739393237E-01    0.2323905372E-03    0.1550658478E+00    0.6300415813E+00
    0.2900000000E+06    0.5244508184E+00    0.3624786944E-01    0.2244453184E-03    0.1550950063E+00    0.6317854451E+00
    0.3100000000E+06    0.5244770742E+00    0.3520633787E-01    0.2172531536E-03    0.1551213492E+00    0.6333694038E+00
    0.3300000000E+06    0.5244992477E+00    0.3425411196E-01    0.2107017345E-03    0.1551453337E+00    0.6348168396E+00
    0.3500000000E+06    0.5245180969E+00    0.3337892449E-01    0.2047009536E-03    0.1551673183E+00    0.6361465773E+00
    0.3700000000E+06    0.5245342085E+00    0.3257076291E-01    0.1991775499E-03    0.1551875888E+00    0.6373739715E+00
    0.3900000000E+06    0.5245480433E+00    0.3182136052E-01    0.1940712562E-03    0.1552063760E+00    0.6385116914E+00
    0.4100000000E+06    0.5245599680E+00    0.3112382182E-01    0.1893319725E-03    0.1552238687E+00    0.6395702986E+00
    0.4300000000E+06    0.5245702773E+00    0.3047234192E-01    0.1849176578E-03    0.1552402233E+00    0.6405586794E+00
    0.4500000000E+06    0.5245792108E+00    0.2986199333E-01    0.1807927330E-03    0.1552555703E+00    0.6414843732E+00
    0.4700000000E+06    0.5245869652E+00    0.2928856171E-01    0.1769268557E-03    0.1552700197E+00    0.6423538251E+00
    0.4900000000E+06    0.5245937031E+00    0.2874841786E-01    0.1732939672E-03    0.1552836651E+00    0.6431725827E+00
    0.1000000000E+06    0.5234513449E+00    0.5685636415E-01    0.3718956295E-03    0.1545052316E+00    0.6002802199E+00
    0.3000000000E+06    0.5244645123E+00    0.3571506812E-01    0.2207627196E-03    0.1551084985E+00    0.6325958290E+00
    0.5000000000E+06    0.5245967341E+00    0.2848982942E-01    0.1715577342E-03    0.1552902118E+00    0.6435644783E+00
    0.7000000000E+06    0.5246274316E+00    0.2448399873E-01    0.1449177551E-03    0.1553934931E+00    0.6496290986E+00
    0.9000000000E+06    0.5246304983E+00    0.2183824697E-01    0.1276041883E-03    0.1554648639E+00    0.6536281831E+00
    0.1100000000E+07    0.5246236492E+00    0.1991956951E-01    0.1152016257E-03    0.1555191545E+00    0.6565251007E+00
    0.1300000000E+07    0.5246128464E+00    0.1844412884E-01    0.1057583008E-03    0.1555628721E+00    0.6587509840E+00
    0.1500000000E+07    0.5246004915E+00    0.1726281270E-01    0.9826016078E-04    0.1555994238E+00    0.6605320123E+00
    0.1700000000E+07    0.5245876589E+00    0.1628865784E-01    0.9212115127E-04    0.1556308081E+00    0.6619999552E+00
    0.1900000000E+07    0.5245748578E+00    0.1546701855E-01    0.8697583889E-04    0.1556582943E+00    0.6632375439E+00
    0.2100000000E+07    0.5245623347E+00    0.1476157458E-01    0.8258296274E-04    0.1556827375E+00    0.6642997275E+00
    0.2300000000E+07    0.5245502052E+00    0.1414710397E-01    0.7877597592E-04    0.1557047406E+00    0.6652246420E+00
    0.2500000000E+07    0.5245385180E+00    0.1360546378E-01    0.7543571312E-04    0.1557247440E+00    0.6660397059E+00
    0.2700000000E+07    0.5245272857E+00    0.1312321983E-01    0.7247436284E-04    0.1557430794E+00    0.6667652128E+00
    0.2900000000E+07    0.5245165022E+00    0.1269018071E-01    0.6982560375E-04    0.1557600024E+00    0.6674165518E+00
    0.3100000000E+07    0.5245061516E+00    0.1229845419E-01    0.6743828609E-04    0.1557757143E+00    0.6680056360E+00
    0.3300000000E+07    0.5244962132E+00    0.1194181940E-01    0.6527224445E-04    0.1557903764E+00    0.6685418529E+00
    0.3500000000E+07    0.5244866645E+00    0.1161529676E-01    0.6329544138E-04    0.1558041196E+00    0.6690327145E+00
    0.3700000000E+07    0.5244774825E+00    0.1131484610E-01    0.6148196913E-04    0.1558170522E+00    0.6694843143E+00
    0.3900000000E+07    0.5244686448E+00    0.1103714997E-01    0.5981062064E-04    0.1558292642E+00    0.6699016546E+00
    0.4100000000E+07    0.5244601301E+00    0.1077945519E-01    0.5826384766E-04    0.1558408314E+00    0.6702888856E+00
    0.4300000000E+07    0.5244519184E+00    0.1053945495E-01    0.5682698768E-04    0.1558518185E+00    0.6706494845E+00
    0.4500000000E+07    0.5244439910E+00    0.1031519965E-01    0.5548768164E-04    0.1558622807E+00    0.6709863890E+00
    0.4700000000E+07    0.5244363305E+00    0.1010502871E-01    0.5423542890E-04    0.1558722659E+00    0.6713021012E+00
    0.4900000000E+07    0.5244289207E+00    0.9907517578E-02    0.5306124308E-04    0.1558818155E+00    0.6715987670E+00
    0.1000000000E+07    0.5246278113E+00    0.2081029996E-01    0.1209427207E-03    0.1554936324E+00    0.6551805622E+00
    0.3000000000E+07    0.5245112740E+00    0.1248957555E-01    0.6860199396E-04    0.1557679989E+00    0.6677182386E+00
    0.5000000000E+07    0.5244253053E+00    0.9813118405E-02    0.5250096354E-04    0.1558864385E+00    0.6717405466E+00
    0.7000000000E+07    0.5243631195E+00    0.8363648384E-02    0.4397630984E-04    0.1559628801E+00    0.6739167114E+00
    0.9000000000E+07    0.5243146744E+00    0.7419390777E-02    0.3850857223E-04    0.1560194184E+00    0.6753335429E+00
    0.1100000000E+08    0.5242750438E+00    0.6741017206E-02    0.3462690832E-04    0.1560643031E+00    0.6763510117E+00
    0.1300000000E+08    0.5242415267E+00    0.6222966185E-02    0.3169110340E-04    0.1561015265E+00    0.6771277830E+00
    0.1500000000E+08    0.5242124932E+00    0.5810428037E-02    0.2937217845E-04    0.1561333268E+00    0.6777461993E+00
    0.1700000000E+08    0.5241868868E+00    0.5471722473E-02    0.2748160611E-04    0.1561610853E+00    0.6782538371E+00
    0.1900000000E+08    0.5241639844E+00    0.5187084318E-02    0.2590262368E-04    0.1561857147E+00    0.6786803706E+00
    0.2100000000E+08    0.5241432697E+00    0.4943453977E-02    0.2455857382E-04    0.1562078498E+00    0.6790454015E+00
    0.2300000000E+08    0.5241243612E+00    0.4731807523E-02    0.2339678815E-04    0.1562279497E+00    0.6793624717E+00
    0.2500000000E+08    0.5241069690E+00    0.4545681509E-02    0.2237973518E-04    0.1562463576E+00    0.6796412788E+00
    0.2700000000E+08    0.5240908681E+00    0.4380307845E-02    0.2147985650E-04    0.1562633365E+00    0.6798889756E+00
