  Pressure (Pa) 22mC5-400 (mol/kg) 2mC6-400 (mol/kg) 33mC5-400 (mol/kg) 23mC5-400 (mol/kg) C7-400 (mol/kg)
    0.1000000000E+01    0.1590766195E-02    0.7972241483E-03    0.2596395993E-03    0.9310701353E-03    0.3436318681E-02
    0.3000000000E+01    0.4727609516E-02    0.2353498682E-02    0.7664965541E-03    0.2767075211E-02    0.1018132189E-01
    0.5000000000E+01    0.7806413447E-02    0.3860564391E-02    0.1257339186E-02    0.4569137335E-02    0.1676151422E-01
    0.7000000000E+01    0.1082896516E-01    0.5320360214E-02    0.1732797162E-02    0.6338301475E-02    0.2318305427E-01
    0.9000000000E+01    0.1379697763E-01    0.6734729467E-02    0.2193469101E-02    0.8075569233E-02    0.2945179528E-01
    0.1100000000E+02    0.1671209347E-01    0.8105425553E-02    0.2639924424E-02    0.9781901058E-02    0.3557330387E-01
    0.1300000000E+02    0.1957588845E-01    0.9434117284E-02    0.3072705090E-02    0.1145821833E-01    0.4155287741E-01
    0.1500000000E+02    0.2238987487E-01    0.1072239382E-01    0.3492327196E-02    0.1310540532E-01    0.4739556014E-01
    0.1700000000E+02    0.2515550473E-01    0.1197176928E-01    0.3899282477E-02    0.1472431105E-01    0.5310615817E-01
    0.1900000000E+02    0.2787417266E-01    0.1318368702E-01    0.4294039696E-02    0.1631575098E-01    0.5868925336E-01
    0.2100000000E+02    0.3054721876E-01    0.1435952366E-01    0.4677045949E-02    0.1788050870E-01    0.6414921630E-01
    0.2300000000E+02    0.3317593119E-01    0.1550059278E-01    0.5048727874E-02    0.1941933746E-01    0.6949021840E-01
    0.2500000000E+02    0.3576154869E-01    0.1660814847E-01    0.5409492786E-02    0.2093296157E-01    0.7471624309E-01
    0.2700000000E+02    0.3830526292E-01    0.1768338851E-01    0.5759729739E-02    0.2242207784E-01    0.7983109636E-01
    0.2900000000E+02    0.4080822066E-01    0.1872745752E-01    0.6099810515E-02    0.2388735684E-01    0.8483841656E-01
    0.3100000000E+02    0.4327152591E-01    0.1974144972E-01    0.6430090550E-02    0.2532944412E-01    0.8974168351E-01
    0.3300000000E+02    0.4569624186E-01    0.2072641168E-01    0.6750909808E-02    0.2674896137E-01    0.9454422712E-01
    0.3500000000E+02    0.4808339276E-01    0.2168334479E-01    0.7062593591E-02    0.2814650752E-01    0.9924923536E-01
    0.3700000000E+02    0.5043396569E-01    0.2261320764E-01    0.7365453308E-02    0.2952265977E-01    0.1038597618E+00
    0.3900000000E+02    0.5274891222E-01    0.2351691821E-01    0.7659787189E-02    0.3087797454E-01    0.1083787326E+00
    0.4100000000E+02    0.5502915003E-01    0.2439535595E-01    0.7945880961E-02    0.3221298845E-01    0.1128089531E+00
    0.4300000000E+02    0.5727556435E-01    0.2524936373E-01    0.8224008480E-02    0.3352821915E-01    0.1171531141E+00
    0.4500000000E+02    0.5948900943E-01    0.2607974970E-01    0.8494432328E-02    0.3482416615E-01    0.1214137976E+00
    0.4700000000E+02    0.6167030987E-01    0.2688728896E-01    0.8757404374E-02    0.3610131167E-01    0.1255934823E+00
    0.4900000000E+02    0.6382026190E-01    0.2767272527E-01    0.9013166299E-02    0.3736012129E-01    0.1296945486E+00
    0.1000000000E+02    0.1526104762E-01    0.7425430432E-02    0.2418439343E-02    0.8932543659E-02    0.3253061643E-01
    0.3000000000E+02    0.4204476247E-01    0.1923814672E-01    0.6266154024E-02    0.2461126004E-01    0.8730284515E-01
    0.5000000000E+02    0.6488372362E-01    0.2805737902E-01    0.9138416329E-02    0.3798279128E-01    0.1317163180E+00
    0.7000000000E+02    0.8468107411E-01    0.3474924236E-01    0.1131662691E-01    0.4957525325E-01    0.1685355006E+00
    0.9000000000E+02    0.1020758958E+00    0.3988904623E-01    0.1298781087E-01    0.5976236672E-01    0.1996146699E+00
    0.1100000000E+03    0.1175334567E+00    0.4387182642E-01    0.1428048869E-01    0.6881622049E-01    0.2262448944E+00
    0.1300000000E+03    0.1314009080E+00    0.4697642455E-01    0.1528546544E-01    0.7693983587E-01    0.2493533861E+00
    0.1500000000E+03    0.1439428889E+00    0.4940430754E-01    0.1606842242E-01    0.8428798474E-01    0.2696236798E+00
    0.1700000000E+03    0.1553649916E+00    0.5130396954E-01    0.1667783194E-01    0.9098090979E-01    0.2875710628E+00
    0.1900000000E+03    0.1658296435E+00    0.5278676232E-01    0.1715009212E-01    0.9711361125E-01    0.3035915730E+00
    0.2100000000E+03    0.1754671124E+00    0.5393744869E-01    0.1751295072E-01    0.1027622823E+00    0.3179947819E+00
    0.2300000000E+03    0.1843832946E+00    0.5482140733E-01    0.1778784334E-01    0.1079888631E+00    0.3310263026E+00
    0.2500000000E+03    0.1926653302E+00    0.5548965595E-01    0.1799152426E-01    0.1128443246E+00    0.3428835970E+00
    0.2700000000E+03    0.2003857214E+00    0.5598241908E-01    0.1813722532E-01    0.1173710770E+00    0.3537273025E+00
    0.2900000000E+03    0.2076054005E+00    0.5633170483E-01    0.1823549355E-01    0.1216047636E+00    0.3636894952E+00
    0.3100000000E+03    0.2143760462E+00    0.5656319385E-01    0.1829480557E-01    0.1255756158E+00    0.3728798164E+00
    0.3300000000E+03    0.2207418571E+00    0.5669764300E-01    0.1832202458E-01    0.1293094897E+00    0.3813900806E+00
    0.3500000000E+03    0.2267409240E+00    0.5675194122E-01    0.1832274446E-01    0.1328286695E+00    0.3892977889E+00
    0.3700000000E+03    0.2324063052E+00    0.5673991282E-01    0.1830155173E-01    0.1361524955E+00    0.3966688386E+00
    0.3900000000E+03    0.2377668763E+00    0.5667293472E-01    0.1826222722E-01    0.1392978617E+00    0.4035596377E+00
    0.4100000000E+03    0.2428480094E+00    0.5656041537E-01    0.1820790257E-01    0.1422796129E+00    0.4100187706E+00
    0.4300000000E+03    0.2476721195E+00    0.5641016947E-01    0.1814118292E-01    0.1451108640E+00    0.4160883233E+00
    0.4500000000E+03    0.2522591095E+00    0.5622871349E-01    0.1806424383E-01    0.1478032607E+00    0.4218049467E+00
    0.4700000000E+03    0.2566267334E+00    0.5602150053E-01    0.1797890832E-01    0.1503671917E+00    0.4272007161E+00
    0.4900000000E+03    0.2607908969E+00    0.5579310818E-01    0.1788670869E-01    0.1528119642E+00    0.4323038325E+00
    0.1000000000E+03    0.1100228597E+00    0.4200545797E-01    0.1367508042E-01    0.6441693064E-01    0.2134211092E+00
    0.3000000000E+03    0.2110439326E+00    0.5646077503E-01    0.1826955682E-01    0.1236213358E+00    0.3683750292E+00
    0.5000000000E+03    0.2628012083E+00    0.5567219868E-01    0.1783844661E-01    0.1539923154E+00    0.4347535427E+00
    0.7000000000E+03    0.2951472470E+00    0.5280810146E-01    0.1673634108E-01    0.1729947409E+00    0.4731251722E+00
    0.9000000000E+03    0.3173424254E+00    0.4987817873E-01    0.1563652716E-01    0.1860484401E+00    0.4987080118E+00
    0.1100000000E+04    0.3334800657E+00    0.4725278905E-01    0.1466136999E-01    0.1955501137E+00    0.5172539503E+00
    0.1300000000E+04    0.3457050716E+00    0.4496550117E-01    0.1381870865E-01    0.2027561578E+00    0.5314596474E+00
    0.1500000000E+04    0.3552602395E+00    0.4297703023E-01    0.1309181682E-01    0.2083948495E+00    0.5427730955E+00
    0.1700000000E+04    0.3629165995E+00    0.4123830547E-01    0.1246113689E-01    0.2129181923E+00    0.5520483524E+00
    0.1900000000E+04    0.3691774369E+00    0.3970561750E-01    0.1190947986E-01    0.2166213454E+00    0.5598251630E+00
    0.2100000000E+04    0.3743846777E+00    0.3834317138E-01    0.1142283332E-01    0.2197049149E+00    0.5664631832E+00
    0.2300000000E+04    0.3787783403E+00    0.3712237592E-01    0.1099003152E-01    0.2223097727E+00    0.5722123312E+00
    0.2500000000E+04    0.3825315849E+00    0.3602049231E-01    0.1060221177E-01    0.2245375895E+00    0.5772522841E+00
    0.2700000000E+04    0.3857722917E+00    0.3501936266E-01    0.1025231198E-01    0.2264634790E+00    0.5817159133E+00
    0.2900000000E+04    0.3885968304E+00    0.3410437687E-01    0.9934663909E-02    0.2281440681E+00    0.5857038371E+00
    0.3100000000E+04    0.3910791218E+00    0.3326367379E-01    0.9644678816E-02    0.2296228096E+00    0.5892938095E+00
    0.3300000000E+04    0.3932767599E+00    0.3248753410E-01    0.9378608436E-02    0.2309335719E+00    0.5925469760E+00
    0.3500000000E+04    0.3952352468E+00    0.3176792046E-01    0.9133363767E-02    0.2321031232E+00    0.5955121608E+00
    0.3700000000E+04    0.3969909823E+00    0.3109812799E-01    0.8906377310E-02    0.2331528852E+00    0.5982288767E+00
    0.3900000000E+04    0.3985734135E+00    0.3047251703E-01    0.8695497698E-02    0.2341001947E+00    0.6007294842E+00
    0.4100000000E+04    0.4000066061E+00    0.2988630705E-01    0.8498908484E-02    0.2349592259E+00    0.6030407695E+00
    0.4300000000E+04    0.4013104114E+00    0.2933541651E-01    0.8315065046E-02    0.2357416750E+00    0.6051851177E+00
    0.4500000000E+04    0.4025013428E+00    0.2881633721E-01    0.8142645141E-02    0.2364572757E+00    0.6071813979E+00
    0.4700000000E+04    0.4035932443E+00    0.2832603489E-01    0.7980509844E-02    0.2371141915E+00    0.6090456409E+00
    0.4900000000E+04    0.4045978053E+00    0.2786187000E-01    0.7827672437E-02    0.2377193179E+00    0.6107915637E+00
    0.1000000000E+04    0.3260056100E+00    0.4852220618E-01    0.1513181739E-01    0.1911479138E+00    0.5086505962E+00
    0.3000000000E+04    0.3898768317E+00    0.3367539164E-01    0.9786465088E-02    0.2289063618E+00    0.5875444142E+00
    0.5000000000E+04    0.4050704974E+00    0.2763885620E-01    0.7754467463E-02    0.2380043273E+00    0.6116239119E+00
    0.7000000000E+04    0.4117135734E+00    0.2411745348E-01    0.6618414019E-02    0.2420336162E+00    0.6242209323E+00
    0.9000000000E+04    0.4154086025E+00    0.2172205631E-01    0.5867204637E-02    0.2443039040E+00    0.6322224411E+00
    0.1100000000E+05    0.4177515829E+00    0.1994982720E-01    0.5322714853E-02    0.2457622148E+00    0.6378582268E+00
    0.1300000000E+05    0.4193653086E+00    0.1856687509E-01    0.4904488359E-02    0.2467797160E+00    0.6420930121E+00
    0.1500000000E+05    0.4205419498E+00    0.1744704840E-01    0.4570115418E-02    0.2475312914E+00    0.6454196656E+00
    0.1700000000E+05    0.4214364121E+00    0.1651526422E-01    0.4294816077E-02    0.2481100663E+00    0.6481191291E+00
    0.1900000000E+05    0.4221383489E+00    0.1572356551E-01    0.4063001714E-02    0.2485701727E+00    0.6503645535E+00
    0.2100000000E+05    0.4227031909E+00    0.1503964512E-01    0.3864304418E-02    0.2489452249E+00    0.6522691099E+00
    0.2300000000E+05    0.4231670259E+00    0.1444081187E-01    0.3691521741E-02    0.2492572026E+00    0.6539102369E+00
    0.2500000000E+05    0.4235543443E+00    0.1391058401E-01    0.3539471975E-02    0.2495210869E+00    0.6553429110E+00
    0.2700000000E+05    0.4238823429E+00    0.1343665430E-01    0.3404318337E-02    0.2497474434E+00    0.6566073608E+00
    0.2900000000E+05    0.4241634469E+00    0.1300961715E-01    0.3283150587E-02    0.2499439390E+00    0.6577337779E+00
    0.3100000000E+05    0.4244068537E+00    0.1262214122E-01    0.3173715602E-02    0.2501162740E+00    0.6587453139E+00
    0.3300000000E+05    0.4246195155E+00    0.1226841410E-01    0.3074237979E-02    0.2502687757E+00    0.6596600527E+00
    0.3500000000E+05    0.4248067831E+00    0.1194375884E-01    0.2983297134E-02    0.2504047892E+00    0.6604923491E+00
    0.3700000000E+05    0.4249728408E+00    0.1164436286E-01    0.2899740984E-02    0.2505269417E+00    0.6612537597E+00
    0.3900000000E+05    0.4251210071E+00    0.1136708222E-01    0.2822623996E-02    0.2506373261E+00    0.6619537046E+00
    0.4100000000E+05    0.4252539470E+00    0.1110929750E-01    0.2751161872E-02    0.2507376302E+00    0.6625999489E+00
    0.4300000000E+05    0.4253738251E+00    0.1086880611E-01    0.2684697819E-02    0.2508292310E+00    0.6631989572E+00
    0.4500000000E+05    0.4254824170E+00    0.1064374039E-01    0.2622677075E-02    0.2509132628E+00    0.6637561601E+00
    0.4700000000E+05    0.4255811931E+00    0.1043250470E-01    0.2564627386E-02    0.2509906692E+00    0.6642761569E+00
    0.4900000000E+05    0.4256713809E+00    0.1023372635E-01    0.2510143869E-02    0.2510622412E+00    0.6647628718E+00
    0.1000000000E+05    0.4166985946E+00    0.2077625192E-01    0.5575426694E-02    0.2451044917E+00    0.6352597016E+00
    0.3000000000E+05    0.4242893841E+00    0.1281132775E-01    0.3227087001E-02    0.2500328293E+00    0.6582526751E+00
    0.5000000000E+05    0.4257135836E+00    0.1013863099E-01    0.2484128345E-02    0.2510960524E+00    0.6649948210E+00
    0.7000000000E+05    0.4262884474E+00    0.8671332533E-02    0.2086887502E-02    0.2515845068E+00    0.6685009002E+00
    0.9000000000E+05    0.4265888981E+00    0.7708580083E-02    0.1830724200E-02    0.2518741504E+00    0.6707277983E+00
    0.1100000000E+06    0.4267682719E+00    0.7013783503E-02    0.1648236234E-02    0.2520701281E+00    0.6722990783E+00
    0.1300000000E+06    0.4268843461E+00    0.6481516571E-02    0.1509875897E-02    0.2522138878E+00    0.6734826066E+00
    0.1500000000E+06    0.4269635539E+00    0.6056665954E-02    0.1400385891E-02    0.2523252441E+00    0.6744147599E+00
    0.1700000000E+06    0.4270196179E+00    0.5707218546E-02    0.1310991343E-02    0.2524149379E+00    0.6751731516E+00
    0.1900000000E+06    0.4270603289E+00    0.5413126287E-02    0.1236242492E-02    0.2524893337E+00    0.6758055920E+00
    0.2100000000E+06    0.4270904158E+00    0.5161103122E-02    0.1172553461E-02    0.2525524617E+00    0.6763433342E+00
    0.2300000000E+06    0.4271129023E+00    0.4941946311E-02    0.1117455999E-02    0.2526070092E+00    0.6768077748E+00
    0.2500000000E+06    0.4271298032E+00    0.4749050960E-02    0.1069188510E-02    0.2526548439E+00    0.6772141161E+00
    0.2700000000E+06    0.4271425080E+00    0.4577536263E-02    0.1026455792E-02    0.2526973086E+00    0.6775734932E+00
    0.2900000000E+06    0.4271520020E+00    0.4423706266E-02    0.9882815655E-03    0.2527353959E+00    0.6778942718E+00
    0.3100000000E+06    0.4271590012E+00    0.4284703560E-02    0.9539142364E-03    0.2527698576E+00    0.6781828743E+00
    0.3300000000E+06    0.4271640364E+00    0.4158279248E-02    0.9227645770E-03    0.2528012749E+00    0.6784443231E+00
    0.3500000000E+06    0.4271675080E+00    0.4042635671E-02    0.8943632972E-03    0.2528301049E+00    0.6786826099E+00
    0.3700000000E+06    0.4271697232E+00    0.3936316167E-02    0.8683314153E-03    0.2528567130E+00    0.6789009518E+00
    0.3900000000E+06    0.4271709204E+00    0.3838126074E-02    0.8443591043E-03    0.2528813951E+00    0.6791019746E+00
    0.4100000000E+06    0.4271712873E+00    0.3747075029E-02    0.8221902912E-03    0.2529043939E+00    0.6792878452E+00
    0.4300000000E+06    0.4271709729E+00    0.3662334083E-02    0.8016112471E-03    0.2529259106E+00    0.6794603698E+00
    0.4500000000E+06    0.4271700968E+00    0.3583203341E-02    0.7824420027E-03    0.2529461135E+00    0.6796210672E+00
    0.4700000000E+06    0.4271687557E+00    0.3509087201E-02    0.7645297972E-03    0.2529651449E+00    0.6797712254E+00
    0.4900000000E+06    0.4271670287E+00    0.3439475158E-02    0.7477440158E-03    0.2529831259E+00    0.6799119446E+00
    0.1000000000E+06    0.4266890009E+00    0.7335973574E-02    0.1732601862E-02    0.2519805012E+00    0.6715741658E+00
    0.3000000000E+06    0.4271557767E+00    0.4352504198E-02    0.9706620977E-03    0.2527530402E+00    0.6780422533E+00
    0.5000000000E+06    0.4271660412E+00    0.3406218142E-02    0.7397377805E-03    0.2529917555E+00    0.6799790655E+00
    0.7000000000E+06    0.4271369165E+00    0.2896683869E-02    0.6181926898E-03    0.2531281029E+00    0.6809986883E+00
    0.9000000000E+06    0.4271023622E+00    0.2565892389E-02    0.5405051963E-03    0.2532224973E+00    0.6816517467E+00
    0.1100000000E+07    0.4270687391E+00    0.2328812661E-02    0.4854855467E-03    0.2532943649E+00    0.6821154179E+00
    0.1300000000E+07    0.4270374256E+00    0.2148086348E-02    0.4439471617E-03    0.2533522642E+00    0.6824663800E+00
    0.1500000000E+07    0.4270085761E+00    0.2004371257E-02    0.4111829616E-03    0.2534006867E+00    0.6827439040E+00
    0.1700000000E+07    0.4269820164E+00    0.1886512056E-02    0.3845014163E-03    0.2534422709E+00    0.6829704500E+00
    0.1900000000E+07    0.4269574982E+00    0.1787561336E-02    0.3622385061E-03    0.2534786942E+00    0.6831599115E+00
    0.2100000000E+07    0.4269347768E+00    0.1702935452E-02    0.3433033703E-03    0.2535110875E+00    0.6833214034E+00
    0.2300000000E+07    0.4269136335E+00    0.1629471170E-02    0.3269474536E-03    0.2535402485E+00    0.6834611859E+00
    0.2500000000E+07    0.4268938796E+00    0.1564905254E-02    0.3126379092E-03    0.2535667601E+00    0.6835837193E+00
    0.2700000000E+07    0.4268753540E+00    0.1507569706E-02    0.2999838493E-03    0.2535910616E+00    0.6836922791E+00
    0.2900000000E+07    0.4268579197E+00    0.1456204373E-02    0.2886912188E-03    0.2536134914E+00    0.6837893315E+00
    0.3100000000E+07    0.4268414598E+00    0.1409836997E-02    0.2785340327E-03    0.2536343161E+00    0.6838767739E+00
    0.3300000000E+07    0.4268258744E+00    0.1367703757E-02    0.2693354014E-03    0.2536537494E+00    0.6839560930E+00
    0.3500000000E+07    0.4268110776E+00    0.1329195085E-02    0.2609546386E-03    0.2536719650E+00    0.6840284723E+00
    0.3700000000E+07    0.4267969951E+00    0.1293817761E-02    0.2532782749E-03    0.2536891060E+00    0.6840948675E+00
    0.3900000000E+07    0.4267835624E+00    0.1261167818E-02    0.2462136535E-03    0.2537052919E+00    0.6841560594E+00
    0.4100000000E+07    0.4267707231E+00    0.1230910776E-02    0.2396842741E-03    0.2537206232E+00    0.6842126935E+00
    0.4300000000E+07    0.4267584276E+00    0.1202766981E-02    0.2336263485E-03    0.2537351855E+00    0.6842653085E+00
    0.4500000000E+07    0.4267466325E+00    0.1176500561E-02    0.2279862123E-03    0.2537490520E+00    0.6843143581E+00
    0.4700000000E+07    0.4267352989E+00    0.1151910980E-02    0.2227183522E-03    0.2537622861E+00    0.6843602273E+00
    0.4900000000E+07    0.4267243926E+00    0.1128826507E-02    0.2177838833E-03    0.2537749429E+00    0.6844032454E+00
    0.1000000000E+07    0.4270853000E+00    0.2438583720E-02    0.5108883677E-03    0.2532605743E+00    0.6819011907E+00
    0.3000000000E+07    0.4268495746E+00    0.1432447832E-02    0.2834827272E-03    0.2536240900E+00    0.6838341528E+00
    0.5000000000E+07    0.4267190898E+00    0.1117801614E-02    0.2154310334E-03    0.2537810700E+00    0.6844237753E+00
    0.7000000000E+07    0.4266294726E+00    0.9491798649E-03    0.1797685419E-03    0.2538823794E+00    0.6847365417E+00
    0.9000000000E+07    0.4265612170E+00    0.8399964273E-03    0.1570297299E-03    0.2539573055E+00    0.6849377791E+00
    0.1100000000E+08    0.4265060898E+00    0.7618787543E-03    0.1409516172E-03    0.2540167845E+00    0.6850811071E+00
    0.1300000000E+08    0.4264598504E+00    0.7024033675E-03    0.1288272162E-03    0.2540661090E+00    0.6851898492E+00
    0.1500000000E+08    0.4264200283E+00    0.6551528898E-03    0.1192724150E-03    0.2541082457E+00    0.6852759949E+00
    0.1700000000E+08    0.4263850578E+00    0.6164325405E-03    0.1114970131E-03    0.2541450256E+00    0.6853464211E+00
    0.1900000000E+08    0.4263538843E+00    0.5839443405E-03    0.1050130759E-03    0.2541776586E+00    0.6854053915E+00
    0.2100000000E+08    0.4263257632E+00    0.5561738158E-03    0.9950105473E-04    0.2542069860E+00    0.6854557088E+00
    0.2300000000E+08    0.4263001498E+00    0.5320767515E-03    0.9474185606E-04    0.2542336165E+00    0.6854993011E+00
    0.2500000000E+08    0.4262766330E+00    0.5109066058E-03    0.9057963262E-04    0.2542580047E+00    0.6855375441E+00
    0.2700000000E+08    0.4262548955E+00    0.4921135422E-03    0.8690012756E-04    0.2542804992E+00    0.6855714493E+00
