  Pressure (Pa) 22mC5-400 (mol/kg) 2mC6-400 (mol/kg) 33mC5-400 (mol/kg) 23mC5-400 (mol/kg) C7-400 (mol/kg)
    0.1000000000E+01    0.1584260356E-02    0.6281912022E-02    0.6394103694E-04    0.1854527199E-03    0.1014194218E-01
    0.3000000000E+01    0.4671157312E-02    0.1801633620E-01    0.1834241308E-03    0.5468089918E-03    0.2912713485E-01
    0.5000000000E+01    0.7655125880E-02    0.2875926298E-01    0.2928678127E-03    0.8961235828E-03    0.4656651027E-01
    0.7000000000E+01    0.1054270436E-01    0.3862847498E-01    0.3934656326E-03    0.1234161323E-02    0.6265053918E-01
    0.9000000000E+01    0.1333986857E-01    0.4772346980E-01    0.4862255908E-03    0.1561621248E-02    0.7753928921E-01
    0.1100000000E+02    0.1605209172E-01    0.5612892762E-01    0.5720053680E-03    0.1879143608E-02    0.9136827983E-01
    0.1300000000E+02    0.1868439680E-01    0.6391741153E-01    0.6515397507E-03    0.2187315987E-02    0.1042530326E+00
    0.1500000000E+02    0.2124140247E-01    0.7115149252E-01    0.7254622102E-03    0.2486678680E-02    0.1162926442E+00
    0.1700000000E+02    0.2372736347E-01    0.7788543798E-01    0.7943220436E-03    0.2777729409E-02    0.1275726178E+00
    0.1900000000E+02    0.2614620622E-01    0.8416656555E-01    0.8585981147E-03    0.3060927495E-02    0.1381671285E+00
    0.2100000000E+02    0.2850156031E-01    0.9003633765E-01    0.9187099607E-03    0.3336697537E-02    0.1481408481E+00
    0.2300000000E+02    0.3079678641E-01    0.9553125322E-01    0.9750268384E-03    0.3605432676E-02    0.1575504284E+00
    0.2500000000E+02    0.3303500105E-01    0.1006835795E+00    0.1027875147E-02    0.3867497500E-02    0.1664457139E+00
    0.2700000000E+02    0.3521909875E-01    0.1055219568E+00    0.1077544557E-02    0.4123230622E-02    0.1748707406E+00
    0.2900000000E+02    0.3735177171E-01    0.1100719008E+00    0.1124293111E-02    0.4372946992E-02    0.1828645637E+00
    0.3100000000E+02    0.3943552747E-01    0.1143562233E+00    0.1168351478E-02    0.4616939958E-02    0.1904619468E+00
    0.3300000000E+02    0.4147270468E-01    0.1183953855E+00    0.1209926542E-02    0.4855483112E-02    0.1976939400E+00
    0.3500000000E+02    0.4346548737E-01    0.1222077970E+00    0.1249204425E-02    0.5088831958E-02    0.2045883662E+00
    0.3700000000E+02    0.4541591767E-01    0.1258100696E+00    0.1286353061E-02    0.5317225403E-02    0.2111702330E+00
    0.3900000000E+02    0.4732590738E-01    0.1292172337E+00    0.1321524392E-02    0.5540887107E-02    0.2174620830E+00
    0.4100000000E+02    0.4919724837E-01    0.1324429246E+00    0.1354856245E-02    0.5760026700E-02    0.2234842925E+00
    0.4300000000E+02    0.5103162200E-01    0.1354995420E+00    0.1386473953E-02    0.5974840886E-02    0.2292553277E+00
    0.4500000000E+02    0.5283060766E-01    0.1383983879E+00    0.1416491752E-02    0.6185514440E-02    0.2347919658E+00
    0.4700000000E+02    0.5459569053E-01    0.1411497869E+00    0.1445013996E-02    0.6392221116E-02    0.2401094851E+00
    0.4900000000E+02    0.5632826864E-01    0.1437631905E+00    0.1472136210E-02    0.6595124471E-02    0.2452218306E+00
    0.1000000000E+02    0.1470627386E-01    0.5200759897E-01    0.5299394750E-03    0.1721586731E-02    0.8457861163E-01
    0.3000000000E+02    0.3839961429E-01    0.1122459345E+00    0.1146645118E-02    0.4495641358E-02    0.1867107887E+00
    0.5000000000E+02    0.5718278305E-01    0.1450208814E+00    0.1485199973E-02    0.6695198414E-02    0.2477050921E+00
    0.7000000000E+02    0.7284940853E-01    0.1646955298E+00    0.1690819046E-02    0.8530093375E-02    0.2891835983E+00
    0.9000000000E+02    0.8638414938E-01    0.1771430055E+00    0.1822870771E-02    0.1011552716E-01    0.3197205106E+00
    0.1100000000E+03    0.9837719751E-01    0.1852233210E+00    0.1910283911E-02    0.1152055296E-01    0.3434325249E+00
    0.1300000000E+03    0.1092064243E+00    0.1904942325E+00    0.1968834586E-02    0.1278938401E-01    0.3625596905E+00
    0.1500000000E+03    0.1191265224E+00    0.1938735728E+00    0.2007834333E-02    0.1395182192E-01    0.3784340931E+00
    0.1700000000E+03    0.1283163813E+00    0.1959347142E+00    0.2033112878E-02    0.1502879923E-01    0.3919023005E+00
    0.1900000000E+03    0.1369059664E+00    0.1970524719E+00    0.2048491149E-02    0.1603552402E-01    0.4035308326E+00
    0.2100000000E+03    0.1449924004E+00    0.1974809117E+00    0.2056567058E-02    0.1698336159E-01    0.4137147825E+00
    0.2300000000E+03    0.1526500203E+00    0.1973974323E+00    0.2059160905E-02    0.1788101094E-01    0.4227391521E+00
    0.2500000000E+03    0.1599369038E+00    0.1969289925E+00    0.2057580564E-02    0.1873526854E-01    0.4308153917E+00
    0.2700000000E+03    0.1668992427E+00    0.1961683617E+00    0.2052785934E-02    0.1955153998E-01    0.4381041556E+00
    0.2900000000E+03    0.1735743549E+00    0.1951845389E+00    0.2045494476E-02    0.2033419244E-01    0.4447300145E+00
    0.3100000000E+03    0.1799928095E+00    0.1940296302E+00    0.2036250963E-02    0.2108680333E-01    0.4507912760E+00
    0.3300000000E+03    0.1861799586E+00    0.1927435060E+00    0.2025474769E-02    0.2181233953E-01    0.4563667248E+00
    0.3500000000E+03    0.1921570618E+00    0.1913570237E+00    0.2013492642E-02    0.2251328904E-01    0.4615203613E+00
    0.3700000000E+03    0.1979421267E+00    0.1898943037E+00    0.2000561879E-02    0.2319175926E-01    0.4663048048E+00
    0.3900000000E+03    0.2035505460E+00    0.1883743628E+00    0.1986886995E-02    0.2384955153E-01    0.4707637844E+00
    0.4100000000E+03    0.2089955865E+00    0.1868123062E+00    0.1972631904E-02    0.2448821849E-01    0.4749339930E+00
    0.4300000000E+03    0.2142887714E+00    0.1852202092E+00    0.1957928946E-02    0.2510910862E-01    0.4788464887E+00
    0.4500000000E+03    0.2194401795E+00    0.1836077776E+00    0.1942885667E-02    0.2571340144E-01    0.4825277688E+00
    0.4700000000E+03    0.2244586841E+00    0.1819828476E+00    0.1927589962E-02    0.2630213535E-01    0.4860006024E+00
    0.4900000000E+03    0.2293521449E+00    0.1803517693E+00    0.1912114025E-02    0.2687623013E-01    0.4892846845E+00
    0.1000000000E+03    0.9254611772E-01    0.1816115884E+00    0.1870968036E-02    0.1083740066E-01    0.3322609762E+00
    0.3000000000E+03    0.1768139725E+00    0.1946257350E+00    0.2041088017E-02    0.2071405507E-01    0.4478259016E+00
    0.5000000000E+03    0.2317542016E+00    0.1795355769E+00    0.1904327505E-02    0.2715804738E-01    0.4908613876E+00
    0.7000000000E+03    0.2745948557E+00    0.1637243553E+00    0.1749110020E-02    0.3218549418E-01    0.5156786829E+00
    0.9000000000E+03    0.3098445471E+00    0.1496690842E+00    0.1605641928E-02    0.3632399655E-01    0.5325079780E+00
    0.1100000000E+04    0.3395473961E+00    0.1375160257E+00    0.1478097758E-02    0.3981274519E-01    0.5449515361E+00
    0.1300000000E+04    0.3649130771E+00    0.1270467040E+00    0.1365805358E-02    0.4279329454E-01    0.5546650412E+00
    0.1500000000E+04    0.3867704556E+00    0.1180036288E+00    0.1267076228E-02    0.4536265070E-01    0.5625359214E+00
    0.1700000000E+04    0.4057356497E+00    0.1101556862E+00    0.1180127733E-02    0.4759293529E-01    0.5690905341E+00
    0.1900000000E+04    0.4222880101E+00    0.1033084318E+00    0.1103328893E-02    0.4954027281E-01    0.5746644471E+00
    0.2100000000E+04    0.4368104351E+00    0.9730144228E-01    0.1035256171E-02    0.5124950507E-01    0.5794835143E+00
    0.2300000000E+04    0.4496137428E+00    0.9200303765E-01    0.9746904219E-03    0.5275704076E-01    0.5837063131E+00
    0.2500000000E+04    0.4609529417E+00    0.8730508407E-01    0.9205959010E-03    0.5409275766E-01    0.5874480301E+00
    0.2700000000E+04    0.4710388751E+00    0.8311853290E-01    0.8720952998E-03    0.5528136426E-01    0.5907946996E+00
    0.2900000000E+04    0.4800469468E+00    0.7936976451E-01    0.8284457852E-03    0.5634342007E-01    0.5938120986E+00
    0.3100000000E+04    0.4881238493E+00    0.7599764437E-01    0.7890176768E-03    0.5729612266E-01    0.5965515226E+00
    0.3300000000E+04    0.4953928522E+00    0.7295116806E-01    0.7532761256E-03    0.5815392636E-01    0.5990536614E+00
    0.3500000000E+04    0.5019580072E+00    0.7018757999E-01    0.7207656508E-03    0.5892903425E-01    0.6013512741E+00
    0.3700000000E+04    0.5079075210E+00    0.6767086878E-01    0.6910972147E-03    0.5963179306E-01    0.6034710801E+00
    0.3900000000E+04    0.5133164788E+00    0.6537056095E-01    0.6639374738E-03    0.6027101183E-01    0.6054351253E+00
    0.4100000000E+04    0.5182490529E+00    0.6326075058E-01    0.6389998617E-03    0.6085422066E-01    0.6072617872E+00
    0.4300000000E+04    0.5227603034E+00    0.6131931581E-01    0.6160371950E-03    0.6138788146E-01    0.6089665275E+00
    0.4500000000E+04    0.5268976517E+00    0.5952728380E-01    0.5948355404E-03    0.6187756063E-01    0.6105624629E+00
    0.4700000000E+04    0.5307020908E+00    0.5786831372E-01    0.5752091185E-03    0.6232807079E-01    0.6120608055E+00
    0.4900000000E+04    0.5342091840E+00    0.5632827426E-01    0.5569960637E-03    0.6274358779E-01    0.6134712052E+00
    0.1000000000E+04    0.3253017154E+00    0.1433659556E+00    0.1539877408E-02    0.3813933823E-01    0.5391488118E+00
    0.3000000000E+04    0.4841935947E+00    0.7764002450E-01    0.8082395114E-03    0.5683247913E-01    0.5952138018E+00
    0.5000000000E+04    0.5358610610E+00    0.5559895498E-01    0.5483746217E-03    0.6293937886E-01    0.6141460827E+00
    0.7000000000E+04    0.5590093053E+00    0.4499670389E-01    0.4238117480E-03    0.6569018758E-01    0.6245709137E+00
    0.9000000000E+04    0.5715902847E+00    0.3872908612E-01    0.3516838472E-03    0.6719420633E-01    0.6314225446E+00
    0.1100000000E+05    0.5793258300E+00    0.3453404293E-01    0.3046136357E-03    0.6812492973E-01    0.6363724944E+00
    0.1300000000E+05    0.5844989390E+00    0.3149118901E-01    0.2713294275E-03    0.6875157117E-01    0.6401673063E+00
    0.1500000000E+05    0.5881736540E+00    0.2915865281E-01    0.2464193613E-03    0.6919984226E-01    0.6431978839E+00
    0.1700000000E+05    0.5909047553E+00    0.2729787913E-01    0.2269796031E-03    0.6953541764E-01    0.6456915652E+00
    0.1900000000E+05    0.5930069330E+00    0.2576838926E-01    0.2113164369E-03    0.6979562689E-01    0.6477908556E+00
    0.2100000000E+05    0.5946707665E+00    0.2448176612E-01    0.1983759391E-03    0.7000312528E-01    0.6495902671E+00
    0.2300000000E+05    0.5960178612E+00    0.2337936555E-01    0.1874676482E-03    0.7017240039E-01    0.6511553056E+00
    0.2500000000E+05    0.5971291882E+00    0.2242061337E-01    0.1781198793E-03    0.7031312050E-01    0.6525330095E+00
    0.2700000000E+05    0.5980606041E+00    0.2157644757E-01    0.1699990416E-03    0.7043197038E-01    0.6537581540E+00
    0.2900000000E+05    0.5988518071E+00    0.2082544147E-01    0.1628622383E-03    0.7053371213E-01    0.6548570820E+00
    0.3100000000E+05    0.5995317399E+00    0.2015140694E-01    0.1565281716E-03    0.7062182594E-01    0.6558501663E+00
    0.3300000000E+05    0.6001219733E+00    0.1954185524E-01    0.1508586041E-03    0.7069891179E-01    0.6567534454E+00
    0.3500000000E+05    0.6006388952E+00    0.1898697585E-01    0.1457461591E-03    0.7076694983E-01    0.6575797428E+00
    0.3700000000E+05    0.6010951686E+00    0.1847893971E-01    0.1411060655E-03    0.7082747385E-01    0.6583394518E+00
    0.3900000000E+05    0.6015007250E+00    0.1801141174E-01    0.1368704317E-03    0.7088168987E-01    0.6590410978E+00
    0.4100000000E+05    0.6018634591E+00    0.1757920237E-01    0.1329841863E-03    0.7093055893E-01    0.6596917494E+00
    0.4300000000E+05    0.6021897215E+00    0.1717801363E-01    0.1294021452E-03    0.7097485609E-01    0.6602973241E+00
    0.4500000000E+05    0.6024846766E+00    0.1680425077E-01    0.1260868533E-03    0.7101521326E-01    0.6608628187E+00
    0.4700000000E+05    0.6027525655E+00    0.1645488047E-01    0.1230069737E-03    0.7105215070E-01    0.6613924860E+00
    0.4900000000E+05    0.6029969022E+00    0.1612732252E-01    0.1201360662E-03    0.7108610060E-01    0.6618899715E+00
    0.1000000000E+05    0.5758785916E+00    0.3644660871E-01    0.3259233905E-03    0.6770940814E-01    0.6340765826E+00
    0.3000000000E+05    0.5992041915E+00    0.2047965610E-01    0.1596043452E-03    0.7057929298E-01    0.6553657657E+00
    0.5000000000E+05    0.6031111752E+00    0.1597101973E-01    0.1187718182E-03    0.7110207068E-01    0.6621276461E+00
    0.7000000000E+05    0.6046709112E+00    0.1358839825E-01    0.9842603269E-04    0.7132790684E-01    0.6657691443E+00
    0.9000000000E+05    0.6055020150E+00    0.1204962638E-01    0.8572825103E-04    0.7145757327E-01    0.6681331364E+00
    0.1100000000E+06    0.6060156398E+00    0.1094837066E-01    0.7684951628E-04    0.7154358975E-01    0.6698272895E+00
    0.1300000000E+06    0.6063632203E+00    0.1010895608E-01    0.7019746342E-04    0.7160585540E-01    0.6711186334E+00
    0.1500000000E+06    0.6066133278E+00    0.9441142969E-02    0.6497642998E-04    0.7165363260E-01    0.6721454323E+00
    0.1700000000E+06    0.6068014514E+00    0.8893105610E-02    0.6073895175E-04    0.7169184606E-01    0.6729874298E+00
    0.1900000000E+06    0.6069477722E+00    0.8432642116E-02    0.5721159701E-04    0.7172337115E-01    0.6736942886E+00
    0.2100000000E+06    0.6070646010E+00    0.8038533398E-02    0.5421664185E-04    0.7175000783E-01    0.6742987735E+00
    0.2300000000E+06    0.6071598671E+00    0.7696144917E-02    0.5163291754E-04    0.7177294520E-01    0.6748234953E+00
    0.2500000000E+06    0.6072389046E+00    0.7395008353E-02    0.4937460391E-04    0.7179300336E-01    0.6752846310E+00
    0.2700000000E+06    0.6073054317E+00    0.7127408435E-02    0.4737899435E-04    0.7181076808E-01    0.6756941024E+00
    0.2900000000E+06    0.6073621184E+00    0.6887515357E-02    0.4559906681E-04    0.7182667016E-01    0.6760609161E+00
    0.3100000000E+06    0.6074109300E+00    0.6670829933E-02    0.4399877843E-04    0.7184103432E-01    0.6763920206E+00
    0.3300000000E+06    0.6074533453E+00    0.6473816317E-02    0.4254997734E-04    0.7185411054E-01    0.6766928747E+00
    0.3500000000E+06    0.6074904973E+00    0.6293651630E-02    0.4123031359E-04    0.7186609480E-01    0.6769678345E+00
    0.3700000000E+06    0.6075232688E+00    0.6128050866E-02    0.4002178818E-04    0.7187714324E-01    0.6772204246E+00
    0.3900000000E+06    0.6075523575E+00    0.5975141705E-02    0.3890972228E-04    0.7188738197E-01    0.6774535316E+00
    0.4100000000E+06    0.6075783218E+00    0.5833373227E-02    0.3788200975E-04    0.7189691418E-01    0.6776695456E+00
    0.4300000000E+06    0.6076016138E+00    0.5701448174E-02    0.3692856560E-04    0.7190582519E-01    0.6778704647E+00
    0.4500000000E+06    0.6076226036E+00    0.5578271906E-02    0.3604091221E-04    0.7191418632E-01    0.6780579743E+00
    0.4700000000E+06    0.6076415967E+00    0.5462913384E-02    0.3521186467E-04    0.7192205767E-01    0.6782335072E+00
    0.4900000000E+06    0.6076588475E+00    0.5354574970E-02    0.3443528809E-04    0.7192949032E-01    0.6783982902E+00
    0.1000000000E+06    0.6057861001E+00    0.1145819643E-01    0.8093844543E-04    0.7150441838E-01    0.6690428920E+00
    0.3000000000E+06    0.6073874067E+00    0.6776511876E-02    0.4477838388E-04    0.7183402739E-01    0.6762305611E+00
    0.5000000000E+06    0.6076668877E+00    0.5302819592E-02    0.3406499897E-04    0.7193305606E-01    0.6784769868E+00
    0.7000000000E+06    0.6077736489E+00    0.4510059075E-02    0.2845141156E-04    0.7198928597E-01    0.6796804555E+00
    0.9000000000E+06    0.6078260993E+00    0.3995503950E-02    0.2486988989E-04    0.7202811385E-01    0.6804595213E+00
    0.1100000000E+07    0.6078551730E+00    0.3626726050E-02    0.2233574296E-04    0.7205763150E-01    0.6810168183E+00
    0.1300000000E+07    0.6078723324E+00    0.3345592640E-02    0.2042355719E-04    0.7208138825E-01    0.6814410562E+00
    0.1500000000E+07    0.6078827386E+00    0.3122017402E-02    0.1891579178E-04    0.7210124200E-01    0.6817780511E+00
    0.1700000000E+07    0.6078890286E+00    0.2938651789E-02    0.1768821457E-04    0.7211828222E-01    0.6820541779E+00
    0.1900000000E+07    0.6078926750E+00    0.2784692306E-02    0.1666408698E-04    0.7213320073E-01    0.6822858389E+00
    0.2100000000E+07    0.6078945562E+00    0.2653011460E-02    0.1579313398E-04    0.7214646345E-01    0.6824838426E+00
    0.2300000000E+07    0.6078952236E+00    0.2538690488E-02    0.1504087262E-04    0.7215839877E-01    0.6826556411E+00
    0.2500000000E+07    0.6078950379E+00    0.2438210061E-02    0.1438276548E-04    0.7216924664E-01    0.6828065613E+00
    0.2700000000E+07    0.6078942424E+00    0.2348976367E-02    0.1380081733E-04    0.7217918758E-01    0.6829405266E+00
    0.2900000000E+07    0.6078930062E+00    0.2269029753E-02    0.1328149377E-04    0.7218836079E-01    0.6830604990E+00
    0.3100000000E+07    0.6078914491E+00    0.2196858209E-02    0.1281439530E-04    0.7219687583E-01    0.6831687625E+00
    0.3300000000E+07    0.6078896579E+00    0.2131273832E-02    0.1239138289E-04    0.7220482041E-01    0.6832671106E+00
    0.3500000000E+07    0.6078876962E+00    0.2071328572E-02    0.1200598406E-04    0.7221226589E-01    0.6833569738E+00
    0.3700000000E+07    0.6078856113E+00    0.2016255308E-02    0.1165297900E-04    0.7221927105E-01    0.6834395092E+00
    0.3900000000E+07    0.6078834390E+00    0.1965425707E-02    0.1132810565E-04    0.7222588488E-01    0.6835156641E+00
    0.4100000000E+07    0.6078812064E+00    0.1918319495E-02    0.1102784539E-04    0.7223214867E-01    0.6835862226E+00
    0.4300000000E+07    0.6078789342E+00    0.1874501667E-02    0.1074926444E-04    0.7223809749E-01    0.6836518400E+00
    0.4500000000E+07    0.6078766384E+00    0.1833605301E-02    0.1048989476E-04    0.7224376142E-01    0.6837130690E+00
    0.4700000000E+07    0.6078743314E+00    0.1795318434E-02    0.1024764330E-04    0.7224916643E-01    0.6837703792E+00
    0.4900000000E+07    0.6078720227E+00    0.1759373904E-02    0.1002072185E-04    0.7225433510E-01    0.6838241727E+00
    0.1000000000E+07    0.6078426182E+00    0.3797476409E-02    0.2350555841E-04    0.7204375722E-01    0.6807588921E+00
    0.3000000000E+07    0.6078922617E+00    0.2232052800E-02    0.1304197004E-04    0.7219269466E-01    0.6831159725E+00
    0.5000000000E+07    0.6078708702E+00    0.1742206784E-02    0.9912520722E-05    0.7225683708E-01    0.6838498608E+00
    0.7000000000E+07    0.6078488436E+00    0.1479608034E-02    0.8272432619E-05    0.7229818857E-01    0.6842425062E+00
    0.9000000000E+07    0.6078294991E+00    0.1309538323E-02    0.7226599058E-05    0.7232875149E-01    0.6844964950E+00
    0.1100000000E+08    0.6078126641E+00    0.1187839977E-02    0.6487052353E-05    0.7235300250E-01    0.6846780918E+00
    0.1300000000E+08    0.6077978717E+00    0.1095173559E-02    0.5929325415E-05    0.7237310635E-01    0.6848162795E+00
    0.1500000000E+08    0.6077847190E+00    0.1021547604E-02    0.5489774244E-05    0.7239027590E-01    0.6849260176E+00
    0.1700000000E+08    0.6077728955E+00    0.9612088133E-03    0.5132062214E-05    0.7240525934E-01    0.6850159136E+00
    0.1900000000E+08    0.6077621650E+00    0.9105785201E-03    0.4833751036E-05    0.7241855088E-01    0.6850913185E+00
    0.2100000000E+08    0.6077523466E+00    0.8672980040E-03    0.4580145162E-05    0.7243049407E-01    0.6851557574E+00
    0.2300000000E+08    0.6077432995E+00    0.8297408228E-03    0.4361168400E-05    0.7244133742E-01    0.6852116597E+00
    0.2500000000E+08    0.6077349125E+00    0.7967441025E-03    0.4169652979E-05    0.7245126650E-01    0.6852607621E+00
    0.2700000000E+08    0.6077270966E+00    0.7674513211E-03    0.4000343771E-05    0.7246042356E-01    0.6853043433E+00
