  Pressure (Pa) 22mC5-400 (mol/kg) 2mC6-400 (mol/kg) 33mC5-400 (mol/kg) 23mC5-400 (mol/kg) C7-400 (mol/kg)
    0.1000000000E+01    0.1587648412E-02    0.3185083848E-02    0.3241539854E-03    0.6504721902E-03    0.1717384674E-02
    0.3000000000E+01    0.4700402417E-02    0.9381061573E-02    0.9547028677E-03    0.1925809734E-02    0.5083950867E-02
    0.5000000000E+01    0.7733105667E-02    0.1535442457E-01    0.1562554545E-02    0.3168371998E-02    0.8362812121E-02
    0.7000000000E+01    0.1068953790E-01    0.2111608912E-01    0.2148820762E-02    0.4379706311E-02    0.1155765366E-01
    0.9000000000E+01    0.1357323726E-01    0.2667628116E-01    0.2714542999E-02    0.5561261105E-02    0.1467195324E-01
    0.1100000000E+02    0.1638751937E-01    0.3204458967E-01    0.3260697907E-02    0.6714393729E-02    0.1770899563E-01
    0.1300000000E+02    0.1913549463E-01    0.3723001516E-01    0.3788202242E-02    0.7840377528E-02    0.2067188594E-01
    0.1500000000E+02    0.2182008395E-01    0.4224101387E-01    0.4297917355E-02    0.8940408279E-02    0.2356356177E-01
    0.1700000000E+02    0.2444403306E-01    0.4708553799E-01    0.4790653294E-02    0.1001561004E-01    0.2638680450E-01
    0.1900000000E+02    0.2700992548E-01    0.5177107244E-01    0.5267172539E-02    0.1106704049E-01    0.2914424955E-01
    0.2100000000E+02    0.2952019443E-01    0.5630466847E-01    0.5728193420E-02    0.1209569575E-01    0.3183839592E-01
    0.2300000000E+02    0.3197713366E-01    0.6069297434E-01    0.6174393249E-02    0.1310251489E-01    0.3447161501E-01
    0.2500000000E+02    0.3438290738E-01    0.6494226359E-01    0.6606411180E-02    0.1408838391E-01    0.3704615865E-01
    0.2700000000E+02    0.3673955932E-01    0.6905846078E-01    0.7024850846E-02    0.1505413953E-01    0.3956416665E-01
    0.2900000000E+02    0.3904902109E-01    0.7304716533E-01    0.7430282773E-02    0.1600057253E-01    0.4202767375E-01
    0.3100000000E+02    0.4131311979E-01    0.7691367331E-01    0.7823246600E-02    0.1692843095E-01    0.4443861597E-01
    0.3300000000E+02    0.4353358507E-01    0.8066299758E-01    0.8204253131E-02    0.1783842291E-01    0.4679883664E-01
    0.3500000000E+02    0.4571205559E-01    0.8429988630E-01    0.8573786219E-02    0.1873121928E-01    0.4911009191E-01
    0.3700000000E+02    0.4785008495E-01    0.8782884006E-01    0.8932304506E-02    0.1960745613E-01    0.5137405587E-01
    0.3900000000E+02    0.4994914722E-01    0.9125412764E-01    0.9280243030E-02    0.2046773696E-01    0.5359232534E-01
    0.4100000000E+02    0.5201064200E-01    0.9457980070E-01    0.9618014718E-02    0.2131263479E-01    0.5576642431E-01
    0.4300000000E+02    0.5403589912E-01    0.9780970721E-01    0.9946011756E-02    0.2214269406E-01    0.5789780810E-01
    0.4500000000E+02    0.5602618293E-01    0.1009475040E+00    0.1026460687E-01    0.2295843242E-01    0.5998786719E-01
    0.4700000000E+02    0.5798269640E-01    0.1039966686E+00    0.1057415450E-01    0.2376034240E-01    0.6203793084E-01
    0.4900000000E+02    0.5990658478E-01    0.1069605095E+00    0.1087499191E-01    0.2454889288E-01    0.6404927046E-01
    0.1000000000E+02    0.1498885645E-01    0.2938384507E-01    0.2990007723E-02    0.6141298714E-02    0.1619993345E-01
    0.3000000000E+02    0.4018663051E-01    0.7499537417E-01    0.7628290620E-02    0.1646677840E-01    0.4323959815E-01
    0.5000000000E+02    0.6085663753E-01    0.1084114239E+00    0.1102224522E-01    0.2493829872E-01    0.6504080103E-01
    0.7000000000E+02    0.7838442474E-01    0.1336407021E+00    0.1358041697E-01    0.3212312004E-01    0.8310809882E-01
    0.9000000000E+02    0.9362238137E-01    0.1531338289E+00    0.1555266525E-01    0.3837023743E-01    0.9841080969E-01
    0.1100000000E+03    0.1071254906E+00    0.1684693681E+00    0.1710000567E-01    0.4390688766E-01    0.1116029679E+00
    0.1300000000E+03    0.1192718819E+00    0.1807076304E+00    0.1833063900E-01    0.4888790049E-01    0.1231427603E+00
    0.1500000000E+03    0.1303289635E+00    0.1905856684E+00    0.1931981334E-01    0.5342277274E-01    0.1333613200E+00
    0.1700000000E+03    0.1404918255E+00    0.1986306966E+00    0.2012137972E-01    0.5759139095E-01    0.1425043175E+00
    0.1900000000E+03    0.1499066173E+00    0.2052290781E+00    0.2077482232E-01    0.6145360250E-01    0.1507581484E+00
    0.2100000000E+03    0.1586853532E+00    0.2106698955E+00    0.2130969958E-01    0.6505527741E-01    0.1582670003E+00
    0.2300000000E+03    0.1669156114E+00    0.2151733702E+00    0.2174854171E-01    0.6843227983E-01    0.1651443132E+00
    0.2500000000E+03    0.1746670777E+00    0.2189099247E+00    0.2210879439E-01    0.7161314712E-01    0.1714806748E+00
    0.2700000000E+03    0.1819960730E+00    0.2220132828E+00    0.2240415508E-01    0.7462094378E-01    0.1773493861E+00
    0.2900000000E+03    0.1889487573E+00    0.2245896692E+00    0.2264551142E-01    0.7747457347E-01    0.1828104649E+00
    0.3100000000E+03    0.1955634431E+00    0.2267243936E+00    0.2284161318E-01    0.8018972624E-01    0.1879135763E+00
    0.3300000000E+03    0.2018722954E+00    0.2284866452E+00    0.2299956158E-01    0.8277957462E-01    0.1927002150E+00
    0.3500000000E+03    0.2079026005E+00    0.2299330373E+00    0.2312517118E-01    0.8525529339E-01    0.1972053517E+00
    0.3700000000E+03    0.2136777283E+00    0.2311102651E+00    0.2322324127E-01    0.8762645337E-01    0.2014586941E+00
    0.3900000000E+03    0.2192178698E+00    0.2320571236E+00    0.2329776203E-01    0.8990132365E-01    0.2054856628E+00
    0.4100000000E+03    0.2245406110E+00    0.2328060580E+00    0.2335207291E-01    0.9208710639E-01    0.2093081554E+00
    0.4300000000E+03    0.2296613824E+00    0.2333843669E+00    0.2338898567E-01    0.9419012122E-01    0.2129451517E+00
    0.4500000000E+03    0.2345938171E+00    0.2338151456E+00    0.2341088075E-01    0.9621595154E-01    0.2164131959E+00
    0.4700000000E+03    0.2393500362E+00    0.2341180323E+00    0.2341978370E-01    0.9816956163E-01    0.2197267857E+00
    0.4900000000E+03    0.2439408803E+00    0.2343098034E+00    0.2341742600E-01    0.1000553914E+00    0.2228986880E+00
    0.1000000000E+03    0.1005639682E+00    0.1612456924E+00    0.1637173490E-01    0.4121638774E-01    0.1052384600E+00
    0.3000000000E+03    0.1922962123E+00    0.2257075836E+00    0.2274874141E-01    0.7884858399E-01    0.1854040031E+00
    0.5000000000E+03    0.2461773712E+00    0.2343686003E+00    0.2341249735E-01    0.1009741519E+00    0.2244350873E+00
    0.7000000000E+03    0.2841585661E+00    0.2323029694E+00    0.2299068481E-01    0.1165828375E+00    0.2498852967E+00
    0.9000000000E+03    0.3126953059E+00    0.2275558085E+00    0.2231473480E-01    0.1283187759E+00    0.2687267483E+00
    0.1100000000E+04    0.3348840586E+00    0.2222901117E+00    0.2160789226E-01    0.1374505568E+00    0.2836858433E+00
    0.1300000000E+04    0.3525474422E+00    0.2171753723E+00    0.2093765064E-01    0.1447251088E+00    0.2960944840E+00
    0.1500000000E+04    0.3668691380E+00    0.2124122385E+00    0.2032240419E-01    0.1506276702E+00    0.3066993036E+00
    0.1700000000E+04    0.3786608645E+00    0.2080390411E+00    0.1976366828E-01    0.1554911005E+00    0.3159600191E+00
    0.1900000000E+04    0.3884990483E+00    0.2040372049E+00    0.1925723901E-01    0.1595518452E+00    0.3241796308E+00
    0.2100000000E+04    0.3968035791E+00    0.2003703692E+00    0.1879733769E-01    0.1629821903E+00    0.3315684247E+00
    0.2300000000E+04    0.4038865928E+00    0.1969992907E+00    0.1837816984E-01    0.1659102453E+00    0.3382783625E+00
    0.2500000000E+04    0.4099841414E+00    0.1938873199E+00    0.1799447343E-01    0.1684329197E+00    0.3444228842E+00
    0.2700000000E+04    0.4152774407E+00    0.1910020983E+00    0.1764166265E-01    0.1706246309E+00    0.3500889599E+00
    0.2900000000E+04    0.4199074900E+00    0.1883157472E+00    0.1731581339E-01    0.1725432966E+00    0.3553447658E+00
    0.3100000000E+04    0.4239853392E+00    0.1858044941E+00    0.1701359260E-01    0.1742345447E+00    0.3602447610E+00
    0.3300000000E+04    0.4275994257E+00    0.1834481320E+00    0.1673217443E-01    0.1757347217E+00    0.3648331548E+00
    0.3500000000E+04    0.4308208996E+00    0.1812294724E+00    0.1646916005E-01    0.1770730771E+00    0.3691463413E+00
    0.3700000000E+04    0.4337075424E+00    0.1791338537E+00    0.1622250693E-01    0.1782733710E+00    0.3732146488E+00
    0.3900000000E+04    0.4363066878E+00    0.1771487190E+00    0.1599046909E-01    0.1793550723E+00    0.3770636247E+00
    0.4100000000E+04    0.4386574233E+00    0.1752632643E+00    0.1577154731E-01    0.1803342627E+00    0.3807149960E+00
    0.4300000000E+04    0.4407922692E+00    0.1734681478E+00    0.1556444821E-01    0.1812243254E+00    0.3841873988E+00
    0.4500000000E+04    0.4427384706E+00    0.1717552518E+00    0.1536805063E-01    0.1820364756E+00    0.3874969417E+00
    0.4700000000E+04    0.4445190017E+00    0.1701174868E+00    0.1518137812E-01    0.1827801731E+00    0.3906576455E+00
    0.4900000000E+04    0.4461533530E+00    0.1685486313E+00    0.1500357631E-01    0.1834634454E+00    0.3936817907E+00
    0.1000000000E+04    0.3244496727E+00    0.2249287637E+00    0.2195915849E-01    0.1331554783E+00    0.2765891199E+00
    0.3000000000E+04    0.4220094528E+00    0.1870395734E+00    0.1716193696E-01    0.1734148876E+00    0.3578362689E+00
    0.5000000000E+04    0.4469210054E+00    0.1677883050E+00    0.1491776367E-01    0.1837846032E+00    0.3951460853E+00
    0.7000000000E+04    0.4575821631E+00    0.1551556657E+00    0.1352531320E-01    0.1882648223E+00    0.4193236397E+00
    0.9000000000E+04    0.4633675612E+00    0.1457757285E+00    0.1252975808E-01    0.1907205468E+00    0.4370471334E+00
    0.1100000000E+05    0.4669610840E+00    0.1383422164E+00    0.1176178005E-01    0.1922617436E+00    0.4509288675E+00
    0.1300000000E+05    0.4693954051E+00    0.1322088362E+00    0.1114087916E-01    0.1933168536E+00    0.4622669969E+00
    0.1500000000E+05    0.4711468665E+00    0.1270063782E+00    0.1062259952E-01    0.1940841501E+00    0.4718012409E+00
    0.1700000000E+05    0.4724639753E+00    0.1225032533E+00    0.1017982766E-01    0.1946674173E+00    0.4799928276E+00
    0.1900000000E+05    0.4734884740E+00    0.1185443531E+00    0.9794822391E-02    0.1951260525E+00    0.4871484171E+00
    0.2100000000E+05    0.4743068703E+00    0.1150206170E+00    0.9455350970E-02    0.1954964322E+00    0.4934819933E+00
    0.2300000000E+05    0.4749748421E+00    0.1118524248E+00    0.9152630004E-02    0.1958020505E+00    0.4991486173E+00
    0.2500000000E+05    0.4755297920E+00    0.1089798796E+00    0.8880145769E-02    0.1960587457E+00    0.5042641179E+00
    0.2700000000E+05    0.4759977473E+00    0.1063568032E+00    0.8632938606E-02    0.1962775786E+00    0.5089172073E+00
    0.2900000000E+05    0.4763973626E+00    0.1039468574E+00    0.8407148305E-02    0.1964665050E+00    0.5131772673E+00
    0.3100000000E+05    0.4767423471E+00    0.1017209465E+00    0.8199714028E-02    0.1966313929E+00    0.5170995372E+00
    0.3300000000E+05    0.4770429960E+00    0.9965542346E-01    0.8008169801E-02    0.1967766647E+00    0.5207286763E+00
    0.3500000000E+05    0.4773071866E+00    0.9773081836E-01    0.7830501240E-02    0.1969057168E+00    0.5241012768E+00
    0.3700000000E+05    0.4775410466E+00    0.9593091690E-01    0.7665042812E-02    0.1970212005E+00    0.5272476751E+00
    0.3900000000E+05    0.4777494120E+00    0.9424207893E-01    0.7510402591E-02    0.1971252161E+00    0.5301932844E+00
    0.4100000000E+05    0.4779361496E+00    0.9265272602E-01    0.7365406181E-02    0.1972194492E+00    0.5329595928E+00
    0.4300000000E+05    0.4781043870E+00    0.9115295002E-01    0.7229054213E-02    0.1973052681E+00    0.5355649218E+00
    0.4500000000E+05    0.4782566809E+00    0.8973420990E-01    0.7100489686E-02    0.1973837953E+00    0.5380250109E+00
    0.4700000000E+05    0.4783951407E+00    0.8838909418E-01    0.6978972532E-02    0.1974559607E+00    0.5403534749E+00
    0.4900000000E+05    0.4785215224E+00    0.8711113246E-01    0.6863859588E-02    0.1975225408E+00    0.5425621639E+00
    0.1000000000E+05    0.4653541966E+00    0.1418651337E+00    0.1212354765E-01    0.1915705942E+00    0.4443688539E+00
    0.3000000000E+05    0.4765759739E+00    0.1028124863E+00    0.8301302812E-02    0.1965516492E+00    0.5151776204E+00
    0.5000000000E+05    0.4785806537E+00    0.8649553193E-01    0.6808526209E-02    0.1975539449E+00    0.5436248856E+00
    0.7000000000E+05    0.4793871623E+00    0.7663505300E-01    0.5932540680E-02    0.1980041195E+00    0.5605432646E+00
    0.9000000000E+05    0.4798123991E+00    0.6977197352E-01    0.5334314702E-02    0.1982679906E+00    0.5722090458E+00
    0.1100000000E+06    0.4800701313E+00    0.6460976082E-01    0.4890631086E-02    0.1984452748E+00    0.5809279777E+00
    0.1300000000E+06    0.4802402328E+00    0.6052960457E-01    0.4543842698E-02    0.1985747084E+00    0.5877869087E+00
    0.1500000000E+06    0.4803591160E+00    0.5719130126E-01    0.4262721844E-02    0.1986746306E+00    0.5933781301E+00
    0.1700000000E+06    0.4804456685E+00    0.5438932262E-01    0.4028622975E-02    0.1987549137E+00    0.5980570964E+00
    0.1900000000E+06    0.4805106236E+00    0.5199078674E-01    0.3829607772E-02    0.1988213762E+00    0.6020524166E+00
    0.2100000000E+06    0.4805605108E+00    0.4990525496E-01    0.3657618306E-02    0.1988776876E+00    0.6055190122E+00
    0.2300000000E+06    0.4805995177E+00    0.4806864492E-01    0.3506986170E-02    0.1989262864E+00    0.6085662602E+00
    0.2500000000E+06    0.4806304464E+00    0.4643404942E-01    0.3373588751E-02    0.1989688626E+00    0.6112739756E+00
    0.2700000000E+06    0.4806552375E+00    0.4496620048E-01    0.3254344209E-02    0.1990066285E+00    0.6137020076E+00
    0.2900000000E+06    0.4806752746E+00    0.4363797792E-01    0.3146895055E-02    0.1990404785E+00    0.6158962702E+00
    0.3100000000E+06    0.4806915684E+00    0.4242812364E-01    0.3049402188E-02    0.1990710889E+00    0.6178926774E+00
    0.3300000000E+06    0.4807048729E+00    0.4131969687E-01    0.2960406466E-02    0.1990989816E+00    0.6197197954E+00
    0.3500000000E+06    0.4807157609E+00    0.4029900168E-01    0.2878733037E-02    0.1991245667E+00    0.6214006795E+00
    0.3700000000E+06    0.4807246745E+00    0.3935482434E-01    0.2803423631E-02    0.1991481716E+00    0.6229541772E+00
    0.3900000000E+06    0.4807319595E+00    0.3847787991E-01    0.2733687626E-02    0.1991700612E+00    0.6243958722E+00
    0.4100000000E+06    0.4807378903E+00    0.3766040305E-01    0.2668866005E-02    0.1991904524E+00    0.6257387806E+00
    0.4300000000E+06    0.4807426864E+00    0.3689584064E-01    0.2608404385E-02    0.1992095251E+00    0.6269938732E+00
    0.4500000000E+06    0.4807465257E+00    0.3617861743E-01    0.2551832515E-02    0.1992274297E+00    0.6281704735E+00
    0.4700000000E+06    0.4807495534E+00    0.3550395500E-01    0.2498748493E-02    0.1992442929E+00    0.6292765637E+00
    0.4900000000E+06    0.4807518890E+00    0.3486773023E-01    0.2448806469E-02    0.1992602228E+00    0.6303190251E+00
    0.1000000000E+06    0.4799556715E+00    0.6702613898E-01    0.5097636185E-02    0.1983643196E+00    0.5768525374E+00
    0.3000000000E+06    0.4806838373E+00    0.4301940034E-01    0.3097002901E-02    0.1990561530E+00    0.6169172728E+00
    0.5000000000E+06    0.4807528290E+00    0.3456289466E-01    0.2424918526E-02    0.1992678673E+00    0.6308182915E+00
    0.7000000000E+06    0.4807522899E+00    0.2982005505E-01    0.2056798179E-02    0.1993885923E+00    0.6385687065E+00
    0.9000000000E+06    0.4807355797E+00    0.2666636807E-01    0.1815940545E-02    0.1994721304E+00    0.6437040066E+00
    0.1100000000E+07    0.4807145777E+00    0.2436884049E-01    0.1642615369E-02    0.1995357235E+00    0.6474359496E+00
    0.1300000000E+07    0.4806928843E+00    0.2259607643E-01    0.1510201992E-02    0.1995869558E+00    0.6503101308E+00
    0.1500000000E+07    0.4806717395E+00    0.2117295783E-01    0.1404789203E-02    0.1996298043E+00    0.6526140065E+00
    0.1700000000E+07    0.4806515699E+00    0.1999689867E-01    0.1318301877E-02    0.1996666041E+00    0.6545155898E+00
    0.1900000000E+07    0.4806324908E+00    0.1900320690E-01    0.1245687174E-02    0.1996988393E+00    0.6561206382E+00
    0.2100000000E+07    0.4806144921E+00    0.1814875908E-01    0.1183599602E-02    0.1997275101E+00    0.6574995421E+00
    0.2300000000E+07    0.4805975145E+00    0.1740353499E-01    0.1129724126E-02    0.1997533220E+00    0.6587012401E+00
    0.2500000000E+07    0.4805814822E+00    0.1674589443E-01    0.1082400895E-02    0.1997767908E+00    0.6597609702E+00
    0.2700000000E+07    0.4805663163E+00    0.1615978407E-01    0.1040404577E-02    0.1997983045E+00    0.6607048473E+00
    0.2900000000E+07    0.4805519417E+00    0.1563300573E-01    0.1002808249E-02    0.1998181627E+00    0.6615526974E+00
    0.3100000000E+07    0.4805382892E+00    0.1515609949E-01    0.9688960200E-03    0.1998366011E+00    0.6623198838E+00
    0.3300000000E+07    0.4805252961E+00    0.1472159902E-01    0.9381050206E-03    0.1998538086E+00    0.6630185235E+00
    0.3500000000E+07    0.4805129064E+00    0.1432352082E-01    0.9099857709E-03    0.1998699388E+00    0.6636583207E+00
    0.3700000000E+07    0.4805010697E+00    0.1395700493E-01    0.8841744100E-03    0.1998851183E+00    0.6642471527E+00
    0.3900000000E+07    0.4804897414E+00    0.1361805688E-01    0.8603728111E-03    0.1998994528E+00    0.6647914905E+00
    0.4100000000E+07    0.4804788814E+00    0.1330335862E-01    0.8383340651E-03    0.1999130312E+00    0.6652967063E+00
    0.4300000000E+07    0.4804684540E+00    0.1301012768E-01    0.8178516993E-03    0.1999259291E+00    0.6657673031E+00
    0.4500000000E+07    0.4804584272E+00    0.1273601070E-01    0.7987515451E-03    0.1999382113E+00    0.6662070880E+00
    0.4700000000E+07    0.4804487722E+00    0.1247900170E-01    0.7808855205E-03    0.1999499340E+00    0.6666193044E+00
    0.4900000000E+07    0.4804394630E+00    0.1223737867E-01    0.7641268141E-03    0.1999611457E+00    0.6670067356E+00
    0.1000000000E+07    0.4807253026E+00    0.2543654547E-01    0.1722928848E-02    0.1995058237E+00    0.6457026173E+00
    0.3000000000E+07    0.4805450292E+00    0.1538882508E-01    0.9854298533E-03    0.1998275466E+00    0.6619455514E+00
    0.5000000000E+07    0.4804349308E+00    0.1212186395E-01    0.7561279475E-03    0.1999665735E+00    0.6671919210E+00
    0.7000000000E+07    0.4803578236E+00    0.1034553036E-01    0.6342481252E-03    0.2000563356E+00    0.6700365201E+00
    0.9000000000E+07    0.4802985877E+00    0.9185674718E-02    0.5558977366E-03    0.2001227412E+00    0.6718906272E+00
    0.1100000000E+08    0.4802505110E+00    0.8351117629E-02    0.5001905655E-03    0.2001754682E+00    0.6732230257E+00
    0.1300000000E+08    0.4802100581E+00    0.7713067551E-02    0.4580107292E-03    0.2002192011E+00    0.6742406869E+00
    0.1500000000E+08    0.4801751426E+00    0.7204521339E-02    0.4246650083E-03    0.2002565665E+00    0.6750511421E+00
    0.1700000000E+08    0.4801444308E+00    0.6786692880E-02    0.3974599742E-03    0.2002891858E+00    0.6757165724E+00
    0.1900000000E+08    0.4801170192E+00    0.6435354963E-02    0.3747255586E-03    0.2003181304E+00    0.6762757844E+00
    0.2100000000E+08    0.4800922671E+00    0.6134484147E-02    0.3553642904E-03    0.2003441456E+00    0.6767544252E+00
    0.2300000000E+08    0.4800697040E+00    0.5872999472E-02    0.3386215406E-03    0.2003677704E+00    0.6771702198E+00
    0.2500000000E+08    0.4800489739E+00    0.5642958550E-02    0.3239591957E-03    0.2003894077E+00    0.6775358655E+00
    0.2700000000E+08    0.4800298014E+00    0.5438498698E-02    0.3109818992E-03    0.2004093663E+00    0.6778607304E+00
