  Pressure (Pa) 22mC5-400 (mol/kg) 2mC6-400 (mol/kg) 33mC5-400 (mol/kg) 23mC5-400 (mol/kg) C7-400 (mol/kg)
    0.1000000000E+01    0.1586745898E-02    0.3969342335E-02    0.2585475258E-03    0.5572307606E-03    0.3423201362E-02
    0.3000000000E+01    0.4692578955E-02    0.1162228176E-01    0.7570452168E-03    0.1647947575E-02    0.1006739841E-01
    0.5000000000E+01    0.7712160596E-02    0.1891469009E-01    0.1232077571E-02    0.2708394434E-02    0.1645594057E-01
    0.7000000000E+01    0.1064994691E-01    0.2586935086E-01    0.1685126706E-02    0.3740134998E-02    0.2260436408E-01
    0.9000000000E+01    0.1351008230E-01    0.3250720558E-01    0.2117554904E-02    0.4744623564E-02    0.2852695172E-01
    0.1100000000E+02    0.1629642645E-01    0.3884753477E-01    0.2530616387E-02    0.5723214529E-02    0.3423685732E-01
    0.1300000000E+02    0.1901257852E-01    0.4490811814E-01    0.2925467746E-02    0.6677170878E-02    0.3974621582E-01
    0.1500000000E+02    0.2166189894E-01    0.5070537664E-01    0.3303177177E-02    0.7607671827E-02    0.4506624054E-01
    0.1700000000E+02    0.2424752899E-01    0.5625449873E-01    0.3664732704E-02    0.8515819705E-02    0.5020730962E-01
    0.1900000000E+02    0.2677240856E-01    0.6156955291E-01    0.4011049491E-02    0.9402646171E-02    0.5517904273E-01
    0.2100000000E+02    0.2923929217E-01    0.6666358813E-01    0.4342976387E-02    0.1026911783E-01    0.5999036962E-01
    0.2300000000E+02    0.3165076342E-01    0.7154872372E-01    0.4661301766E-02    0.1111614134E-01    0.6464959123E-01
    0.2500000000E+02    0.3400924823E-01    0.7623622992E-01    0.4966758773E-02    0.1194456800E-01    0.6916443443E-01
    0.2700000000E+02    0.3631702676E-01    0.8073660028E-01    0.5260030029E-02    0.1275519798E-01    0.7354210117E-01
    0.2900000000E+02    0.3857624431E-01    0.8505961679E-01    0.5541751872E-02    0.1354878413E-01    0.7778931260E-01
    0.3100000000E+02    0.4078892123E-01    0.8921440855E-01    0.5812518175E-02    0.1432603546E-01    0.8191234880E-01
    0.3300000000E+02    0.4295696202E-01    0.9320950487E-01    0.6072883795E-02    0.1508762030E-01    0.8591708465E-01
    0.3500000000E+02    0.4508216355E-01    0.9705288317E-01    0.6323367692E-02    0.1583416924E-01    0.8980902225E-01
    0.3700000000E+02    0.4716622268E-01    0.1007520125E+00    0.6564455760E-02    0.1656627776E-01    0.9359332021E-01
    0.3900000000E+02    0.4921074316E-01    0.1043138928E+00    0.6796603386E-02    0.1728450869E-01    0.9727482028E-01
    0.4100000000E+02    0.5121724204E-01    0.1077450911E+00    0.7020237789E-02    0.1798939443E-01    0.1008580715E+00
    0.4300000000E+02    0.5318715553E-01    0.1110517738E+00    0.7235760134E-02    0.1868143898E-01    0.1043473521E+00
    0.4500000000E+02    0.5512184431E-01    0.1142397365E+00    0.7443547474E-02    0.1936111987E-01    0.1077466898E+00
    0.4700000000E+02    0.5702259858E-01    0.1173144311E+00    0.7643954507E-02    0.2002888990E-01    0.1110598795E+00
    0.4900000000E+02    0.5889064256E-01    0.1202809908E+00    0.7837315198E-02    0.2068517869E-01    0.1142905005E+00
    0.1000000000E+02    0.1491224749E-01    0.3571341620E-01    0.2326432023E-02    0.5237075261E-02    0.3140770866E-01
    0.3000000000E+02    0.3968827870E-01    0.8715749421E-01    0.5678468911E-02    0.1393940896E-01    0.7986597632E-01
    0.5000000000E+02    0.5981276377E-01    0.1217252427E+00    0.7931452224E-02    0.2100914592E-01    0.1158759110E+00
    0.7000000000E+02    0.7679144513E-01    0.1459710945E+00    0.9511789523E-02    0.2697470858E-01    0.1439772400E+00
    0.9000000000E+02    0.9152043371E-01    0.1634996633E+00    0.1065402665E-01    0.3215059178E-01    0.1667112368E+00
    0.1100000000E+03    0.1045688336E+00    0.1764469198E+00    0.1149718670E-01    0.3673653393E-01    0.1856167404E+00
    0.1300000000E+03    0.1163170080E+00    0.1861531855E+00    0.1212853953E-01    0.4086603590E-01    0.2016831709E+00
    0.1500000000E+03    0.1270298797E+00    0.1934985816E+00    0.1260541772E-01    0.4463208386E-01    0.2155775370E+00
    0.1700000000E+03    0.1368983611E+00    0.1990827580E+00    0.1296690551E-01    0.4810168852E-01    0.2277670827E+00
    0.1900000000E+03    0.1460640273E+00    0.2033269504E+00    0.1324047642E-01    0.5132454432E-01    0.2385896664E+00
    0.2100000000E+03    0.1546344664E+00    0.2065347721E+00    0.1344594743E-01    0.5433841652E-01    0.2482961961E+00
    0.2300000000E+03    0.1626931865E+00    0.2089299073E+00    0.1359793100E-01    0.5717261841E-01    0.2570772948E+00
    0.2500000000E+03    0.1703062167E+00    0.2106802949E+00    0.1370740842E-01    0.5985032797E-01    0.2650806570E+00
    0.2700000000E+03    0.1775266262E+00    0.2119141078E+00    0.1378276960E-01    0.6239017420E-01    0.2724226912E+00
    0.2900000000E+03    0.1843976946E+00    0.2127305853E+00    0.1383051807E-01    0.6480734977E-01    0.2791965382E+00
    0.3100000000E+03    0.1909551830E+00    0.2132075447E+00    0.1385575996E-01    0.6711440808E-01    0.2854777219E+00
    0.3300000000E+03    0.1972289913E+00    0.2134066941E+00    0.1386254997E-01    0.6932184517E-01    0.2913282143E+00
    0.3500000000E+03    0.2032443893E+00    0.2133774591E+00    0.1385414051E-01    0.7143853178E-01    0.2967994123E+00
    0.3700000000E+03    0.2090229444E+00    0.2131597819E+00    0.1383316418E-01    0.7347203897E-01    0.3019343551E+00
    0.3900000000E+03    0.2145832306E+00    0.2127862005E+00    0.1380176918E-01    0.7542888698E-01    0.3067693991E+00
    0.4100000000E+03    0.2199413770E+00    0.2122834114E+00    0.1376172127E-01    0.7731473784E-01    0.3113355006E+00
    0.4300000000E+03    0.2251114972E+00    0.2116734606E+00    0.1371448141E-01    0.7913454604E-01    0.3156592101E+00
    0.4500000000E+03    0.2301060287E+00    0.2109746588E+00    0.1366126551E-01    0.8089267776E-01    0.3197634519E+00
    0.4700000000E+03    0.2349360044E+00    0.2102022943E+00    0.1360309094E-01    0.8259300601E-01    0.3236681412E+00
    0.4900000000E+03    0.2396112707E+00    0.2093691910E+00    0.1354081302E-01    0.8423898736E-01    0.3273906772E+00
    0.1000000000E+03    0.9822757866E-01    0.1704485097E+00    0.1110664735E-01    0.3450778393E-01    0.1765711918E+00
    0.3000000000E+03    0.1877136464E+00    0.2130073212E+00    0.1384567758E-01    0.6597394503E-01    0.2823945613E+00
    0.5000000000E+03    0.2418936848E+00    0.2089333068E+00    0.1350836554E-01    0.8504257982E-01    0.3291884867E+00
    0.7000000000E+03    0.2811679509E+00    0.1989054269E+00    0.1277018770E-01    0.9887494170E-01    0.3584715329E+00
    0.9000000000E+03    0.3113754850E+00    0.1886613530E+00    0.1201745775E-01    0.1095209116E+00    0.3795405581E+00
    0.1100000000E+04    0.3353214866E+00    0.1793624660E+00    0.1133145497E-01    0.1179654605E+00    0.3958806393E+00
    0.1300000000E+04    0.3546873146E+00    0.1711738407E+00    0.1072512282E-01    0.1247991029E+00    0.4091593651E+00
    0.1500000000E+04    0.3705926888E+00    0.1640085121E+00    0.1019330204E-01    0.1304152119E+00    0.4202997696E+00
    0.1700000000E+04    0.3838259269E+00    0.1577251024E+00    0.9726494490E-02    0.1350908161E+00    0.4298649537E+00
    0.1900000000E+04    0.3949608803E+00    0.1521851083E+00    0.9315049406E-02    0.1390276345E+00    0.4382232123E+00
    0.2100000000E+04    0.4044249697E+00    0.1472682366E+00    0.8950391462E-02    0.1423759549E+00    0.4456283666E+00
    0.2300000000E+04    0.4125422011E+00    0.1428744016E+00    0.8625262678E-02    0.1452497331E+00    0.4522626194E+00
    0.2500000000E+04    0.4195617982E+00    0.1389216515E+00    0.8333638174E-02    0.1477366463E+00    0.4582610998E+00
    0.2700000000E+04    0.4256779180E+00    0.1353431751E+00    0.8070550549E-02    0.1499050163E+00    0.4637267382E+00
    0.2900000000E+04    0.4310435550E+00    0.1320844360E+00    0.7831906939E-02    0.1518086936E+00    0.4687397035E+00
    0.3100000000E+04    0.4357805314E+00    0.1291007347E+00    0.7614326441E-02    0.1534905676E+00    0.4733636246E+00
    0.3300000000E+04    0.4399867852E+00    0.1263552300E+00    0.7415004384E-02    0.1549851269E+00    0.4776498257E+00
    0.3500000000E+04    0.4437417577E+00    0.1238173672E+00    0.7231602141E-02    0.1563203535E+00    0.4816402897E+00
    0.3700000000E+04    0.4471104236E+00    0.1214616393E+00    0.7062158823E-02    0.1575191391E+00    0.4853697823E+00
    0.3900000000E+04    0.4501463384E+00    0.1192666135E+00    0.6905020856E-02    0.1586003570E+00    0.4888674059E+00
    0.4100000000E+04    0.4528939661E+00    0.1172141637E+00    0.6758785857E-02    0.1595796801E+00    0.4921577579E+00
    0.4300000000E+04    0.4553904737E+00    0.1152888650E+00    0.6622257822E-02    0.1604702125E+00    0.4952618079E+00
    0.4500000000E+04    0.4576671270E+00    0.1134775118E+00    0.6494411217E-02    0.1612829803E+00    0.4981975722E+00
    0.4700000000E+04    0.4597503851E+00    0.1117687340E+00    0.6374362087E-02    0.1620273168E+00    0.5009806388E+00
    0.4900000000E+04    0.4616627655E+00    0.1101526885E+00    0.6261344696E-02    0.1627111666E+00    0.5036245809E+00
    0.1000000000E+04    0.3240089124E+00    0.1838733476E+00    0.1166459448E-01    0.1139754265E+00    0.3881728788E+00
    0.3000000000E+04    0.4334840157E+00    0.1305606722E+00    0.7720671190E-02    0.1526750285E+00    0.4710968381E+00
    0.5000000000E+04    0.4625610080E+00    0.1093767195E+00    0.6207261190E-02    0.1630325729E+00    0.5048981535E+00
    0.7000000000E+04    0.4750230155E+00    0.9713390893E-01    0.5371017388E-02    0.1675097041E+00    0.5253058487E+00
    0.9000000000E+04    0.4817586575E+00    0.8875851705E-01    0.4818879729E-02    0.1699517204E+00    0.5395337517E+00
    0.1100000000E+05    0.4859233939E+00    0.8249495990E-01    0.4417028890E-02    0.1714760543E+00    0.5502566963E+00
    0.1300000000E+05    0.4887330178E+00    0.7754830977E-01    0.4106337866E-02    0.1725144791E+00    0.5587476120E+00
    0.1500000000E+05    0.4907473266E+00    0.7349533667E-01    0.3856087507E-02    0.1732663852E+00    0.5657060668E+00
    0.1700000000E+05    0.4922575455E+00    0.7008529611E-01    0.3648478652E-02    0.1738358164E+00    0.5715549577E+00
    0.1900000000E+05    0.4934292765E+00    0.6715798706E-01    0.3472360890E-02    0.1742821194E+00    0.5765679828E+00
    0.2100000000E+05    0.4943632866E+00    0.6460515212E-01    0.3320328172E-02    0.1746415204E+00    0.5809316362E+00
    0.2300000000E+05    0.4951242473E+00    0.6235039668E-01    0.3187232882E-02    0.1749373435E+00    0.5847782202E+00
    0.2500000000E+05    0.4957554892E+00    0.6033791967E-01    0.3069365031E-02    0.1751852671E+00    0.5882046908E+00
    0.2700000000E+05    0.4962870918E+00    0.5852580003E-01    0.2963970385E-02    0.1753962108E+00    0.5912840276E+00
    0.2900000000E+05    0.4967405660E+00    0.5688179936E-01    0.2868953244E-02    0.1755780095E+00    0.5940724093E+00
    0.3100000000E+05    0.4971316883E+00    0.5538063089E-01    0.2782685431E-02    0.1757364288E+00    0.5966139154E+00
    0.3300000000E+05    0.4974722843E+00    0.5400212197E-01    0.2703879237E-02    0.1758758049E+00    0.5989437062E+00
    0.3500000000E+05    0.4977713869E+00    0.5272994209E-01    0.2631500375E-02    0.1759994612E+00    0.6010902319E+00
    0.3700000000E+05    0.4980360116E+00    0.5155070026E-01    0.2564706812E-02    0.1761099876E+00    0.6030768060E+00
    0.3900000000E+05    0.4982716871E+00    0.5045329079E-01    0.2502804812E-02    0.1762094325E+00    0.6049227467E+00
    0.4100000000E+05    0.4984828285E+00    0.4942840993E-01    0.2445216737E-02    0.1762994367E+00    0.6066442221E+00
    0.4300000000E+05    0.4986730022E+00    0.4846819279E-01    0.2391457037E-02    0.1763813307E+00    0.6082548858E+00
    0.4500000000E+05    0.4988451205E+00    0.4756593654E-01    0.2341114071E-02    0.1764562045E+00    0.6097663612E+00
    0.4700000000E+05    0.4990015837E+00    0.4671588640E-01    0.2293836158E-02    0.1765249595E+00    0.6111886167E+00
    0.4900000000E+05    0.4991443879E+00    0.4591306832E-01    0.2249320722E-02    0.1765883482E+00    0.6125302583E+00
    0.1000000000E+05    0.4840633340E+00    0.8542493938E-01    0.4603825722E-02    0.1707934460E+00    0.5452348242E+00
    0.3000000000E+05    0.4969431053E+00    0.5611472467E-01    0.2824812960E-02    0.1756598428E+00    0.5953716449E+00
    0.5000000000E+05    0.4992112015E+00    0.4552799724E-01    0.2228015667E-02    0.1766182318E+00    0.6131732238E+00
    0.7000000000E+05    0.5001229858E+00    0.3950129340E-01    0.1898540997E-02    0.1770455335E+00    0.6231884829E+00
    0.9000000000E+05    0.5006052012E+00    0.3545595597E-01    0.1681633916E-02    0.1772950610E+00    0.6298594470E+00
    0.1100000000E+06    0.5008989215E+00    0.3248927177E-01    0.1524802373E-02    0.1774623303E+00    0.6347247078E+00
    0.1300000000E+06    0.5010939899E+00    0.3018878909E-01    0.1404539778E-02    0.1775842692E+00    0.6384815727E+00
    0.1500000000E+06    0.5012313212E+00    0.2833481195E-01    0.1308507983E-02    0.1776783059E+00    0.6414991376E+00
    0.1700000000E+06    0.5013321358E+00    0.2679782727E-01    0.1229517294E-02    0.1777538010E+00    0.6439938922E+00
    0.1900000000E+06    0.5014084982E+00    0.2549574251E-01    0.1163053788E-02    0.1778162622E+00    0.6461024897E+00
    0.2100000000E+06    0.5014677536E+00    0.2437360043E-01    0.1106120014E-02    0.1778691581E+00    0.6479160924E+00
    0.2300000000E+06    0.5015146188E+00    0.2339300320E-01    0.1056636414E-02    0.1779147917E+00    0.6494982028E+00
    0.2500000000E+06    0.5015522539E+00    0.2252618429E-01    0.1013108548E-02    0.1779547576E+00    0.6508946210E+00
    0.2700000000E+06    0.5015828513E+00    0.2175248893E-01    0.9744309315E-03    0.1779901986E+00    0.6521393379E+00
    0.2900000000E+06    0.5016079765E+00    0.2105618414E-01    0.9397657559E-03    0.1780219576E+00    0.6532581916E+00
    0.3100000000E+06    0.5016287757E+00    0.2042504213E-01    0.9084648700E-03    0.1780506715E+00    0.6542712264E+00
    0.3300000000E+06    0.5016461055E+00    0.1984939311E-01    0.8800178888E-03    0.1780768316E+00    0.6551942673E+00
    0.3500000000E+06    0.5016606179E+00    0.1932147391E-01    0.8540166723E-03    0.1781008239E+00    0.6560399996E+00
    0.3700000000E+06    0.5016728173E+00    0.1883496889E-01    0.8301303989E-03    0.1781229563E+00    0.6568187288E+00
    0.3900000000E+06    0.5016830996E+00    0.1838467942E-01    0.8080876898E-03    0.1781434780E+00    0.6575389270E+00
    0.4100000000E+06    0.5016917791E+00    0.1796628128E-01    0.7876635400E-03    0.1781625929E+00    0.6582076330E+00
    0.4300000000E+06    0.5016991084E+00    0.1757614370E-01    0.7686695996E-03    0.1781804700E+00    0.6588307502E+00
    0.4500000000E+06    0.5017052924E+00    0.1721119220E-01    0.7509468350E-03    0.1781972508E+00    0.6594132725E+00
    0.4700000000E+06    0.5017104990E+00    0.1686880326E-01    0.7343599100E-03    0.1782130542E+00    0.6599594571E+00
    0.4900000000E+06    0.5017148667E+00    0.1654672247E-01    0.7187928301E-03    0.1782279820E+00    0.6604729590E+00
    0.1000000000E+06    0.5007682735E+00    0.3387001395E-01    0.1597554015E-02    0.1773859850E+00    0.6324631931E+00
    0.3000000000E+06    0.5016188577E+00    0.2073312333E-01    0.9237294256E-03    0.1780366616E+00    0.6537768629E+00
    0.5000000000E+06    0.5017167729E+00    0.1639267792E-01    0.7113599167E-03    0.1782351451E+00    0.6607184579E+00
    0.7000000000E+06    0.5017307295E+00    0.1401859492E-01    0.5978769505E-03    0.1783482377E+00    0.6644939230E+00
    0.9000000000E+06    0.5017232434E+00    0.1246313900E-01    0.5246964536E-03    0.1784264626E+00    0.6669592465E+00
    0.1100000000E+07    0.5017088542E+00    0.1134135966E-01    0.4725544864E-03    0.1784859947E+00    0.6687330878E+00
    0.1300000000E+07    0.5016922512E+00    0.1048227156E-01    0.4330121551E-03    0.1785339456E+00    0.6700891759E+00
    0.1500000000E+07    0.5016752136E+00    0.9796657207E-02    0.4017133548E-03    0.1785740430E+00    0.6711699424E+00
    0.1700000000E+07    0.5016584701E+00    0.9232755745E-02    0.3761531076E-03    0.1786084754E+00    0.6720578447E+00
    0.1900000000E+07    0.5016423202E+00    0.8758178143E-02    0.3547757054E-03    0.1786386331E+00    0.6728043918E+00
    0.2100000000E+07    0.5016268741E+00    0.8351471776E-02    0.3365574787E-03    0.1786654535E+00    0.6734436517E+00
    0.2300000000E+07    0.5016121546E+00    0.7997783061E-02    0.3207937620E-03    0.1786895972E+00    0.6739991841E+00
    0.2500000000E+07    0.5015981441E+00    0.7686454448E-02    0.3069815893E-03    0.1787115473E+00    0.6744878757E+00
    0.2700000000E+07    0.5015848070E+00    0.7409611935E-02    0.2947511200E-03    0.1787316674E+00    0.6749221913E+00
    0.2900000000E+07    0.5015721006E+00    0.7161293857E-02    0.2838235510E-03    0.1787502380E+00    0.6753115607E+00
    0.3100000000E+07    0.5015599806E+00    0.6936891613E-02    0.2739842196E-03    0.1787674797E+00    0.6756632681E+00
    0.3300000000E+07    0.5015484043E+00    0.6732778300E-02    0.2650648175E-03    0.1787835695E+00    0.6759830426E+00
    0.3500000000E+07    0.5015373311E+00    0.6546054884E-02    0.2569312803E-03    0.1787986511E+00    0.6762754604E+00
    0.3700000000E+07    0.5015267237E+00    0.6374372302E-02    0.2494753301E-03    0.1788128432E+00    0.6765442279E+00
    0.3900000000E+07    0.5015165480E+00    0.6215804029E-02    0.2426084373E-03    0.1788262445E+00    0.6767923828E+00
    0.4100000000E+07    0.5015067726E+00    0.6068752990E-02    0.2362574240E-03    0.1788389383E+00    0.6770224427E+00
    0.4300000000E+07    0.5014973692E+00    0.5931882400E-02    0.2303612063E-03    0.1788509955E+00    0.6772365135E+00
    0.4500000000E+07    0.5014883120E+00    0.5804063572E-02    0.2248683435E-03    0.1788624767E+00    0.6774363729E+00
    0.4700000000E+07    0.5014795777E+00    0.5684335980E-02    0.2197351677E-03    0.1788734344E+00    0.6776235329E+00
    0.4900000000E+07    0.5014711449E+00    0.5571876317E-02    0.2149243376E-03    0.1788839142E+00    0.6777992892E+00
    0.1000000000E+07    0.5017165121E+00    0.1186148719E-01    0.4966614893E-03    0.1784580061E+00    0.6679110561E+00
    0.3000000000E+07    0.5015659700E+00    0.7046349521E-02    0.2787792977E-03    0.1787590130E+00    0.6754917331E+00
    0.5000000000E+07    0.5014670354E+00    0.5518146119E-02    0.2126295800E-03    0.1788889875E+00    0.6778832463E+00
    0.7000000000E+07    0.5013967936E+00    0.4694691158E-02    0.1777788636E-03    0.1789728743E+00    0.6791687476E+00
    0.9000000000E+07    0.5013425040E+00    0.4159820195E-02    0.1554893448E-03    0.1790349185E+00    0.6800024873E+00
    0.1100000000E+08    0.5012982883E+00    0.3776320960E-02    0.1396962025E-03    0.1790841737E+00    0.6805996366E+00
    0.1300000000E+08    0.5012609992E+00    0.3483884531E-02    0.1277685129E-03    0.1791250212E+00    0.6810546183E+00
    0.1500000000E+08    0.5012287623E+00    0.3251274928E-02    0.1183575903E-03    0.1791599172E+00    0.6814162805E+00
    0.1700000000E+08    0.5012003721E+00    0.3060471676E-02    0.1106919538E-03    0.1791903777E+00    0.6817127784E+00
    0.1900000000E+08    0.5011750086E+00    0.2900248817E-02    0.1042944872E-03    0.1792174043E+00    0.6819616385E+00
    0.2100000000E+08    0.5011520884E+00    0.2763198127E-02    0.9885232764E-04    0.1792416937E+00    0.6821744199E+00
    0.2300000000E+08    0.5011311819E+00    0.2644206014E-02    0.9415073524E-04    0.1792637497E+00    0.6823590967E+00
    0.2500000000E+08    0.5011119638E+00    0.2539613118E-02    0.9003681872E-04    0.1792839489E+00    0.6825213730E+00
    0.2700000000E+08    0.5010941816E+00    0.2446722036E-02    0.8639839852E-04    0.1793025799E+00    0.6826654514E+00
