  Pressure (Pa) 22mC5-400 (mol/kg) 2mC6-400 (mol/kg) 33mC5-400 (mol/kg) 23mC5-400 (mol/kg) C7-400 (mol/kg)
    0.1000000000E+01    0.1584646192E-02    0.5556303648E-02    0.3231316040E-03    0.3709957767E-03    0.1712466596E-02
    0.3000000000E+01    0.4674460884E-02    0.1626499532E-01    0.9458784237E-03    0.1094391476E-02    0.5041252273E-02
    0.5000000000E+01    0.7663865615E-02    0.2646533712E-01    0.1539028091E-02    0.1794293518E-02    0.8248318579E-02
    0.7000000000E+01    0.1055903592E-01    0.3619082488E-01    0.2104530243E-02    0.2472146658E-02    0.1134088812E-01
    0.9000000000E+01    0.1336563327E-01    0.4547211061E-01    0.2644169017E-02    0.3129275401E-02    0.1432561128E-01
    0.1100000000E+02    0.1608885803E-01    0.5433729640E-01    0.3159580149E-02    0.3766896383E-02    0.1720862218E-01
    0.1300000000E+02    0.1873349593E-01    0.6281219264E-01    0.3652266000E-02    0.4386129242E-02    0.1999558825E-01
    0.1500000000E+02    0.2130395903E-01    0.7092054567E-01    0.4123608809E-02    0.4988006205E-02    0.2269175411E-01
    0.1700000000E+02    0.2380432190E-01    0.7868423889E-01    0.4574882388E-02    0.5573480543E-02    0.2530198061E-01
    0.1900000000E+02    0.2623835363E-01    0.8612347087E-01    0.5007262491E-02    0.6143434073E-02    0.2783077962E-01
    0.2100000000E+02    0.2860954632E-01    0.9325691346E-01    0.5421836016E-02    0.6698683801E-02    0.3028234504E-01
    0.2300000000E+02    0.3092114032E-01    0.1001018525E+00    0.5819609193E-02    0.7239987849E-02    0.3266058055E-01
    0.2500000000E+02    0.3317614683E-01    0.1066743135E+00    0.6201514888E-02    0.7768050728E-02    0.3496912458E-01
    0.2700000000E+02    0.3537736807E-01    0.1129891732E+00    0.6568419125E-02    0.8283528057E-02    0.3721137261E-01
    0.2900000000E+02    0.3752741533E-01    0.1190602608E+00    0.6921126938E-02    0.8787030790E-02    0.3939049733E-01
    0.3100000000E+02    0.3962872519E-01    0.1249004475E+00    0.7260387606E-02    0.9279129009E-02    0.4150946679E-01
    0.3300000000E+02    0.4168357409E-01    0.1305217277E+00    0.7586899372E-02    0.9760355329E-02    0.4357106081E-01
    0.3500000000E+02    0.4369409146E-01    0.1359352916E+00    0.7901313685E-02    0.1023120798E-01    0.4557788578E-01
    0.3700000000E+02    0.4566227160E-01    0.1411515918E+00    0.8204239033E-02    0.1069215356E-01    0.4753238817E-01
    0.3900000000E+02    0.4758998435E-01    0.1461804017E+00    0.8496244404E-02    0.1114362957E-01    0.4943686669E-01
    0.4100000000E+02    0.4947898485E-01    0.1510308704E+00    0.8777862415E-02    0.1158604667E-01    0.5129348342E-01
    0.4300000000E+02    0.5133092231E-01    0.1557115707E+00    0.9049592156E-02    0.1201979073E-01    0.5310427393E-01
    0.4500000000E+02    0.5314734802E-01    0.1602305438E+00    0.9311901770E-02    0.1244522473E-01    0.5487115648E-01
    0.4700000000E+02    0.5492972263E-01    0.1645953396E+00    0.9565230796E-02    0.1286269041E-01    0.5659594045E-01
    0.4900000000E+02    0.5667942280E-01    0.1688130531E+00    0.9809992311E-02    0.1327250989E-01    0.5828033406E-01
    0.1000000000E+02    0.1473735890E-01    0.4995505195E-01    0.2904806178E-02    0.3450452230E-02    0.1577946615E-01
    0.3000000000E+02    0.3858401657E-01    0.1220084475E+00    0.7092393381E-02    0.9034471335E-02    0.4045732350E-01
    0.5000000000E+02    0.5754242871E-01    0.1708688553E+00    0.9929282583E-02    0.1347464794E-01    0.5910789239E-01
    0.7000000000E+02    0.7336665858E-01    0.2056901575E+00    0.1194837939E-01    0.1718138659E-01    0.7388705439E-01
    0.9000000000E+02    0.8703195715E-01    0.2314134574E+00    0.1343736725E-01    0.2038288262E-01    0.8601397518E-01
    0.1100000000E+03    0.9912794884E-01    0.2509316947E+00    0.1456469890E-01    0.2321710644E-01    0.9623325212E-01
    0.1300000000E+03    0.1100344537E+00    0.2660465512E+00    0.1543529720E-01    0.2577293832E-01    0.1050272014E+00
    0.1500000000E+03    0.1200086194E+00    0.2779359586E+00    0.1611777014E-01    0.2811055456E-01    0.1127231178E+00
    0.1700000000E+03    0.1292316637E+00    0.2874008775E+00    0.1665877710E-01    0.3027236389E-01    0.1195516366E+00
    0.1900000000E+03    0.1378355826E+00    0.2950038667E+00    0.1709109611E-01    0.3228925696E-01    0.1256804326E+00
    0.2100000000E+03    0.1459192204E+00    0.3011509265E+00    0.1743838870E-01    0.3418436647E-01    0.1312346521E+00
    0.2300000000E+03    0.1535583617E+00    0.3061419247E+00    0.1771813577E-01    0.3597542874E-01    0.1363098168E+00
    0.2500000000E+03    0.1608123047E+00    0.3102027947E+00    0.1794351236E-01    0.3767632191E-01    0.1409802607E+00
    0.2700000000E+03    0.1677282778E+00    0.3135067392E+00    0.1812462211E-01    0.3929809939E-01    0.1453048139E+00
    0.2900000000E+03    0.1743444882E+00    0.3161885700E+00    0.1826933232E-01    0.4084970331E-01    0.1493307327E+00
    0.3100000000E+03    0.1806922767E+00    0.3183546362E+00    0.1838385205E-01    0.4233846883E-01    0.1530964785E+00
    0.3300000000E+03    0.1867976726E+00    0.3200898419E+00    0.1847314076E-01    0.4377048804E-01    0.1566337248E+00
    0.3500000000E+03    0.1926825377E+00    0.3214626994E+00    0.1854120258E-01    0.4515087760E-01    0.1599688308E+00
    0.3700000000E+03    0.1983654204E+00    0.3225290274E+00    0.1859130171E-01    0.4648397869E-01    0.1631239430E+00
    0.3900000000E+03    0.2038622045E+00    0.3233346996E+00    0.1862612249E-01    0.4777350884E-01    0.1661178293E+00
    0.4100000000E+03    0.2091866077E+00    0.3239177142E+00    0.1864788994E-01    0.4902267864E-01    0.1689665203E+00
    0.4300000000E+03    0.2143505701E+00    0.3243097724E+00    0.1865846173E-01    0.5023428258E-01    0.1716838064E+00
    0.4500000000E+03    0.2193645597E+00    0.3245374950E+00    0.1865939903E-01    0.5141077062E-01    0.1742816302E+00
    0.4700000000E+03    0.2242378155E+00    0.3246233707E+00    0.1865202179E-01    0.5255430509E-01    0.1767703965E+00
    0.4900000000E+03    0.2289785429E+00    0.3245865016E+00    0.1863745216E-01    0.5366680637E-01    0.1791592213E+00
    0.1000000000E+03    0.9324875226E-01    0.2418169920E+00    0.1403859886E-01    0.2183950026E-01    0.9132735981E-01
    0.3000000000E+03    0.1775501989E+00    0.3173303316E+00    0.1833003065E-01    0.4160153450E-01    0.1512440079E+00
    0.5000000000E+03    0.2313015294E+00    0.3245272293E+00    0.1862777543E-01    0.5421196278E-01    0.1803187024E+00
    0.7000000000E+03    0.2722408874E+00    0.3198159369E+00    0.1822855144E-01    0.6382224626E-01    0.1997875999E+00
    0.9000000000E+03    0.3051471701E+00    0.3122848324E+00    0.1766830815E-01    0.7155082246E-01    0.2145753443E+00
    0.1100000000E+04    0.3322607261E+00    0.3043481123E+00    0.1709114628E-01    0.7792202633E-01    0.2265768292E+00
    0.1300000000E+04    0.3549359672E+00    0.2967630786E+00    0.1654278010E-01    0.8325289017E-01    0.2367196048E+00
    0.1500000000E+04    0.3741041641E+00    0.2897580062E+00    0.1603700423E-01    0.8776144717E-01    0.2455278954E+00
    0.1700000000E+04    0.3904500629E+00    0.2833707929E+00    0.1557589768E-01    0.9160805331E-01    0.2533278072E+00
    0.1900000000E+04    0.4044960296E+00    0.2775690189E+00    0.1515710980E-01    0.9491506929E-01    0.2603366028E+00
    0.2100000000E+04    0.4166494113E+00    0.2722967603E+00    0.1477676304E-01    0.9777793750E-01    0.2667066688E+00
    0.2300000000E+04    0.4272325284E+00    0.2674936208E+00    0.1443066475E-01    0.1002721968E+00    0.2725492450E+00
    0.2500000000E+04    0.4365031924E+00    0.2631023534E+00    0.1411480950E-01    0.1024582818E+00    0.2779481681E+00
    0.2700000000E+04    0.4446694354E+00    0.2590715809E+00    0.1382556863E-01    0.1043849691E+00    0.2829682908E+00
    0.2900000000E+04    0.4519004110E+00    0.2553563864E+00    0.1355973956E-01    0.1060919284E+00    0.2876608791E+00
    0.3100000000E+04    0.4583346200E+00    0.2519180051E+00    0.1331453321E-01    0.1076116474E+00    0.2920672070E+00
    0.3300000000E+04    0.4640862025E+00    0.2487231811E+00    0.1308753650E-01    0.1089709051E+00    0.2962210283E+00
    0.3500000000E+04    0.4692498012E+00    0.2457434412E+00    0.1287666726E-01    0.1101919107E+00    0.3001503228E+00
    0.3700000000E+04    0.4739043514E+00    0.2429543979E+00    0.1268012939E-01    0.1112931913E+00    0.3038785593E+00
    0.3900000000E+04    0.4781160561E+00    0.2403351254E+00    0.1249637178E-01    0.1122902883E+00    0.3074256294E+00
    0.4100000000E+04    0.4819407359E+00    0.2378676196E+00    0.1232405214E-01    0.1131963085E+00    0.3108085487E+00
    0.4300000000E+04    0.4854256988E+00    0.2355363393E+00    0.1216200578E-01    0.1140223622E+00    0.3140419933E+00
    0.4500000000E+04    0.4886112341E+00    0.2333278215E+00    0.1200921909E-01    0.1147779130E+00    0.3171387157E+00
    0.4700000000E+04    0.4915318141E+00    0.2312303592E+00    0.1186480709E-01    0.1154710599E+00    0.3201098712E+00
    0.4900000000E+04    0.4942170665E+00    0.2292337338E+00    0.1172799452E-01    0.1161087647E+00    0.3229652777E+00
    0.1000000000E+04    0.3193302898E+00    0.3083006657E+00    0.1737783469E-01    0.7488321679E-01    0.2208531445E+00
    0.3000000000E+04    0.4552094696E+00    0.2536047932E+00    0.1343471765E-01    0.1068734002E+00    0.2898975630E+00
    0.5000000000E+04    0.4954795761E+00    0.2282703927E+00    0.1166222180E-01    0.1164087374E+00    0.3243523294E+00
    0.7000000000E+04    0.5130387397E+00    0.2126182452E+00    0.1061742287E-01    0.1205939860E+00    0.3476854255E+00
    0.9000000000E+04    0.5225074244E+00    0.2013079675E+00    0.9892793384E-02    0.1228672591E+00    0.3653270810E+00
    0.1100000000E+05    0.5283210933E+00    0.1924384599E+00    0.9342688735E-02    0.1242738195E+00    0.3794805174E+00
    0.1300000000E+05    0.5322125578E+00    0.1851381805E+00    0.8901354356E-02    0.1252229249E+00    0.3912701656E+00
    0.1500000000E+05    0.5349817147E+00    0.1789363185E+00    0.8534051507E-02    0.1259039314E+00    0.4013506083E+00
    0.1700000000E+05    0.5370438491E+00    0.1735488860E+00    0.8220317433E-02    0.1264153833E+00    0.4101374255E+00
    0.1900000000E+05    0.5386341636E+00    0.1687907432E+00    0.7947113350E-02    0.1268132308E+00    0.4179112999E+00
    0.2100000000E+05    0.5398950890E+00    0.1645340977E+00    0.7705627264E-02    0.1271314418E+00    0.4248708367E+00
    0.2300000000E+05    0.5409175748E+00    0.1606868169E+00    0.7489626585E-02    0.1273917636E+00    0.4311617703E+00
    0.2500000000E+05    0.5417622517E+00    0.1571801684E+00    0.7294541116E-02    0.1276087322E+00    0.4368942125E+00
    0.2700000000E+05    0.5424710037E+00    0.1539614461E+00    0.7116920147E-02    0.1277924169E+00    0.4421533862E+00
    0.2900000000E+05    0.5430736444E+00    0.1509893090E+00    0.6954094488E-02    0.1279500047E+00    0.4470065936E+00
    0.3100000000E+05    0.5435919437E+00    0.1482307109E+00    0.6803957158E-02    0.1280867583E+00    0.4515079035E+00
    0.3300000000E+05    0.5440421520E+00    0.1456588077E+00    0.6664816015E-02    0.1282066174E+00    0.4557013991E+00
    0.3500000000E+05    0.5444366338E+00    0.1432514902E+00    0.6535291728E-02    0.1283125879E+00    0.4596234869E+00
    0.3700000000E+05    0.5447849571E+00    0.1409903283E+00    0.6414245318E-02    0.1284070029E+00    0.4633045752E+00
    0.3900000000E+05    0.5450946365E+00    0.1388597952E+00    0.6300725547E-02    0.1284917000E+00    0.4667703176E+00
    0.4100000000E+05    0.5453716534E+00    0.1368466878E+00    0.6193929943E-02    0.1285681461E+00    0.4700425502E+00
    0.4300000000E+05    0.5456208253E+00    0.1349396843E+00    0.6093175449E-02    0.1286375263E+00    0.4731400098E+00
    0.4500000000E+05    0.5458460746E+00    0.1331290031E+00    0.5997875965E-02    0.1287008082E+00    0.4760788901E+00
    0.4700000000E+05    0.5460506259E+00    0.1314061360E+00    0.5907524924E-02    0.1287587898E+00    0.4788732794E+00
    0.4900000000E+05    0.5462371539E+00    0.1297636368E+00    0.5821681615E-02    0.1288121350E+00    0.4815355079E+00
    0.1000000000E+05    0.5257301489E+00    0.1966360457E+00    0.9601080193E-02    0.1236455995E+00    0.3727543323E+00
    0.3000000000E+05    0.5433422141E+00    0.1495851211E+00    0.6877553893E-02    0.1280207139E+00    0.4492982772E+00
    0.5000000000E+05    0.5463243727E+00    0.1289704461E+00    0.5780327924E-02    0.1288372465E+00    0.4828205041E+00
    0.7000000000E+05    0.5475122564E+00    0.1160803931E+00    0.5117290183E-02    0.1291936114E+00    0.5036430916E+00
    0.9000000000E+05    0.5481406278E+00    0.1068894568E+00    0.4654521063E-02    0.1293993058E+00    0.5184205637E+00
    0.1100000000E+06    0.5485251954E+00    0.9984861391E-01    0.4305466512E-02    0.1295361843E+00    0.5297022705E+00
    0.1300000000E+06    0.5487825310E+00    0.9420200904E-01    0.4028915122E-02    0.1296354689E+00    0.5387261774E+00
    0.1500000000E+06    0.5489654390E+00    0.8952639972E-01    0.3802195826E-02    0.1297117580E+00    0.5461826617E+00
    0.1700000000E+06    0.5491012240E+00    0.8556210327E-01    0.3611589551E-02    0.1297728382E+00    0.5524938820E+00
    0.1900000000E+06    0.5492053859E+00    0.8213897998E-01    0.3448208754E-02    0.1298232669E+00    0.5579356516E+00
    0.2100000000E+06    0.5492873576E+00    0.7913988571E-01    0.3305992296E-02    0.1298659018E+00    0.5626974204E+00
    0.2300000000E+06    0.5493531984E+00    0.7648096313E-01    0.3180636948E-02    0.1299026338E+00    0.5669145280E+00
    0.2500000000E+06    0.5494069716E+00    0.7410026838E-01    0.3068986964E-02    0.1299347683E+00    0.5706867690E+00
    0.2700000000E+06    0.5494515003E+00    0.7195084441E-01    0.2968665536E-02    0.1299632386E+00    0.5740896751E+00
    0.2900000000E+06    0.5494888044E+00    0.6999631297E-01    0.2877842035E-02    0.1299887316E+00    0.5771816800E+00
    0.3100000000E+06    0.5495203654E+00    0.6820796473E-01    0.2795079408E-02    0.1300117655E+00    0.5800088415E+00
    0.3300000000E+06    0.5495472933E+00    0.6656277796E-01    0.2719230901E-02    0.1300327392E+00    0.5826080511E+00
    0.3500000000E+06    0.5495704355E+00    0.6504203308E-01    0.2649368250E-02    0.1300519657E+00    0.5850092758E+00
    0.3700000000E+06    0.5495904496E+00    0.6363032123E-01    0.2584730550E-02    0.1300696946E+00    0.5872371593E+00
    0.3900000000E+06    0.5496078528E+00    0.6231482036E-01    0.2524687106E-02    0.1300861274E+00    0.5893121906E+00
    0.4100000000E+06    0.5496230575E+00    0.6108475709E-01    0.2468709925E-02    0.1301014290E+00    0.5912515715E+00
    0.4300000000E+06    0.5496363962E+00    0.5993100022E-01    0.2416353038E-02    0.1301157359E+00    0.5930698709E+00
    0.4500000000E+06    0.5496481395E+00    0.5884574932E-01    0.2367236703E-02    0.1301291620E+00    0.5947795259E+00
    0.4700000000E+06    0.5496585102E+00    0.5782229300E-01    0.2321035204E-02    0.1301418037E+00    0.5963912305E+00
    0.4900000000E+06    0.5496676927E+00    0.5685481913E-01    0.2277467286E-02    0.1301537426E+00    0.5979142401E+00
    0.1000000000E+06    0.5483538349E+00    0.1031584299E+00    0.4468968233E-02    0.1294738096E+00    0.5244030174E+00
    0.3000000000E+06    0.5495052262E+00    0.6908291955E-01    0.2835530625E-02    0.1300005287E+00    0.5786258757E+00
    0.5000000000E+06    0.5496718875E+00    0.5639046751E-01    0.2256593296E-02    0.1301594707E+00    0.5986450438E+00
    0.7000000000E+06    0.5497201844E+00    0.4909759049E-01    0.1931996877E-02    0.1302498571E+00    0.6101071074E+00
    0.9000000000E+06    0.5497346084E+00    0.4417572232E-01    0.1716540968E-02    0.1303123383E+00    0.6178262843E+00
    0.1100000000E+07    0.5497359955E+00    0.4055248654E-01    0.1559921815E-02    0.1303598789E+00    0.6235003490E+00
    0.1300000000E+07    0.5497315957E+00    0.3773473393E-01    0.1439354659E-02    0.1303981691E+00    0.6279080743E+00
    0.1500000000E+07    0.5497244518E+00    0.3545859995E-01    0.1342790459E-02    0.1304301887E+00    0.6314653957E+00
    0.1700000000E+07    0.5497159993E+00    0.3356799689E-01    0.1263169735E-02    0.1304576858E+00    0.6344180150E+00
    0.1900000000E+07    0.5497069691E+00    0.3196371168E-01    0.1196041655E-02    0.1304817708E+00    0.6369219310E+00
    0.2100000000E+07    0.5496977521E+00    0.3057917047E-01    0.1138440627E-02    0.1305031919E+00    0.6390817245E+00
    0.2300000000E+07    0.5496885638E+00    0.2936776577E-01    0.1088303392E-02    0.1305224767E+00    0.6409705531E+00
    0.2500000000E+07    0.5496795237E+00    0.2829573537E-01    0.1044143669E-02    0.1305400105E+00    0.6426413756E+00
    0.2700000000E+07    0.5496706970E+00    0.2733792543E-01    0.1004859724E-02    0.1305560836E+00    0.6441336240E+00
    0.2900000000E+07    0.5496621174E+00    0.2647514937E-01    0.9696150715E-03    0.1305709199E+00    0.6454773597E+00
    0.3100000000E+07    0.5496537996E+00    0.2569247644E-01    0.9377615362E-03    0.1305846954E+00    0.6466959650E+00
    0.3300000000E+07    0.5496457474E+00    0.2497808581E-01    0.9087879739E-03    0.1305975513E+00    0.6478079437E+00
    0.3500000000E+07    0.5496379576E+00    0.2432247741E-01    0.8822851008E-03    0.1306096024E+00    0.6488281610E+00
    0.3700000000E+07    0.5496304233E+00    0.2371791509E-01    0.8579207727E-03    0.1306209433E+00    0.6497687175E+00
    0.3900000000E+07    0.5496231352E+00    0.2315802522E-01    0.8354222273E-03    0.1306316529E+00    0.6506395794E+00
    0.4100000000E+07    0.5496160830E+00    0.2263750179E-01    0.8145630846E-03    0.1306417977E+00    0.6514490408E+00
    0.4300000000E+07    0.5496092558E+00    0.2215188620E-01    0.7951536672E-03    0.1306514341E+00    0.6522040691E+00
    0.4500000000E+07    0.5496026428E+00    0.2169740022E-01    0.7770336818E-03    0.1306606106E+00    0.6529105672E+00
    0.4700000000E+07    0.5495962333E+00    0.2127081759E-01    0.7600666099E-03    0.1306693691E+00    0.6535735739E+00
    0.4900000000E+07    0.5495900170E+00    0.2086936416E-01    0.7441353553E-03    0.1306777459E+00    0.6541974213E+00
    0.1000000000E+07    0.5497363269E+00    0.4224025896E-01    0.1632661196E-02    0.1303375286E+00    0.6208581486E+00
    0.3000000000E+07    0.5496579253E+00    0.2607460109E-01    0.9532990983E-03    0.1305779307E+00    0.6461010495E+00
    0.5000000000E+07    0.5495869782E+00    0.2067729791E-01    0.7365260217E-03    0.1306818013E+00    0.6544958514E+00
    0.7000000000E+07    0.5495342450E+00    0.1771230842E-01    0.6201437318E-03    0.1307488688E+00    0.6590998368E+00
    0.9000000000E+07    0.5494927098E+00    0.1576458381E-01    0.5448850506E-03    0.1307984877E+00    0.6621210759E+00
    0.1100000000E+08    0.5494585288E+00    0.1435732834E-01    0.4911601463E-03    0.1308378875E+00    0.6643023181E+00
    0.1300000000E+08    0.5494295125E+00    0.1327813056E-01    0.4503595864E-03    0.1308705675E+00    0.6659740961E+00
    0.1500000000E+08    0.5494043134E+00    0.1241591695E-01    0.4180289647E-03    0.1308984900E+00    0.6673091119E+00
    0.1700000000E+08    0.5493820475E+00    0.1170613782E-01    0.3916022360E-03    0.1309228664E+00    0.6684076670E+00
    0.1900000000E+08    0.5493621048E+00    0.1110834645E-01    0.3694835015E-03    0.1309444971E+00    0.6693325773E+00
    0.2100000000E+08    0.5493440471E+00    0.1059572272E-01    0.3506214102E-03    0.1309639388E+00    0.6701254776E+00
    0.2300000000E+08    0.5493275493E+00    0.1014967866E-01    0.3342915206E-03    0.1309815944E+00    0.6708152125E+00
    0.2500000000E+08    0.5493123636E+00    0.9756866027E-02    0.3199763070E-03    0.1309977649E+00    0.6714224886E+00
    0.2700000000E+08    0.5492982967E+00    0.9407415626E-02    0.3072949369E-03    0.1310126809E+00    0.6719626111E+00
