  Pressure (Pa) 22mC5-400 (mol/kg) 2mC6-400 (mol/kg) 33mC5-400 (mol/kg) 23mC5-400 (mol/kg) C7-400 (mol/kg)
    0.1000000000E+01    0.1586300965E-02    0.3977200883E-02    0.1295258267E-03    0.8356120232E-03    0.1716137653E-02
    0.3000000000E+01    0.4688702538E-02    0.1169031234E-01    0.3807039786E-03    0.2469881644E-02    0.5073072559E-02
    0.5000000000E+01    0.7701729868E-02    0.1909659741E-01    0.6218696525E-03    0.4057103142E-02    0.8333508664E-02
    0.7000000000E+01    0.1063012983E-01    0.2621280690E-01    0.8535689227E-03    0.5599775015E-02    0.1150192950E-01
    0.9000000000E+01    0.1347830843E-01    0.3305451056E-01    0.1076309384E-02    0.7100216368E-02    0.1458253972E-01
    0.1100000000E+02    0.1625036108E-01    0.3963619888E-01    0.1290563468E-02    0.8560582818E-02    0.1757928658E-01
    0.1300000000E+02    0.1895009955E-01    0.4597137471E-01    0.1496771426E-02    0.9982880732E-02    0.2049587948E-01
    0.1500000000E+02    0.2158107634E-01    0.5207263550E-01    0.1695344007E-02    0.1136898000E-01    0.2333580775E-01
    0.1700000000E+02    0.2414660645E-01    0.5795174766E-01    0.1886664883E-02    0.1272062551E-01    0.2610235687E-01
    0.1900000000E+02    0.2664978703E-01    0.6361971361E-01    0.2071092826E-02    0.1403944751E-01    0.2879862321E-01
    0.2100000000E+02    0.2909351513E-01    0.6908683251E-01    0.2248963693E-02    0.1532697091E-01    0.3142752758E-01
    0.2300000000E+02    0.3148050369E-01    0.7436275526E-01    0.2420592215E-02    0.1658462374E-01    0.3399182760E-01
    0.2500000000E+02    0.3381329609E-01    0.7945653445E-01    0.2586273621E-02    0.1781374477E-01    0.3649412900E-01
    0.2700000000E+02    0.3609427927E-01    0.8437666978E-01    0.2746285125E-02    0.1901559045E-01    0.3893689605E-01
    0.2900000000E+02    0.3832569568E-01    0.8913114936E-01    0.2900887263E-02    0.2019134114E-01    0.4132246109E-01
    0.3100000000E+02    0.4050965415E-01    0.9372748747E-01    0.3050325128E-02    0.2134210693E-01    0.4365303335E-01
    0.3300000000E+02    0.4264813977E-01    0.9817275891E-01    0.3194829490E-02    0.2246893273E-01    0.4593070697E-01
    0.3500000000E+02    0.4474302296E-01    0.1024736305E+00    0.3334617819E-02    0.2357280313E-01    0.4815746855E-01
    0.3700000000E+02    0.4679606768E-01    0.1066363900E+00    0.3469895225E-02    0.2465464665E-01    0.5033520395E-01
    0.3900000000E+02    0.4880893895E-01    0.1106669722E+00    0.3600855321E-02    0.2571533977E-01    0.5246570470E-01
    0.4100000000E+02    0.5078320985E-01    0.1145709836E+00    0.3727681006E-02    0.2675571055E-01    0.5455067386E-01
    0.4300000000E+02    0.5272036774E-01    0.1183537242E+00    0.3850545200E-02    0.2777654195E-01    0.5659173146E-01
    0.4500000000E+02    0.5462182017E-01    0.1220202084E+00    0.3969611501E-02    0.2877857491E-01    0.5859041957E-01
    0.4700000000E+02    0.5648890019E-01    0.1255751838E+00    0.4085034812E-02    0.2976251115E-01    0.6054820696E-01
    0.4900000000E+02    0.5832287125E-01    0.1290231482E+00    0.4196961895E-02    0.3072901578E-01    0.6246649344E-01
    0.1000000000E+02    0.1487360591E-01    0.3637699057E-01    0.1184468986E-02    0.7835280216E-02    0.1609115887E-01
    0.3000000000E+02    0.3942348030E-01    0.9144863400E-01    0.2976236983E-02    0.2076978037E-01    0.4249448783E-01
    0.5000000000E+02    0.5922781786E-01    0.1307083428E+00    0.4251658121E-02    0.3120592967E-01    0.6341124343E-01
    0.7000000000E+02    0.7584932005E-01    0.1597209346E+00    0.5192274479E-02    0.3996633259E-01    0.8052618155E-01
    0.9000000000E+02    0.9020754036E-01    0.1817467166E+00    0.5904491762E-02    0.4753506551E-01    0.9488679014E-01
    0.1100000000E+03    0.1028813675E+00    0.1988175140E+00    0.6454649417E-02    0.5421688312E-01    0.1071803774E+00
    0.1300000000E+03    0.1142550391E+00    0.2122624161E+00    0.6886160805E-02    0.6021407385E-01    0.1178777503E+00
    0.1500000000E+03    0.1245947206E+00    0.2229854560E+00    0.7228568309E-02    0.6566676924E-01    0.1273129655E+00
    0.1700000000E+03    0.1340914034E+00    0.2316216486E+00    0.7502632934E-02    0.7067552562E-01    0.1357301074E+00
    0.1900000000E+03    0.1428862623E+00    0.2386292282E+00    0.7723343526E-02    0.7531467261E-01    0.1433120051E+00
    0.2100000000E+03    0.1510863279E+00    0.2443465212E+00    0.7901772613E-02    0.7964056378E-01    0.1501985538E+00
    0.2300000000E+03    0.1587745466E+00    0.2490282890E+00    0.8046262562E-02    0.8369687241E-01    0.1564987921E+00
    0.2500000000E+03    0.1660164481E+00    0.2528696755E+00    0.8163207322E-02    0.8751810208E-01    0.1622990940E+00
    0.2700000000E+03    0.1728646918E+00    0.2560224120E+00    0.8257581539E-02    0.9113197987E-01    0.1676688633E+00
    0.2900000000E+03    0.1793622417E+00    0.2586060429E+00    0.8333307148E-02    0.9456112815E-01    0.1726645804E+00
    0.3100000000E+03    0.1855446331E+00    0.2607158630E+00    0.8393512655E-02    0.9782425792E-01    0.1773327335E+00
    0.3300000000E+03    0.1914416218E+00    0.2624286352E+00    0.8440719932E-02    0.1009370370E+00    0.1817119800E+00
    0.3500000000E+03    0.1970784041E+00    0.2638067765E+00    0.8476981019E-02    0.1039127326E+00    0.1858347643E+00
    0.3700000000E+03    0.2024765348E+00    0.2649014692E+00    0.8503979827E-02    0.1067626945E+00    0.1897285462E+00
    0.3900000000E+03    0.2076546260E+00    0.2657550044E+00    0.8523108760E-02    0.1094967231E+00    0.1934167460E+00
    0.4100000000E+03    0.2126288868E+00    0.2664025690E+00    0.8535527161E-02    0.1121233536E+00    0.1969194794E+00
    0.4300000000E+03    0.2174135452E+00    0.2668736234E+00    0.8542206397E-02    0.1146500779E+00    0.2002541366E+00
    0.4500000000E+03    0.2220211806E+00    0.2671929755E+00    0.8543964994E-02    0.1170835199E+00    0.2034358411E+00
    0.4700000000E+03    0.2264629887E+00    0.2673816245E+00    0.8541496286E-02    0.1194295752E+00    0.2064778182E+00
    0.4900000000E+03    0.2307489955E+00    0.2674574309E+00    0.8535390349E-02    0.1216935231E+00    0.2093916927E+00
    0.1000000000E+03    0.9672754491E-01    0.1908060012E+00    0.6196709479E-02    0.5097238307E-01    0.1012586087E+00
    0.3000000000E+03    0.1824908531E+00    0.2597150025E+00    0.8365179884E-02    0.9621240323E-01    0.1750370239E+00
    0.5000000000E+03    0.2328364298E+00    0.2674578754E+00    0.8531133980E-02    0.1227962110E+00    0.2108038472E+00
    0.7000000000E+03    0.2682029762E+00    0.2642693245E+00    0.8345264904E-02    0.1414858766E+00    0.2342809105E+00
    0.9000000000E+03    0.2946143994E+00    0.2585903416E+00    0.8086660066E-02    0.1554537915E+00    0.2517883917E+00
    0.1100000000E+04    0.3150095830E+00    0.2525844617E+00    0.7826506496E-02    0.1662480818E+00    0.2657797947E+00
    0.1300000000E+04    0.3311346393E+00    0.2468774404E+00    0.7584619923E-02    0.1747888559E+00    0.2774524579E+00
    0.1500000000E+04    0.3441256264E+00    0.2416306675E+00    0.7365271944E-02    0.1816749595E+00    0.2874784749E+00
    0.1700000000E+04    0.3547594767E+00    0.2368533062E+00    0.7167715397E-02    0.1873160699E+00    0.2962726239E+00
    0.1900000000E+04    0.3635851314E+00    0.2325060718E+00    0.6989704584E-02    0.1920017369E+00    0.3041090239E+00
    0.2100000000E+04    0.3710000442E+00    0.2285380123E+00    0.6828737705E-02    0.1959416698E+00    0.3111784520E+00
    0.2300000000E+04    0.3772978060E+00    0.2248995390E+00    0.6682485341E-02    0.1992908234E+00    0.3176191564E+00
    0.2500000000E+04    0.3826990639E+00    0.2215465794E+00    0.6548914091E-02    0.2021656872E+00    0.3235346196E+00
    0.2700000000E+04    0.3873722023E+00    0.2184413711E+00    0.6426296124E-02    0.2046551849E+00    0.3290043834E+00
    0.2900000000E+04    0.3914475083E+00    0.2155520393E+00    0.6313179116E-02    0.2068281405E+00    0.3340909554E+00
    0.3100000000E+04    0.3950270644E+00    0.2128518104E+00    0.6208346009E-02    0.2087384946E+00    0.3388443840E+00
    0.3300000000E+04    0.3981917788E+00    0.2103181880E+00    0.6110775787E-02    0.2104290111E+00    0.3433053888E+00
    0.3500000000E+04    0.4010064578E+00    0.2079322112E+00    0.6019609060E-02    0.2119339530E+00    0.3475075618E+00
    0.3700000000E+04    0.4035235178E+00    0.2056778256E+00    0.5934119210E-02    0.2132810410E+00    0.3514789531E+00
    0.3900000000E+04    0.4057857375E+00    0.2035413654E+00    0.5853688727E-02    0.2144929048E+00    0.3552432363E+00
    0.4100000000E+04    0.4078283215E+00    0.2015111315E+00    0.5777789993E-02    0.2155881732E+00    0.3588205814E+00
    0.4300000000E+04    0.4096804669E+00    0.1995770512E+00    0.5705969740E-02    0.2165823002E+00    0.3622283197E+00
    0.4500000000E+04    0.4113665629E+00    0.1977304023E+00    0.5637836474E-02    0.2174881991E+00    0.3654814566E+00
    0.4700000000E+04    0.4129071200E+00    0.1959635907E+00    0.5573050285E-02    0.2183167322E+00    0.3685930737E+00
    0.4900000000E+04    0.4143194947E+00    0.1942699688E+00    0.5511314557E-02    0.2190770946E+00    0.3715746467E+00
    0.1000000000E+04    0.3054362961E+00    0.2555719040E+00    0.7954960116E-02    0.1611803425E+00    0.2591315041E+00
    0.3000000000E+04    0.3932937693E+00    0.2141797840E+00    0.6259795052E-02    0.2078132435E+00    0.3365065785E+00
    0.5000000000E+04    0.4149823185E+00    0.1934487486E+00    0.5481508073E-02    0.2194342049E+00    0.3730198773E+00
    0.7000000000E+04    0.4241493574E+00    0.1797570099E+00    0.4996535608E-02    0.2243972906E+00    0.3970310432E+00
    0.9000000000E+04    0.4290929653E+00    0.1695240685E+00    0.4647818803E-02    0.2271032836E+00    0.4148148888E+00
    0.1100000000E+05    0.4321518535E+00    0.1613695746E+00    0.4377423954E-02    0.2287966915E+00    0.4288556100E+00
    0.1300000000E+05    0.4342184117E+00    0.1546097361E+00    0.4157828169E-02    0.2299540354E+00    0.4403987176E+00
    0.1500000000E+05    0.4357021620E+00    0.1488527420E+00    0.3973806507E-02    0.2307947734E+00    0.4501590393E+00
    0.1700000000E+05    0.4368160078E+00    0.1438520050E+00    0.3816050586E-02    0.2314334145E+00    0.4585849922E+00
    0.1900000000E+05    0.4376810791E+00    0.1394418323E+00    0.3678453466E-02    0.2319353499E+00    0.4659762934E+00
    0.2100000000E+05    0.4383711617E+00    0.1355053625E+00    0.3556793219E-02    0.2323405629E+00    0.4725430618E+00
    0.2300000000E+05    0.4389336737E+00    0.1319570357E+00    0.3448030682E-02    0.2326748463E+00    0.4784381988E+00
    0.2500000000E+05    0.4394004298E+00    0.1287323151E+00    0.3349906561E-02    0.2329555728E+00    0.4837763566E+00
    0.2700000000E+05    0.4397935459E+00    0.1257813211E+00    0.3260696649E-02    0.2331948657E+00    0.4886456545E+00
    0.2900000000E+05    0.4401288588E+00    0.1230647118E+00    0.3179056048E-02    0.2334014405E+00    0.4931152335E+00
    0.3100000000E+05    0.4404179983E+00    0.1205509177E+00    0.3103916180E-02    0.2335817224E+00    0.4972403067E+00
    0.3300000000E+05    0.4406696916E+00    0.1182142283E+00    0.3034414474E-02    0.2337405523E+00    0.5010656373E+00
    0.3500000000E+05    0.4408906122E+00    0.1160334342E+00    0.2969845027E-02    0.2338816468E+00    0.5046279989E+00
    0.3700000000E+05    0.4410859482E+00    0.1139908397E+00    0.2909623168E-02    0.2340079064E+00    0.5079579536E+00
    0.3900000000E+05    0.4412597921E+00    0.1120715330E+00    0.2853259464E-02    0.2341216286E+00    0.5110811635E+00
    0.4100000000E+05    0.4414154143E+00    0.1102628349E+00    0.2800340321E-02    0.2342246567E+00    0.5140193750E+00
    0.4300000000E+05    0.4415554590E+00    0.1085538785E+00    0.2750513252E-02    0.2343184868E+00    0.5167911683E+00
    0.4500000000E+05    0.4416820866E+00    0.1069352822E+00    0.2703475554E-02    0.2344043464E+00    0.5194125373E+00
    0.4700000000E+05    0.4417970788E+00    0.1053988933E+00    0.2658965464E-02    0.2344832520E+00    0.5218973428E+00
    0.4900000000E+05    0.4419019181E+00    0.1039375845E+00    0.2616755194E-02    0.2345560527E+00    0.5242576711E+00
    0.1000000000E+05    0.4307852018E+00    0.1652393092E+00    0.4504959018E-02    0.2280377234E+00    0.4222080157E+00
    0.3000000000E+05    0.4402785984E+00    0.1217841890E+00    0.3140731602E-02    0.2334945346E+00    0.4952178235E+00
    0.5000000000E+05    0.4419509269E+00    0.1032330975E+00    0.2596449206E-02    0.2345903915E+00    0.5253945198E+00
    0.7000000000E+05    0.4426156452E+00    0.9189763304E-01    0.2273560114E-02    0.2350827040E+00    0.5435970018E+00
    0.9000000000E+05    0.4429616079E+00    0.8394940318E-01    0.2051451947E-02    0.2353713564E+00    0.5562656989E+00
    0.1100000000E+06    0.4431683341E+00    0.7793818564E-01    0.1885839031E-02    0.2355653352E+00    0.5657992847E+00
    0.1300000000E+06    0.4433026482E+00    0.7316654948E-01    0.1755850321E-02    0.2357069829E+00    0.5733393610E+00
    0.1500000000E+06    0.4433948992E+00    0.6924879800E-01    0.1650115444E-02    0.2358163499E+00    0.5795126963E+00
    0.1700000000E+06    0.4434607697E+00    0.6595079480E-01    0.1561813821E-02    0.2359042315E+00    0.5846977058E+00
    0.1900000000E+06    0.4435091366E+00    0.6312054801E-01    0.1486561363E-02    0.2359769909E+00    0.5891389935E+00
    0.2100000000E+06    0.4435453783E+00    0.6065425260E-01    0.1421389065E-02    0.2360386419E+00    0.5930030363E+00
    0.2300000000E+06    0.4435729298E+00    0.5847813151E-01    0.1364202253E-02    0.2360918522E+00    0.5964078115E+00
    0.2500000000E+06    0.4435940797E+00    0.5653803585E-01    0.1313473536E-02    0.2361384707E+00    0.5994396958E+00
    0.2700000000E+06    0.4436104060E+00    0.5479315484E-01    0.1268058481E-02    0.2361798239E+00    0.6021636511E+00
    0.2900000000E+06    0.4436230286E+00    0.5321203787E-01    0.1227079810E-02    0.2362168904E+00    0.6046296467E+00
    0.3100000000E+06    0.4436327618E+00    0.5176998376E-01    0.1189851853E-02    0.2362504105E+00    0.6068768636E+00
    0.3300000000E+06    0.4436402098E+00    0.5044727237E-01    0.1155829655E-02    0.2362809553E+00    0.6089365359E+00
    0.3500000000E+06    0.4436458296E+00    0.4922793422E-01    0.1124573733E-02    0.2363089736E+00    0.6108339236E+00
    0.3700000000E+06    0.4436499719E+00    0.4809887400E-01    0.1095725096E-02    0.2363348238E+00    0.6125897154E+00
    0.3900000000E+06    0.4436529096E+00    0.4704923332E-01    0.1068987147E-02    0.2363587959E+00    0.6142210474E+00
    0.4100000000E+06    0.4436548579E+00    0.4606991885E-01    0.1044112346E-02    0.2363811274E+00    0.6157422558E+00
    0.4300000000E+06    0.4436559883E+00    0.4515324720E-01    0.1020892207E-02    0.2364020151E+00    0.6171654423E+00
    0.4500000000E+06    0.4436564385E+00    0.4429267388E-01    0.9991496821E-03    0.2364216237E+00    0.6185009065E+00
    0.4700000000E+06    0.4436563204E+00    0.4348258359E-01    0.9787332992E-03    0.2364400919E+00    0.6197574782E+00
    0.4900000000E+06    0.4436557256E+00    0.4271812606E-01    0.9595125797E-03    0.2364575382E+00    0.6209427787E+00
    0.1000000000E+06    0.4430769058E+00    0.8075553249E-01    0.1963203115E-02    0.2354767516E+00    0.5613360055E+00
    0.3000000000E+06    0.4436282146E+00    0.5247496071E-01    0.1208033876E-02    0.2362340547E+00    0.6057784906E+00
    0.5000000000E+06    0.4436552735E+00    0.4235167054E-01    0.9503146552E-03    0.2364659103E+00    0.6215108051E+00
    0.7000000000E+06    0.4436339584E+00    0.3663498158E-01    0.8082063169E-03    0.2365981291E+00    0.6303581314E+00
    0.9000000000E+06    0.4436041534E+00    0.3281780104E-01    0.7148454748E-03    0.2366896210E+00    0.6362514627E+00
    0.1100000000E+07    0.4435738323E+00    0.3002874869E-01    0.6474691713E-03    0.2367592679E+00    0.6405503831E+00
    0.1300000000E+07    0.4435450054E+00    0.2787196986E-01    0.5958854121E-03    0.2368153765E+00    0.6438706822E+00
    0.1500000000E+07    0.4435181298E+00    0.2613755055E-01    0.5547501326E-03    0.2368623025E+00    0.6465382136E+00
    0.1700000000E+07    0.4434931962E+00    0.2470218481E-01    0.5209530623E-03    0.2369026036E+00    0.6487440819E+00
    0.1900000000E+07    0.4434700547E+00    0.2348794197E-01    0.4925438577E-03    0.2369379053E+00    0.6506089138E+00
    0.2100000000E+07    0.4434485238E+00    0.2244277763E-01    0.4682288927E-03    0.2369693031E+00    0.6522131829E+00
    0.2300000000E+07    0.4434284271E+00    0.2153040418E-01    0.4471116348E-03    0.2369975697E+00    0.6536129497E+00
    0.2500000000E+07    0.4434096057E+00    0.2072462772E-01    0.4285484337E-03    0.2370232700E+00    0.6548486503E+00
    0.2700000000E+07    0.4433919200E+00    0.2000599353E-01    0.4120635860E-03    0.2370468292E+00    0.6559502975E+00
    0.2900000000E+07    0.4433752492E+00    0.1935970306E-01    0.3972968666E-03    0.2370685752E+00    0.6569407077E+00
    0.3100000000E+07    0.4433594887E+00    0.1877426878E-01    0.3839698058E-03    0.2370887663E+00    0.6578375831E+00
    0.3300000000E+07    0.4433445484E+00    0.1824061623E-01    0.3718632750E-03    0.2371076093E+00    0.6586549009E+00
    0.3500000000E+07    0.4433303499E+00    0.1775146736E-01    0.3608021553E-03    0.2371252726E+00    0.6594038666E+00
    0.3700000000E+07    0.4433168252E+00    0.1730090655E-01    0.3506445870E-03    0.2371418947E+00    0.6600935846E+00
    0.3900000000E+07    0.4433039147E+00    0.1688406840E-01    0.3412742641E-03    0.2371575913E+00    0.6607315399E+00
    0.4100000000E+07    0.4432915662E+00    0.1649690895E-01    0.3325948048E-03    0.2371724599E+00    0.6613239523E+00
    0.4300000000E+07    0.4432797338E+00    0.1613603508E-01    0.3245255675E-03    0.2371865832E+00    0.6618760386E+00
    0.4500000000E+07    0.4432683768E+00    0.1579857539E-01    0.3169984929E-03    0.2372000324E+00    0.6623922123E+00
    0.4700000000E+07    0.4432574590E+00    0.1548208115E-01    0.3099556878E-03    0.2372128687E+00    0.6628762364E+00
    0.4900000000E+07    0.4432469480E+00    0.1518444929E-01    0.3033475524E-03    0.2372251455E+00    0.6633313417E+00
    0.1000000000E+07    0.4435888721E+00    0.3132573598E-01    0.6787095398E-03    0.2367265219E+00    0.6385520046E+00
    0.3000000000E+07    0.4433672611E+00    0.1905999430E-01    0.3904682584E-03    0.2370788512E+00    0.6573998892E+00
    0.5000000000E+07    0.4432418360E+00    0.1504212892E-01    0.3001928861E-03    0.2372310889E+00    0.6635489373E+00
    0.7000000000E+07    0.4431553136E+00    0.1285121471E-01    0.2520740052E-03    0.2373293760E+00    0.6668966140E+00
    0.9000000000E+07    0.4430892893E+00    0.1141823688E-01    0.2210896182E-03    0.2374020864E+00    0.6690840581E+00
    0.1100000000E+08    0.4430359079E+00    0.1038596569E-01    0.1990347950E-03    0.2374598185E+00    0.6706587489E+00
    0.1300000000E+08    0.4429911030E+00    0.9596078503E-02    0.1823215284E-03    0.2375077022E+00    0.6718630660E+00
    0.1500000000E+08    0.4429524986E+00    0.8966091122E-02    0.1691000210E-03    0.2375486137E+00    0.6728231887E+00
    0.1700000000E+08    0.4429185862E+00    0.8448203719E-02    0.1583075572E-03    0.2375843284E+00    0.6736121941E+00
    0.1900000000E+08    0.4428883483E+00    0.8012532665E-02    0.1492846406E-03    0.2376160196E+00    0.6742757468E+00
    0.2100000000E+08    0.4428610659E+00    0.7639299180E-02    0.1415975862E-03    0.2376445032E+00    0.6748440580E+00
    0.2300000000E+08    0.4428362125E+00    0.7314816954E-02    0.1349480133E-03    0.2376703696E+00    0.6753380256E+00
    0.2500000000E+08    0.4428133908E+00    0.7029271034E-02    0.1291230436E-03    0.2376940598E+00    0.6757726319E+00
    0.2700000000E+08    0.4427922934E+00    0.6775413175E-02    0.1239662043E-03    0.2377159121E+00    0.6761589381E+00
