  Pressure (Pa) 22mC5-400 (mol/kg) 2mC6-400 (mol/kg) 33mC5-400 (mol/kg) 23mC5-400 (mol/kg) C7-400 (mol/kg)
    0.1000000000E+01    0.1592096418E-02    0.7909882250E-03    0.5152762367E-03    0.1863695803E-03    0.1020372315E-01
    0.3000000000E+01    0.4739374423E-02    0.2300162445E-02    0.1498772634E-02    0.5547908076E-03    0.2963884292E-01
    0.5000000000E+01    0.7838534625E-02    0.3719583365E-02    0.2424270147E-02    0.9175836662E-03    0.4787881329E-01
    0.7000000000E+01    0.1089085728E-01    0.5057098352E-02    0.3296853775E-02    0.1274897883E-02    0.6503223847E-01
    0.9000000000E+01    0.1389757649E-01    0.6319632143E-02    0.4121008861E-02    0.1626877786E-02    0.8119490144E-01
    0.1100000000E+02    0.1685988220E-01    0.7513320232E-02    0.4900707940E-02    0.1973662543E-02    0.9645160369E-01
    0.1300000000E+02    0.1977892224E-01    0.8643619715E-02    0.5639482907E-02    0.2315386392E-02    0.1108776970E+00
    0.1500000000E+02    0.2265580410E-01    0.9715401931E-02    0.6340485307E-02    0.2652178858E-02    0.1245403656E+00
    0.1700000000E+02    0.2549159671E-01    0.1073303027E-01    0.7006536967E-02    0.2984164955E-02    0.1374997051E+00
    0.1900000000E+02    0.2828733211E-01    0.1170042587E-01    0.7640172730E-02    0.3311465384E-02    0.1498096347E+00
    0.2100000000E+02    0.3104400701E-01    0.1262112331E-01    0.8243676686E-02    0.3634196713E-02    0.1615186721E+00
    0.2300000000E+02    0.3376258431E-01    0.1349831807E-01    0.8819113028E-02    0.3952471556E-02    0.1726705941E+00
    0.2500000000E+02    0.3644399450E-01    0.1433490711E-01    0.9368352441E-02    0.4266398740E-02    0.1833050034E+00
    0.2700000000E+02    0.3908913704E-01    0.1513352375E-01    0.9893094753E-02    0.4576083459E-02    0.1934578149E+00
    0.2900000000E+02    0.4169888160E-01    0.1589656771E-01    0.1039488847E-01    0.4881627428E-02    0.2031616762E+00
    0.3100000000E+02    0.4427406935E-01    0.1662623111E-01    0.1087514764E-01    0.5183129022E-02    0.2124463318E+00
    0.3300000000E+02    0.4681551403E-01    0.1732452102E-01    0.1133516655E-01    0.5480683418E-02    0.2213389391E+00
    0.3500000000E+02    0.4932400315E-01    0.1799327917E-01    0.1177613247E-01    0.5774382718E-02    0.2298643446E+00
    0.3700000000E+02    0.5180029898E-01    0.1863419910E-01    0.1219913680E-01    0.6064316075E-02    0.2380453250E+00
    0.3900000000E+02    0.5424513959E-01    0.1924884120E-01    0.1260518485E-01    0.6350569811E-02    0.2459027988E+00
    0.4100000000E+02    0.5665923979E-01    0.1983864601E-01    0.1299520441E-01    0.6633227528E-02    0.2534560124E+00
    0.4300000000E+02    0.5904329202E-01    0.2040494583E-01    0.1337005336E-01    0.6912370215E-02    0.2607227048E+00
    0.4500000000E+02    0.6139796726E-01    0.2094897503E-01    0.1373052631E-01    0.7188076347E-02    0.2677192520E+00
    0.4700000000E+02    0.6372391585E-01    0.2147187926E-01    0.1407736055E-01    0.7460421986E-02    0.2744607964E+00
    0.4900000000E+02    0.6602176824E-01    0.2197472347E-01    0.1441124129E-01    0.7729480871E-02    0.2809613609E+00
    0.1000000000E+02    0.1538420833E-01    0.6924726097E-02    0.4516185088E-02    0.1800911054E-02    0.8893158281E-01
    0.3000000000E+02    0.4299074359E-01    0.1626544244E-01    0.1063762633E-01    0.5032877500E-02    0.2078546502E+00
    0.5000000000E+02    0.6716035013E-01    0.2221893562E-01    0.1457352515E-01    0.7862800210E-02    0.2841253770E+00
    0.7000000000E+02    0.8859638446E-01    0.2625806867E-01    0.1727291256E-01    0.1037294215E-01    0.3374591118E+00
    0.9000000000E+02    0.1078165311E+00    0.2909319459E-01    0.1919241032E-01    0.1262385251E-01    0.3770002867E+00
    0.1100000000E+03    0.1252104767E+00    0.3111701912E-01    0.2058417625E-01    0.1466111104E-01    0.4075795133E+00
    0.1300000000E+03    0.1410773753E+00    0.3256780466E-01    0.2160121277E-01    0.1651970930E-01    0.4319939870E+00
    0.1500000000E+03    0.1556508943E+00    0.3360002202E-01    0.2234282443E-01    0.1822697975E-01    0.4519782884E+00
    0.1700000000E+03    0.1691163841E+00    0.3431884861E-01    0.2287675924E-01    0.1980460359E-01    0.4686667883E+00
    0.1900000000E+03    0.1816229118E+00    0.3479862253E-01    0.2325102917E-01    0.2127001825E-01    0.4828335425E+00
    0.2100000000E+03    0.1932918652E+00    0.3509344104E-01    0.2350068883E-01    0.2263742363E-01    0.4950254266E+00
    0.2300000000E+03    0.2042232139E+00    0.3524360091E-01    0.2365195069E-01    0.2391851436E-01    0.5056401727E+00
    0.2500000000E+03    0.2145001393E+00    0.3527969476E-01    0.2372480119E-01    0.2512302134E-01    0.5149742259E+00
    0.2700000000E+03    0.2241925083E+00    0.3522531589E-01    0.2373472816E-01    0.2625911804E-01    0.5232532351E+00
    0.2900000000E+03    0.2333595139E+00    0.3509890079E-01    0.2369389778E-01    0.2733372938E-01    0.5306521208E+00
    0.3100000000E+03    0.2420517080E+00    0.3491501754E-01    0.2361197824E-01    0.2835276941E-01    0.5373086605E+00
    0.3300000000E+03    0.2503125817E+00    0.3468528719E-01    0.2349672924E-01    0.2932132629E-01    0.5433329154E+00
    0.3500000000E+03    0.2581798089E+00    0.3441905543E-01    0.2335443237E-01    0.3024380766E-01    0.5488139141E+00
    0.3700000000E+03    0.2656862324E+00    0.3412389046E-01    0.2319021052E-01    0.3112405599E-01    0.5538244828E+00
    0.3900000000E+03    0.2728606536E+00    0.3380595763E-01    0.2300826871E-01    0.3196544100E-01    0.5584247986E+00
    0.4100000000E+03    0.2797284697E+00    0.3347030491E-01    0.2281207790E-01    0.3277093418E-01    0.5626650421E+00
    0.4300000000E+03    0.2863121922E+00    0.3312108297E-01    0.2260451710E-01    0.3354316940E-01    0.5665874065E+00
    0.4500000000E+03    0.2926318716E+00    0.3276171677E-01    0.2238798433E-01    0.3428449267E-01    0.5702276390E+00
    0.4700000000E+03    0.2987054472E+00    0.3239504032E-01    0.2216448406E-01    0.3499700300E-01    0.5736162364E+00
    0.4900000000E+03    0.3045490383E+00    0.3202340376E-01    0.2193569684E-01    0.3568258648E-01    0.5767793832E+00
    0.1000000000E+03    0.1167213007E+00    0.3018908968E-01    0.1994306941E-01    0.1366679295E-01    0.3932026131E+00
    0.3000000000E+03    0.2377620947E+00    0.3501335617E-01    0.2365755012E-01    0.2784986031E-01    0.5340657445E+00
    0.5000000000E+03    0.3073891898E+00    0.3183634892E-01    0.2181977117E-01    0.3601581891E-01    0.5782836021E+00
    0.7000000000E+03    0.3550049420E+00    0.2816150560E-01    0.1946633520E-01    0.4160461876E-01    0.6006828044E+00
    0.9000000000E+03    0.3901552337E+00    0.2494604136E-01    0.1732068090E-01    0.4573331237E-01    0.6144504160E+00
    0.1100000000E+04    0.4172652804E+00    0.2227480808E-01    0.1548916372E-01    0.4891985380E-01    0.6238665263E+00
    0.1300000000E+04    0.4388016732E+00    0.2007511717E-01    0.1395008026E-01    0.5145302184E-01    0.6307605791E+00
    0.1500000000E+04    0.4562928524E+00    0.1825658119E-01    0.1265732487E-01    0.5351180842E-01    0.6360528821E+00
    0.1700000000E+04    0.4707511315E+00    0.1674075939E-01    0.1156598082E-01    0.5521479529E-01    0.6402597375E+00
    0.1900000000E+04    0.4828782545E+00    0.1546518775E-01    0.1063812201E-01    0.5664420639E-01    0.6436944635E+00
    0.2100000000E+04    0.4931772983E+00    0.1438139783E-01    0.9843164160E-02    0.5785900320E-01    0.6465588432E+00
    0.2300000000E+04    0.5020185125E+00    0.1345198104E-01    0.9156817088E-02    0.5890259093E-01    0.6489890328E+00
    0.2500000000E+04    0.5096802987E+00    0.1264797583E-01    0.8559844162E-02    0.5980761560E-01    0.6510804271E+00
    0.2700000000E+04    0.5163758183E+00    0.1194680827E-01    0.8036968290E-02    0.6059907930E-01    0.6529019658E+00
    0.2900000000E+04    0.5222708509E+00    0.1133073591E-01    0.7575990399E-02    0.6129643151E-01    0.6545047823E+00
    0.3100000000E+04    0.5274961091E+00    0.1078568908E-01    0.7167103687E-02    0.6191501141E-01    0.6559276509E+00
    0.3300000000E+04    0.5321559226E+00    0.1030041023E-01    0.6802367407E-02    0.6246706514E-01    0.6572005402E+00
    0.3500000000E+04    0.5363344823E+00    0.9865812847E-02    0.6475304524E-02    0.6296247743E-01    0.6583470005E+00
    0.3700000000E+04    0.5401004065E+00    0.9474500885E-02    0.6180593652E-02    0.6340930660E-01    0.6593858099E+00
    0.3900000000E+04    0.5435101297E+00    0.9120405926E-02    0.5913832177E-02    0.6381418177E-01    0.6603321364E+00
    0.4100000000E+04    0.5466104527E+00    0.8798511016E-02    0.5671353108E-02    0.6418260179E-01    0.6611983739E+00
    0.4300000000E+04    0.5494404842E+00    0.8504638709E-02    0.5450082559E-02    0.6451916283E-01    0.6619947547E+00
    0.4500000000E+04    0.5520331360E+00    0.8235287059E-02    0.5247428110E-02    0.6482773377E-01    0.6627298057E+00
    0.4700000000E+04    0.5544162863E+00    0.7987501678E-02    0.5061190751E-02    0.6511159252E-01    0.6634106935E+00
    0.4900000000E+04    0.5566136928E+00    0.7758775166E-02    0.4889494975E-02    0.6537353327E-01    0.6640434876E+00
    0.1000000000E+04    0.4045317091E+00    0.2354581332E-01    0.1636587103E-01    0.4742286117E-01    0.6195570385E+00
    0.3000000000E+04    0.5249601458E+00    0.1105009539E-01    0.7365570438E-02    0.6161473983E-01    0.6552366630E+00
    0.5000000000E+04    0.5576492211E+00    0.7650877693E-02    0.4808588554E-02    0.6549704654E-01    0.6643434976E+00
    0.7000000000E+04    0.5722895379E+00    0.6109414761E-02    0.3663409866E-02    0.6724988186E-01    0.6687508078E+00
    0.9000000000E+04    0.5804818958E+00    0.5217775240E-02    0.3017313302E-02    0.6823887466E-01    0.6714180250E+00
    0.1100000000E+05    0.5856851126E+00    0.4627251660E-02    0.2600788322E-02    0.6887230894E-01    0.6732333531E+00
    0.1300000000E+05    0.5892709436E+00    0.4201678702E-02    0.2308237272E-02    0.6931255245E-01    0.6745622862E+00
    0.1500000000E+05    0.5918869275E+00    0.3876980305E-02    0.2090229486E-02    0.6963646280E-01    0.6755847487E+00
    0.1700000000E+05    0.5938771112E+00    0.3618938152E-02    0.1920619575E-02    0.6988498936E-01    0.6764003496E+00
    0.1900000000E+05    0.5954406732E+00    0.3407532907E-02    0.1784290032E-02    0.7008190552E-01    0.6770690315E+00
    0.2100000000E+05    0.5967006951E+00    0.3230218195E-02    0.1671886566E-02    0.7024194344E-01    0.6776291949E+00
    0.2300000000E+05    0.5977372363E+00    0.3078697909E-02    0.1577304143E-02    0.7037471303E-01    0.6781066671E+00
    0.2500000000E+05    0.5986045730E+00    0.2947245937E-02    0.1496383427E-02    0.7048674792E-01    0.6785195109E+00
    0.2700000000E+05    0.5993407787E+00    0.2831769043E-02    0.1426188740E-02    0.7058264444E-01    0.6788807696E+00
    0.2900000000E+05    0.5999733369E+00    0.2729254720E-02    0.1364585899E-02    0.7066572998E-01    0.6792001171E+00
    0.3100000000E+05    0.6005225752E+00    0.2637430660E-02    0.1309983998E-02    0.7073847266E-01    0.6794848930E+00
    0.3300000000E+05    0.6010038471E+00    0.2554546505E-02    0.1261171308E-02    0.7080274202E-01    0.6797407753E+00
    0.3500000000E+05    0.6014289626E+00    0.2479229267E-02    0.1217207515E-02    0.7085998031E-01    0.6799722315E+00
    0.3700000000E+05    0.6018071530E+00    0.2410384798E-02    0.1177350903E-02    0.7091131807E-01    0.6801828291E+00
    0.3900000000E+05    0.6021457367E+00    0.2347128952E-02    0.1141007920E-02    0.7095765417E-01    0.6803754544E+00
    0.4100000000E+05    0.6024505893E+00    0.2288738416E-02    0.1107697459E-02    0.7099971239E-01    0.6805524704E+00
    0.4300000000E+05    0.6027264822E+00    0.2234614918E-02    0.1077025071E-02    0.7103808214E-01    0.6807158314E+00
    0.4500000000E+05    0.6029773295E+00    0.2184258711E-02    0.1048664008E-02    0.7107324836E-01    0.6808671694E+00
    0.4700000000E+05    0.6032063722E+00    0.2137248617E-02    0.1022341077E-02    0.7110561373E-01    0.6810078587E+00
    0.4900000000E+05    0.6034163167E+00    0.2093226803E-02    0.9978259260E-03    0.7113551547E-01    0.6811390657E+00
    0.1000000000E+05    0.5833461567E+00    0.4895911920E-02    0.2788920920E-02    0.6858690875E-01    0.6724029273E+00
    0.3000000000E+05    0.6002573145E+00    0.2682126067E-02    0.1336492977E-02    0.7070326564E-01    0.6793464388E+00
    0.5000000000E+05    0.6035148532E+00    0.2072239048E-02    0.9861839352E-03    0.7114963318E-01    0.6812014307E+00
    0.7000000000E+05    0.6048837949E+00    0.1753839087E-02    0.8131890958E-03    0.7135300433E-01    0.6821311130E+00
    0.9000000000E+05    0.6056336125E+00    0.1549807008E-02    0.7058925760E-03    0.7147309472E-01    0.6827086429E+00
    0.1100000000E+06    0.6061051316E+00    0.1404596616E-02    0.6312142732E-03    0.7155414887E-01    0.6831098910E+00
    0.1300000000E+06    0.6064280813E+00    0.1294377966E-02    0.5754668673E-03    0.7161351072E-01    0.6834086180E+00
    0.1500000000E+06    0.6066625290E+00    0.1206983598E-02    0.5318401856E-03    0.7165944123E-01    0.6836417321E+00
    0.1700000000E+06    0.6068400733E+00    0.1135459354E-02    0.4965181041E-03    0.7169640682E-01    0.6838299577E+00
    0.1900000000E+06    0.6069789088E+00    0.1075501562E-02    0.4671759136E-03    0.7172704880E-01    0.6839859232E+00
    0.2100000000E+06    0.6070902447E+00    0.1024283956E-02    0.4423066728E-03    0.7175303731E-01    0.6841178089E+00
    0.2300000000E+06    0.6071813594E+00    0.9798629696E-03    0.4208854066E-03    0.7177548474E-01    0.6842311721E+00
    0.2500000000E+06    0.6072571824E+00    0.9408518674E-03    0.4021876793E-03    0.7179516345E-01    0.6843299347E+00
    0.2700000000E+06    0.6073211690E+00    0.9062308960E-03    0.3856851580E-03    0.7181262825E-01    0.6844169526E+00
    0.2900000000E+06    0.6073758126E+00    0.8752310469E-03    0.3709823307E-03    0.7182828910E-01    0.6844943599E+00
    0.3100000000E+06    0.6074229565E+00    0.8472598960E-03    0.3577764991E-03    0.7184245631E-01    0.6845637874E+00
    0.3300000000E+06    0.6074639924E+00    0.8218526202E-03    0.3458315676E-03    0.7185536962E-01    0.6846265047E+00
    0.3500000000E+06    0.6074999905E+00    0.7986386698E-03    0.3349603393E-03    0.7186721759E-01    0.6846835172E+00
    0.3700000000E+06    0.6075317868E+00    0.7773185054E-03    0.3250122383E-03    0.7187815082E-01    0.6847356322E+00
    0.3900000000E+06    0.6075600438E+00    0.7576469907E-03    0.3158645995E-03    0.7188829130E-01    0.6847835062E+00
    0.4100000000E+06    0.6075852930E+00    0.7394213022E-03    0.3074163597E-03    0.7189773902E-01    0.6848276797E+00
    0.4300000000E+06    0.6076079657E+00    0.7224719703E-03    0.2995834085E-03    0.7190657686E-01    0.6848686015E+00
    0.4500000000E+06    0.6076284155E+00    0.7066561361E-03    0.2922951041E-03    0.7191487418E-01    0.6849066485E+00
    0.4700000000E+06    0.6076469349E+00    0.6918524048E-03    0.2854916262E-03    0.7192268954E-01    0.6849421391E+00
    0.4900000000E+06    0.6076637679E+00    0.6779568652E-03    0.2791219370E-03    0.7193007281E-01    0.6849753447E+00
    0.1000000000E+06    0.6058935954E+00    0.1471736285E-02    0.6655686294E-03    0.7151709950E-01    0.6829254270E+00
    0.3000000000E+06    0.6074002262E+00    0.8608984759E-03    0.3642083676E-03    0.7183554303E-01    0.6845299846E+00
    0.5000000000E+06    0.6076716174E+00    0.6713211958E-03    0.2760858172E-03    0.7193361601E-01    0.6849911648E+00
    0.7000000000E+06    0.6077760952E+00    0.5698818280E-03    0.2301454663E-03    0.7198957595E-01    0.6852299853E+00
    0.9000000000E+06    0.6078275924E+00    0.5042440029E-03    0.2009220191E-03    0.7202829106E-01    0.6853814187E+00
    0.1100000000E+07    0.6078561789E+00    0.4573002238E-03    0.1802863614E-03    0.7205775103E-01    0.6854881768E+00
    0.1300000000E+07    0.6078730559E+00    0.4215683499E-03    0.1647385751E-03    0.7208147436E-01    0.6855685482E+00
    0.1500000000E+07    0.6078832841E+00    0.3931861297E-03    0.1524933248E-03    0.7210130701E-01    0.6856318270E+00
    0.1700000000E+07    0.6078894546E+00    0.3699309094E-03    0.1425329637E-03    0.7211833306E-01    0.6856832968E+00
    0.1900000000E+07    0.6078930168E+00    0.3504207604E-03    0.1342298314E-03    0.7213324160E-01    0.6857262099E+00
    0.2100000000E+07    0.6078948365E+00    0.3337451560E-03    0.1271732274E-03    0.7214649703E-01    0.6857626911E+00
    0.2300000000E+07    0.6078954577E+00    0.3192764201E-03    0.1210817518E-03    0.7215842687E-01    0.6857941945E+00
    0.2500000000E+07    0.6078952362E+00    0.3065658788E-03    0.1157553459E-03    0.7216927050E-01    0.6858217532E+00
    0.2700000000E+07    0.6078944126E+00    0.2952831222E-03    0.1110474051E-03    0.7217920810E-01    0.6858461236E+00
    0.2900000000E+07    0.6078931539E+00    0.2851787019E-03    0.1068477433E-03    0.7218837864E-01    0.6858678738E+00
    0.3100000000E+07    0.6078915785E+00    0.2760602752E-03    0.1030717479E-03    0.7219689150E-01    0.6858874399E+00
    0.3300000000E+07    0.6078897721E+00    0.2677768158E-03    0.9965323491E-04    0.7220483429E-01    0.6859051632E+00
    0.3500000000E+07    0.6078877978E+00    0.2602078552E-03    0.9653959824E-04    0.7221227827E-01    0.6859213144E+00
    0.3700000000E+07    0.6078857023E+00    0.2532559612E-03    0.9368843267E-04    0.7221928216E-01    0.6859361122E+00
    0.3900000000E+07    0.6078835209E+00    0.2468413643E-03    0.9106512815E-04    0.7222589492E-01    0.6859497347E+00
    0.4100000000E+07    0.6078812806E+00    0.2408980401E-03    0.8864112249E-04    0.7223215778E-01    0.6859623291E+00
    0.4300000000E+07    0.6078790016E+00    0.2353708052E-03    0.8639260961E-04    0.7223810580E-01    0.6859740179E+00
    0.4500000000E+07    0.6078767000E+00    0.2302131294E-03    0.8429956927E-04    0.7224376903E-01    0.6859849043E+00
    0.4700000000E+07    0.6078743879E+00    0.2253854645E-03    0.8234502806E-04    0.7224917343E-01    0.6859950757E+00
    0.4900000000E+07    0.6078720747E+00    0.2208539520E-03    0.8051448915E-04    0.7225434157E-01    0.6860046067E+00
    0.1000000000E+07    0.6078438318E+00    0.4790257729E-03    0.1898078801E-03    0.7204390134E-01    0.6854389322E+00
    0.3000000000E+07    0.6078923998E+00    0.2805065016E-03    0.1049112901E-03    0.7219271137E-01    0.6858779066E+00
    0.5000000000E+07    0.6078709201E+00    0.2186899743E-03    0.7964175591E-04    0.7225684330E-01    0.6860091525E+00
    0.7000000000E+07    0.6078488691E+00    0.1856105421E-03    0.6642165253E-04    0.7229819189E-01    0.6860781746E+00
    0.9000000000E+07    0.6078295145E+00    0.1642090683E-03    0.5800010270E-04    0.7232875359E-01    0.6861223418E+00
    0.1100000000E+08    0.6078126745E+00    0.1489052913E-03    0.5204897360E-04    0.7235300399E-01    0.6861536740E+00
    0.1300000000E+08    0.6077978791E+00    0.1372582989E-03    0.4756319289E-04    0.7237310749E-01    0.6861773718E+00
    0.1500000000E+08    0.6077847246E+00    0.1280081301E-03    0.4402926907E-04    0.7239027681E-01    0.6861960975E+00
    0.1700000000E+08    0.6077728999E+00    0.1204297541E-03    0.4115421939E-04    0.7240526011E-01    0.6862113734E+00
    0.1900000000E+08    0.6077621685E+00    0.1140724253E-03    0.3875721570E-04    0.7241855154E-01    0.6862241408E+00
    0.2100000000E+08    0.6077523495E+00    0.1086391833E-03    0.3671987747E-04    0.7243049466E-01    0.6862350171E+00
    0.2300000000E+08    0.6077433019E+00    0.1039253354E-03    0.3496106408E-04    0.7244133794E-01    0.6862444261E+00
    0.2500000000E+08    0.6077349146E+00    0.9978457612E-04    0.3342307300E-04    0.7245126698E-01    0.6862526698E+00
    0.2700000000E+08    0.6077270984E+00    0.9610917255E-04    0.3206361011E-04    0.7246042400E-01    0.6862599698E+00
