  Pressure (Pa) 22mC5-400 (mol/kg) 2mC6-400 (mol/kg) 33mC5-400 (mol/kg) 23mC5-400 (mol/kg) C7-400 (mol/kg)
    0.1000000000E+01    0.1586289107E-02    0.4739601385E-02    0.3216005847E-03    0.1856900952E-03    0.6805500946E-02
    0.3000000000E+01    0.4688651823E-02    0.1374617367E-01    0.9328566504E-03    0.5488559647E-03    0.1978591855E-01
    0.5000000000E+01    0.7701732275E-02    0.2217091737E-01    0.1504788391E-02    0.9015768811E-03    0.3199198307E-01
    0.7000000000E+01    0.1063039344E-01    0.3006574959E-01    0.2040906050E-02    0.1244421684E-02    0.4349475482E-01
    0.9000000000E+01    0.1347913911E-01    0.3747654405E-01    0.2544310850E-02    0.1577917200E-02    0.5435675072E-01
    0.1100000000E+02    0.1625214675E-01    0.4444399542E-01    0.3017753548E-02    0.1902552090E-02    0.6463319583E-01
    0.1300000000E+02    0.1895329683E-01    0.5100433815E-01    0.3463683120E-02    0.2218780273E-02    0.7437306084E-01
    0.1500000000E+02    0.2158619905E-01    0.5718994765E-01    0.3884287476E-02    0.2527024001E-02    0.8361992700E-01
    0.1700000000E+02    0.2415421576E-01    0.6302984600E-01    0.4281527705E-02    0.2827676591E-02    0.9241271115E-01
    0.1900000000E+02    0.2666048306E-01    0.6855012935E-01    0.4657167007E-02    0.3121104899E-02    0.1007862765E+00
    0.2100000000E+02    0.2910792971E-01    0.7377433106E-01    0.5012795282E-02    0.3407651527E-02    0.1087719500E+00
    0.2300000000E+02    0.3149929420E-01    0.7872373157E-01    0.5349850097E-02    0.3687636821E-02    0.1163979615E+00
    0.2500000000E+02    0.3383714012E-01    0.8341762397E-01    0.5669634662E-02    0.3961360671E-02    0.1236898199E+00
    0.2700000000E+02    0.3612387009E-01    0.8787354254E-01    0.5973333295E-02    0.4229104138E-02    0.1306706351E+00
    0.2900000000E+02    0.3836173836E-01    0.9210746021E-01    0.6262024779E-02    0.4491130926E-02    0.1373613950E+00
    0.3100000000E+02    0.4055286224E-01    0.9613395976E-01    0.6536693950E-02    0.4747688721E-02    0.1437812055E+00
    0.3300000000E+02    0.4269923244E-01    0.9996638284E-01    0.6798241769E-02    0.4999010406E-02    0.1499474980E+00
    0.3500000000E+02    0.4480272259E-01    0.1036169600E+00    0.7047494122E-02    0.5245315160E-02    0.1558762100E+00
    0.3700000000E+02    0.4686509779E-01    0.1070969247E+00    0.7285209525E-02    0.5486809474E-02    0.1615819434E+00
    0.3900000000E+02    0.4888802249E-01    0.1104166132E+00    0.7512085891E-02    0.5723688062E-02    0.1670781022E+00
    0.4100000000E+02    0.5087306766E-01    0.1135855530E+00    0.7728766492E-02    0.5956134705E-02    0.1723770137E+00
    0.4300000000E+02    0.5282171737E-01    0.1166125406E+00    0.7935845226E-02    0.6184323017E-02    0.1774900358E+00
    0.4500000000E+02    0.5473537479E-01    0.1195057105E+00    0.8133871282E-02    0.6408417152E-02    0.1824276507E+00
    0.4700000000E+02    0.5661536774E-01    0.1222725966E+00    0.8323353284E-02    0.6628572445E-02    0.1871995487E+00
    0.4900000000E+02    0.5846295374E-01    0.1249201866E+00    0.8504762977E-02    0.6844936011E-02    0.1918147021E+00
    0.1000000000E+02    0.1487486102E-01    0.4101332599E-01    0.2784617840E-02    0.1741313077E-02    0.5956497076E-01
    0.3000000000E+02    0.3946301608E-01    0.9414577592E-01    0.6401053987E-02    0.4620078559E-02    0.1406040425E+00
    0.5000000000E+02    0.5937496904E-01    0.1262012920E+00    0.8592578860E-02    0.6951739757E-02    0.1940661235E+00
    0.7000000000E+02    0.7617289671E-01    0.1469140083E+00    0.1001648291E-01    0.8919047673E-02    0.2325959394E+00
    0.9000000000E+02    0.9076880166E-01    0.1608694434E+00    0.1098233677E-01    0.1062869806E-01    0.2620469060E+00
    0.1100000000E+03    0.1037340537E+00    0.1705104363E+00    0.1165509029E-01    0.1214753870E-01    0.2855193888E+00
    0.1300000000E+03    0.1154467399E+00    0.1772544048E+00    0.1213050298E-01    0.1351980577E-01    0.3048183931E+00
    0.1500000000E+03    0.1261682149E+00    0.1819773889E+00    0.1246780692E-01    0.1477607879E-01    0.3210712668E+00
    0.1700000000E+03    0.1360857064E+00    0.1852478711E+00    0.1270548012E-01    0.1593826473E-01    0.3350214451E+00
    0.1900000000E+03    0.1453373874E+00    0.1874493606E+00    0.1286951462E-01    0.1702253123E-01    0.3471809017E+00
    0.2100000000E+03    0.1540278281E+00    0.1888489095E+00    0.1297803790E-01    0.1804111431E-01    0.3579149037E+00
    0.2300000000E+03    0.1622378946E+00    0.1896374422E+00    0.1304403327E-01    0.1900347652E-01    0.3674918279E+00
    0.2500000000E+03    0.1700313056E+00    0.1899545265E+00    0.1307701125E-01    0.1991707398E-01    0.3761138208E+00
    0.2700000000E+03    0.1774590992E+00    0.1899041449E+00    0.1308407388E-01    0.2078787910E-01    0.3839364128E+00
    0.2900000000E+03    0.1845627552E+00    0.1895650475E+00    0.1307061383E-01    0.2162074581E-01    0.3910814879E+00
    0.3100000000E+03    0.1913764247E+00    0.1889977311E+00    0.1304078572E-01    0.2241967046E-01    0.3976461082E+00
    0.3300000000E+03    0.1979285533E+00    0.1882492524E+00    0.1299783148E-01    0.2318798181E-01    0.4037086694E+00
    0.3500000000E+03    0.2042430852E+00    0.1873566175E+00    0.1294430957E-01    0.2392848184E-01    0.4093332891E+00
    0.3700000000E+03    0.2103403687E+00    0.1863492113E+00    0.1288225934E-01    0.2464355175E-01    0.4145729976E+00
    0.3900000000E+03    0.2162378480E+00    0.1852505666E+00    0.1281332095E-01    0.2533523288E-01    0.4194720986E+00
    0.4100000000E+03    0.2219505977E+00    0.1840796733E+00    0.1273882401E-01    0.2600528932E-01    0.4240679420E+00
    0.4300000000E+03    0.2274917416E+00    0.1828519575E+00    0.1265985408E-01    0.2665525681E-01    0.4283922759E+00
    0.4500000000E+03    0.2328727833E+00    0.1815800248E+00    0.1257730311E-01    0.2728648155E-01    0.4324722898E+00
    0.4700000000E+03    0.2381038706E+00    0.1802742288E+00    0.1249190815E-01    0.2790015102E-01    0.4363314290E+00
    0.4900000000E+03    0.2431940082E+00    0.1789431123E+00    0.1240428133E-01    0.2849731899E-01    0.4399900381E+00
    0.1000000000E+03    0.9742821984E-01    0.1661240457E+00    0.1134824537E-01    0.1140880602E-01    0.2743968058E+00
    0.3000000000E+03    0.1880039425E+00    0.1893067060E+00    0.1305752484E-01    0.2202422905E-01    0.3944310761E+00
    0.5000000000E+03    0.2456887656E+00    0.1782703194E+00    0.1235979397E-01    0.2879001269E-01    0.4417497819E+00
    0.7000000000E+03    0.2897544145E+00    0.1646765063E+00    0.1144022098E-01    0.3396131972E-01    0.4697404733E+00
    0.9000000000E+03    0.3253970324E+00    0.1521190967E+00    0.1056493378E-01    0.3814619778E-01    0.4890658064E+00
    0.1100000000E+04    0.3549943863E+00    0.1411047681E+00    0.9780773835E-02    0.4162289134E-01    0.5035584016E+00
    0.1300000000E+04    0.3799519245E+00    0.1315573181E+00    0.9089755650E-02    0.4455588022E-01    0.5150040778E+00
    0.1500000000E+04    0.4012230161E+00    0.1232849977E+00    0.8483070255E-02    0.4705675657E-01    0.5243706713E+00
    0.1700000000E+04    0.4195052464E+00    0.1160918806E+00    0.7949868560E-02    0.4920719057E-01    0.5322377800E+00
    0.1900000000E+04    0.4353314594E+00    0.1098052243E+00    0.7479815181E-02    0.5106957969E-01    0.5389781072E+00
    0.2100000000E+04    0.4491192998E+00    0.1042797396E+00    0.7063791456E-02    0.5269284264E-01    0.5448444667E+00
    0.2300000000E+04    0.4612016422E+00    0.9939530571E-01    0.6693991903E-02    0.5411597785E-01    0.5500156399E+00
    0.2500000000E+04    0.4718469634E+00    0.9505314674E-01    0.6363820362E-02    0.5537044608E-01    0.5546223475E+00
    0.2700000000E+04    0.4812737972E+00    0.9117204713E-01    0.6067730295E-02    0.5648186107E-01    0.5587628252E+00
    0.2900000000E+04    0.4896613891E+00    0.8768506103E-01    0.5801062356E-02    0.5747123604E-01    0.5625126061E+00
    0.3100000000E+04    0.4971577494E+00    0.8453679040E-01    0.5559897766E-02    0.5835592587E-01    0.5659309074E+00
    0.3300000000E+04    0.5038858454E+00    0.8168118227E-01    0.5340932502E-02    0.5915035188E-01    0.5690649369E+00
    0.3500000000E+04    0.5099484220E+00    0.7907976298E-01    0.5141371955E-02    0.5986656600E-01    0.5719528791E+00
    0.3700000000E+04    0.5154317899E+00    0.7670022738E-01    0.4958843836E-02    0.6051469436E-01    0.5746260158E+00
    0.3900000000E+04    0.5204088260E+00    0.7451531161E-01    0.4791326603E-02    0.6110328856E-01    0.5771102647E+00
    0.4100000000E+04    0.5249413653E+00    0.7250189067E-01    0.4637090782E-02    0.6163960583E-01    0.5794273160E+00
    0.4300000000E+04    0.5290821200E+00    0.7064025361E-01    0.4494650872E-02    0.6212983385E-01    0.5815954862E+00
    0.4500000000E+04    0.5328762272E+00    0.6891351934E-01    0.4362725886E-02    0.6257927199E-01    0.5836303692E+00
    0.4700000000E+04    0.5363625035E+00    0.6730716351E-01    0.4240206889E-02    0.6299247839E-01    0.5855453394E+00
    0.4900000000E+04    0.5395744681E+00    0.6580863398E-01    0.4126130238E-02    0.6337338981E-01    0.5873519445E+00
    0.1000000000E+04    0.3408493659E+00    0.1464186383E+00    0.1016089645E-01    0.3996113092E-01    0.4967773426E+00
    0.3000000000E+04    0.4935127630E+00    0.8607166100E-01    0.5677511722E-02    0.5792570379E-01    0.5642599998E+00
    0.5000000000E+04    0.5410868189E+00    0.6509634225E-01    0.4071990855E-02    0.6355281977E-01    0.5882177974E+00
    0.7000000000E+04    0.5622696438E+00    0.5450342098E-01    0.3276385589E-02    0.6607309528E-01    0.6017091264E+00
    0.9000000000E+04    0.5738102645E+00    0.4796152467E-01    0.2798825211E-02    0.6745502739E-01    0.6106981793E+00
    0.1100000000E+05    0.5809381269E+00    0.4342461647E-01    0.2476858421E-02    0.6831441347E-01    0.6172539516E+00
    0.1300000000E+05    0.5857277170E+00    0.4003924462E-01    0.2242680780E-02    0.6889601988E-01    0.6223152929E+00
    0.1500000000E+05    0.5891454604E+00    0.3738457654E-01    0.2063139214E-02    0.6931410871E-01    0.6263795745E+00
    0.1700000000E+05    0.5916960992E+00    0.3522750675E-01    0.1920098062E-02    0.6962848385E-01    0.6297386908E+00
    0.1900000000E+05    0.5936666843E+00    0.3342748026E-01    0.1802776254E-02    0.6987323127E-01    0.6325769602E+00
    0.2100000000E+05    0.5952315670E+00    0.3189411884E-01    0.1704342326E-02    0.7006910137E-01    0.6350173712E+00
    0.2300000000E+05    0.5965023323E+00    0.3056631526E-01    0.1620243730E-02    0.7022940537E-01    0.6371456069E+00
    0.2500000000E+05    0.5975534994E+00    0.2940105821E-01    0.1547320529E-02    0.7036305393E-01    0.6390234684E+00
    0.2700000000E+05    0.5984366204E+00    0.2836706231E-01    0.1483304631E-02    0.7047622632E-01    0.6406968217E+00
    0.2900000000E+05    0.5991884332E+00    0.2744094118E-01    0.1426521771E-02    0.7057333698E-01    0.6422005306E+00
    0.3100000000E+05    0.5998357912E+00    0.2660480564E-01    0.1375706294E-02    0.7065762063E-01    0.6435616395E+00
    0.3300000000E+05    0.6003987557E+00    0.2584469949E-01    0.1329881702E-02    0.7073149996E-01    0.6448014979E+00
    0.3500000000E+05    0.6008926031E+00    0.2514954810E-01    0.1288281149E-02    0.7079682447E-01    0.6459372176E+00
    0.3700000000E+05    0.6013291619E+00    0.2451043217E-01    0.1250293034E-02    0.7085502995E-01    0.6469826988E+00
    0.3900000000E+05    0.6017177283E+00    0.2392007394E-01    0.1215422877E-02    0.7090724773E-01    0.6479493674E+00
    0.4100000000E+05    0.6020657055E+00    0.2337246606E-01    0.1183266013E-02    0.7095438109E-01    0.6488467147E+00
    0.4300000000E+05    0.6023790594E+00    0.2286259844E-01    0.1153487677E-02    0.7099715990E-01    0.6496826999E+00
    0.4500000000E+05    0.6026626497E+00    0.2238625377E-01    0.1125808223E-02    0.7103618024E-01    0.6504640554E+00
    0.4700000000E+05    0.6029204736E+00    0.2193985238E-01    0.1099991983E-02    0.7107193368E-01    0.6511965191E+00
    0.4900000000E+05    0.6031558479E+00    0.2152033265E-01    0.1075838766E-02    0.7110482925E-01    0.6518850171E+00
    0.1000000000E+05    0.5777574798E+00    0.4551068472E-01    0.2623822709E-02    0.6793019040E-01    0.6142067365E+00
    0.3000000000E+05    0.5995237836E+00    0.2701257539E-01    0.1400434835E-02    0.7061691501E-01    0.6428974619E+00
    0.5000000000E+05    0.6032660017E+00    0.2131981498E-01    0.1064331279E-02    0.7112031474E-01    0.6522141318E+00
    0.7000000000E+05    0.6047743322E+00    0.1823780477E-01    0.8904478102E-03    0.7134010286E-01    0.6572713356E+00
    0.9000000000E+05    0.6055818614E+00    0.1622385896E-01    0.7798314920E-03    0.7146699540E-01    0.6605689756E+00
    0.1100000000E+06    0.6060822377E+00    0.1477234243E-01    0.7015766191E-03    0.7155145307E-01    0.6629391521E+00
    0.1300000000E+06    0.6064213746E+00    0.1366067163E-01    0.6424821594E-03    0.7161272538E-01    0.6647495977E+00
    0.1500000000E+06    0.6066656230E+00    0.1277319646E-01    0.5958342222E-03    0.7165981341E-01    0.6661914699E+00
    0.1700000000E+06    0.6068494260E+00    0.1204296597E-01    0.5578090094E-03    0.7169751875E-01    0.6673753431E+00
    0.1900000000E+06    0.6069924131E+00    0.1142813339E-01    0.5260475599E-03    0.7172865186E-01    0.6683702405E+00
    0.2100000000E+06    0.6071065783E+00    0.1090099757E-01    0.4990051491E-03    0.7175497541E-01    0.6692217858E+00
    0.2300000000E+06    0.6071996572E+00    0.1044238309E-01    0.4756222856E-03    0.7177765571E-01    0.6699615125E+00
    0.2500000000E+06    0.6072768587E+00    0.1003853204E-01    0.4551448544E-03    0.7179749812E-01    0.6706120114E+00
    0.2700000000E+06    0.6073418168E+00    0.9679279055E-02    0.4370195604E-03    0.7181507848E-01    0.6711899504E+00
    0.2900000000E+06    0.6073971422E+00    0.9356926406E-02    0.4208300398E-03    0.7183082066E-01    0.6717079339E+00
    0.3100000000E+06    0.6074447581E+00    0.9065522275E-02    0.4062561755E-03    0.7184504437E-01    0.6721756949E+00
    0.3300000000E+06    0.6074861117E+00    0.8800381594E-02    0.3930472731E-03    0.7185799592E-01    0.6726008855E+00
    0.3500000000E+06    0.6075223126E+00    0.8557758614E-02    0.3810038404E-03    0.7186986851E-01    0.6729896165E+00
    0.3700000000E+06    0.6075542252E+00    0.8334617423E-02    0.3699648892E-03    0.7188081611E-01    0.6733468352E+00
    0.3900000000E+06    0.6075825328E+00    0.8128467554E-02    0.3597988851E-03    0.7189096316E-01    0.6736765962E+00
    0.4100000000E+06    0.6076077825E+00    0.7937243908E-02    0.3503971667E-03    0.7190041151E-01    0.6739822579E+00
    0.4300000000E+06    0.6076304174E+00    0.7759217518E-02    0.3416690777E-03    0.7190924541E-01    0.6742666297E+00
    0.4500000000E+06    0.6076507999E+00    0.7592928204E-02    0.3335383066E-03    0.7191753528E-01    0.6745320821E+00
    0.4700000000E+06    0.6076692293E+00    0.7437133038E-02    0.3259400971E-03    0.7192534050E-01    0.6747806312E+00
    0.4900000000E+06    0.6076859549E+00    0.7290766404E-02    0.3188190935E-03    0.7193271156E-01    0.6750140043E+00
    0.1000000000E+06    0.6058584989E+00    0.1544532868E-01    0.7377054892E-03    0.7151296421E-01    0.6618410427E+00
    0.3000000000E+06    0.6074218141E+00    0.9207673864E-02    0.4133581997E-03    0.7183810548E-01    0.6719475725E+00
    0.5000000000E+06    0.6076937456E+00    0.7220826421E-02    0.3154223938E-03    0.7193624803E-01    0.6751254733E+00
    0.7000000000E+06    0.6077967731E+00    0.6148117270E-02    0.2638328633E-03    0.7199204028E-01    0.6768313195E+00
    0.9000000000E+06    0.6078468589E+00    0.5450483757E-02    0.2308287058E-03    0.7203059131E-01    0.6779367534E+00
    0.1100000000E+07    0.6078742498E+00    0.4949852816E-02    0.2074364013E-03    0.7205991211E-01    0.6787280338E+00
    0.1300000000E+07    0.6078901264E+00    0.4567850811E-02    0.1897643044E-03    0.7208351898E-01    0.6793306625E+00
    0.1500000000E+07    0.6078995098E+00    0.4263844560E-02    0.1758174085E-03    0.7210325330E-01    0.6798095212E+00
    0.1700000000E+07    0.6079049577E+00    0.4014373637E-02    0.1644543802E-03    0.7212019529E-01    0.6802019874E+00
    0.1900000000E+07    0.6079078936E+00    0.3804813811E-02    0.1549692571E-03    0.7213503100E-01    0.6805313182E+00
    0.2100000000E+07    0.6079091643E+00    0.3625509080E-02    0.1468990330E-03    0.7214822264E-01    0.6808128464E+00
    0.2300000000E+07    0.6079092992E+00    0.3469791249E-02    0.1399258597E-03    0.7216009601E-01    0.6810571467E+00
    0.2500000000E+07    0.6079086432E+00    0.3332886569E-02    0.1338233969E-03    0.7217088920E-01    0.6812717811E+00
    0.2700000000E+07    0.6079074282E+00    0.3211274973E-02    0.1284255475E-03    0.7218078141E-01    0.6814623198E+00
    0.2900000000E+07    0.6079058145E+00    0.3102295872E-02    0.1236073211E-03    0.7218991081E-01    0.6816329694E+00
    0.3100000000E+07    0.6079039152E+00    0.3003895658E-02    0.1192726328E-03    0.7219838616E-01    0.6817869743E+00
    0.3300000000E+07    0.6079018117E+00    0.2914460378E-02    0.1153462517E-03    0.7220629456E-01    0.6819268824E+00
    0.3500000000E+07    0.6078995634E+00    0.2832701570E-02    0.1117683289E-03    0.7221370686E-01    0.6820547263E+00
    0.3700000000E+07    0.6078972143E+00    0.2757576375E-02    0.1084905828E-03    0.7222068144E-01    0.6821721502E+00
    0.3900000000E+07    0.6078947973E+00    0.2688230398E-02    0.1054735784E-03    0.7222726698E-01    0.6822805006E+00
    0.4100000000E+07    0.6078923370E+00    0.2623956018E-02    0.1026847506E-03    0.7223350447E-01    0.6823808918E+00
    0.4300000000E+07    0.6078898524E+00    0.2564161460E-02    0.1000969402E-03    0.7223942877E-01    0.6824742556E+00
    0.4500000000E+07    0.6078873577E+00    0.2508347475E-02    0.9768729448E-04    0.7224506975E-01    0.6825613773E+00
    0.4700000000E+07    0.6078848638E+00    0.2456089514E-02    0.9543642834E-04    0.7225045323E-01    0.6826429249E+00
    0.4900000000E+07    0.6078823793E+00    0.2407023936E-02    0.9332777717E-04    0.7225560164E-01    0.6827194699E+00
    0.1000000000E+07    0.6078624737E+00    0.5181719057E-02    0.2182387847E-03    0.7204612890E-01    0.6783617642E+00
    0.3000000000E+07    0.6079048948E+00    0.3051883039E-02    0.1213846514E-03    0.7219422436E-01    0.6817118794E+00
    0.5000000000E+07    0.6078811425E+00    0.2383588599E-02    0.9232225021E-04    0.7225809393E-01    0.6827560232E+00
    0.7000000000E+07    0.6078578119E+00    0.2024979082E-02    0.7707474501E-04    0.7229929580E-01    0.6833147734E+00
    0.9000000000E+07    0.6078376041E+00    0.1792601129E-02    0.6734609542E-04    0.7232976036E-01    0.6836762278E+00
    0.1100000000E+08    0.6078201409E+00    0.1626255111E-02    0.6046391971E-04    0.7235394024E-01    0.6839346598E+00
    0.1300000000E+08    0.6078048633E+00    0.1499557945E-02    0.5527227684E-04    0.7237398951E-01    0.6841313114E+00
    0.1500000000E+08    0.6077913206E+00    0.1398872728E-02    0.5117979311E-04    0.7239111543E-01    0.6842874719E+00
    0.1700000000E+08    0.6077791741E+00    0.1316344246E-02    0.4784870308E-04    0.7240606297E-01    0.6844153917E+00
    0.1900000000E+08    0.6077681702E+00    0.1247085026E-02    0.4507037022E-04    0.7241932428E-01    0.6845226868E+00
    0.2100000000E+08    0.6077581161E+00    0.1187872966E-02    0.4270811865E-04    0.7243124155E-01    0.6846143744E+00
    0.2300000000E+08    0.6077488630E+00    0.1136485856E-02    0.4066821584E-04    0.7244206237E-01    0.6846939126E+00
    0.2500000000E+08    0.6077402938E+00    0.1091334597E-02    0.3888397301E-04    0.7245197163E-01    0.6847637731E+00
    0.2700000000E+08    0.6077323152E+00    0.1051248563E-02    0.3730648931E-04    0.7246111109E-01    0.6848257758E+00
