  Pressure (Pa) 22mC5-400 (mol/kg) 2mC6-400 (mol/kg) 33mC5-400 (mol/kg) 23mC5-400 (mol/kg) C7-400 (mol/kg)
    0.1000000000E+01    0.1590997972E-02    0.7972186273E-03    0.3894578800E-03    0.7449644964E-03    0.3435789251E-02
    0.3000000000E+01    0.4729661938E-02    0.2353457737E-02    0.1149735429E-02    0.2214619966E-02    0.1017668749E-01
    0.5000000000E+01    0.7812023944E-02    0.3860473372E-02    0.1885993746E-02    0.3657933577E-02    0.1674898900E-01
    0.7000000000E+01    0.1083978888E-01    0.5320223471E-02    0.2599186593E-02    0.5075702839E-02    0.2315916047E-01
    0.9000000000E+01    0.1381459193E-01    0.6734567832E-02    0.3290219914E-02    0.6468692656E-02    0.2941333938E-01
    0.1100000000E+02    0.1673800209E-01    0.8105274105E-02    0.3959954768E-02    0.7837636970E-02    0.3551735471E-01
    0.1300000000E+02    0.1961152544E-01    0.9434023350E-02    0.4609210026E-02    0.9183240311E-02    0.4147674616E-01
    0.1500000000E+02    0.2243660832E-01    0.1072241520E-01    0.5238764897E-02    0.1050617925E-01    0.4729678187E-01
    0.1700000000E+02    0.2521464019E-01    0.1197197265E-01    0.5849361263E-02    0.1180710376E-01    0.5298247494E-01
    0.1900000000E+02    0.2794695644E-01    0.1318414655E-01    0.6441705857E-02    0.1308663852E-01    0.5853859873E-01
    0.2100000000E+02    0.3063484097E-01    0.1436031971E-01    0.7016472286E-02    0.1434538413E-01    0.6396970100E-01
    0.2300000000E+02    0.3327952864E-01    0.1550181084E-01    0.7574302923E-02    0.1558391826E-01    0.6928011719E-01
    0.2500000000E+02    0.3588220759E-01    0.1660987811E-01    0.8115810669E-02    0.1680279671E-01    0.7447398266E-01
    0.2700000000E+02    0.3844402144E-01    0.1768572255E-01    0.8641580594E-02    0.1800255447E-01    0.7955524415E-01
    0.2900000000E+02    0.4096607134E-01    0.1873049119E-01    0.9152171474E-02    0.1918370664E-01    0.8452767044E-01
    0.3100000000E+02    0.4344941792E-01    0.1974528004E-01    0.9648117227E-02    0.2034674940E-01    0.8939486229E-01
    0.3300000000E+02    0.4589508314E-01    0.2073113678E-01    0.1012992826E-01    0.2149216083E-01    0.9416026175E-01
    0.3500000000E+02    0.4830405205E-01    0.2168906341E-01    0.1059809272E-01    0.2262040174E-01    0.9882716082E-01
    0.3700000000E+02    0.5067727443E-01    0.2262001863E-01    0.1105307767E-01    0.2373191644E-01    0.1033987096E+00
    0.3900000000E+02    0.5301566634E-01    0.2352492013E-01    0.1149533022E-01    0.2482713348E-01    0.1078779238E+00
    0.4100000000E+02    0.5532011165E-01    0.2440464668E-01    0.1192527852E-01    0.2590646633E-01    0.1122676919E+00
    0.4300000000E+02    0.5759146339E-01    0.2526004019E-01    0.1234333276E-01    0.2697031407E-01    0.1165707819E+00
    0.4500000000E+02    0.5983054513E-01    0.2609190752E-01    0.1274988610E-01    0.2801906197E-01    0.1207898475E+00
    0.4700000000E+02    0.6203815221E-01    0.2690102229E-01    0.1314531549E-01    0.2905308211E-01    0.1249274337E+00
    0.4900000000E+02    0.6421505298E-01    0.2768812652E-01    0.1352998250E-01    0.3007273393E-01    0.1289859829E+00
    0.1000000000E+02    0.1528262556E-01    0.7425268696E-02    0.3627697512E-02    0.7156125796E-02    0.3248376469E-01
    0.3000000000E+02    0.4221251779E-01    0.1924156651E-01    0.9401942555E-02    0.1976746140E-01    0.8697420192E-01
    0.5000000000E+02    0.6529222150E-01    0.2807364831E-01    0.1371838908E-01    0.3057728072E-01    0.1309863549E+00
    0.7000000000E+02    0.8539156806E-01    0.3478719182E-01    0.1699881942E-01    0.3999250161E-01    0.1673674794E+00
    0.9000000000E+02    0.1031288503E+00    0.3995519922E-01    0.1952252802E-01    0.4830238055E-01    0.1980110915E+00
    0.1100000000E+03    0.1189559152E+00    0.4397027219E-01    0.2148099174E-01    0.5571831323E-01    0.2242264671E+00
    0.1300000000E+03    0.1332109796E+00    0.4710920632E-01    0.2300931126E-01    0.6239853902E-01    0.2469485417E+00
    0.1500000000E+03    0.1461525639E+00    0.4957190041E-01    0.2420514543E-01    0.6846401396E-01    0.2668632704E+00
    0.1700000000E+03    0.1579819563E+00    0.5150571041E-01    0.2514056088E-01    0.7400891935E-01    0.2844856940E+00
    0.1900000000E+03    0.1688584799E+00    0.5302119798E-01    0.2586969425E-01    0.7910780331E-01    0.3002103120E+00
    0.2100000000E+03    0.1789101101E+00    0.5420260386E-01    0.2643384826E-01    0.8382054796E-01    0.3143445929E+00
    0.2300000000E+03    0.1882410132E+00    0.5511498548E-01    0.2686496523E-01    0.8819589585E-01    0.3271318676E+00
    0.2500000000E+03    0.1969369974E+00    0.5580918675E-01    0.2718804621E-01    0.9227400045E-01    0.3387673361E+00
    0.2700000000E+03    0.2050695222E+00    0.5632536498E-01    0.2742286850E-01    0.9608830155E-01    0.3494094947E+00
    0.2900000000E+03    0.2126986905E+00    0.5669553665E-01    0.2758522588E-01    0.9966692542E-01    0.3591884434E+00
    0.3100000000E+03    0.2198755142E+00    0.5694544342E-01    0.2768783811E-01    0.1030337446E+00    0.3682120266E+00
    0.3300000000E+03    0.2266436504E+00    0.5709593856E-01    0.2774102726E-01    0.1062091902E+00    0.3765704395E+00
    0.3500000000E+03    0.2330407478E+00    0.5716403033E-01    0.2775322693E-01    0.1092108822E+00    0.3843397313E+00
    0.3700000000E+03    0.2390995025E+00    0.5716367593E-01    0.2773137011E-01    0.1120541227E+00    0.3915845020E+00
    0.3900000000E+03    0.2448484934E+00    0.5710639211E-01    0.2768118773E-01    0.1147522877E+00    0.3983600013E+00
    0.4100000000E+03    0.2503128505E+00    0.5700172921E-01    0.2760744066E-01    0.1173171390E+00    0.4047137801E+00
    0.4300000000E+03    0.2555147930E+00    0.5685764247E-01    0.2751410164E-01    0.1197590767E+00    0.4106870023E+00
    0.4500000000E+03    0.2604740670E+00    0.5668078517E-01    0.2740449904E-01    0.1220873432E+00    0.4163154948E+00
    0.4700000000E+03    0.2652083038E+00    0.5647674192E-01    0.2728143143E-01    0.1243101915E+00    0.4216305961E+00
    0.4900000000E+03    0.2697333153E+00    0.5625021545E-01    0.2714725942E-01    0.1264350232E+00    0.4266598474E+00
    0.1000000000E+03    0.1112578255E+00    0.4208738530E-01    0.2056291645E-01    0.5211117297E-01    0.2116068670E+00
    0.3000000000E+03    0.2163407619E+00    0.5683411889E-01    0.2764330547E-01    0.1013754611E+00    0.3637886505E+00
    0.5000000000E+03    0.2719218667E+00    0.5612978716E-01    0.2707664576E-01    0.1274627917E+00    0.4290749888E+00
    0.7000000000E+03    0.3075243472E+00    0.5323155766E-01    0.2542958593E-01    0.1441904893E+00    0.4669973708E+00
    0.9000000000E+03    0.3324196510E+00    0.5022831820E-01    0.2375475897E-01    0.1558992248E+00    0.4924062554E+00
    0.1100000000E+04    0.3507823066E+00    0.4752432441E-01    0.2225681040E-01    0.1645441361E+00    0.5109101657E+00
    0.1300000000E+04    0.3648460303E+00    0.4516538491E-01    0.2095664173E-01    0.1711717781E+00    0.5251416574E+00
    0.1500000000E+04    0.3759312030E+00    0.4311557290E-01    0.1983276919E-01    0.1764010148E+00    0.5365170509E+00
    0.1700000000E+04    0.3848716078E+00    0.4132578573E-01    0.1885701350E-01    0.1806227843E+00    0.5458735974E+00
    0.1900000000E+04    0.3922198005E+00    0.3975113980E-01    0.1800370463E-01    0.1840962580E+00    0.5537416552E+00
    0.2100000000E+04    0.3983560200E+00    0.3835441491E-01    0.1725152451E-01    0.1869998466E+00    0.5604754476E+00
    0.2300000000E+04    0.4035500709E+00    0.3710567556E-01    0.1658329209E-01    0.1894601891E+00    0.5663216757E+00
    0.2500000000E+04    0.4079983785E+00    0.3598102309E-01    0.1598526860E-01    0.1915695138E+00    0.5714580912E+00
    0.2700000000E+04    0.4118471201E+00    0.3496133767E-01    0.1544645211E-01    0.1933964801E+00    0.5760164167E+00
    0.2900000000E+04    0.4152071728E+00    0.3403122610E-01    0.1495798291E-01    0.1949931847E+00    0.5800965997E+00
    0.3100000000E+04    0.4181640564E+00    0.3317819486E-01    0.1451267328E-01    0.1963998238E+00    0.5837760230E+00
    0.3300000000E+04    0.4207847182E+00    0.3239201547E-01    0.1410464447E-01    0.1976478753E+00    0.5871156501E+00
    0.3500000000E+04    0.4231222648E+00    0.3166424035E-01    0.1372904850E-01    0.1987623177E+00    0.5901642440E+00
    0.3700000000E+04    0.4252193280E+00    0.3098783340E-01    0.1338185509E-01    0.1997632098E+00    0.5929613331E+00
    0.3900000000E+04    0.4271105009E+00    0.3035688664E-01    0.1305968773E-01    0.2006668338E+00    0.5955393410E+00
    0.4100000000E+04    0.4288241291E+00    0.2976640138E-01    0.1275969680E-01    0.2014865360E+00    0.5979251464E+00
    0.4300000000E+04    0.4303836475E+00    0.2921211795E-01    0.1247946060E-01    0.2022333544E+00    0.6001412439E+00
    0.4500000000E+04    0.4318085894E+00    0.2869038208E-01    0.1221690771E-01    0.2029164925E+00    0.6022066206E+00
    0.4700000000E+04    0.4331153593E+00    0.2819803927E-01    0.1197025545E-01    0.2035436824E+00    0.6041374287E+00
    0.4900000000E+04    0.4343178294E+00    0.2773235054E-01    0.1173796089E-01    0.2041214650E+00    0.6059475062E+00
    0.1000000000E+04    0.3422490247E+00    0.4883263095E-01    0.2298059608E-01    0.1605257041E+00    0.5023164275E+00
    0.3000000000E+04    0.4167314547E+00    0.3359576149E-01    0.1473032763E-01    0.1957181205E+00    0.5819822681E+00
    0.5000000000E+04    0.4348837117E+00    0.2750874220E-01    0.1162677127E-01    0.2043936017E+00    0.6068110650E+00
    0.7000000000E+04    0.4428383728E+00    0.2398857499E-01    0.9907183726E-02    0.2082396433E+00    0.6199319771E+00
    0.9000000000E+04    0.4472616120E+00    0.2160330100E-01    0.8775828257E-02    0.2104034282E+00    0.6283196832E+00
    0.1100000000E+05    0.4500646502E+00    0.1984191855E-01    0.7958240380E-02    0.2117908623E+00    0.6342543447E+00
    0.1300000000E+05    0.4519942987E+00    0.1846878380E-01    0.7331419502E-02    0.2127573237E+00    0.6387290865E+00
    0.1500000000E+05    0.4534008750E+00    0.1735747885E-01    0.6830892545E-02    0.2134701712E+00    0.6422538481E+00
    0.1700000000E+05    0.4544700094E+00    0.1643302269E-01    0.6419140323E-02    0.2140184366E+00    0.6451204656E+00
    0.1900000000E+05    0.4553090626E+00    0.1564763472E-01    0.6072630893E-02    0.2144538155E+00    0.6475093956E+00
    0.2100000000E+05    0.4559843670E+00    0.1496917843E-01    0.5775748800E-02    0.2148083744E+00    0.6495389110E+00
    0.2300000000E+05    0.4565390794E+00    0.1437510807E-01    0.5517665223E-02    0.2151030590E+00    0.6512901335E+00
    0.2500000000E+05    0.4570024704E+00    0.1384906083E-01    0.5290600253E-02    0.2153521319E+00    0.6528207735E+00
    0.2700000000E+05    0.4573950823E+00    0.1337882549E-01    0.5088799607E-02    0.2155656424E+00    0.6541731372E+00
    0.2900000000E+05    0.4577317509E+00    0.1295507379E-01    0.4907902481E-02    0.2157508772E+00    0.6553790273E+00
    0.3100000000E+05    0.4580234539E+00    0.1257053695E-01    0.4744535162E-02    0.2159132494E+00    0.6564628659E+00
    0.3300000000E+05    0.4582784860E+00    0.1221945340E-01    0.4596040842E-02    0.2160568655E+00    0.6574437552E+00
    0.3500000000E+05    0.4585032297E+00    0.1189718784E-01    0.4460294735E-02    0.2161848978E+00    0.6583368761E+00
    0.3700000000E+05    0.4587026747E+00    0.1159996204E-01    0.4335574368E-02    0.2162998362E+00    0.6591544637E+00
    0.3900000000E+05    0.4588807776E+00    0.1132466060E-01    0.4220466575E-02    0.2164036631E+00    0.6599065016E+00
    0.4100000000E+05    0.4590407156E+00    0.1106868797E-01    0.4113799509E-02    0.2164979766E+00    0.6606012269E+00
    0.4300000000E+05    0.4591850684E+00    0.1082986166E-01    0.4014592080E-02    0.2165840794E+00    0.6612455032E+00
    0.4500000000E+05    0.4593159526E+00    0.1060633107E-01    0.3922015779E-02    0.2166630446E+00    0.6618451008E+00
    0.4700000000E+05    0.4594351203E+00    0.1039651507E-01    0.3835365450E-02    0.2167357641E+00    0.6624049106E+00
    0.4900000000E+05    0.4595440345E+00    0.1019905344E-01    0.3754036625E-02    0.2168029855E+00    0.6629291086E+00
    0.1000000000E+05    0.4488050984E+00    0.2066299872E-01    0.8337472334E-02    0.2111654016E+00    0.6315151682E+00
    0.3000000000E+05    0.4578826523E+00    0.1275829381E-01    0.4824207955E-02    0.2158346390E+00    0.6559349034E+00
    0.5000000000E+05    0.4595950390E+00    0.1010458124E-01    0.3715201960E-02    0.2168347358E+00    0.6631789949E+00
    0.7000000000E+05    0.4602933635E+00    0.8646302712E-02    0.3122138118E-02    0.2172929996E+00    0.6669620474E+00
    0.9000000000E+05    0.4606629643E+00    0.7688807045E-02    0.2739576467E-02    0.2175643667E+00    0.6693705230E+00
    0.1100000000E+06    0.4608868596E+00    0.6997450186E-02    0.2466964386E-02    0.2177478211E+00    0.6710725188E+00
    0.1300000000E+06    0.4610341725E+00    0.6467608369E-02    0.2260221136E-02    0.2178823162E+00    0.6723558875E+00
    0.1500000000E+06    0.4611366195E+00    0.6044559073E-02    0.2096581929E-02    0.2179864527E+00    0.6733674868E+00
    0.1700000000E+06    0.4612107202E+00    0.5696502213E-02    0.1962951863E-02    0.2180703053E+00    0.6741910255E+00
    0.1900000000E+06    0.4612658872E+00    0.5403515708E-02    0.1851196728E-02    0.2181398395E+00    0.6748781319E+00
    0.2100000000E+06    0.4613078558E+00    0.5152392768E-02    0.1755963405E-02    0.2181988310E+00    0.6754625880E+00
    0.2300000000E+06    0.4613403080E+00    0.4933983009E-02    0.1673566621E-02    0.2182497968E+00    0.6759675410E+00
    0.2500000000E+06    0.4613657080E+00    0.4741717514E-02    0.1601375803E-02    0.2182944850E+00    0.6764094486E+00
    0.2700000000E+06    0.4613857627E+00    0.4570741007E-02    0.1537456574E-02    0.2183341525E+00    0.6768003722E+00
    0.2900000000E+06    0.4614016883E+00    0.4417376159E-02    0.1480350684E-02    0.2183697279E+00    0.6771493784E+00
    0.3100000000E+06    0.4614143728E+00    0.4278779459E-02    0.1428935360E-02    0.2184019146E+00    0.6774634306E+00
    0.3300000000E+06    0.4614244780E+00    0.4152712597E-02    0.1382330284E-02    0.2184312561E+00    0.6777479766E+00
    0.3500000000E+06    0.4614325059E+00    0.4037386119E-02    0.1339834259E-02    0.2184581799E+00    0.6780073475E+00
    0.3700000000E+06    0.4614388434E+00    0.3931349816E-02    0.1300880969E-02    0.2184830277E+00    0.6782450355E+00
    0.3900000000E+06    0.4614437931E+00    0.3833414175E-02    0.1265007396E-02    0.2185060760E+00    0.6784638912E+00
    0.4100000000E+06    0.4614475941E+00    0.3742592992E-02    0.1231830822E-02    0.2185275517E+00    0.6786662681E+00
    0.4300000000E+06    0.4614504378E+00    0.3658060709E-02    0.1201031792E-02    0.2185476429E+00    0.6788541279E+00
    0.4500000000E+06    0.4614524787E+00    0.3579120231E-02    0.1172341290E-02    0.2185665069E+00    0.6790291211E+00
    0.4700000000E+06    0.4614538427E+00    0.3505178278E-02    0.1145530955E-02    0.2185842766E+00    0.6791926473E+00
    0.4900000000E+06    0.4614546333E+00    0.3435726299E-02    0.1120405520E-02    0.2186010653E+00    0.6793459021E+00
    0.1000000000E+06    0.4607874837E+00    0.7318083181E-02    0.2593004214E-02    0.2176639370E+00    0.6702870370E+00
    0.3000000000E+06    0.4614083900E+00    0.4346383760E-02    0.1453991548E-02    0.2183862077E+00    0.6773104031E+00
    0.5000000000E+06    0.4614548408E+00    0.3402544543E-02    0.1108421185E-02    0.2186091225E+00    0.6794190049E+00
    0.7000000000E+06    0.4614434817E+00    0.2894065580E-02    0.9264532173E-03    0.2187364200E+00    0.6805296659E+00
    0.9000000000E+06    0.4614200412E+00    0.2563861203E-02    0.8101151640E-03    0.2188245444E+00    0.6812411321E+00
    0.1100000000E+07    0.4613942787E+00    0.2327155025E-02    0.7277078300E-03    0.2188916374E+00    0.6817462712E+00
    0.1300000000E+07    0.4613689514E+00    0.2146687119E-02    0.6654842645E-03    0.2189456902E+00    0.6821285963E+00
    0.1500000000E+07    0.4613448902E+00    0.2003161328E-02    0.6163991930E-03    0.2189908961E+00    0.6824308924E+00
    0.1700000000E+07    0.4613222962E+00    0.1885446717E-02    0.5764234247E-03    0.2190297182E+00    0.6826776337E+00
    0.1900000000E+07    0.4613011485E+00    0.1786610010E-02    0.5430656084E-03    0.2190637227E+00    0.6828839611E+00
    0.2100000000E+07    0.4612813496E+00    0.1702076311E-02    0.5146923405E-03    0.2190939651E+00    0.6830598088E+00
    0.2300000000E+07    0.4612627807E+00    0.1628688090E-02    0.4901826650E-03    0.2191211900E+00    0.6832119997E+00
    0.2500000000E+07    0.4612453235E+00    0.1564185992E-02    0.4687385837E-03    0.2191459418E+00    0.6833453952E+00
    0.2700000000E+07    0.4612288688E+00    0.1506904745E-02    0.4497746574E-03    0.2191686302E+00    0.6834635651E+00
    0.2900000000E+07    0.4612133182E+00    0.1455586174E-02    0.4328504478E-03    0.2191895714E+00    0.6835691975E+00
    0.3100000000E+07    0.4611985848E+00    0.1409259482E-02    0.4176274539E-03    0.2192090142E+00    0.6836643604E+00
    0.3300000000E+07    0.4611845919E+00    0.1367161959E-02    0.4038407012E-03    0.2192271581E+00    0.6837506739E+00
    0.3500000000E+07    0.4611712723E+00    0.1328684890E-02    0.3912794372E-03    0.2192441651E+00    0.6838294278E+00
    0.3700000000E+07    0.4611585668E+00    0.1293335726E-02    0.3797736743E-03    0.2192601690E+00    0.6839016635E+00
    0.3900000000E+07    0.4611464231E+00    0.1260711031E-02    0.3691845989E-03    0.2192752812E+00    0.6839682320E+00
    0.4100000000E+07    0.4611347952E+00    0.1230476753E-02    0.3593975981E-03    0.2192895956E+00    0.6840298367E+00
    0.4300000000E+07    0.4611236422E+00    0.1202353588E-02    0.3503171015E-03    0.2193031920E+00    0.6840870645E+00
    0.4500000000E+07    0.4611129276E+00    0.1176105948E-02    0.3418627043E-03    0.2193161389E+00    0.6841404097E+00
    0.4700000000E+07    0.4611026189E+00    0.1151533534E-02    0.3339662126E-03    0.2193284954E+00    0.6841902917E+00
    0.4900000000E+07    0.4610926872E+00    0.1128464814E-02    0.3265693623E-03    0.2193403129E+00    0.6842370695E+00
    0.1000000000E+07    0.4614072055E+00    0.2436758013E-02    0.7657571973E-03    0.2188600917E+00    0.6815128875E+00
    0.3000000000E+07    0.4612058544E+00    0.1431850659E-02    0.4250443221E-03    0.2191994667E+00    0.6836179775E+00
    0.5000000000E+07    0.4610878543E+00    0.1117447321E-02    0.3230423638E-03    0.2193460338E+00    0.6842593924E+00
    0.7000000000E+07    0.4610058448E+00    0.9489288310E-03    0.2695801562E-03    0.2194406274E+00    0.6845993552E+00
    0.9000000000E+07    0.4609430493E+00    0.8398024115E-03    0.2354891149E-03    0.2195105886E+00    0.6848179543E+00
    0.1100000000E+08    0.4608921762E+00    0.7617208447E-03    0.2113827086E-03    0.2195661275E+00    0.6849735688E+00
    0.1300000000E+08    0.4608494196E+00    0.7022703513E-03    0.1932034633E-03    0.2196121853E+00    0.6850915823E+00
    0.1500000000E+08    0.4608125447E+00    0.6550380637E-03    0.1788765971E-03    0.2196515318E+00    0.6851850385E+00
    0.1700000000E+08    0.4607801283E+00    0.6163315807E-03    0.1672175353E-03    0.2196858766E+00    0.6852614166E+00
    0.1900000000E+08    0.4607512077E+00    0.5838542968E-03    0.1574947928E-03    0.2197163492E+00    0.6853253524E+00
    0.2100000000E+08    0.4607251019E+00    0.5560925865E-03    0.1492293020E-03    0.2197437353E+00    0.6853798924E+00
    0.2300000000E+08    0.4607013112E+00    0.5320027866E-03    0.1420925885E-03    0.2197686031E+00    0.6854271319E+00
    0.2500000000E+08    0.4606794582E+00    0.5108387298E-03    0.1358509930E-03    0.2197913772E+00    0.6854685657E+00
    0.2700000000E+08    0.4606592509E+00    0.4920508426E-03    0.1303332086E-03    0.2198123830E+00    0.6855052924E+00
