  Pressure (Pa) 22mC5-400 (mol/kg) 2mC6-400 (mol/kg) 33mC5-400 (mol/kg) 23mC5-400 (mol/kg) C7-400 (mol/kg)
    0.1000000000E+01    0.1582866419E-02    0.7114852977E-02    0.3218305530E-03    0.9264480603E-04    0.3409936616E-02
    0.3000000000E+01    0.4659206737E-02    0.2066515430E-01    0.9347871487E-03    0.2727053065E-03    0.9954119182E-02
    0.5000000000E+01    0.7623464586E-02    0.3337597190E-01    0.1509804572E-02    0.4462093730E-03    0.1615694609E-01
    0.7000000000E+01    0.1048344733E-01    0.4531911043E-01    0.2050127678E-02    0.6136136547E-03    0.2204678159E-01
    0.9000000000E+01    0.1324622621E-01    0.5655849446E-01    0.2558645172E-02    0.7753317495E-03    0.2764887413E-01
    0.1100000000E+02    0.1591822222E-01    0.6715121711E-01    0.3037937008E-02    0.9317392240E-03    0.3298577558E-01
    0.1300000000E+02    0.1850528009E-01    0.7714842573E-01    0.3490314428E-02    0.1083177943E-02    0.3807769428E-01
    0.1500000000E+02    0.2101273243E-01    0.8659607338E-01    0.3917853925E-02    0.1229959817E-02    0.4294279394E-01
    0.1700000000E+02    0.2344545534E-01    0.9553555931E-01    0.4322426198E-02    0.1372370060E-02    0.4759744772E-01
    0.1900000000E+02    0.2580791697E-01    0.1040042771E+00    0.4705720920E-02    0.1510670024E-02    0.5205645528E-01
    0.2100000000E+02    0.2810421991E-01    0.1120360855E+00    0.5069268027E-02    0.1645099679E-02    0.5633322881E-01
    0.2300000000E+02    0.3033813839E-01    0.1196617148E+00    0.5414456076E-02    0.1775879794E-02    0.6043995327E-01
    0.2500000000E+02    0.3251315102E-01    0.1269091179E+00    0.5742548124E-02    0.1903213844E-02    0.6438772479E-01
    0.2700000000E+02    0.3463246963E-01    0.1338037761E+00    0.6054695529E-02    0.2027289701E-02    0.6818667065E-01
    0.2900000000E+02    0.3669906474E-01    0.1403689644E+00    0.6351949967E-02    0.2148281126E-02    0.7184605379E-01
    0.3100000000E+02    0.3871568827E-01    0.1466259846E+00    0.6635273935E-02    0.2266349090E-02    0.7537436387E-01
    0.3300000000E+02    0.4068489353E-01    0.1525943684E+00    0.6905549953E-02    0.2381642949E-02    0.7877939713E-01
    0.3500000000E+02    0.4260905323E-01    0.1582920567E+00    0.7163588660E-02    0.2494301497E-02    0.8206832645E-01
    0.3700000000E+02    0.4449037539E-01    0.1637355573E+00    0.7410135941E-02    0.2604453894E-02    0.8524776305E-01
    0.3900000000E+02    0.4633091769E-01    0.1689400844E+00    0.7645879230E-02    0.2712220506E-02    0.8832381098E-01
    0.4100000000E+02    0.4813260026E-01    0.1739196822E+00    0.7871453088E-02    0.2817713654E-02    0.9130211535E-01
    0.4300000000E+02    0.4989721725E-01    0.1786873343E+00    0.8087444161E-02    0.2921038290E-02    0.9418790516E-01
    0.4500000000E+02    0.5162644715E-01    0.1832550614E+00    0.8294395588E-02    0.3022292602E-02    0.9698603134E-01
    0.4700000000E+02    0.5332186217E-01    0.1876340084E+00    0.8492810936E-02    0.3121568561E-02    0.9970100071E-01
    0.4900000000E+02    0.5498493672E-01    0.1918345222E+00    0.8683157715E-02    0.3218952415E-02    0.1023370063E+00
    0.1000000000E+02    0.1459319407E-01    0.6193236179E-01    0.2801793971E-02    0.8541772044E-03    0.3034915954E-01
    0.3000000000E+02    0.3771345894E-01    0.1435347356E+00    0.6495296328E-02    0.2207670946E-02    0.7362609031E-01
    0.5000000000E+02    0.5580478222E-01    0.1938708991E+00    0.8775442409E-02    0.3266960303E-02    0.1036266290E+00
    0.7000000000E+02    0.7079889049E-01    0.2272395487E+00    0.1028830480E-01    0.4145044077E-02    0.1260934431E+00
    0.9000000000E+02    0.8371630213E-01    0.2504500102E+00    0.1134156274E-01    0.4901622274E-02    0.1438221180E+00
    0.1100000000E+03    0.9515272492E-01    0.2671417627E+00    0.1209968133E-01    0.5571545348E-02    0.1583475788E+00
    0.1300000000E+03    0.1054823733E+00    0.2794284107E+00    0.1265818796E-01    0.6176706758E-02    0.1705882898E+00
    0.1500000000E+03    0.1149539451E+00    0.2886169298E+00    0.1307616663E-01    0.6731657143E-02    0.1811306059E+00
    0.1700000000E+03    0.1237402643E+00    0.2955562660E+00    0.1339200659E-01    0.7246508297E-02    0.1903682817E+00
    0.1900000000E+03    0.1319658601E+00    0.3008201483E+00    0.1363166125E-01    0.7728546523E-02    0.1985766990E+00
    0.2100000000E+03    0.1397231950E+00    0.3048091677E+00    0.1381325977E-01    0.8183182024E-02    0.2059549868E+00
    0.2300000000E+03    0.1470826782E+00    0.3078107722E+00    0.1394981754E-01    0.8614534678E-02    0.2126512068E+00
    0.2500000000E+03    0.1540990925E+00    0.3100360642E+00    0.1405089874E-01    0.9025810086E-02    0.2187780851E+00
    0.2700000000E+03    0.1608158631E+00    0.3116432002E+00    0.1412367362E-01    0.9419549282E-02    0.2244232059E+00
    0.2900000000E+03    0.1672679746E+00    0.3127527399E+00    0.1417361207E-01    0.9797799436E-02    0.2296558293E+00
    0.3100000000E+03    0.1734840172E+00    0.3134579872E+00    0.1420495098E-01    0.1016223354E-01    0.2345315770E+00
    0.3300000000E+03    0.1794876528E+00    0.3138321248E+00    0.1422101668E-01    0.1051423623E-01    0.2390957308E+00
    0.3500000000E+03    0.1852986875E+00    0.3139332392E+00    0.1422445214E-01    0.1085496651E-01    0.2433856040E+00
    0.3700000000E+03    0.1909338695E+00    0.3138079263E+00    0.1421737990E-01    0.1118540442E-01    0.2474322787E+00
    0.3900000000E+03    0.1964074919E+00    0.3134939218E+00    0.1420152112E-01    0.1150638638E-01    0.2512619001E+00
    0.4100000000E+03    0.2017318555E+00    0.3130220489E+00    0.1417828359E-01    0.1181863218E-01    0.2548966551E+00
    0.4300000000E+03    0.2069176274E+00    0.3124176805E+00    0.1414882791E-01    0.1212276606E-01    0.2583555230E+00
    0.4500000000E+03    0.2119741238E+00    0.3117018503E+00    0.1411411777E-01    0.1241933314E-01    0.2616548583E+00
    0.4700000000E+03    0.2169095333E+00    0.3108921064E+00    0.1407495859E-01    0.1270881261E-01    0.2648088477E+00
    0.4900000000E+03    0.2217310973E+00    0.3100031745E+00    0.1403202751E-01    0.1299162821E-01    0.2678298737E+00
    0.1000000000E+03    0.8959249799E-01    0.2594538756E+00    0.1175042584E-01    0.5245827942E-02    0.1514177380E+00
    0.3000000000E+03    0.1704039243E+00    0.3131509218E+00    0.1419138026E-01    0.9981651025E-02    0.2321352716E+00
    0.5000000000E+03    0.2241012275E+00    0.3095329733E+00    0.1400932995E-01    0.1313065644E-01    0.2692939744E+00
    0.7000000000E+03    0.2667769635E+00    0.2981485054E+00    0.1345810948E-01    0.1563451217E-01    0.2936513912E+00
    0.9000000000E+03    0.3025456548E+00    0.2857391810E+00    0.1285068607E-01    0.1773397278E-01    0.3118408100E+00
    0.1100000000E+04    0.3332277689E+00    0.2738727285E+00    0.1226291745E-01    0.1953554874E-01    0.3263772341E+00
    0.1300000000E+04    0.3598775000E+00    0.2629486967E+00    0.1171599928E-01    0.2110091567E-01    0.3384872902E+00
    0.1500000000E+04    0.3832091321E+00    0.2530242051E+00    0.1121449714E-01    0.2247186537E-01    0.3488635671E+00
    0.1700000000E+04    0.4037539414E+00    0.2440452348E+00    0.1075720674E-01    0.2367948654E-01    0.3579366495E+00
    0.1900000000E+04    0.4219293619E+00    0.2359237418E+00    0.1034089160E-01    0.2474821086E-01    0.3659931410E+00
    0.2100000000E+04    0.4380741321E+00    0.2285659426E+00    0.9961726054E-02    0.2569786825E-01    0.3732337744E+00
    0.2300000000E+04    0.4524684918E+00    0.2218829468E+00    0.9615886165E-02    0.2654486764E-01    0.3798047970E+00
    0.2500000000E+04    0.4653470876E+00    0.2157944333E+00    0.9299790879E-02    0.2730295122E-01    0.3858161656E+00
    0.2700000000E+04    0.4769079537E+00    0.2102294520E+00    0.9010189563E-02    0.2798371936E-01    0.3913527028E+00
    0.2900000000E+04    0.4873191712E+00    0.2051260392E+00    0.8744179681E-02    0.2859701979E-01    0.3964812546E+00
    0.3100000000E+04    0.4967240250E+00    0.2004303787E+00    0.8499192805E-02    0.2915124901E-01    0.4012554606E+00
    0.3300000000E+04    0.5052451121E+00    0.1960958379E+00    0.8272967199E-02    0.2965359254E-01    0.4057190328E+00
    0.3500000000E+04    0.5129876760E+00    0.1920820233E+00    0.8063515919E-02    0.3011021987E-01    0.4099080733E+00
    0.3700000000E+04    0.5200423427E+00    0.1883539162E+00    0.7869094817E-02    0.3052644449E-01    0.4138527502E+00
    0.3900000000E+04    0.5264873839E+00    0.1848811078E+00    0.7688172492E-02    0.3090685633E-01    0.4175785343E+00
    0.4100000000E+04    0.5323905987E+00    0.1816371365E+00    0.7519403068E-02    0.3125543181E-01    0.4211071291E+00
    0.4300000000E+04    0.5378108831E+00    0.1785989190E+00    0.7361602026E-02    0.3157562573E-01    0.4244571802E+00
    0.4500000000E+04    0.5427995443E+00    0.1757462653E+00    0.7213725020E-02    0.3187044821E-01    0.4276448252E+00
    0.4700000000E+04    0.5474014039E+00    0.1730614674E+00    0.7074849460E-02    0.3214252928E-01    0.4306841245E+00
    0.4900000000E+04    0.5516557255E+00    0.1705289491E+00    0.6944158572E-02    0.3239417317E-01    0.4335874035E+00
    0.1000000000E+04    0.3184457856E+00    0.2797003554E+00    0.1255240977E-01    0.1866750620E-01    0.3194714185E+00
    0.3000000000E+04    0.4921392887E+00    0.2027303114E+00    0.8619206548E-02    0.2888104330E-01    0.3989097171E+00
    0.5000000000E+04    0.5536635050E+00    0.1693154367E+00    0.6881652646E-02    0.3251297360E-01    0.4349914814E+00
    0.7000000000E+04    0.5820384316E+00    0.1504401986E+00    0.5922872067E-02    0.3419560589E-01    0.4580028369E+00
    0.9000000000E+04    0.5976004983E+00    0.1378586367E+00    0.5303469470E-02    0.3512312477E-01    0.4746473368E+00
    0.1100000000E+05    0.6071841216E+00    0.1286102558E+00    0.4861497925E-02    0.3569747519E-01    0.4875410990E+00
    0.1300000000E+05    0.6135836431E+00    0.1213795619E+00    0.4524824065E-02    0.3608325363E-01    0.4979756042E+00
    0.1500000000E+05    0.6181170025E+00    0.1154866867E+00    0.4256485630E-02    0.3635821682E-01    0.5066813026E+00
    0.1700000000E+05    0.6214753012E+00    0.1105400718E+00    0.4035482868E-02    0.3656320761E-01    0.5141103097E+00
    0.1900000000E+05    0.6240515041E+00    0.1062954329E+00    0.3848918879E-02    0.3672149029E-01    0.5205611462E+00
    0.2100000000E+05    0.6260837238E+00    0.1025908167E+00    0.3688381249E-02    0.3684718726E-01    0.5262407726E+00
    0.2300000000E+05    0.6277238099E+00    0.9931363838E-01    0.3548114608E-02    0.3694932168E-01    0.5312982635E+00
    0.2500000000E+05    0.6290727483E+00    0.9638261397E-01    0.3424026695E-02    0.3703390588E-01    0.5358443579E+00
    0.2700000000E+05    0.6302000889E+00    0.9373722178E-01    0.3313114097E-02    0.3710508889E-01    0.5399634336E+00
    0.2900000000E+05    0.6311551703E+00    0.9133123487E-01    0.3213113451E-02    0.3716582001E-01    0.5437211668E+00
    0.3100000000E+05    0.6319738923E+00    0.8912857953E-01    0.3122280508E-02    0.3721824965E-01    0.5471696126E+00
    0.3300000000E+05    0.6326829558E+00    0.8710058666E-01    0.3039245081E-02    0.3726398063E-01    0.5503506811E+00
    0.3500000000E+05    0.6333026046E+00    0.8522411080E-01    0.2962912859E-02    0.3730423073E-01    0.5532985773E+00
    0.3700000000E+05    0.6338484485E+00    0.8348020861E-01    0.2892397149E-02    0.3733994106E-01    0.5560415543E+00
    0.3900000000E+05    0.6343327058E+00    0.8185318873E-01    0.2826970295E-02    0.3737184986E-01    0.5586031986E+00
    0.4100000000E+05    0.6347650695E+00    0.8032991477E-01    0.2766028391E-02    0.3740054411E-01    0.5610033884E+00
    0.4300000000E+05    0.6351533218E+00    0.7889928472E-01    0.2709065176E-02    0.3742649614E-01    0.5632590203E+00
    0.4500000000E+05    0.6355037796E+00    0.7755183601E-01    0.2655652404E-02    0.3745009024E-01    0.5653845672E+00
    0.4700000000E+05    0.6358216208E+00    0.7627944145E-01    0.2605424866E-02    0.3747164210E-01    0.5673925133E+00
    0.4900000000E+05    0.6361111282E+00    0.7507507223E-01    0.2558068802E-02    0.3749141347E-01    0.5692936963E+00
    0.1000000000E+05    0.6029139068E+00    0.1329215255E+00    0.5066001210E-02    0.3544115659E-01    0.4814639941E+00
    0.3000000000E+05    0.6315797295E+00    0.9020643076E-01    0.3166644092E-02    0.3719296174E-01    0.5454812261E+00
    0.5000000000E+05    0.6362463965E+00    0.7449645413E-01    0.2535381321E-02    0.3750070129E-01    0.5702072563E+00
    0.7000000000E+05    0.6380839475E+00    0.6535471809E-01    0.2182308920E-02    0.3763110588E-01    0.5846464051E+00
    0.9000000000E+05    0.6390561915E+00    0.5911913856E-01    0.1947111731E-02    0.3770511193E-01    0.5944893292E+00
    0.1100000000E+06    0.6396548411E+00    0.5449033457E-01    0.1775406156E-02    0.3775382383E-01    0.6017864405E+00
    0.1300000000E+06    0.6400592846E+00    0.5086645262E-01    0.1642687811E-02    0.3778889003E-01    0.6074916256E+00
    0.1500000000E+06    0.6403502027E+00    0.4792308544E-01    0.1536003342E-02    0.3781568576E-01    0.6121196500E+00
    0.1700000000E+06    0.6405691426E+00    0.4546704183E-01    0.1447752783E-02    0.3783704985E-01    0.6159770656E+00
    0.1900000000E+06    0.6407396403E+00    0.4337479280E-01    0.1373134450E-02    0.3785463082E-01    0.6192597879E+00
    0.2100000000E+06    0.6408760104E+00    0.4156301104E-01    0.1308941464E-02    0.3786945603E-01    0.6220998810E+00
    0.2300000000E+06    0.6409874515E+00    0.3997308721E-01    0.1252937355E-02    0.3788220168E-01    0.6245901615E+00
    0.2500000000E+06    0.6410801405E+00    0.3856238761E-01    0.1203507298E-02    0.3789333263E-01    0.6267980927E+00
    0.2700000000E+06    0.6411583769E+00    0.3729902961E-01    0.1159451588E-02    0.3790317999E-01    0.6287740863E+00
    0.2900000000E+06    0.6412252443E+00    0.3615861155E-01    0.1119857409E-02    0.3791198670E-01    0.6305566966E+00
    0.3100000000E+06    0.6412830113E+00    0.3512208579E-01    0.1084016011E-02    0.3791993549E-01    0.6321759970E+00
    0.3300000000E+06    0.6413333830E+00    0.3417432955E-01    0.1051367416E-02    0.3792716679E-01    0.6336558478E+00
    0.3500000000E+06    0.6413776659E+00    0.3330315759E-01    0.1021462435E-02    0.3793379048E-01    0.6350154626E+00
    0.3700000000E+06    0.6414168774E+00    0.3249862341E-01    0.9939359167E-03    0.3793989400E-01    0.6362705151E+00
    0.3900000000E+06    0.6414518214E+00    0.3175251420E-01    0.9684875167E-03    0.3794554786E-01    0.6374339397E+00
    0.4100000000E+06    0.6414831414E+00    0.3105797877E-01    0.9448675847E-03    0.3795080969E-01    0.6385165207E+00
    0.4300000000E+06    0.6415113587E+00    0.3040924904E-01    0.9228666460E-03    0.3795572711E-01    0.6395273325E+00
    0.4500000000E+06    0.6415368996E+00    0.2980142835E-01    0.9023074370E-03    0.3796033984E-01    0.6404740753E+00
    0.4700000000E+06    0.6415601164E+00    0.2923032836E-01    0.8830387915E-03    0.3796468136E-01    0.6413633319E+00
    0.4900000000E+06    0.6415813025E+00    0.2869234197E-01    0.8649308905E-03    0.3796878009E-01    0.6422007694E+00
    0.1000000000E+06    0.6393874837E+00    0.5665075671E-01    0.1855242373E-02    0.3773167937E-01    0.5983818713E+00
    0.3000000000E+06    0.6412551478E+00    0.3562838603E-01    0.1101505586E-02    0.3791605873E-01    0.6313851447E+00
    0.5000000000E+06    0.6415912128E+00    0.2843477297E-01    0.8562765527E-03    0.3797074615E-01    0.6426016161E+00
    0.7000000000E+06    0.6417260403E+00    0.2444359683E-01    0.7234696183E-03    0.3800173352E-01    0.6488055015E+00
    0.9000000000E+06    0.6417965083E+00    0.2180631845E-01    0.6371345335E-03    0.3802312246E-01    0.6528970532E+00
    0.1100000000E+07    0.6418386822E+00    0.1989316939E-01    0.5752753531E-03    0.3803938419E-01    0.6558611718E+00
    0.1300000000E+07    0.6418660803E+00    0.1842162277E-01    0.5281676164E-03    0.3805247549E-01    0.6581387667E+00
    0.1500000000E+07    0.6418848715E+00    0.1724319890E-01    0.4907580673E-03    0.3806341937E-01    0.6599611933E+00
    0.1700000000E+07    0.6418982546E+00    0.1627127762E-01    0.4601258022E-03    0.3807281536E-01    0.6614632556E+00
    0.1900000000E+07    0.6419080450E+00    0.1545141553E-01    0.4344492360E-03    0.3808104399E-01    0.6627295981E+00
    0.2100000000E+07    0.6419153447E+00    0.1474741945E-01    0.4125255952E-03    0.3808836149E-01    0.6638164447E+00
    0.2300000000E+07    0.6419208589E+00    0.1413415128E-01    0.3935244876E-03    0.3809494846E-01    0.6647628183E+00
    0.2500000000E+07    0.6419250577E+00    0.1359352567E-01    0.3768517014E-03    0.3810093684E-01    0.6655967763E+00
    0.2700000000E+07    0.6419282656E+00    0.1311214931E-01    0.3620693280E-03    0.3810642591E-01    0.6663390856E+00
    0.2900000000E+07    0.6419307132E+00    0.1267986060E-01    0.3488466006E-03    0.3811149222E-01    0.6670054947E+00
    0.3100000000E+07    0.6419325681E+00    0.1228878955E-01    0.3369283982E-03    0.3811619604E-01    0.6676081951E+00
    0.3300000000E+07    0.6419339548E+00    0.1193273224E-01    0.3261143726E-03    0.3812058562E-01    0.6681567937E+00
    0.3500000000E+07    0.6419349673E+00    0.1160672225E-01    0.3162447082E-03    0.3812470021E-01    0.6686589784E+00
    0.3700000000E+07    0.6419356780E+00    0.1130672972E-01    0.3071901586E-03    0.3812857215E-01    0.6691209852E+00
    0.3900000000E+07    0.6419361431E+00    0.1102944547E-01    0.2988449223E-03    0.3813222842E-01    0.6695479332E+00
    0.4100000000E+07    0.6419364069E+00    0.1077212300E-01    0.2911214466E-03    0.3813569173E-01    0.6699440702E+00
    0.4300000000E+07    0.6419365046E+00    0.1053246092E-01    0.2839465731E-03    0.3813898138E-01    0.6703129543E+00
    0.4500000000E+07    0.6419364646E+00    0.1030851413E-01    0.2772586336E-03    0.3814211395E-01    0.6706575922E+00
    0.4700000000E+07    0.6419363099E+00    0.1009862579E-01    0.2710052305E-03    0.3814510372E-01    0.6709805444E+00
    0.4900000000E+07    0.6419360594E+00    0.9901374468E-02    0.2651415207E-03    0.3814796313E-01    0.6712840071E+00
    0.1000000000E+07    0.6418200270E+00    0.2078139835E-01    0.6039111589E-03    0.3803174022E-01    0.6544854257E+00
    0.3000000000E+07    0.6419317061E+00    0.1247959388E-01    0.3427380470E-03    0.3811388619E-01    0.6673141564E+00
    0.5000000000E+07    0.6419359031E+00    0.9807097501E-02    0.2623435160E-03    0.3814934740E-01    0.6714290327E+00
    0.7000000000E+07    0.6419303587E+00    0.8359344539E-02    0.2197676975E-03    0.3817223813E-01    0.6736548116E+00
    0.9000000000E+07    0.6419232380E+00    0.7416045542E-02    0.1924552571E-03    0.3818917093E-01    0.6751036920E+00
    0.1100000000E+08    0.6419161408E+00    0.6738283472E-02    0.1730635498E-03    0.3820261495E-01    0.6761440231E+00
    0.1300000000E+08    0.6419094513E+00    0.6220656314E-02    0.1583959617E-03    0.3821376518E-01    0.6769381477E+00
    0.1500000000E+08    0.6419032423E+00    0.5808429174E-02    0.1468096782E-03    0.3822329157E-01    0.6775703095E+00
    0.1700000000E+08    0.6418974969E+00    0.5469961478E-02    0.1373631620E-03    0.3823160765E-01    0.6780891794E+00
    0.1900000000E+08    0.6418921730E+00    0.5185511099E-02    0.1294732349E-03    0.3823898669E-01    0.6785251118E+00
    0.2100000000E+08    0.6418872246E+00    0.4942032731E-02    0.1227570023E-03    0.3824561872E-01    0.6788981564E+00
    0.2300000000E+08    0.6418826090E+00    0.4730511777E-02    0.1169513776E-03    0.3825164123E-01    0.6792221636E+00
    0.2500000000E+08    0.6418782881E+00    0.4544491137E-02    0.1118688762E-03    0.3825715697E-01    0.6795070512E+00
    0.2700000000E+08    0.6418742291E+00    0.4379207195E-02    0.1073718276E-03    0.3826224467E-01    0.6797601340E+00
