  Pressure (Pa) 22mC5-400 (mol/kg) 2mC6-400 (mol/kg) 33mC5-400 (mol/kg) 23mC5-400 (mol/kg) C7-400 (mol/kg)
    0.1000000000E+01    0.1587863720E-02    0.3178808033E-02    0.3235239799E-03    0.5576231338E-03    0.3426207047E-02
    0.3000000000E+01    0.4702282122E-02    0.9326519175E-02    0.9492289696E-03    0.1651353568E-02    0.1009333438E-01
    0.5000000000E+01    0.7738173427E-02    0.1520803116E-01    0.1547866197E-02    0.2717525497E-02    0.1652507482E-01
    0.7000000000E+01    0.1069918360E-01    0.2083867652E-01    0.2120993711E-02    0.3757418268E-02    0.2273450204E-01
    0.9000000000E+01    0.1358872933E-01    0.2623265870E-01    0.2670054812E-02    0.4772230786E-02    0.2873372511E-01
    0.1100000000E+02    0.1641001583E-01    0.3140315322E-01    0.3196388340E-02    0.5763087760E-02    0.3453397625E-01
    0.1300000000E+02    0.1916605310E-01    0.3636239828E-01    0.3701237879E-02    0.6731045394E-02    0.4014568918E-01
    0.1500000000E+02    0.2185967056E-01    0.4112177587E-01    0.4185760010E-02    0.7677096548E-02    0.4557856922E-01
    0.1700000000E+02    0.2449353056E-01    0.4569188472E-01    0.4651031717E-02    0.8602175446E-02    0.5084165610E-01
    0.1900000000E+02    0.2707014052E-01    0.5008260591E-01    0.5098057063E-02    0.9507161967E-02    0.5594338031E-01
    0.2100000000E+02    0.2959186419E-01    0.5430316202E-01    0.5527773194E-02    0.1039288557E-01    0.6089161393E-01
    0.2300000000E+02    0.3206093181E-01    0.5836217053E-01    0.5941055778E-02    0.1126012886E-01    0.6569371633E-01
    0.2500000000E+02    0.3447944950E-01    0.6226769218E-01    0.6338723909E-02    0.1210963091E-01    0.7035657551E-01
    0.2700000000E+02    0.3684940780E-01    0.6602727477E-01    0.6721544561E-02    0.1294209023E-01    0.7488664545E-01
    0.2900000000E+02    0.3917268961E-01    0.6964799285E-01    0.7090236624E-02    0.1375816756E-01    0.7928998000E-01
    0.3100000000E+02    0.4145107737E-01    0.7313648386E-01    0.7445474580E-02    0.1455848840E-01    0.8357226358E-01
    0.3300000000E+02    0.4368625979E-01    0.7649898104E-01    0.7787891837E-02    0.1534364534E-01    0.8773883916E-01
    0.3500000000E+02    0.4587983790E-01    0.7974134334E-01    0.8118083779E-02    0.1611420021E-01    0.9179473366E-01
    0.3700000000E+02    0.4803333081E-01    0.8286908284E-01    0.8436610544E-02    0.1687068612E-01    0.9574468114E-01
    0.3900000000E+02    0.5014818084E-01    0.8588738970E-01    0.8743999566E-02    0.1761360921E-01    0.9959314397E-01
    0.4100000000E+02    0.5222575845E-01    0.8880115506E-01    0.9040747899E-02    0.1834345040E-01    0.1033443322E+00
    0.4300000000E+02    0.5426736662E-01    0.9161499204E-01    0.9327324349E-02    0.1906066696E-01    0.1070022213E+00
    0.4500000000E+02    0.5627424505E-01    0.9433325493E-01    0.9604171428E-02    0.1976569393E-01    0.1105705682E+00
    0.4700000000E+02    0.5824757399E-01    0.9696005690E-01    0.9871707150E-02    0.2045894550E-01    0.1140529265E+00
    0.4900000000E+02    0.6018847776E-01    0.9949928626E-01    0.1013032668E-01    0.2114081623E-01    0.1174526601E+00
    0.1000000000E+02    0.1500771246E-01    0.2884505605E-01    0.2935982667E-02    0.5270586160E-02    0.3165805221E-01
    0.3000000000E+02    0.4031738758E-01    0.7140836805E-01    0.7269496852E-02    0.1416025976E-01    0.8144591153E-01
    0.5000000000E+02    0.6114710710E-01    0.1007372185E+00    0.1025641050E-01    0.2147760201E-01    0.1191225451E+00
    0.7000000000E+02    0.7885299631E-01    0.1216939521E+00    0.1239085469E-01    0.2769851304E-01    0.1488740158E+00
    0.9000000000E+02    0.9427460931E-01    0.1370636465E+00    0.1395591771E-01    0.3311762802E-01    0.1731316666E+00
    0.1100000000E+03    0.1079612661E+00    0.1485484051E+00    0.1512466387E-01    0.3792773433E-01    0.1934085184E+00
    0.1300000000E+03    0.1202887024E+00    0.1572424727E+00    0.1600839920E-01    0.4226070330E-01    0.2106979346E+00
    0.1500000000E+03    0.1315234660E+00    0.1638784969E+00    0.1668168716E-01    0.4621008767E-01    0.2256806556E+00
    0.1700000000E+03    0.1418605089E+00    0.1689636635E+00    0.1719617748E-01    0.4984431322E-01    0.2388398407E+00
    0.1900000000E+03    0.1514461698E+00    0.1728590038E+00    0.1758866262E-01    0.5321474428E-01    0.2505285969E+00
    0.2100000000E+03    0.1603927849E+00    0.1758276534E+00    0.1788598061E-01    0.5636081114E-01    0.2610114598E+00
    0.2300000000E+03    0.1687882905E+00    0.1780653199E+00    0.1810811065E-01    0.5931338020E-01    0.2704908690E+00
    0.2500000000E+03    0.1767027191E+00    0.1797201353E+00    0.1827019056E-01    0.6209703382E-01    0.2791246268E+00
    0.2700000000E+03    0.1841927056E+00    0.1809059494E+00    0.1838386786E-01    0.6473165190E-01    0.2870377428E+00
    0.2900000000E+03    0.1913046838E+00    0.1817114485E+00    0.1845822681E-01    0.6723353365E-01    0.2943306695E+00
    0.3100000000E+03    0.1980771978E+00    0.1822065427E+00    0.1850043785E-01    0.6961620909E-01    0.3010851559E+00
    0.3300000000E+03    0.2045426048E+00    0.1824469257E+00    0.1851622148E-01    0.7189103643E-01    0.3073684883E+00
    0.3500000000E+03    0.2107283474E+00    0.1824773859E+00    0.1851018501E-01    0.7406764887E-01    0.3132366173E+00
    0.3700000000E+03    0.2166579196E+00    0.1823342457E+00    0.1848607099E-01    0.7615429359E-01    0.3187364985E+00
    0.3900000000E+03    0.2223516091E+00    0.1820471851E+00    0.1844694280E-01    0.7815809229E-01    0.3239078710E+00
    0.4100000000E+03    0.2278270746E+00    0.1816406216E+00    0.1839532524E-01    0.8008524384E-01    0.3287846248E+00
    0.4300000000E+03    0.2330997997E+00    0.1811347661E+00    0.1833331212E-01    0.8194118355E-01    0.3333958650E+00
    0.4500000000E+03    0.2381834531E+00    0.1805464395E+00    0.1826264959E-01    0.8373070974E-01    0.3377667494E+00
    0.4700000000E+03    0.2430901776E+00    0.1798897104E+00    0.1818480113E-01    0.8545808512E-01    0.3419191530E+00
    0.4900000000E+03    0.2478308239E+00    0.1791763976E+00    0.1810099890E-01    0.8712711875E-01    0.3458722020E+00
    0.1000000000E+03    0.1013081830E+00    0.1432126181E+00    0.1458179326E-01    0.3558946310E-01    0.1836964607E+00
    0.3000000000E+03    0.1947312231E+00    0.1819940260E+00    0.1848296376E-01    0.6843901722E-01    0.2977707145E+00
    0.5000000000E+03    0.2501419527E+00    0.1788017004E+00    0.1805719712E-01    0.8794084039E-01    0.3477793015E+00
    0.7000000000E+03    0.2895757921E+00    0.1700731897E+00    0.1705082142E-01    0.1018300078E+00    0.3786357037E+00
    0.9000000000E+03    0.3194711537E+00    0.1611034876E+00    0.1602073172E-01    0.1123668653E+00    0.4005650816E+00
    0.1100000000E+04    0.3429029932E+00    0.1529665196E+00    0.1508382112E-01    0.1206311635E+00    0.4173973554E+00
    0.1300000000E+04    0.3616855319E+00    0.1458137751E+00    0.1425814900E-01    0.1272601288E+00    0.4309566457E+00
    0.1500000000E+04    0.3770048697E+00    0.1395656750E+00    0.1353595246E-01    0.1326704906E+00    0.4422469387E+00
    0.1700000000E+04    0.3896812981E+00    0.1340941949E+00    0.1290352377E-01    0.1371505397E+00    0.4518771814E+00
    0.1900000000E+04    0.4003024819E+00    0.1292749734E+00    0.1234714191E-01    0.1409068709E+00    0.4602434206E+00
    0.2100000000E+04    0.4093001179E+00    0.1250007879E+00    0.1185474396E-01    0.1440912908E+00    0.4676171493E+00
    0.2300000000E+04    0.4169976149E+00    0.1211829786E+00    0.1141620640E-01    0.1468175574E+00    0.4741922779E+00
    0.2500000000E+04    0.4236412633E+00    0.1177493233E+00    0.1102318396E-01    0.1491723261E+00    0.4801119417E+00
    0.2700000000E+04    0.4294213203E+00    0.1146411913E+00    0.1066883569E-01    0.1512225546E+00    0.4854846877E+00
    0.2900000000E+04    0.4344866407E+00    0.1118108867E+00    0.1034755182E-01    0.1530206436E+00    0.4903947089E+00
    0.3100000000E+04    0.4389550370E+00    0.1092194232E+00    0.1005471670E-01    0.1546080764E+00    0.4949085673E+00
    0.3300000000E+04    0.4429207403E+00    0.1068347369E+00    0.9786513808E-02    0.1560180417E+00    0.4990797556E+00
    0.3500000000E+04    0.4464598542E+00    0.1046302787E+00    0.9539769352E-02    0.1572773500E+00    0.5029518788E+00
    0.3700000000E+04    0.4496343947E+00    0.1025839128E+00    0.9311828015E-02    0.1584078548E+00    0.5065609269E+00
    0.3900000000E+04    0.4524953190E+00    0.1006770556E+00    0.9100454650E-02    0.1594275168E+00    0.5099369335E+00
    0.4100000000E+04    0.4550848215E+00    0.9889400022E-01    0.8903756402E-02    0.1603512122E+00    0.5131052079E+00
    0.4300000000E+04    0.4574380924E+00    0.9722138539E-01    0.8720120859E-02    0.1611913507E+00    0.5160872657E+00
    0.4500000000E+04    0.4595846779E+00    0.9564777451E-01    0.8548166712E-02    0.1619583542E+00    0.5189015426E+00
    0.4700000000E+04    0.4615495413E+00    0.9416332081E-01    0.8386704213E-02    0.1626610307E+00    0.5215639485E+00
    0.4900000000E+04    0.4633538977E+00    0.9275949904E-01    0.8234703301E-02    0.1633068672E+00    0.5240883031E+00
    0.1000000000E+04    0.3318623402E+00    0.1569121417E+00    0.1553847762E-01    0.1167364883E+00    0.4094772061E+00
    0.3000000000E+04    0.4367890843E+00    0.1104874479E+00    0.1019783342E-01    0.1538384487E+00    0.4926975514E+00
    0.5000000000E+04    0.4642016566E+00    0.9208546821E-01    0.8161966253E-02    0.1636105075E+00    0.5253025449E+00
    0.7000000000E+04    0.4759894293E+00    0.8145816243E-01    0.7037628838E-02    0.1678503036E+00    0.5446057891E+00
    0.9000000000E+04    0.4823935733E+00    0.7420390752E-01    0.6296132045E-02    0.1701755752E+00    0.5578914058E+00
    0.1100000000E+05    0.4863721460E+00    0.6879354914E-01    0.5757384234E-02    0.1716343233E+00    0.5678099166E+00
    0.1300000000E+05    0.4890670682E+00    0.6453250493E-01    0.5341649958E-02    0.1726323265E+00    0.5756060151E+00
    0.1500000000E+05    0.4910057638E+00    0.6105041984E-01    0.5007441551E-02    0.1733575792E+00    0.5819567641E+00
    0.1700000000E+05    0.4924635158E+00    0.5812781036E-01    0.4730702159E-02    0.1739085119E+00    0.5872680624E+00
    0.1900000000E+05    0.4935973501E+00    0.5562451116E-01    0.4496358385E-02    0.1743414510E+00    0.5918007818E+00
    0.2100000000E+05    0.4945030906E+00    0.5344588897E-01    0.4294400748E-02    0.1746908810E+00    0.5957316187E+00
    0.2300000000E+05    0.4952423978E+00    0.5152524027E-01    0.4117875555E-02    0.1749790656E+00    0.5991852739E+00
    0.2500000000E+05    0.4958566834E+00    0.4981390549E-01    0.3961774544E-02    0.1752210068E+00    0.6022527135E+00
    0.2700000000E+05    0.4963747571E+00    0.4827537827E-01    0.3822382630E-02    0.1754271767E+00    0.6050021280E+00
    0.2900000000E+05    0.4968172621E+00    0.4688162284E-01    0.3696875458E-02    0.1756051044E+00    0.6074858155E+00
    0.3100000000E+05    0.4971993660E+00    0.4561067889E-01    0.3583060750E-02    0.1757603406E+00    0.6097446729E+00
    0.3300000000E+05    0.4975324562E+00    0.4444505103E-01    0.3479206270E-02    0.1758970672E+00    0.6118112215E+00
    0.3500000000E+05    0.4978252445E+00    0.4337059455E-01    0.3383921994E-02    0.1760184944E+00    0.6137117024E+00
    0.3700000000E+05    0.4980845058E+00    0.4237572556E-01    0.3296077323E-02    0.1761271273E+00    0.6154675621E+00
    0.3900000000E+05    0.4983155868E+00    0.4145084875E-01    0.3214741638E-02    0.1762249498E+00    0.6170965291E+00
    0.4100000000E+05    0.4985227616E+00    0.4058793519E-01    0.3139140757E-02    0.1763135534E+00    0.6186134074E+00
    0.4300000000E+05    0.4987094869E+00    0.3978020534E-01    0.3068624494E-02    0.1763942296E+00    0.6200306723E+00
    0.4500000000E+05    0.4988785880E+00    0.3902188762E-01    0.3002642109E-02    0.1764680377E+00    0.6213589231E+00
    0.4700000000E+05    0.4990323962E+00    0.3830803202E-01    0.2940723471E-02    0.1765358550E+00    0.6226072327E+00
    0.4900000000E+05    0.4991728515E+00    0.3763436435E-01    0.2882464424E-02    0.1765984140E+00    0.6237834205E+00
    0.1000000000E+05    0.4845930906E+00    0.7132254068E-01    0.6007691938E-02    0.1709802557E+00    0.5631749083E+00
    0.3000000000E+05    0.4970150790E+00    0.4623198257E-01    0.3638624004E-02    0.1756852709E+00    0.6086411472E+00
    0.5000000000E+05    0.4992385909E+00    0.3731142128E-01    0.2854596107E-02    0.1766279181E+00    0.6243466235E+00
    0.7000000000E+05    0.5001373826E+00    0.3227256517E-01    0.2424846477E-02    0.1770506289E+00    0.6330799186E+00
    0.9000000000E+05    0.5006140835E+00    0.2890688963E-01    0.2143227888E-02    0.1772982068E+00    0.6388555508E+00
    0.1100000000E+06    0.5009049538E+00    0.2644724244E-01    0.1940281014E-02    0.1774644680E+00    0.6430467785E+00
    0.1300000000E+06    0.5010983577E+00    0.2454499113E-01    0.1785049691E-02    0.1775858180E+00    0.6462709456E+00
    0.1500000000E+06    0.5012346320E+00    0.2301518393E-01    0.1661345178E-02    0.1776794807E+00    0.6488528875E+00
    0.1700000000E+06    0.5013347332E+00    0.2174913879E-01    0.1559761675E-02    0.1777547232E+00    0.6509822540E+00
    0.1900000000E+06    0.5014105912E+00    0.2067814788E-01    0.1474408251E-02    0.1778170058E+00    0.6527783075E+00
    0.2100000000E+06    0.5014694767E+00    0.1975631597E-01    0.1401381097E-02    0.1778697708E+00    0.6543203601E+00
    0.2300000000E+06    0.5015160625E+00    0.1895163742E-01    0.1337976636E-02    0.1779153054E+00    0.6556635114E+00
    0.2500000000E+06    0.5015534813E+00    0.1824100625E-01    0.1282254990E-02    0.1779551947E+00    0.6568474092E+00
    0.2700000000E+06    0.5015839078E+00    0.1760725949E-01    0.1232783136E-02    0.1779905751E+00    0.6579014183E+00
    0.2900000000E+06    0.5016088958E+00    0.1703734086E-01    0.1188476355E-02    0.1780222854E+00    0.6588478197E+00
    0.3100000000E+06    0.5016295829E+00    0.1652111475E-01    0.1148496405E-02    0.1780509596E+00    0.6597038702E+00
    0.3300000000E+06    0.5016468200E+00    0.1605057429E-01    0.1112183872E-02    0.1780770869E+00    0.6604831739E+00
    0.3500000000E+06    0.5016612549E+00    0.1561929752E-01    0.1079011920E-02    0.1781010517E+00    0.6611966212E+00
    0.3700000000E+06    0.5016733889E+00    0.1522206456E-01    0.1048553877E-02    0.1781231609E+00    0.6618530486E+00
    0.3900000000E+06    0.5016836153E+00    0.1485458219E-01    0.1020460002E-02    0.1781436627E+00    0.6624597124E+00
    0.4100000000E+06    0.5016922469E+00    0.1451328200E-01    0.9944405275E-03    0.1781627606E+00    0.6630226348E+00
    0.4300000000E+06    0.5016995346E+00    0.1419516991E-01    0.9702530521E-03    0.1781806231E+00    0.6635468617E+00
    0.4500000000E+06    0.5017056823E+00    0.1389771222E-01    0.9476930299E-03    0.1781973909E+00    0.6640366577E+00
    0.4700000000E+06    0.5017108572E+00    0.1361874821E-01    0.9265864948E-03    0.1782131831E+00    0.6644956555E+00
    0.4900000000E+06    0.5017151969E+00    0.1335642220E-01    0.9067844246E-03    0.1782281009E+00    0.6649269711E+00
    0.1000000000E+06    0.5007755237E+00    0.2759109094E-01    0.2034353316E-02    0.1773885536E+00    0.6411007902E+00
    0.3000000000E+06    0.5016197182E+00    0.1677305924E-01    0.1167990307E-02    0.1780369686E+00    0.6592862156E+00
    0.5000000000E+06    0.5017170903E+00    0.1323098859E-01    0.8973317081E-03    0.1782352595E+00    0.6651331034E+00
    0.7000000000E+06    0.5017308938E+00    0.1130042491E-01    0.7531977211E-03    0.1783482977E+00    0.6682970710E+00
    0.9000000000E+06    0.5017233440E+00    0.1003818310E-01    0.6604397809E-03    0.1784265000E+00    0.6703568619E+00
    0.1100000000E+07    0.5017089222E+00    0.9129160512E-02    0.5944401862E-03    0.1784860205E+00    0.6718358243E+00
    0.1300000000E+07    0.5016923003E+00    0.8433741001E-02    0.5444402352E-03    0.1785339646E+00    0.6729647131E+00
    0.1500000000E+07    0.5016752508E+00    0.7879203132E-02    0.5048957379E-03    0.1785740578E+00    0.6738632993E+00
    0.1700000000E+07    0.5016584993E+00    0.7423413294E-02    0.4726226367E-03    0.1786084872E+00    0.6746007887E+00
    0.1900000000E+07    0.5016423437E+00    0.7040035072E-02    0.4456455348E-03    0.1786386430E+00    0.6752203455E+00
    0.2100000000E+07    0.5016268935E+00    0.6711640277E-02    0.4226657176E-03    0.1786654618E+00    0.6757504818E+00
    0.2300000000E+07    0.5016121709E+00    0.6426170891E-02    0.4027898337E-03    0.1786896044E+00    0.6762108938E+00
    0.2500000000E+07    0.5015981580E+00    0.6174980802E-02    0.3853806377E-03    0.1787115537E+00    0.6766156857E+00
    0.2700000000E+07    0.5015848190E+00    0.5951685711E-02    0.3699698058E-03    0.1787316731E+00    0.6769752597E+00
    0.2900000000E+07    0.5015721111E+00    0.5751454271E-02    0.3562044634E-03    0.1787502431E+00    0.6772974795E+00
    0.3100000000E+07    0.5015599899E+00    0.5570553326E-02    0.3438130339E-03    0.1787674844E+00    0.6775884158E+00
    0.3300000000E+07    0.5015484125E+00    0.5406046113E-02    0.3325826670E-03    0.1787835738E+00    0.6778528399E+00
    0.3500000000E+07    0.5015373385E+00    0.5255586089E-02    0.3223438783E-03    0.1787986551E+00    0.6780945615E+00
    0.3700000000E+07    0.5015267304E+00    0.5117272503E-02    0.3129598267E-03    0.1788128469E+00    0.6783166641E+00
    0.3900000000E+07    0.5015165540E+00    0.4989546973E-02    0.3043186614E-03    0.1788262480E+00    0.6785216743E+00
    0.4100000000E+07    0.5015067781E+00    0.4871117973E-02    0.2963279522E-03    0.1788389417E+00    0.6787116848E+00
    0.4300000000E+07    0.5014973743E+00    0.4760904752E-02    0.2889105643E-03    0.1788509987E+00    0.6788884457E+00
    0.4500000000E+07    0.5014883167E+00    0.4657995016E-02    0.2820015550E-03    0.1788624797E+00    0.6790534335E+00
    0.4700000000E+07    0.5014795820E+00    0.4561612569E-02    0.2755458063E-03    0.1788734373E+00    0.6792079039E+00
    0.4900000000E+07    0.5014711489E+00    0.4471092240E-02    0.2694961957E-03    0.1788839169E+00    0.6793529324E+00
    0.1000000000E+07    0.5017165939E+00    0.9550505721E-02    0.6249445015E-03    0.1784580368E+00    0.6711507691E+00
    0.3000000000E+07    0.5015659799E+00    0.5658786917E-02    0.3498514815E-03    0.1787590179E+00    0.6774465340E+00
    0.5000000000E+07    0.5014670393E+00    0.4427847941E-02    0.2666107942E-03    0.1788889902E+00    0.6794222008E+00
    0.7000000000E+07    0.5013967958E+00    0.3765410692E-02    0.2228100981E-03    0.1789728763E+00    0.6804819567E+00
    0.9000000000E+07    0.5013425055E+00    0.3335443576E-02    0.1948165105E-03    0.1790349202E+00    0.6811684198E+00
    0.1100000000E+08    0.5012982894E+00    0.3027312895E-02    0.1749914009E-03    0.1790841753E+00    0.6816596530E+00
    0.1300000000E+08    0.5012610002E+00    0.2792434576E-02    0.1600239425E-03    0.1791250227E+00    0.6820336857E+00
    0.1500000000E+08    0.5012287631E+00    0.2605660974E-02    0.1482179313E-03    0.1791599186E+00    0.6823308444E+00
    0.1700000000E+08    0.5012003728E+00    0.2452490915E-02    0.1386035404E-03    0.1791903791E+00    0.6825743546E+00
    0.1900000000E+08    0.5011750092E+00    0.2323894209E-02    0.1305812062E-03    0.1792174057E+00    0.6827786649E+00
    0.2100000000E+08    0.5011520889E+00    0.2213913507E-02    0.1237578897E-03    0.1792416950E+00    0.6829532994E+00
    0.2300000000E+08    0.5011311824E+00    0.2118437769E-02    0.1178638886E-03    0.1792637510E+00    0.6831048255E+00
    0.2500000000E+08    0.5011119643E+00    0.2034525732E-02    0.1127072208E-03    0.1792839501E+00    0.6832379391E+00
    0.2700000000E+08    0.5010941821E+00    0.1960009744E-02    0.1081470512E-03    0.1793025811E+00    0.6833560988E+00
