  Pressure (Pa) 22mC5-400 (mol/kg) 2mC6-400 (mol/kg) 33mC5-400 (mol/kg) 23mC5-400 (mol/kg) C7-400 (mol/kg)
    0.1000000000E+01    0.2111514176E-02    0.5553971275E-02    0.3229935704E-03    0.2780695504E-03    0.1712466325E-02
    0.3000000000E+01    0.6220987619E-02    0.1624495436E-01    0.9446917381E-03    0.8192638299E-03    0.5041249936E-02
    0.5000000000E+01    0.1018748932E-01    0.2641212967E-01    0.1535875848E-02    0.1341641635E-02    0.8248312349E-02
    0.7000000000E+01    0.1402034306E-01    0.3609104538E-01    0.2098615737E-02    0.1846429911E-02    0.1134087640E-01
    0.9000000000E+01    0.1772805178E-01    0.4531413900E-01    0.2634800175E-02    0.2334747595E-02    0.1432559265E-01
    0.1100000000E+02    0.2131838672E-01    0.5411106903E-01    0.3146156163E-02    0.2807617348E-02    0.1720859540E-01
    0.1300000000E+02    0.2479846518E-01    0.6250900515E-01    0.3634265825E-02    0.3265975779E-02    0.1999555222E-01
    0.1500000000E+02    0.2817481851E-01    0.7053288287E-01    0.4100581221E-02    0.3710682395E-02    0.2269170787E-01
    0.1700000000E+02    0.3145345177E-01    0.7820562754E-01    0.4546437393E-02    0.4142527453E-02    0.2530192332E-01
    0.1900000000E+02    0.3463989621E-01    0.8554835205E-01    0.4973063863E-02    0.4562238862E-02    0.2783071053E-01
    0.2100000000E+02    0.3773925563E-01    0.9258053165E-01    0.5381594815E-02    0.4970488284E-02    0.3028226349E-01
    0.2300000000E+02    0.4075624729E-01    0.9932015897E-01    0.5773078115E-02    0.5367896515E-02    0.3266048597E-01
    0.2500000000E+02    0.4369523826E-01    0.1057838818E+00    0.6148483330E-02    0.5755038272E-02    0.3496901646E-01
    0.2700000000E+02    0.4656027769E-01    0.1119871258E+00    0.6508708872E-02    0.6132446434E-02    0.3721125051E-01
    0.2900000000E+02    0.4935512559E-01    0.1179442042E+00    0.6854588377E-02    0.6500615834E-02    0.3939036087E-01
    0.3100000000E+02    0.5208327848E-01    0.1236684154E+00    0.7186896408E-02    0.6860006630E-02    0.4150931562E-01
    0.3300000000E+02    0.5474799238E-01    0.1291721314E+00    0.7506353570E-02    0.7211047334E-02    0.4357089464E-01
    0.3500000000E+02    0.5735230343E-01    0.1344668763E+00    0.7813631101E-02    0.7554137521E-02    0.4557770436E-01
    0.3700000000E+02    0.5989904637E-01    0.1395633973E+00    0.8109355010E-02    0.7889650265E-02    0.4753219127E-01
    0.3900000000E+02    0.6239087123E-01    0.1444717290E+00    0.8394109798E-02    0.8217934328E-02    0.4943665413E-01
    0.4100000000E+02    0.6483025831E-01    0.1492012507E+00    0.8668441821E-02    0.8539316144E-02    0.5129325505E-01
    0.4300000000E+02    0.6721953181E-01    0.1537607392E+00    0.8932862340E-02    0.8854101596E-02    0.5310402960E-01
    0.4500000000E+02    0.6956087205E-01    0.1581584158E+00    0.9187850271E-02    0.9162577639E-02    0.5487089608E-01
    0.4700000000E+02    0.7185632664E-01    0.1624019895E+00    0.9433854692E-02    0.9465013763E-02    0.5659566390E-01
    0.4900000000E+02    0.7410782061E-01    0.1664986958E+00    0.9671297116E-02    0.9761663322E-02    0.5828004127E-01
    0.1000000000E+02    0.1953743165E-01    0.4976412117E-01    0.2893479630E-02    0.2573053019E-02    0.1577944359E-01
    0.3000000000E+02    0.5072733002E-01    0.1208346242E+00    0.7022392581E-02    0.6681381067E-02    0.4045717972E-01
    0.5000000000E+02    0.7521765267E-01    0.1684941142E+00    0.9786932276E-02    0.9907893201E-02    0.5910759145E-01
    0.7000000000E+02    0.9549434224E-01    0.2021419375E+00    0.1173460614E-01    0.1257975998E-01    0.7388658975E-01
    0.9000000000E+02    0.1129046965E+00    0.2267870802E+00    0.1315724885E-01    0.1487430700E-01    0.8601334964E-01
    0.1100000000E+03    0.1282481251E+00    0.2453349133E+00    0.1422417040E-01    0.1689675419E-01    0.9623247119E-01
    0.1300000000E+03    0.1420323017E+00    0.2595818277E+00    0.1504007923E-01    0.1871392520E-01    0.1050262709E+00
    0.1500000000E+03    0.1545971689E+00    0.2706954572E+00    0.1567305204E-01    0.2037056722E-01    0.1127220432E+00
    0.1700000000E+03    0.1661802460E+00    0.2794658830E+00    0.1616916629E-01    0.2189794613E-01    0.1195504226E+00
    0.1900000000E+03    0.1769533934E+00    0.2864456756E+00    0.1656065842E-01    0.2331868532E-01    0.1256790832E+00
    0.2100000000E+03    0.1870446598E+00    0.2920321251E+00    0.1687071452E-01    0.2464964119E-01    0.1312331707E+00
    0.2300000000E+03    0.1965518617E+00    0.2965176553E+00    0.1711640779E-01    0.2590369049E-01    0.1363082062E+00
    0.2500000000E+03    0.2055513479E+00    0.3001218822E+00    0.1731056649E-01    0.2709088408E-01    0.1409785232E+00
    0.2700000000E+03    0.2141038435E+00    0.3030126477E+00    0.1746299971E-01    0.2821921608E-01    0.1453029517E+00
    0.2900000000E+03    0.2222584564E+00    0.3053202003E+00    0.1758132378E-01    0.2929515128E-01    0.1493287474E+00
    0.3100000000E+03    0.2300554914E+00    0.3071469854E+00    0.1767153293E-01    0.3032399564E-01    0.1530943716E+00
    0.3300000000E+03    0.2375284706E+00    0.3085745477E+00    0.1773840160E-01    0.3131016219E-01    0.1566314976E+00
    0.3500000000E+03    0.2447056111E+00    0.3096684905E+00    0.1778577357E-01    0.3225736559E-01    0.1599664844E+00
    0.3700000000E+03    0.2516109250E+00    0.3104820972E+00    0.1781677312E-01    0.3316876689E-01    0.1631214784E+00
    0.3900000000E+03    0.2582650494E+00    0.3110590181E+00    0.1783396167E-01    0.3404708288E-01    0.1661152476E+00
    0.4100000000E+03    0.2646858836E+00    0.3114352894E+00    0.1783945561E-01    0.3489466991E-01    0.1689638221E+00
    0.4300000000E+03    0.2708890825E+00    0.3116408708E+00    0.1783501590E-01    0.3571358883E-01    0.1716809927E+00
    0.4500000000E+03    0.2768884434E+00    0.3117008288E+00    0.1782211720E-01    0.3650565600E-01    0.1742787017E+00
    0.4700000000E+03    0.2826962136E+00    0.3116362576E+00    0.1780200155E-01    0.3727248371E-01    0.1767673540E+00
    0.4900000000E+03    0.2883233361E+00    0.3114650019E+00    0.1777572062E-01    0.3801551252E-01    0.1791560655E+00
    0.1000000000E+03    0.1207980592E+00    0.2366920699E+00    0.1372753431E-01    0.1591471014E-01    0.9132665583E-01
    0.3000000000E+03    0.2261994365E+00    0.3062881682E+00    0.1762961957E-01    0.2981516564E-01    0.1512419617E+00
    0.5000000000E+03    0.2910722669E+00    0.3113441990E+00    0.1776055314E-01    0.3837851209E-01    0.1803154903E+00
    0.7000000000E+03    0.3385218986E+00    0.3060170952E+00    0.1729244182E-01    0.4464643245E-01    0.1997833026E+00
    0.9000000000E+03    0.3751206219E+00    0.2986323573E+00    0.1671722131E-01    0.4948417010E-01    0.2145700551E+00
    0.1100000000E+04    0.4041221894E+00    0.2912366678E+00    0.1615626291E-01    0.5332016010E-01    0.2265706571E+00
    0.1300000000E+04    0.4275290604E+00    0.2843847568E+00    0.1564175495E-01    0.5641815007E-01    0.2367126644E+00
    0.1500000000E+04    0.4466983037E+00    0.2781889351E+00    0.1517912043E-01    0.5895693900E-01    0.2455202976E+00
    0.1700000000E+04    0.4625951472E+00    0.2726209697E+00    0.1476524553E-01    0.6106373975E-01    0.2533196539E+00
    0.1900000000E+04    0.4759259628E+00    0.2676118905E+00    0.1439460505E-01    0.6283167747E-01    0.2603279847E+00
    0.2100000000E+04    0.4872180174E+00    0.2630868862E+00    0.1406143445E-01    0.6433028516E-01    0.2666976649E+00
    0.2300000000E+04    0.4968710786E+00    0.2589771458E+00    0.1376047215E-01    0.6561229675E-01    0.2725399231E+00
    0.2500000000E+04    0.5051923230E+00    0.2552231091E+00    0.1348715900E-01    0.6671824332E-01    0.2779385860E+00
    0.2700000000E+04    0.5124206220E+00    0.2517745297E+00    0.1323763286E-01    0.6767965164E-01    0.2829584974E+00
    0.2900000000E+04    0.5187437788E+00    0.2485894572E+00    0.1300865266E-01    0.6852131477E-01    0.2876509157E+00
    0.3100000000E+04    0.5243109547E+00    0.2456329665E+00    0.1279750588E-01    0.6926292950E-01    0.2920571085E+00
    0.3300000000E+04    0.5292417485E+00    0.2428759461E+00    0.1260192027E-01    0.6992029290E-01    0.2962108241E+00
    0.3500000000E+04    0.5336329099E+00    0.2402940478E+00    0.1241998676E-01    0.7050618718E-01    0.3001400375E+00
    0.3700000000E+04    0.5375633566E+00    0.2378668115E+00    0.1225009488E-01    0.7103104135E-01    0.3038682139E+00
    0.3900000000E+04    0.5410979646E+00    0.2355769538E+00    0.1209087959E-01    0.7150343094E-01    0.3074152413E+00
    0.4100000000E+04    0.5442904574E+00    0.2334097924E+00    0.1194117811E-01    0.7193045905E-01    0.3107981328E+00
    0.4300000000E+04    0.5471856292E+00    0.2313527835E+00    0.1179999489E-01    0.7231804970E-01    0.3140315621E+00
    0.4500000000E+04    0.5498210707E+00    0.2293951500E+00    0.1166647314E-01    0.7267117552E-01    0.3171282798E+00
    0.4700000000E+04    0.5522285192E+00    0.2275275810E+00    0.1153987187E-01    0.7299403588E-01    0.3200994395E+00
    0.4900000000E+04    0.5544349236E+00    0.2257419895E+00    0.1141954705E-01    0.7329019747E-01    0.3229548577E+00
    0.1000000000E+04    0.3904264042E+00    0.2948846720E+00    0.1643194999E-01    0.5150833386E-01    0.2208473996E+00
    0.3000000000E+04    0.5216137849E+00    0.2470845817E+00    0.1290100146E-01    0.6890356111E-01    0.2898875281E+00
    0.5000000000E+04    0.5554700581E+00    0.2248776935E+00    0.1136155974E-01    0.7342923577E-01    0.3243419178E+00
    0.7000000000E+04    0.5697446686E+00    0.2105749291E+00    0.1042627589E-01    0.7535489607E-01    0.3476753705E+00
    0.9000000000E+04    0.5773847929E+00    0.1999475243E+00    0.9760196023E-02    0.7639573382E-01    0.3653174952E+00
    0.1100000000E+05    0.5820787502E+00    0.1914679559E+00    0.9244918402E-02    0.7704180203E-01    0.3794713825E+00
    0.1300000000E+05    0.5852316061E+00    0.1844106155E+00    0.8826001643E-02    0.7748035648E-01    0.3912614365E+00
    0.1500000000E+05    0.5874850663E+00    0.1783702105E+00    0.8474008741E-02    0.7779718944E-01    0.4013422389E+00
    0.1700000000E+05    0.5891709188E+00    0.1730955241E+00    0.8171218617E-02    0.7803680395E-01    0.4101293746E+00
    0.1900000000E+05    0.5904769202E+00    0.1684192416E+00    0.7906125080E-02    0.7822446847E-01    0.4179035322E+00
    0.2100000000E+05    0.5915168724E+00    0.1642239298E+00    0.7670827822E-02    0.7837555103E-01    0.4248633225E+00
    0.2300000000E+05    0.5923635782E+00    0.1604238080E+00    0.7459664696E-02    0.7849991734E-01    0.4311544841E+00
    0.2500000000E+05    0.5930656849E+00    0.1569542133E+00    0.7268437643E-02    0.7860418302E-01    0.4368871330E+00
    0.2700000000E+05    0.5936568859E+00    0.1537651452E+00    0.7093947377E-02    0.7869294653E-01    0.4421464949E+00
    0.2900000000E+05    0.5941612299E+00    0.1508171181E+00    0.6933699708E-02    0.7876950182E-01    0.4469998747E+00
    0.3100000000E+05    0.5945963252E+00    0.1480783928E+00    0.6785712624E-02    0.7883626954E-01    0.4515013432E+00
    0.3300000000E+05    0.5949753511E+00    0.1455230682E+00    0.6648385225E-02    0.7889506812E-01    0.4556949853E+00
    0.3500000000E+05    0.5953083624E+00    0.1431297286E+00    0.6520406115E-02    0.7894728996E-01    0.4596172091E+00
    0.3700000000E+05    0.5956031592E+00    0.1408804636E+00    0.6400687779E-02    0.7899401928E-01    0.4632984239E+00
    0.3900000000E+05    0.5958658833E+00    0.1387601424E+00    0.6288318557E-02    0.7903611293E-01    0.4667642845E+00
    0.4100000000E+05    0.5961014347E+00    0.1367558674E+00    0.6182526848E-02    0.7907425708E-01    0.4700366279E+00
    0.4300000000E+05    0.5963137691E+00    0.1348565561E+00    0.6082653967E-02    0.7910900776E-01    0.4731341915E+00
    0.4500000000E+05    0.5965061143E+00    0.1330526161E+00    0.5988133274E-02    0.7914082036E-01    0.4760731699E+00
    0.4700000000E+05    0.5966811295E+00    0.1313356909E+00    0.5898473898E-02    0.7917007147E-01    0.4788676518E+00
    0.4900000000E+05    0.5968410248E+00    0.1296984565E+00    0.5813247910E-02    0.7919707524E-01    0.4815299679E+00
    0.1000000000E+05    0.5799852972E+00    0.1954952473E+00    0.9487947411E-02    0.7675283409E-01    0.3727449770E+00
    0.3000000000E+05    0.5943865240E+00    0.1494233303E+00    0.6858281355E-02    0.7880398378E-01    0.4492916393E+00
    0.5000000000E+05    0.5969158931E+00    0.1289076763E+00    0.5772178355E-02    0.7920981862E-01    0.4828150061E+00
    0.7000000000E+05    0.5979431614E+00    0.1160469506E+00    0.5112694283E-02    0.7939320370E-01    0.5036382563E+00
    0.9000000000E+05    0.5984939119E+00    0.1068686034E+00    0.4651530869E-02    0.7950174018E-01    0.5184161771E+00
    0.1100000000E+06    0.5988346356E+00    0.9983432526E-01    0.4303346937E-02    0.7957540323E-01    0.5296982147E+00
    0.1300000000E+06    0.5990648039E+00    0.9419158348E-01    0.4027324304E-02    0.7962970846E-01    0.5387223791E+00
    0.1500000000E+06    0.5992298428E+00    0.8951844338E-01    0.3800952074E-02    0.7967201247E-01    0.5461790718E+00
    0.1700000000E+06    0.5993533948E+00    0.8555582322E-01    0.3610586870E-02    0.7970628586E-01    0.5524904654E+00
    0.1900000000E+06    0.5994489549E+00    0.8213389132E-01    0.3447380897E-02    0.7973487650E-01    0.5579323823E+00
    0.2100000000E+06    0.5995247751E+00    0.7913567493E-01    0.3305295601E-02    0.7975927037E-01    0.5626942783E+00
    0.2300000000E+06    0.5995861785E+00    0.7647741840E-01    0.3180041393E-02    0.7978045872E-01    0.5669114974E+00
    0.2500000000E+06    0.5996367491E+00    0.7409724129E-01    0.3068471187E-02    0.7979913119E-01    0.5706838373E+00
    0.2700000000E+06    0.5996789854E+00    0.7194822782E-01    0.2968213894E-02    0.7981578427E-01    0.5740868319E+00
    0.2900000000E+06    0.5997146813E+00    0.6999402758E-01    0.2877442793E-02    0.7983078575E-01    0.5771789166E+00
    0.3100000000E+06    0.5997451569E+00    0.6820595054E-01    0.2794723580E-02    0.7984441471E-01    0.5800061506E+00
    0.3300000000E+06    0.5997714041E+00    0.6656098874E-01    0.2718911481E-02    0.7985688734E-01    0.5826054265E+00
    0.3500000000E+06    0.5997941827E+00    0.6504043259E-01    0.2649079690E-02    0.7986837411E-01    0.5850067121E+00
    0.3700000000E+06    0.5998140836E+00    0.6362888067E-01    0.2584468396E-02    0.7987901155E-01    0.5872346519E+00
    0.3900000000E+06    0.5998315731E+00    0.6231351655E-01    0.2524447737E-02    0.7988891054E-01    0.5893097354E+00
    0.4100000000E+06    0.5998470240E+00    0.6108357115E-01    0.2468490367E-02    0.7989816219E-01    0.5912491649E+00
    0.4300000000E+06    0.5998607377E+00    0.5992991663E-01    0.2416150822E-02    0.7990684223E-01    0.5930675097E+00
    0.4500000000E+06    0.5998729602E+00    0.5884475516E-01    0.2367049764E-02    0.7991501418E-01    0.5947772073E+00
    0.4700000000E+06    0.5998838943E+00    0.5782137747E-01    0.2320861796E-02    0.7992273182E-01    0.5963889519E+00
    0.4900000000E+06    0.5998937087E+00    0.5685397311E-01    0.2277305927E-02    0.7993004105E-01    0.5979119993E+00
    0.1000000000E+06    0.5986823947E+00    0.1031413294E+00    0.4466472086E-02    0.7954167485E-01    0.5243988074E+00
    0.3000000000E+06    0.5997305032E+00    0.6908077630E-01    0.2835154075E-02    0.7983775704E-01    0.5786231493E+00
    0.5000000000E+06    0.5998982411E+00    0.5638965327E-01    0.2256437473E-02    0.7993355506E-01    0.5986428211E+00
    0.7000000000E+06    0.5999547478E+00    0.4909716012E-01    0.1931909775E-02    0.7998960314E-01    0.6101051657E+00
    0.9000000000E+06    0.5999778682E+00    0.4417545502E-01    0.1716484569E-02    0.8002897852E-01    0.6178245296E+00
    0.1100000000E+07    0.5999873804E+00    0.4055230382E-01    0.1559881958E-02    0.8005925550E-01    0.6234987311E+00
    0.1300000000E+07    0.5999903856E+00    0.3773460086E-01    0.1439324809E-02    0.8008382303E-01    0.6279065624E+00
    0.1500000000E+07    0.5999899719E+00    0.3545849856E-01    0.1342767158E-02    0.8010448120E-01    0.6314639694E+00
    0.1700000000E+07    0.5999876573E+00    0.3356791700E-01    0.1263150976E-02    0.8012229773E-01    0.6344166598E+00
    0.1900000000E+07    0.5999842540E+00    0.3196364707E-01    0.1196026184E-02    0.8013795688E-01    0.6369206363E+00
    0.2100000000E+07    0.5999802240E+00    0.3057911713E-01    0.1138427621E-02    0.8015192300E-01    0.6390804820E+00
    0.2300000000E+07    0.5999758421E+00    0.2936772098E-01    0.1088292285E-02    0.8016452548E-01    0.6409693565E+00
    0.2500000000E+07    0.5999712770E+00    0.2829569724E-01    0.1044134058E-02    0.8017600632E-01    0.6426402196E+00
    0.2700000000E+07    0.5999666351E+00    0.2733789259E-01    0.1004851316E-02    0.8018654846E-01    0.6441325044E+00
    0.2900000000E+07    0.5999619843E+00    0.2647512080E-01    0.9696076463E-03    0.8019629356E-01    0.6454762730E+00
    0.3100000000E+07    0.5999573681E+00    0.2569245137E-01    0.9377549248E-03    0.8020535350E-01    0.6466949082E+00
    0.3300000000E+07    0.5999528146E+00    0.2497806365E-01    0.9087820447E-03    0.8021381819E-01    0.6478069144E+00
    0.3500000000E+07    0.5999483413E+00    0.2432245770E-01    0.8822797499E-03    0.8022176095E-01    0.6488271569E+00
    0.3700000000E+07    0.5999439591E+00    0.2371789746E-01    0.8579159165E-03    0.8022924234E-01    0.6497677368E+00
    0.3900000000E+07    0.5999396739E+00    0.2315800937E-01    0.8354177979E-03    0.8023631300E-01    0.6506386203E+00
    0.4100000000E+07    0.5999354888E+00    0.2263748748E-01    0.8145590263E-03    0.8024301565E-01    0.6514481020E+00
    0.4300000000E+07    0.5999314046E+00    0.2215187323E-01    0.7951499338E-03    0.8024938669E-01    0.6522031493E+00
    0.4500000000E+07    0.5999274206E+00    0.2169738842E-01    0.7770302346E-03    0.8025545738E-01    0.6529096651E+00
    0.4700000000E+07    0.5999235352E+00    0.2127080682E-01    0.7600634163E-03    0.8026125474E-01    0.6535726886E+00
    0.4900000000E+07    0.5999197460E+00    0.2086935431E-01    0.7441323875E-03    0.8026680234E-01    0.6541965518E+00
    0.1000000000E+07    0.5999837380E+00    0.4224004005E-01    0.1632614193E-02    0.8004498890E-01    0.6208564670E+00
    0.3000000000E+07    0.5999596699E+00    0.2607457435E-01    0.9532920985E-03    0.8020090312E-01    0.6460999781E+00
    0.5000000000E+07    0.5999178868E+00    0.2067728848E-01    0.7365231576E-03    0.8026948903E-01    0.6544949894E+00
    0.7000000000E+07    0.5998850351E+00    0.1771230412E-01    0.6201421565E-03    0.8031400394E-01    0.6590990938E+00
    0.9000000000E+07    0.5998585900E+00    0.1576458176E-01    0.5448840522E-03    0.8034702246E-01    0.6621204134E+00
    0.1100000000E+08    0.5998365721E+00    0.1435732749E-01    0.4911594595E-03    0.8037328160E-01    0.6643017156E+00
    0.1300000000E+08    0.5998177442E+00    0.1327813044E-01    0.4503590885E-03    0.8039508516E-01    0.6659735407E+00
    0.1500000000E+08    0.5998013114E+00    0.1241591730E-01    0.4180285908E-03    0.8041372887E-01    0.6673085952E+00
    0.1700000000E+08    0.5997867383E+00    0.1170613851E-01    0.3916019482E-03    0.8043001428E-01    0.6684071829E+00
    0.1900000000E+08    0.5997736494E+00    0.1110834738E-01    0.3694832762E-03    0.8044447198E-01    0.6693321212E+00
    0.2100000000E+08    0.5997617718E+00    0.1059572384E-01    0.3506212319E-03    0.8045747145E-01    0.6701250461E+00
    0.2300000000E+08    0.5997509010E+00    0.1014967993E-01    0.3342913785E-03    0.8046928030E-01    0.6708148028E+00
    0.2500000000E+08    0.5997408801E+00    0.9756867415E-02    0.3199761935E-03    0.8048009865E-01    0.6714220985E+00
    0.2700000000E+08    0.5997315862E+00    0.9407417110E-02    0.3072948464E-03    0.8049008002E-01    0.6719622388E+00
