  Pressure (Pa) 22mC5-400 (mol/kg) 2mC6-400 (mol/kg) 33mC5-400 (mol/kg) 23mC5-400 (mol/kg) C7-400 (mol/kg)
    0.1000000000E+01    0.2107518106E-02    0.7893853910E-02    0.1928146371E-03    0.9251450324E-04    0.3407222231E-02
    0.3000000000E+01    0.6186894705E-02    0.2286364945E-01    0.5584711445E-03    0.2715919343E-03    0.9931170564E-02
    0.5000000000E+01    0.1009758440E-01    0.3682896791E-01    0.8995988229E-03    0.4432687728E-03    0.1609694689E-01
    0.7000000000E+01    0.1385282523E-01    0.4988217576E-01    0.1218452854E-02    0.6081257252E-03    0.2193589204E-01
    0.9000000000E+01    0.1746445500E-01    0.6210479630E-01    0.1517023663E-02    0.7666820798E-03    0.2747572526E-01
    0.1100000000E+02    0.2094309375E-01    0.7356904646E-01    0.1797074449E-02    0.9194037094E-03    0.3274105618E-01
    0.1300000000E+02    0.2429829824E-01    0.8433912034E-01    0.2060172520E-02    0.1066709847E-02    0.3775381197E-01
    0.1500000000E+02    0.2753869340E-01    0.9447226654E-01    0.2307715608E-02    0.1208978854E-02    0.4253359583E-01
    0.1700000000E+02    0.3067208468E-01    0.1040196971E+00    0.2540954056E-02    0.1346553141E-02    0.4709798924E-01
    0.1900000000E+02    0.3370555435E-01    0.1130273579E+00    0.2761009627E-02    0.1479743402E-02    0.5146280807E-01
    0.2100000000E+02    0.3664554456E-01    0.1215365839E+00    0.2968891515E-02    0.1608832247E-02    0.5564232064E-01
    0.2300000000E+02    0.3949792905E-01    0.1295846602E+00    0.3165510028E-02    0.1734077355E-02    0.5964943402E-01
    0.2500000000E+02    0.4226807543E-01    0.1372053024E+00    0.3351688329E-02    0.1855714203E-02    0.6349585404E-01
    0.2700000000E+02    0.4496089936E-01    0.1444290709E+00    0.3528172554E-02    0.1973958443E-02    0.6719222309E-01
    0.2900000000E+02    0.4758091188E-01    0.1512837295E+00    0.3695640547E-02    0.2089007976E-02    0.7074823935E-01
    0.3100000000E+02    0.5013226089E-01    0.1577945553E+00    0.3854709449E-02    0.2201044775E-02    0.7417276021E-01
    0.3300000000E+02    0.5261876756E-01    0.1639846091E+00    0.4005942295E-02    0.2310236478E-02    0.7747389236E-01
    0.3500000000E+02    0.5504395842E-01    0.1698749717E+00    0.4149853772E-02    0.2416737802E-02    0.8065907049E-01
    0.3700000000E+02    0.5741109374E-01    0.1754849499E+00    0.4286915260E-02    0.2520691779E-02    0.8373512623E-01
    0.3900000000E+02    0.5972319264E-01    0.1808322581E+00    0.4417559263E-02    0.2622230865E-02    0.8670834872E-01
    0.4100000000E+02    0.6198305539E-01    0.1859331777E+00    0.4542183299E-02    0.2721477915E-02    0.8958453802E-01
    0.4300000000E+02    0.6419328325E-01    0.1908026982E+00    0.4661153344E-02    0.2818547053E-02    0.9236905230E-01
    0.4500000000E+02    0.6635629620E-01    0.1954546417E+00    0.4774806876E-02    0.2913544452E-02    0.9506684957E-01
    0.4700000000E+02    0.6847434878E-01    0.1999017733E+00    0.4883455568E-02    0.3006569025E-02    0.9768252487E-01
    0.4900000000E+02    0.7054954425E-01    0.2041558997E+00    0.4987387693E-02    0.3097713049E-02    0.1002203432E+00
    0.1000000000E+02    0.1921977768E-01    0.6792753104E-01    0.1659261841E-02    0.8437450121E-03    0.3014127469E-01
    0.3000000000E+02    0.4886492324E-01    0.1545806312E+00    0.3776188497E-02    0.2145392171E-02    0.7247641342E-01
    0.5000000000E+02    0.7157168964E-01    0.2062140351E+00    0.5037669259E-02    0.3142607017E-02    0.1014613059E+00
    0.7000000000E+02    0.9017928352E-01    0.2395116168E+00    0.5851049588E-02    0.3959951630E-02    0.1230215627E+00
    0.9000000000E+02    0.1061092586E+00    0.2621131075E+00    0.6402873230E-02    0.4659796619E-02    0.1399715176E+00
    0.1100000000E+03    0.1201611748E+00    0.2779879383E+00    0.6790078990E-02    0.5277224496E-02    0.1538312411E+00
    0.1300000000E+03    0.1328239368E+00    0.2893920132E+00    0.7067771545E-02    0.5833688017E-02    0.1654998511E+00
    0.1500000000E+03    0.1444159511E+00    0.2976964419E+00    0.7269453042E-02    0.6343159126E-02    0.1755465094E+00
    0.1700000000E+03    0.1551550717E+00    0.3037792471E+00    0.7416585745E-02    0.6815197728E-02    0.1843509963E+00
    0.1900000000E+03    0.1651963889E+00    0.3082266940E+00    0.7523507140E-02    0.7256609689E-02    0.1921776246E+00
    0.2100000000E+03    0.1746539742E+00    0.3114438639E+00    0.7600129479E-02    0.7672400942E-02    0.1992167933E+00
    0.2300000000E+03    0.1836140545E+00    0.3137187422E+00    0.7653504511E-02    0.8066355536E-02    0.2056096508E+00
    0.2500000000E+03    0.1921433420E+00    0.3152610611E+00    0.7688771916E-02    0.8441401155E-02    0.2114634064E+00
    0.2700000000E+03    0.2002944953E+00    0.3162267453E+00    0.7709756246E-02    0.8799848758E-02    0.2168612022E+00
    0.2900000000E+03    0.2081098128E+00    0.3167338008E+00    0.7719354961E-02    0.9143554636E-02    0.2218686882E+00
    0.3100000000E+03    0.2156237973E+00    0.3168729343E+00    0.7719797811E-02    0.9474032982E-02    0.2265385252E+00
    0.3300000000E+03    0.2228649807E+00    0.3167148252E+00    0.7712824491E-02    0.9792535933E-02    0.2309135453E+00
    0.3500000000E+03    0.2298572477E+00    0.3163152147E+00    0.7699808977E-02    0.1010011169E-01    0.2350290178E+00
    0.3700000000E+03    0.2366208151E+00    0.3157185351E+00    0.7681848217E-02    0.1039764746E-01    0.2389143065E+00
    0.3900000000E+03    0.2431729674E+00    0.3149605424E+00    0.7659826496E-02    0.1068590178E-01    0.2425941010E+00
    0.4100000000E+03    0.2495286184E+00    0.3140702561E+00    0.7634462857E-02    0.1096552914E-01    0.2460893475E+00
    0.4300000000E+03    0.2557007444E+00    0.3130714088E+00    0.7606346550E-02    0.1123709898E-01    0.2494179602E+00
    0.4500000000E+03    0.2617007242E+00    0.3119835417E+00    0.7575963844E-02    0.1150111065E-01    0.2525953743E+00
    0.4700000000E+03    0.2675386069E+00    0.3108228438E+00    0.7543718565E-02    0.1175800514E-01    0.2556349789E+00
    0.4900000000E+03    0.2732233270E+00    0.3096028008E+00    0.7509947980E-02    0.1200817451E-01    0.2585484603E+00
    0.1000000000E+03    0.1133342647E+00    0.2707229902E+00    0.6612941044E-02    0.4977245819E-02    0.1472213734E+00
    0.3000000000E+03    0.2119025660E+00    0.3168445391E+00    0.7720602318E-02    0.9310363619E-02    0.2242429356E+00
    0.5000000000E+03    0.2760107813E+00    0.3089741271E+00    0.7492581005E-02    0.1213084831E-01    0.2599611600E+00
    0.7000000000E+03    0.3252929360E+00    0.2952314440E+00    0.7114265540E-02    0.1430032931E-01    0.2835348400E+00
    0.9000000000E+03    0.3650158377E+00    0.2815833788E+00    0.6736691910E-02    0.1604992015E-01    0.3012300241E+00
    0.1100000000E+04    0.3977289606E+00    0.2691948087E+00    0.6391085385E-02    0.1749149643E-01    0.3154288852E+00
    0.1300000000E+04    0.4250242323E+00    0.2582176072E+00    0.6082540623E-02    0.1869492677E-01    0.3272970438E+00
    0.1500000000E+04    0.4480227520E+00    0.2485443638E+00    0.5809035814E-02    0.1970942808E-01    0.3374946514E+00
    0.1700000000E+04    0.4675615725E+00    0.2400085577E+00    0.5566665771E-02    0.2057175796E-01    0.3464332468E+00
    0.1900000000E+04    0.4842848710E+00    0.2324447027E+00    0.5351311487E-02    0.2131021229E-01    0.3543874203E+00
    0.2100000000E+04    0.4986971246E+00    0.2257059198E+00    0.5159186662E-02    0.2194695658E-01    0.3615499059E+00
    0.2300000000E+04    0.5111980147E+00    0.2196672999E+00    0.4986987774E-02    0.2249955644E-01    0.3680613956E+00
    0.2500000000E+04    0.5221070152E+00    0.2142244904E+00    0.4831898114E-02    0.2298205592E-01    0.3740278550E+00
    0.2700000000E+04    0.5316814229E+00    0.2092908998E+00    0.4691540540E-02    0.2340576845E-01    0.3795311589E+00
    0.2900000000E+04    0.5401298883E+00    0.2047947629E+00    0.4563916540E-02    0.2377987055E-01    0.3846359261E+00
    0.3100000000E+04    0.5476227148E+00    0.2006764983E+00    0.4447346433E-02    0.2411185391E-01    0.3893940798E+00
    0.3300000000E+04    0.5542997746E+00    0.1968864704E+00    0.4340416059E-02    0.2440787286E-01    0.3938479876E+00
    0.3500000000E+04    0.5602766391E+00    0.1933831491E+00    0.4241931310E-02    0.2467301358E-01    0.3980326836E+00
    0.3700000000E+04    0.5656493567E+00    0.1901316168E+00    0.4150880212E-02    0.2491150396E-01    0.4019774767E+00
    0.3900000000E+04    0.5704981997E+00    0.1871023649E+00    0.4066401662E-02    0.2512687819E-01    0.4057071391E+00
    0.4100000000E+04    0.5748906190E+00    0.1842703262E+00    0.3987759810E-02    0.2532210654E-01    0.4092428007E+00
    0.4300000000E+04    0.5788835872E+00    0.1816140963E+00    0.3914323100E-02    0.2549969842E-01    0.4126026321E+00
    0.4500000000E+04    0.5825254671E+00    0.1791153046E+00    0.3845547132E-02    0.2566178440E-01    0.4158023744E+00
    0.4700000000E+04    0.5858575099E+00    0.1767581068E+00    0.3780960611E-02    0.2581018217E-01    0.4188557552E+00
    0.4900000000E+04    0.5889150629E+00    0.1745287712E+00    0.3720153814E-02    0.2594644955E-01    0.4217748184E+00
    0.1000000000E+04    0.3821347481E+00    0.2752118741E+00    0.6559299230E-02    0.1680421265E-01    0.3086770350E+00
    0.3000000000E+04    0.5439863805E+00    0.2026917085E+00    0.4504343786E-02    0.2395071457E-01    0.3870554873E+00
    0.5000000000E+04    0.5903505819E+00    0.1734582541E+00    0.3691054237E-02    0.2601046088E-01    0.4231873506E+00
    0.7000000000E+04    0.6101711413E+00    0.1565404155E+00    0.3240883521E-02    0.2689730454E-01    0.4464146417E+00
    0.9000000000E+04    0.6207354674E+00    0.1448864545E+00    0.2942750999E-02    0.2737373291E-01    0.4633083335E+00
    0.1100000000E+05    0.6271736460E+00    0.1360852462E+00    0.2724549959E-02    0.2766653419E-01    0.4764504624E+00
    0.1300000000E+05    0.6314614727E+00    0.1290606883E+00    0.2554673804E-02    0.2786326179E-01    0.4871222036E+00
    0.1500000000E+05    0.6345019931E+00    0.1232451266E+00    0.2416826544E-02    0.2800403242E-01    0.4960511523E+00
    0.1700000000E+05    0.6367606154E+00    0.1183037197E+00    0.2301615314E-02    0.2810957526E-01    0.5036892044E+00
    0.1900000000E+05    0.6384994430E+00    0.1140227197E+00    0.2203172759E-02    0.2819159594E-01    0.5103356168E+00
    0.2100000000E+05    0.6398764856E+00    0.1102574687E+00    0.2117605642E-02    0.2825717092E-01    0.5161983984E+00
    0.2300000000E+05    0.6409922726E+00    0.1069055770E+00    0.2042206800E-02    0.2831081534E-01    0.5214277241E+00
    0.2500000000E+05    0.6419136191E+00    0.1038919592E+00    0.1975022304E-02    0.2835553890E-01    0.5261353822E+00
    0.2700000000E+05    0.6426865650E+00    0.1011599499E+00    0.1914598445E-02    0.2839342166E-01    0.5304067101E+00
    0.2900000000E+05    0.6433438119E+00    0.9866575978E-01    0.1859826134E-02    0.2842594555E-01    0.5343082455E+00
    0.3100000000E+05    0.6439091951E+00    0.9637486861E-01    0.1809841102E-02    0.2845419406E-01    0.5378928105E+00
    0.3300000000E+05    0.6444004787E+00    0.9425959788E-01    0.1763957589E-02    0.2847897719E-01    0.5412029950E+00
    0.3500000000E+05    0.6448311609E+00    0.9229742734E-01    0.1721622925E-02    0.2850091237E-01    0.5442736062E+00
    0.3700000000E+05    0.6452116747E+00    0.9046979837E-01    0.1682385612E-02    0.2852047835E-01    0.5471334319E+00
    0.3900000000E+05    0.6455502061E+00    0.8876124433E-01    0.1645872368E-02    0.2853805195E-01    0.5498065334E+00
    0.4100000000E+05    0.6458532646E+00    0.8715874640E-01    0.1611771291E-02    0.2855393380E-01    0.5523132120E+00
    0.4300000000E+05    0.6461260897E+00    0.8565124822E-01    0.1579819292E-02    0.2856836666E-01    0.5546707422E+00
    0.4500000000E+05    0.6463729441E+00    0.8422928470E-01    0.1549792565E-02    0.2858154868E-01    0.5568939358E+00
    0.4700000000E+05    0.6465973304E+00    0.8288469415E-01    0.1521499256E-02    0.2859364319E-01    0.5589955813E+00
    0.4900000000E+05    0.6468021525E+00    0.8161039247E-01    0.1494773752E-02    0.2860478606E-01    0.5609867908E+00
    0.1000000000E+05    0.6243090998E+00    0.1402137005E+00    0.2826154432E-02    0.2753594709E-01    0.4702501931E+00
    0.3000000000E+05    0.6436367587E+00    0.9749676948E-01    0.1834281640E-02    0.2844054830E-01    0.5361372804E+00
    0.5000000000E+05    0.6468980013E+00    0.8099763593E-01    0.1481953222E-02    0.2861003696E-01    0.5619440650E+00
    0.7000000000E+05    0.6482105794E+00    0.7127318164E-01    0.1281116498E-02    0.2868505641E-01    0.5771138457E+00
    0.9000000000E+05    0.6489143673E+00    0.6459771583E-01    0.1146076487E-02    0.2872897384E-01    0.5874984998E+00
    0.1100000000E+06    0.6493516174E+00    0.5962249507E-01    0.1046927304E-02    0.2875858097E-01    0.5952206653E+00
    0.1300000000E+06    0.6496489340E+00    0.5571637112E-01    0.9699903121E-03    0.2878030981E-01    0.6012723439E+00
    0.1500000000E+06    0.6498638415E+00    0.5253695206E-01    0.9079660711E-03    0.2879718277E-01    0.6061907164E+00
    0.1700000000E+06    0.6500261965E+00    0.4987941427E-01    0.8565435298E-03    0.2881082047E-01    0.6102965621E+00
    0.1900000000E+06    0.6501530184E+00    0.4761234545E-01    0.8129855589E-03    0.2882217643E-01    0.6137953551E+00
    0.2100000000E+06    0.6502547114E+00    0.4564686274E-01    0.7754571330E-03    0.2883185173E-01    0.6168258689E+00
    0.2300000000E+06    0.6503379902E+00    0.4392031237E-01    0.7426745716E-03    0.2884024610E-01    0.6194857979E+00
    0.2500000000E+06    0.6504073798E+00    0.4238703504E-01    0.7137086469E-03    0.2884763688E-01    0.6218462541E+00
    0.2700000000E+06    0.6504660396E+00    0.4101283198E-01    0.6878675267E-03    0.2885422330E-01    0.6239604446E+00
    0.2900000000E+06    0.6505162420E+00    0.3977149320E-01    0.6646238506E-03    0.2886015268E-01    0.6258691084E+00
    0.3100000000E+06    0.6505596623E+00    0.3864253498E-01    0.6435674995E-03    0.2886553663E-01    0.6276040564E+00
    0.3300000000E+06    0.6505975627E+00    0.3760967703E-01    0.6243739859E-03    0.2887046147E-01    0.6291905518E+00
    0.3500000000E+06    0.6506309120E+00    0.3665978890E-01    0.6067826940E-03    0.2887499521E-01    0.6306489551E+00
    0.3700000000E+06    0.6506604658E+00    0.3578214324E-01    0.5905815316E-03    0.2887919225E-01    0.6319958892E+00
    0.3900000000E+06    0.6506868223E+00    0.3496787550E-01    0.5755958703E-03    0.2888309672E-01    0.6332450822E+00
    0.4100000000E+06    0.6507104607E+00    0.3420958544E-01    0.5616804242E-03    0.2888674486E-01    0.6344079878E+00
    0.4300000000E+06    0.6507317697E+00    0.3350103860E-01    0.5487131854E-03    0.2889016676E-01    0.6354942501E+00
    0.4500000000E+06    0.6507510679E+00    0.3283693912E-01    0.5365908278E-03    0.2889338766E-01    0.6365120572E+00
    0.4700000000E+06    0.6507686184E+00    0.3221275461E-01    0.5252251749E-03    0.2889642891E-01    0.6374684135E+00
    0.4900000000E+06    0.6507846409E+00    0.3162457955E-01    0.5145404520E-03    0.2889930871E-01    0.6383693520E+00
    0.1000000000E+06    0.6491559425E+00    0.6194661982E-01    0.1093083961E-02    0.2874504412E-01    0.5916152693E+00
    0.3000000000E+06    0.6505387129E+00    0.3919406840E-01    0.6538442540E-03    0.2886290694E-01    0.6267565866E+00
    0.5000000000E+06    0.6507921381E+00    0.3134291950E-01    0.5094326097E-03    0.2890069304E-01    0.6388007012E+00
    0.7000000000E+06    0.6508942781E+00    0.2697328413E-01    0.4309464635E-03    0.2892276002E-01    0.6454856067E+00
    0.9000000000E+06    0.6509477589E+00    0.2408062912E-01    0.3798216813E-03    0.2893825096E-01    0.6499037246E+00
    0.1100000000E+07    0.6509797882E+00    0.2197958853E-01    0.3431413767E-03    0.2895015748E-01    0.6531091504E+00
    0.1300000000E+07    0.6510005974E+00    0.2036201264E-01    0.3151805681E-03    0.2895981618E-01    0.6555749058E+00
    0.1500000000E+07    0.6510148645E+00    0.1906570140E-01    0.2929591154E-03    0.2896793641E-01    0.6575496300E+00
    0.1700000000E+07    0.6510250185E+00    0.1799591691E-01    0.2747521709E-03    0.2897493867E-01    0.6591783944E+00
    0.1900000000E+07    0.6510324392E+00    0.1709305638E-01    0.2594829428E-03    0.2898109235E-01    0.6605523905E+00
    0.2100000000E+07    0.6510379647E+00    0.1631746531E-01    0.2464398360E-03    0.2898658022E-01    0.6617322464E+00
    0.2300000000E+07    0.6510421315E+00    0.1564158308E-01    0.2351312188E-03    0.2899153188E-01    0.6627600746E+00
    0.2500000000E+07    0.6510452976E+00    0.1504557002E-01    0.2252050760E-03    0.2899604254E-01    0.6636661745E+00
    0.2700000000E+07    0.6510477099E+00    0.1451472626E-01    0.2164018510E-03    0.2900018416E-01    0.6644729858E+00
    0.2900000000E+07    0.6510495439E+00    0.1403789389E-01    0.2085254013E-03    0.2900401245E-01    0.6651975344E+00
    0.3100000000E+07    0.6510509273E+00    0.1360642789E-01    0.2014243795E-03    0.2900757143E-01    0.6658530070E+00
    0.3300000000E+07    0.6510519550E+00    0.1321351093E-01    0.1949798874E-03    0.2901089644E-01    0.6664497994E+00
    0.3500000000E+07    0.6510526984E+00    0.1285368374E-01    0.1890970497E-03    0.2901401631E-01    0.6669962338E+00
    0.3700000000E+07    0.6510532128E+00    0.1252251527E-01    0.1836991152E-03    0.2901695486E-01    0.6674990631E+00
    0.3900000000E+07    0.6510535407E+00    0.1221636590E-01    0.1787232377E-03    0.2901973199E-01    0.6679638328E+00
    0.4100000000E+07    0.6510537161E+00    0.1193221410E-01    0.1741173974E-03    0.2902236451E-01    0.6683951457E+00
    0.4300000000E+07    0.6510537656E+00    0.1166752744E-01    0.1698381167E-03    0.2902486671E-01    0.6687968586E+00
    0.4500000000E+07    0.6510537109E+00    0.1142016510E-01    0.1658487385E-03    0.2902725088E-01    0.6691722312E+00
    0.4700000000E+07    0.6510535696E+00    0.1118830313E-01    0.1621181101E-03    0.2902952766E-01    0.6695240403E+00
    0.4900000000E+07    0.6510533558E+00    0.1097037648E-01    0.1586195649E-03    0.2903170630E-01    0.6698546681E+00
    0.1000000000E+07    0.6509656192E+00    0.2295532651E-01    0.3601265097E-03    0.2894454756E-01    0.6516209070E+00
    0.3000000000E+07    0.6510502854E+00    0.1381695268E-01    0.2048860398E-03    0.2900582322E-01    0.6655331997E+00
    0.5000000000E+07    0.6510532255E+00    0.1086620920E-01    0.1569500171E-03    0.2903276139E-01    0.6700126931E+00
    0.7000000000E+07    0.6510488041E+00    0.9265888448E-02    0.1315344413E-03    0.2905024128E-01    0.6724393828E+00
    0.9000000000E+07    0.6510432210E+00    0.8222484910E-02    0.1152194277E-03    0.2906320495E-01    0.6740204935E+00
    0.1100000000E+08    0.6510376829E+00    0.7472456644E-02    0.1036306038E-03    0.2907351367E-01    0.6751564941E+00
    0.1300000000E+08    0.6510324747E+00    0.6899445129E-02    0.9486207389E-04    0.2908207253E-01    0.6760240653E+00
    0.1500000000E+08    0.6510276473E+00    0.6442991572E-02    0.8793380321E-04    0.2908939049E-01    0.6767149587E+00
    0.1700000000E+08    0.6510231843E+00    0.6068131497E-02    0.8228387028E-04    0.2909578240E-01    0.6772822133E+00
    0.1900000000E+08    0.6510190515E+00    0.5753041311E-02    0.7756410845E-04    0.2910145666E-01    0.6777589231E+00
    0.2100000000E+08    0.6510152121E+00    0.5483296211E-02    0.7354585991E-04    0.2910655836E-01    0.6781669560E+00
    0.2300000000E+08    0.6510116324E+00    0.5248925950E-02    0.7007197692E-04    0.2911119261E-01    0.6785214229E+00
    0.2500000000E+08    0.6510082823E+00    0.5042787434E-02    0.6703044811E-04    0.2911543797E-01    0.6788331478E+00
    0.2700000000E+08    0.6510051362E+00    0.4859610020E-02    0.6433900858E-04    0.2911935475E-01    0.6791101157E+00
