  Pressure (Pa) 22mC5-400 (mol/kg) 2mC6-400 (mol/kg) 33mC5-400 (mol/kg) 23mC5-400 (mol/kg) C7-400 (mol/kg)
    0.1000000000E+01    0.2120215854E-02    0.7922056403E-03    0.1290116939E-03    0.7445734454E-03    0.8528111247E-02
    0.3000000000E+01    0.6296365778E-02    0.2310177792E-02    0.3762744237E-03    0.2211164632E-02    0.2491096012E-01
    0.5000000000E+01    0.1038916307E-01    0.3745042138E-02    0.6100776644E-03    0.3648508206E-02    0.4045427436E-01
    0.7000000000E+01    0.1440132578E-01    0.5102807365E-02    0.8313953305E-03    0.5057557698E-02    0.5522179240E-01
    0.9000000000E+01    0.1833545281E-01    0.6388907880E-02    0.1041108025E-02    0.6439224844E-02    0.6927093920E-01
    0.1100000000E+02    0.2219403034E-01    0.7608272166E-02    0.1240014166E-02    0.7794381837E-02    0.8265358978E-01
    0.1300000000E+02    0.2597943783E-01    0.8765381498E-02    0.1428839544E-02    0.9123863443E-02    0.9541672451E-01
    0.1500000000E+02    0.2969395368E-01    0.9864320568E-02    0.1608245560E-02    0.1042846897E-01    0.1076029937E+00
    0.1700000000E+02    0.3333976053E-01    0.1090882130E-01    0.1778836354E-02    0.1170896415E-01    0.1192512057E+00
    0.1900000000E+02    0.3691895020E-01    0.1190230093E-01    0.1941164995E-02    0.1296608283E-01    0.1303967506E+00
    0.2100000000E+02    0.4043352835E-01    0.1284789513E-01    0.2095738876E-02    0.1420052865E-01    0.1410719689E+00
    0.2300000000E+02    0.4388541888E-01    0.1374848706E-01    0.2243024432E-02    0.1541297659E-01    0.1513064732E+00
    0.2500000000E+02    0.4727646804E-01    0.1460673280E-01    0.2383451274E-02    0.1660407435E-01    0.1611274309E+00
    0.2700000000E+02    0.5060844828E-01    0.1542508369E-01    0.2517415825E-02    0.1777444378E-01    0.1705598112E+00
    0.2900000000E+02    0.5388306194E-01    0.1620580615E-01    0.2645284532E-02    0.1892468210E-01    0.1796266036E+00
    0.3100000000E+02    0.5710194462E-01    0.1695099905E-01    0.2767396701E-02    0.2005536315E-01    0.1883490106E+00
    0.3300000000E+02    0.6026666846E-01    0.1766260930E-01    0.2884067013E-02    0.2116703850E-01    0.1967466185E+00
    0.3500000000E+02    0.6337874518E-01    0.1834244556E-01    0.2995587766E-02    0.2226023851E-01    0.2048375482E+00
    0.3700000000E+02    0.6643962894E-01    0.1899219056E-01    0.3102230863E-02    0.2333547336E-01    0.2126385907E+00
    0.3900000000E+02    0.6945071908E-01    0.1961341204E-01    0.3204249597E-02    0.2439323400E-01    0.2201653266E+00
    0.4100000000E+02    0.7241336266E-01    0.2020757260E-01    0.3301880243E-02    0.2543399304E-01    0.2274322334E+00
    0.4300000000E+02    0.7532885687E-01    0.2077603853E-01    0.3395343492E-02    0.2645820560E-01    0.2344527823E+00
    0.4500000000E+02    0.7819845137E-01    0.2132008769E-01    0.3484845734E-02    0.2746631011E-01    0.2412395233E+00
    0.4700000000E+02    0.8102335041E-01    0.2184091671E-01    0.3570580219E-02    0.2845872908E-01    0.2478041637E+00
    0.4900000000E+02    0.8380471488E-01    0.2233964742E-01    0.3652728102E-02    0.2943586982E-01    0.2541576373E+00
    0.1000000000E+02    0.2027403412E-01    0.7006642120E-02    0.1141864953E-02    0.7120064084E-02    0.7604253255E-01
    0.3000000000E+02    0.5549936994E-01    0.1658271872E-01    0.2707039966E-02    0.1949243230E-01    0.1840295951E+00
    0.5000000000E+02    0.8517942306E-01    0.2258105747E-01    0.3692510606E-02    0.2991883414E-01    0.2572584074E+00
    0.7000000000E+02    0.1106402788E+00    0.2647332405E-01    0.4336066801E-02    0.3886451911E-01    0.3103480846E+00
    0.9000000000E+02    0.1328051869E+00    0.2903372465E-01    0.4762711653E-02    0.4665341899E-01    0.3507032912E+00
    0.1100000000E+03    0.1523372751E+00    0.3071026237E-01    0.5044800971E-02    0.5351820911E-01    0.3824808578E+00
    0.1300000000E+03    0.1697257594E+00    0.3178003552E-01    0.5227143682E-02    0.5963055035E-01    0.4081973005E+00
    0.1500000000E+03    0.1853400478E+00    0.3242300697E-01    0.5338901981E-02    0.6512006929E-01    0.4294668863E+00
    0.1700000000E+03    0.1994648300E+00    0.3276046734E-01    0.5399786566E-02    0.7008666828E-01    0.4473737078E+00
    0.1900000000E+03    0.2123234964E+00    0.3287656165E-01    0.5423520215E-02    0.7460874166E-01    0.4626734429E+00
    0.2100000000E+03    0.2240941678E+00    0.3283102417E-01    0.5419885556E-02    0.7874879964E-01    0.4759093636E+00
    0.2300000000E+03    0.2349209163E+00    0.3266705481E-01    0.5395991416E-02    0.8255740515E-01    0.4874823335E+00
    0.2500000000E+03    0.2449217791E+00    0.3241637113E-01    0.5357085345E-02    0.8607598563E-01    0.4976947845E+00
    0.2700000000E+03    0.2541945872E+00    0.3210254849E-01    0.5307091224E-02    0.8933887793E-01    0.5067793109E+00
    0.2900000000E+03    0.2628212738E+00    0.3174328552E-01    0.5248974346E-02    0.9237484032E-01    0.5149178201E+00
    0.3100000000E+03    0.2708711090E+00    0.3135197485E-01    0.5184994929E-02    0.9520818718E-01    0.5222546934E+00
    0.3300000000E+03    0.2784031599E+00    0.3093881277E-01    0.5116887583E-02    0.9785965248E-01    0.5289060381E+00
    0.3500000000E+03    0.2854681873E+00    0.3051159622E-01    0.5045990514E-02    0.1003470552E+00    0.5349663224E+00
    0.3700000000E+03    0.2921101244E+00    0.3007630363E-01    0.4973339933E-02    0.1026858181E+00    0.5405132210E+00
    0.3900000000E+03    0.2983672416E+00    0.2963752348E-01    0.4899739947E-02    0.1048893768E+00    0.5456112089E+00
    0.4100000000E+03    0.3042730750E+00    0.2919877434E-01    0.4825814913E-02    0.1069695050E+00    0.5503142689E+00
    0.4300000000E+03    0.3098571715E+00    0.2876274601E-01    0.4752049051E-02    0.1089365767E+00    0.5546679551E+00
    0.4500000000E+03    0.3151456939E+00    0.2833148315E-01    0.4678816717E-02    0.1107997779E+00    0.5587109867E+00
    0.4700000000E+03    0.3201619145E+00    0.2790652596E-01    0.4606405712E-02    0.1125672802E+00    0.5624764922E+00
    0.4900000000E+03    0.3249266228E+00    0.2748901893E-01    0.4535035381E-02    0.1142463837E+00    0.5659929901E+00
    0.1000000000E+03    0.1428664321E+00    0.2996225673E-01    0.4918557843E-02    0.5018943229E-01    0.3674797167E+00
    0.3000000000E+03    0.2669143916E+00    0.3155093455E-01    0.5217598437E-02    0.9381546953E-01    0.5186786300E+00
    0.5000000000E+03    0.3272205617E+00    0.2728332987E-01    0.4499793838E-02    0.1150548585E+00    0.5676657079E+00
    0.7000000000E+03    0.3635488672E+00    0.2365949772E-01    0.3871207558E-02    0.1278666466E+00    0.5925951033E+00
    0.9000000000E+03    0.3878230795E+00    0.2090838233E-01    0.3385736494E-02    0.1364387017E+00    0.6079157988E+00
    0.1100000000E+04    0.4051344342E+00    0.1881164654E-01    0.3012046053E-02    0.1425600483E+00    0.6183792574E+00
    0.1300000000E+04    0.4180634448E+00    0.1717771600E-01    0.2719321401E-02    0.1471378988E+00    0.6260265234E+00
    0.1500000000E+04    0.4280624360E+00    0.1587353517E-01    0.2485219044E-02    0.1506830773E+00    0.6318862970E+00
    0.1700000000E+04    0.4360107343E+00    0.1480943096E-01    0.2294277382E-02    0.1535050116E+00    0.6365359689E+00
    0.1900000000E+04    0.4424708972E+00    0.1392433558E-01    0.2135769189E-02    0.1558017519E+00    0.6403258512E+00
    0.2100000000E+04    0.4478188626E+00    0.1317578260E-01    0.2002130838E-02    0.1577057088E+00    0.6434814176E+00
    0.2300000000E+04    0.4523149628E+00    0.1253355433E-01    0.1887923378E-02    0.1593086165E+00    0.6461546905E+00
    0.2500000000E+04    0.4561449157E+00    0.1197566414E-01    0.1789157375E-02    0.1606759470E+00    0.6484520867E+00
    0.2700000000E+04    0.4594446001E+00    0.1148577997E-01    0.1702851121E-02    0.1618556237E+00    0.6504504400E+00
    0.2900000000E+04    0.4623156170E+00    0.1105153889E-01    0.1626737076E-02    0.1628834971E+00    0.6522066853E+00
    0.3100000000E+04    0.4648353896E+00    0.1066342116E-01    0.1559063232E-02    0.1637868987E+00    0.6537639563E+00
    0.3300000000E+04    0.4670639070E+00    0.1031398221E-01    0.1498456217E-02    0.1645870154E+00    0.6551555603E+00
    0.3500000000E+04    0.4690483409E+00    0.9997318344E-02    0.1443825221E-02    0.1653005146E+00    0.6564076477E+00
    0.3700000000E+04    0.4708262749E+00    0.9708688148E-02    0.1394293438E-02    0.1659406823E+00    0.6575410522E+00
    0.3900000000E+04    0.4724280094E+00    0.9444239647E-02    0.1349148344E-02    0.1665182346E+00    0.6585725879E+00
    0.4100000000E+04    0.4738782344E+00    0.9200810509E-02    0.1307805111E-02    0.1670419075E+00    0.6595159826E+00
    0.4300000000E+04    0.4751972640E+00    0.8975779640E-02    0.1269779312E-02    0.1675188921E+00    0.6603825611E+00
    0.4500000000E+04    0.4764019598E+00    0.8766955449E-02    0.1234666299E-02    0.1679551599E+00    0.6611817536E+00
    0.4700000000E+04    0.4775064305E+00    0.8572490681E-02    0.1202125436E-02    0.1683557101E+00    0.6619214798E+00
    0.4900000000E+04    0.4785225693E+00    0.8390816748E-02    0.1171867916E-02    0.1687247586E+00    0.6626084425E+00
    0.1000000000E+04    0.3971514362E+00    0.1979166977E-01    0.3187042726E-02    0.1397362269E+00    0.6135926167E+00
    0.3000000000E+04    0.4636153132E+00    0.1085222135E-01    0.1591938552E-02    0.1633493106E+00    0.6530079168E+00
    0.5000000000E+04    0.4790007295E+00    0.8304349531E-02    0.1157516945E-02    0.1688986099E+00    0.6629339565E+00
    0.7000000000E+04    0.4857259898E+00    0.7004151985E-02    0.9459988719E-03    0.1713605462E+00    0.6677015028E+00
    0.9000000000E+04    0.4894765540E+00    0.6181559346E-02    0.8168115061E-03    0.1727538974E+00    0.6705717134E+00
    0.1100000000E+05    0.4918617873E+00    0.5600230515E-02    0.7279235418E-03    0.1736530951E+00    0.6725175264E+00
    0.1300000000E+05    0.4935092862E+00    0.5160770321E-02    0.6621224792E-03    0.1742832882E+00    0.6739375376E+00
    0.1500000000E+05    0.4947137408E+00    0.4813149350E-02    0.6109476485E-03    0.1747507284E+00    0.6750272748E+00
    0.1700000000E+05    0.4956316110E+00    0.4529062245E-02    0.5697098057E-03    0.1751121105E+00    0.6758946657E+00
    0.1900000000E+05    0.4963535881E+00    0.4291118750E-02    0.5355789520E-03    0.1754004611E+00    0.6766044955E+00
    0.2100000000E+05    0.4969358299E+00    0.4087958963E-02    0.5067349762E-03    0.1756363325E+00    0.6771981751E+00
    0.2300000000E+05    0.4974149514E+00    0.3911801593E-02    0.4819480549E-03    0.1758331916E+00    0.6777035026E+00
    0.2500000000E+05    0.4978158358E+00    0.3757111091E-02    0.4603538123E-03    0.1760002352E+00    0.6781398847E+00
    0.2700000000E+05    0.4981559788E+00    0.3619825968E-02    0.4413248461E-03    0.1761439618E+00    0.6785213134E+00
    0.2900000000E+05    0.4984480374E+00    0.3496888675E-02    0.4243933886E-03    0.1762690958E+00    0.6788581511E+00
    0.3100000000E+05    0.4987013921E+00    0.3385946884E-02    0.4092026972E-03    0.1763791558E+00    0.6791582495E+00
    0.3300000000E+05    0.4989231411E+00    0.3285156818E-02    0.3954753701E-03    0.1764768173E+00    0.6794276755E+00
    0.3500000000E+05    0.4991187537E+00    0.3193049812E-02    0.3829920447E-03    0.1765641520E+00    0.6796711971E+00
    0.3700000000E+05    0.4992925113E+00    0.3108439371E-02    0.3715766850E-03    0.1766427893E+00    0.6798926179E+00
    0.3900000000E+05    0.4994478127E+00    0.3030354951E-02    0.3610861806E-03    0.1767140294E+00    0.6800950124E+00
    0.4100000000E+05    0.4995873900E+00    0.2957993811E-02    0.3514028407E-03    0.1767789223E+00    0.6802808950E+00
    0.4300000000E+05    0.4997134642E+00    0.2890685397E-02    0.3424288759E-03    0.1768383256E+00    0.6804523438E+00
    0.4500000000E+05    0.4998278591E+00    0.2827864555E-02    0.3340822770E-03    0.1768929471E+00    0.6806110925E+00
    0.4700000000E+05    0.4999320859E+00    0.2769051102E-02    0.3262936885E-03    0.1769433762E+00    0.6807586004E+00
    0.4900000000E+05    0.5000274076E+00    0.2713834047E-02    0.3190040082E-03    0.1769901077E+00    0.6808961047E+00
    0.1000000000E+05    0.4907889512E+00    0.5868643435E-02    0.7687085139E-03    0.1732470343E+00    0.6716282403E+00
    0.3000000000E+05    0.4985790645E+00    0.3440043693E-02    0.4165993553E-03    0.1763258263E+00    0.6790123783E+00
    0.5000000000E+05    0.5000720681E+00    0.2687461562E-02    0.3155301245E-03    0.1770122202E+00    0.6809614419E+00
    0.7000000000E+05    0.5006850823E+00    0.2283933000E-02    0.2630155130E-03    0.1773347412E+00    0.6819338318E+00
    0.9000000000E+05    0.5010109779E+00    0.2022402827E-02    0.2296453017E-03    0.1775294709E+00    0.6825364042E+00
    0.1100000000E+06    0.5012090862E+00    0.1835131073E-02    0.2060903417E-03    0.1776632353E+00    0.6829544162E+00
    0.1300000000E+06    0.5013398263E+00    0.1692452712E-02    0.1883450400E-03    0.1777626386E+00    0.6832653142E+00
    0.1500000000E+06    0.5014310027E+00    0.1579036617E-02    0.1743690144E-03    0.1778405104E+00    0.6835077621E+00
    0.1700000000E+06    0.5014971309E+00    0.1486050958E-02    0.1630001778E-03    0.1779038600E+00    0.6837034328E+00
    0.1900000000E+06    0.5015464978E+00    0.1407999733E-02    0.1535221257E-03    0.1779568705E+00    0.6838655151E+00
    0.2100000000E+06    0.5015841610E+00    0.1341258975E-02    0.1454662246E-03    0.1780022088E+00    0.6840025431E+00
    0.2300000000E+06    0.5016133723E+00    0.1283328830E-02    0.1385114362E-03    0.1780416643E+00    0.6841203097E+00
    0.2500000000E+06    0.5016363110E+00    0.1232421320E-02    0.1324295434E-03    0.1780764879E+00    0.6842228998E+00
    0.2700000000E+06    0.5016544884E+00    0.1187219072E-02    0.1270533156E-03    0.1781075837E+00    0.6843132862E+00
    0.2900000000E+06    0.5016689828E+00    0.1146727056E-02    0.1222570657E-03    0.1781356240E+00    0.6843936894E+00
    0.3100000000E+06    0.5016805820E+00    0.1110177715E-02    0.1179442778E-03    0.1781611202E+00    0.6844658052E+00
    0.3300000000E+06    0.5016898740E+00    0.1076968144E-02    0.1140394548E-03    0.1781844695E+00    0.6845309538E+00
    0.3500000000E+06    0.5016973053E+00    0.1046617261E-02    0.1104825865E-03    0.1782059858E+00    0.6845901798E+00
    0.3700000000E+06    0.5017032204E+00    0.1018735856E-02    0.1072252972E-03    0.1782259210E+00    0.6846443219E+00
    0.3900000000E+06    0.5017078887E+00    0.9930051875E-03    0.1042281018E-03    0.1782444801E+00    0.6846940622E+00
    0.4100000000E+06    0.5017115235E+00    0.9691613646E-03    0.1014584137E-03    0.1782618317E+00    0.6847399619E+00
    0.4300000000E+06    0.5017142957E+00    0.9469837734E-03    0.9888907074E-04    0.1782781161E+00    0.6847824872E+00
    0.4500000000E+06    0.5017163434E+00    0.9262863515E-03    0.9649722932E-04    0.1782934513E+00    0.6848220289E+00
    0.4700000000E+06    0.5017177792E+00    0.9069109232E-03    0.9426352120E-04    0.1783079372E+00    0.6848589180E+00
    0.4900000000E+06    0.5017186957E+00    0.8887220413E-03    0.9217140324E-04    0.1783216590E+00    0.6848934359E+00
    0.1000000000E+06    0.5011210785E+00    0.1921824711E-02    0.2169582766E-03    0.1776018310E+00    0.6827623072E+00
    0.3000000000E+06    0.5016751036E+00    0.1128000514E-02    0.1200453754E-03    0.1781486630E+00    0.6844306933E+00
    0.5000000000E+06    0.5017189836E+00    0.8800354313E-03    0.9117391608E-04    0.1783282568E+00    0.6849098826E+00
    0.7000000000E+06    0.5017105795E+00    0.7471929427E-03    0.7606049022E-04    0.1784335404E+00    0.6851583090E+00
    0.9000000000E+06    0.5016909494E+00    0.6611927116E-03    0.6642911153E-04    0.1785075277E+00    0.6853160306E+00
    0.1100000000E+07    0.5016689659E+00    0.5996696645E-03    0.5962115779E-04    0.1785644117E+00    0.6854273542E+00
    0.1300000000E+07    0.5016471815E+00    0.5528330395E-03    0.5448844108E-04    0.1786105568E+00    0.6855112548E+00
    0.1500000000E+07    0.5016263925E+00    0.5156261810E-03    0.5044417648E-04    0.1786493476E+00    0.6855773793E+00
    0.1700000000E+07    0.5016068131E+00    0.4851380772E-03    0.4715348135E-04    0.1786827926E+00    0.6856312140E+00
    0.1900000000E+07    0.5015884481E+00    0.4595583834E-03    0.4440962572E-04    0.1787121795E+00    0.6856761376E+00
    0.2100000000E+07    0.5015712264E+00    0.4376940897E-03    0.4207724932E-04    0.1787383822E+00    0.6857143587E+00
    0.2300000000E+07    0.5015550539E+00    0.4187226803E-03    0.4006355974E-04    0.1787620206E+00    0.6857473895E+00
    0.2500000000E+07    0.5015398337E+00    0.4020561453E-03    0.3830256000E-04    0.1787835502E+00    0.6857763047E+00
    0.2700000000E+07    0.5015254749E+00    0.3872614299E-03    0.3674587095E-04    0.1788033152E+00    0.6858018915E+00
    0.2900000000E+07    0.5015118949E+00    0.3740115702E-03    0.3535712127E-04    0.1788215822E+00    0.6858247417E+00
    0.3100000000E+07    0.5014990201E+00    0.3620544387E-03    0.3410837476E-04    0.1788385617E+00    0.6858453097E+00
    0.3300000000E+07    0.5014867854E+00    0.3511920577E-03    0.3297777528E-04    0.1788544227E+00    0.6858639508E+00
    0.3500000000E+07    0.5014751336E+00    0.3412665001E-03    0.3194794767E-04    0.1788693034E+00    0.6858809477E+00
    0.3700000000E+07    0.5014640139E+00    0.3321500340E-03    0.3100488385E-04    0.1788833175E+00    0.6858965282E+00
    0.3900000000E+07    0.5014533816E+00    0.3237380796E-03    0.3013714926E-04    0.1788965602E+00    0.6859108784E+00
    0.4100000000E+07    0.5014431971E+00    0.3159440749E-03    0.2933530640E-04    0.1789091120E+00    0.6859241517E+00
    0.4300000000E+07    0.5014334251E+00    0.3086956696E-03    0.2859148842E-04    0.1789210412E+00    0.6859364762E+00
    0.4500000000E+07    0.5014240344E+00    0.3019318570E-03    0.2789907893E-04    0.1789324066E+00    0.6859479596E+00
    0.4700000000E+07    0.5014149969E+00    0.2956007837E-03    0.2725246800E-04    0.1789432590E+00    0.6859586932E+00
    0.4900000000E+07    0.5014062875E+00    0.2896580557E-03    0.2664686388E-04    0.1789536426E+00    0.6859687551E+00
    0.1000000000E+07    0.5016800265E+00    0.6281439927E-03    0.6276307900E-04    0.1785376093E+00    0.6853759879E+00
    0.3000000000E+07    0.5015053736E+00    0.3678848657E-03    0.3471673450E-04    0.1788302215E+00    0.6858352868E+00
    0.5000000000E+07    0.5014020487E+00    0.2868201552E-03    0.2635812883E-04    0.1789586710E+00    0.6859735556E+00
    0.7000000000E+07    0.5013300467E+00    0.2434380435E-03    0.2198399416E-04    0.1790419457E+00    0.6860465664E+00
    0.9000000000E+07    0.5012748346E+00    0.2153702944E-03    0.1919721235E-04    0.1791036678E+00    0.6860934233E+00
    0.1100000000E+08    0.5012300625E+00    0.1952992954E-03    0.1722778199E-04    0.1791527276E+00    0.6861267406E+00
    0.1300000000E+08    0.5011924075E+00    0.1800240432E-03    0.1574321858E-04    0.1791934454E+00    0.6861519877E+00
    0.1500000000E+08    0.5011599152E+00    0.1678921864E-03    0.1457363454E-04    0.1792282498E+00    0.6861719700E+00
    0.1700000000E+08    0.5011313389E+00    0.1579528807E-03    0.1362208904E-04    0.1792586427E+00    0.6861882939E+00
    0.1900000000E+08    0.5011058353E+00    0.1496149868E-03    0.1282874688E-04    0.1792856176E+00    0.6862019543E+00
    0.2100000000E+08    0.5010828069E+00    0.1424890462E-03    0.1215443471E-04    0.1793098662E+00    0.6862136041E+00
    0.2300000000E+08    0.5010618152E+00    0.1363066059E-03    0.1157230131E-04    0.1793318895E+00    0.6862236925E+00
    0.2500000000E+08    0.5010425288E+00    0.1308757864E-03    0.1106325111E-04    0.1793520618E+00    0.6862325395E+00
    0.2700000000E+08    0.5010246911E+00    0.1260552950E-03    0.1061328734E-04    0.1793706704E+00    0.6862403803E+00
