  Pressure (Pa) 22mC5-400 (mol/kg) 2mC6-400 (mol/kg) 33mC5-400 (mol/kg) 23mC5-400 (mol/kg) C7-400 (mol/kg)
    0.1000000000E+01    0.2113716254E-02    0.3975530275E-02    0.1294704591E-03    0.7422919861E-03    0.1716137381E-02
    0.3000000000E+01    0.6239867730E-02    0.1167588112E-01    0.3802254293E-03    0.2191332773E-02    0.5073070201E-02
    0.5000000000E+01    0.1023750114E-01    0.1905809067E-01    0.6205920269E-03    0.3595271590E-02    0.8333502344E-02
    0.7000000000E+01    0.1411390962E-01    0.2614025217E-01    0.8511602582E-03    0.4956667524E-02    0.1150191754E-01
    0.9000000000E+01    0.1787582794E-01    0.3293912497E-01    0.1072476672E-02    0.6277883751E-02    0.1458252062E-01
    0.1100000000E+02    0.2152948513E-01    0.3947025523E-01    0.1285048288E-02    0.7561106007E-02    0.1757925899E-01
    0.1300000000E+02    0.2508065129E-01    0.4574808371E-01    0.1489346109E-02    0.8808359002E-02    0.2049584220E-01
    0.1500000000E+02    0.2853467925E-01    0.5178604230E-01    0.1685808263E-02    0.1002152105E-01    0.2333575970E-01
    0.1700000000E+02    0.3189654185E-01    0.5759664051E-01    0.1874842819E-02    0.1120233712E-01    0.2610229708E-01
    0.1900000000E+02    0.3517086522E-01    0.6319154324E-01    0.2056830319E-02    0.1235243056E-01    0.2879855081E-01
    0.2100000000E+02    0.3836195867E-01    0.6858164081E-01    0.2232126061E-02    0.1347331354E-01    0.3142744180E-01
    0.2300000000E+02    0.4147384151E-01    0.7377711209E-01    0.2401062154E-02    0.1456639645E-01    0.3399172775E-01
    0.2500000000E+02    0.4451026720E-01    0.7878748159E-01    0.2563949379E-02    0.1563299645E-01    0.3649401445E-01
    0.2700000000E+02    0.4747474515E-01    0.8362167108E-01    0.2721078866E-02    0.1667434503E-01    0.3893676625E-01
    0.2900000000E+02    0.5037056032E-01    0.8828804645E-01    0.2872723627E-02    0.1769159495E-01    0.4132231555E-01
    0.3100000000E+02    0.5320079111E-01    0.9279446021E-01    0.3019139934E-02    0.1868582646E-01    0.4365287161E-01
    0.3300000000E+02    0.5596832540E-01    0.9714829021E-01    0.3160568585E-02    0.1965805298E-01    0.4593052866E-01
    0.3500000000E+02    0.5867587522E-01    0.1013564748E+00    0.3297236049E-02    0.2060922624E-01    0.4815727331E-01
    0.3700000000E+02    0.6132599005E-01    0.1054255451E+00    0.3429355513E-02    0.2154024090E-01    0.5033499146E-01
    0.3900000000E+02    0.6392106895E-01    0.1093616542E+00    0.3557127842E-02    0.2245193886E-01    0.5246547470E-01
    0.4100000000E+02    0.6646337156E-01    0.1131706041E+00    0.3680742447E-02    0.2334511310E-01    0.5455042610E-01
    0.4300000000E+02    0.6895502823E-01    0.1168578703E+00    0.3800378095E-02    0.2422051122E-01    0.5659146573E-01
    0.4500000000E+02    0.7139804921E-01    0.1204286243E+00    0.3916203638E-02    0.2507883868E-01    0.5859013568E-01
    0.4700000000E+02    0.7379433308E-01    0.1238877545E+00    0.4028378690E-02    0.2592076176E-01    0.6054790475E-01
    0.4900000000E+02    0.7614567451E-01    0.1272398850E+00    0.4137054248E-02    0.2674691028E-01    0.6246617278E-01
    0.1000000000E+02    0.1971581830E-01    0.3623723064E-01    0.1179825336E-02    0.6924113987E-02    0.1609113569E-01
    0.3000000000E+02    0.5179368899E-01    0.9056077672E-01    0.2946569938E-02    0.1819152316E-01    0.4249433424E-01
    0.5000000000E+02    0.7730502599E-01    0.1288772025E+00    0.4190124690E-02    0.2715425654E-01    0.6341091350E-01
    0.7000000000E+02    0.9850006393E-01    0.1569544237E+00    0.5098784061E-02    0.3460198384E-01    0.8052566277E-01
    0.9000000000E+02    0.1166676689E+00    0.1781185543E+00    0.5781197597E-02    0.4098702801E-01    0.9488608248E-01
    0.1100000000E+03    0.1326029423E+00    0.1944185556E+00    0.6304336750E-02    0.4658843940E-01    0.1071794855E+00
    0.1300000000E+03    0.1468255249E+00    0.2071828576E+00    0.6711648608E-02    0.5158859884E-01    0.1178766800E+00
    0.1500000000E+03    0.1596911288E+00    0.2173086275E+00    0.7032493905E-02    0.5611235619E-01    0.1273117232E+00
    0.1700000000E+03    0.1714527097E+00    0.2254223299E+00    0.7287387583E-02    0.6024849755E-01    0.1357286988E+00
    0.1900000000E+03    0.1822959997E+00    0.2319737251E+00    0.7491067848E-02    0.6406221523E-01    0.1433104358E+00
    0.2100000000E+03    0.1923611484E+00    0.2372933784E+00    0.7654374475E-02    0.6760270297E-01    0.1501968286E+00
    0.2300000000E+03    0.2017564402E+00    0.2416291769E+00    0.7785441827E-02    0.7090796997E-01    0.1564969155E+00
    0.2500000000E+03    0.2105672879E+00    0.2451702620E+00    0.7890481025E-02    0.7400799778E-01    0.1622970701E+00
    0.2700000000E+03    0.2188623068E+00    0.2480631522E+00    0.7974307015E-02    0.7692687185E-01    0.1676666959E+00
    0.2900000000E+03    0.2266975210E+00    0.2504228674E+00    0.8040702371E-02    0.7968425817E-01    0.1726622729E+00
    0.3100000000E+03    0.2341193446E+00    0.2523407682E+00    0.8092673751E-02    0.8229644950E-01    0.1773302892E+00
    0.3300000000E+03    0.2411667358E+00    0.2538901857E+00    0.8132636129E-02    0.8477712153E-01    0.1817094020E+00
    0.3500000000E+03    0.2478727824E+00    0.2551305316E+00    0.8162547379E-02    0.8713788936E-01    0.1858320555E+00
    0.3700000000E+03    0.2542658871E+00    0.2561103459E+00    0.8184008083E-02    0.8938872360E-01    0.1897257095E+00
    0.3900000000E+03    0.2603706669E+00    0.2568695869E+00    0.8198336583E-02    0.9153826608E-01    0.1934137840E+00
    0.4100000000E+03    0.2662086452E+00    0.2574413740E+00    0.8206626113E-02    0.9359407271E-01    0.1969163949E+00
    0.4300000000E+03    0.2717987900E+00    0.2578533283E+00    0.8209788784E-02    0.9556280241E-01    0.2002509321E+00
    0.4500000000E+03    0.2771579378E+00    0.2581286158E+00    0.8208589808E-02    0.9745036603E-01    0.2034325191E+00
    0.4700000000E+03    0.2823011311E+00    0.2582867651E+00    0.8203674383E-02    0.9926204465E-01    0.2064743812E+00
    0.4900000000E+03    0.2872418894E+00    0.2583443163E+00    0.8195588990E-02    0.1010025848E+00    0.2093881431E+00
    0.1000000000E+03    0.1248770545E+00    0.1867808951E+00    0.6059547944E-02    0.4387259921E-01    0.1012578082E+00
    0.3000000000E+03    0.2304575179E+00    0.2514320931E+00    0.8068328031E-02    0.8100759446E-01    0.1750346476E+00
    0.5000000000E+03    0.2896402186E+00    0.2583398485E+00    0.8190505597E-02    0.1018475342E+00    0.2108002422E+00
    0.7000000000E+03    0.3294233356E+00    0.2554622961E+00    0.8004703666E-02    0.1158700184E+00    0.2342763184E+00
    0.9000000000E+03    0.3579981781E+00    0.2504880074E+00    0.7764041134E-02    0.1259513807E+00    0.2517830226E+00
    0.1100000000E+04    0.3793538011E+00    0.2452835928E+00    0.7528349658E-02    0.1334928996E+00    0.2657738264E+00
    0.1300000000E+04    0.3957907743E+00    0.2403541605E+00    0.7312230945E-02    0.1393030536E+00    0.2774460349E+00
    0.1500000000E+04    0.4087468127E+00    0.2358159610E+00    0.7117619039E-02    0.1438872948E+00    0.2874717114E+00
    0.1700000000E+04    0.4191655466E+00    0.2316660551E+00    0.6942817333E-02    0.1475774992E+00    0.2962656087E+00
    0.1900000000E+04    0.4276888346E+00    0.2278671141E+00    0.6785298659E-02    0.1505994930E+00    0.3041018258E+00
    0.2100000000E+04    0.4347660061E+00    0.2243755645E+00    0.6642591675E-02    0.1531114218E+00    0.3111711239E+00
    0.2300000000E+04    0.4407193787E+00    0.2211507193E+00    0.6512532382E-02    0.1552267686E+00    0.3176117395E+00
    0.2500000000E+04    0.4457851293E+00    0.2181572362E+00    0.6393300474E-02    0.1570287168E+00    0.3235271455E+00
    0.2700000000E+04    0.4501396024E+00    0.2153652447E+00    0.6283386933E-02    0.1585793982E+00    0.3289968768E+00
    0.2900000000E+04    0.4539166999E+00    0.2127497324E+00    0.6181544975E-02    0.1599260070E+00    0.3340834355E+00
    0.3100000000E+04    0.4572196450E+00    0.2102897738E+00    0.6086742353E-02    0.1611049376E+00    0.3388368657E+00
    0.3300000000E+04    0.4601291056E+00    0.2079678063E+00    0.5998120382E-02    0.1621446418E+00    0.3432978836E+00
    0.3500000000E+04    0.4627089101E+00    0.2057690120E+00    0.5914960419E-02    0.1630676397E+00    0.3475000788E+00
    0.3700000000E+04    0.4650101361E+00    0.2036808107E+00    0.5836657043E-02    0.1638919596E+00    0.3514714994E+00
    0.3900000000E+04    0.4670740830E+00    0.2016924520E+00    0.5762696763E-02    0.1646321832E+00    0.3552358172E+00
    0.4100000000E+04    0.4689344614E+00    0.1997946884E+00    0.5692641148E-02    0.1653002173E+00    0.3588132012E+00
    0.4300000000E+04    0.4706190290E+00    0.1979795142E+00    0.5626113431E-02    0.1659058698E+00    0.3622209816E+00
    0.4500000000E+04    0.4721508262E+00    0.1962399556E+00    0.5562787839E-02    0.1664572845E+00    0.3654741629E+00
    0.4700000000E+04    0.4735491210E+00    0.1945699024E+00    0.5502381033E-02    0.1669612745E+00    0.3685858263E+00
    0.4900000000E+04    0.4748301381E+00    0.1929639718E+00    0.5444645217E-02    0.1674235789E+00    0.3715674467E+00
    0.1000000000E+04    0.3694081181E+00    0.2478682745E+00    0.7644176209E-02    0.1299797894E+00    0.2591258152E+00
    0.3000000000E+04    0.4556219476E+00    0.2115014775E+00    0.6133321055E-02    0.1605344946E+00    0.3364990577E+00
    0.5000000000E+04    0.4754310482E+00    0.1921835412E+00    0.5416709813E-02    0.1676406491E+00    0.3730127014E+00
    0.7000000000E+04    0.4837340498E+00    0.1790251848E+00    0.4956942090E-02    0.1706582384E+00    0.3970243489E+00
    0.9000000000E+04    0.4882188689E+00    0.1690470045E+00    0.4620916811E-02    0.1723103121E+00    0.4148086196E+00
    0.1100000000E+05    0.4910040054E+00    0.1610335384E+00    0.4357833133E-02    0.1733504776E+00    0.4288496982E+00
    0.1300000000E+05    0.4928929723E+00    0.1543599107E+00    0.4142852357E-02    0.1740658192E+00    0.4403931067E+00
    0.1500000000E+05    0.4942542296E+00    0.1486594920E+00    0.3961941789E-02    0.1745885700E+00    0.4501536849E+00
    0.1700000000E+05    0.4952795724E+00    0.1436979096E+00    0.3806389419E-02    0.1749878730E+00    0.4585798590E+00
    0.1900000000E+05    0.4960783432E+00    0.1393159772E+00    0.3670414278E-02    0.1753033271E+00    0.4659713535E+00
    0.2100000000E+05    0.4967173021E+00    0.1354005588E+00    0.3549985257E-02    0.1755592217E+00    0.4725382926E+00
    0.2300000000E+05    0.4972394538E+00    0.1318683532E+00    0.3442181163E-02    0.1757712757E+00    0.4784335817E+00
    0.2500000000E+05    0.4976737190E+00    0.1286562582E+00    0.3344818956E-02    0.1759501099E+00    0.4837718762E+00
    0.2700000000E+05    0.4980402463E+00    0.1257153414E+00    0.3256225568E-02    0.1761031583E+00    0.4886412978E+00
    0.2900000000E+05    0.4983534944E+00    0.1230069068E+00    0.3175091486E-02    0.1762357807E+00    0.4931109896E+00
    0.3100000000E+05    0.4986241019E+00    0.1204998379E+00    0.3100373274E-02    0.1763519394E+00    0.4972361659E+00
    0.3300000000E+05    0.4988600673E+00    0.1181687498E+00    0.3031226645E-02    0.1764546276E+00    0.5010615916E+00
    0.3500000000E+05    0.4990675174E+00    0.1159926716E+00    0.2966959261E-02    0.1765461489E+00    0.5046240411E+00
    0.3700000000E+05    0.4992512232E+00    0.1139540859E+00    0.2906996694E-02    0.1766283058E+00    0.5079540775E+00
    0.3900000000E+05    0.4994149540E+00    0.1120382164E+00    0.2850857374E-02    0.1767025290E+00    0.5110773635E+00
    0.4100000000E+05    0.4995617264E+00    0.1102324883E+00    0.2798133818E-02    0.1767699688E+00    0.5140156461E+00
    0.4300000000E+05    0.4996939826E+00    0.1085261163E+00    0.2748478361E-02    0.1768315612E+00    0.5167875061E+00
    0.4500000000E+05    0.4998137206E+00    0.1069097830E+00    0.2701592138E-02    0.1768880754E+00    0.5194089379E+00
    0.4700000000E+05    0.4999225902E+00    0.1053753874E+00    0.2657216480E-02    0.1769401497E+00    0.5218938025E+00
    0.4900000000E+05    0.5000219659E+00    0.1039158436E+00    0.2615126113E-02    0.1769883182E+00    0.5242541867E+00
    0.1000000000E+05    0.4897583175E+00    0.1648420820E+00    0.4482164564E-02    0.1728834792E+00    0.4222019331E+00
    0.3000000000E+05    0.4984935770E+00    0.1217299050E+00    0.3136987201E-02    0.1762957120E+00    0.4952136323E+00
    0.5000000000E+05    0.5000684615E+00    0.1032121643E+00    0.2594875289E-02    0.1770110814E+00    0.5253910623E+00
    0.7000000000E+05    0.5007022281E+00    0.9188650734E-01    0.2272674684E-02    0.1773409752E+00    0.5435939650E+00
    0.9000000000E+05    0.5010353514E+00    0.8394247458E-01    0.2050876643E-02    0.1775382903E+00    0.5562629455E+00
    0.1100000000E+06    0.5012362525E+00    0.7793344187E-01    0.1885431583E-02    0.1776730672E+00    0.5657967396E+00
    0.1300000000E+06    0.5013680063E+00    0.7316308995E-01    0.1755544700E-02    0.1777728504E+00    0.5733369778E+00
    0.1500000000E+06    0.5014593950E+00    0.6924615870E-01    0.1649876606E-02    0.1778508160E+00    0.5795104439E+00
    0.1700000000E+06    0.5015253506E+00    0.6594871202E-01    0.1561621342E-02    0.1779141213E+00    0.5846955621E+00
    0.1900000000E+06    0.5015743557E+00    0.6311886057E-01    0.1486402487E-02    0.1779670192E+00    0.5891369423E+00
    0.2100000000E+06    0.5016115664E+00    0.6065285640E-01    0.1421255390E-02    0.1780122114E+00    0.5930010648E+00
    0.2300000000E+06    0.5016402863E+00    0.5847695620E-01    0.1364088005E-02    0.1780515061E+00    0.5964059099E+00
    0.2500000000E+06    0.5016627227E+00    0.5653703217E-01    0.1313374608E-02    0.1780861641E+00    0.5994378561E+00
    0.2700000000E+06    0.5016804024E+00    0.5479228724E-01    0.1267971865E-02    0.1781170953E+00    0.6021618669E+00
    0.2900000000E+06    0.5016944120E+00    0.5321128006E-01    0.1227003252E-02    0.1781449749E+00    0.6046279125E+00
    0.3100000000E+06    0.5017055437E+00    0.5176931584E-01    0.1189783627E-02    0.1781703159E+00    0.6068751748E+00
    0.3300000000E+06    0.5017143874E+00    0.5044667900E-01    0.1155768415E-02    0.1781935163E+00    0.6089348886E+00
    0.3500000000E+06    0.5017213902E+00    0.4922740339E-01    0.1124518414E-02    0.1782148904E+00    0.6108323144E+00
    0.3700000000E+06    0.5017268966E+00    0.4809839617E-01    0.1095674842E-02    0.1782346899E+00    0.6125881415E+00
    0.3900000000E+06    0.5017311754E+00    0.4704880081E-01    0.1068941264E-02    0.1782531198E+00    0.6142195063E+00
    0.4100000000E+06    0.5017344390E+00    0.4606952539E-01    0.1044070263E-02    0.1782703483E+00    0.6157407451E+00
    0.4300000000E+06    0.5017368574E+00    0.4515288764E-01    0.1020853450E-02    0.1782865155E+00    0.6171639601E+00
    0.4500000000E+06    0.5017385677E+00    0.4429234396E-01    0.9991138542E-03    0.1783017390E+00    0.6184994510E+00
    0.4700000000E+06    0.5017396815E+00    0.4348227973E-01    0.9787000660E-03    0.1783161184E+00    0.6197560477E+00
    0.4900000000E+06    0.5017402904E+00    0.4271784524E-01    0.9594816567E-03    0.1783297387E+00    0.6209413719E+00
    0.1000000000E+06    0.5011471735E+00    0.8074985323E-01    0.1962723091E-02    0.1776112721E+00    0.5613333634E+00
    0.3000000000E+06    0.5017002968E+00    0.5247425001E-01    0.1207961674E-02    0.1781579356E+00    0.6057767796E+00
    0.5000000000E+06    0.5017404297E+00    0.4235140024E-01    0.9502847937E-03    0.1783362874E+00    0.6215094096E+00
    0.7000000000E+06    0.5017296199E+00    0.3663483852E-01    0.8081896288E-03    0.1784407818E+00    0.6303569121E+00
    0.9000000000E+06    0.5017083115E+00    0.3281771209E-01    0.7148346707E-03    0.1785142258E+00    0.6362503609E+00
    0.1100000000E+07    0.5016850747E+00    0.3002868783E-01    0.6474615373E-03    0.1785707094E+00    0.6405493674E+00
    0.1300000000E+07    0.5016623082E+00    0.2787192552E-01    0.5958796957E-03    0.1786165451E+00    0.6438697333E+00
    0.1500000000E+07    0.5016407223E+00    0.2613751677E-01    0.5547456716E-03    0.1786550882E+00    0.6465373187E+00
    0.1700000000E+07    0.5016204791E+00    0.2470215821E-01    0.5209494718E-03    0.1786883295E+00    0.6487432320E+00
    0.1900000000E+07    0.5016015495E+00    0.2348792048E-01    0.4925408976E-03    0.1787175455E+00    0.6506081021E+00
    0.2100000000E+07    0.5015838398E+00    0.2244275992E-01    0.4682264052E-03    0.1787436023E+00    0.6522124044E+00
    0.2300000000E+07    0.5015672397E+00    0.2153038935E-01    0.4471095116E-03    0.1787671146E+00    0.6536122004E+00
    0.2500000000E+07    0.5015516408E+00    0.2072461513E-01    0.4285465976E-03    0.1787885338E+00    0.6548479268E+00
    0.2700000000E+07    0.5015369431E+00    0.2000598272E-01    0.4120619807E-03    0.1788082014E+00    0.6559495972E+00
    0.2900000000E+07    0.5015230576E+00    0.1935969371E-01    0.3972954499E-03    0.1788263817E+00    0.6569400283E+00
    0.3100000000E+07    0.5015099055E+00    0.1877426062E-01    0.3839685453E-03    0.1788432834E+00    0.6578369229E+00
    0.3300000000E+07    0.5014974175E+00    0.1824060905E-01    0.3718621455E-03    0.1788590743E+00    0.6586542583E+00
    0.3500000000E+07    0.5014855330E+00    0.1775146102E-01    0.3608011368E-03    0.1788738913E+00    0.6594032402E+00
    0.3700000000E+07    0.5014741985E+00    0.1730090092E-01    0.3506436636E-03    0.1788878475E+00    0.6600929731E+00
    0.3900000000E+07    0.5014633672E+00    0.1688406338E-01    0.3412734228E-03    0.1789010372E+00    0.6607309424E+00
    0.4100000000E+07    0.5014529976E+00    0.1649690446E-01    0.3325940348E-03    0.1789135402E+00    0.6613233678E+00
    0.4300000000E+07    0.5014430528E+00    0.1613603105E-01    0.3245248600E-03    0.1789254245E+00    0.6618754663E+00
    0.4500000000E+07    0.5014335003E+00    0.1579857177E-01    0.3169978405E-03    0.1789367483E+00    0.6623916515E+00
    0.4700000000E+07    0.5014243107E+00    0.1548207789E-01    0.3099550842E-03    0.1789475622E+00    0.6628756864E+00
    0.4900000000E+07    0.5014154582E+00    0.1518444635E-01    0.3033469923E-03    0.1789579100E+00    0.6633308019E+00
    0.1000000000E+07    0.5016967206E+00    0.3132566309E-01    0.6787005364E-03    0.1785440934E+00    0.6385509488E+00
    0.3000000000E+07    0.5015163944E+00    0.1905998557E-01    0.3904669233E-03    0.1788349810E+00    0.6573992196E+00
    0.5000000000E+07    0.5014111508E+00    0.1504212612E-01    0.3001923459E-03    0.1789629214E+00    0.6635484024E+00
    0.7000000000E+07    0.5013380882E+00    0.1285121373E-01    0.2520737134E-03    0.1790459491E+00    0.6668961566E+00
    0.9000000000E+07    0.5012821759E+00    0.1141823672E-01    0.2210894381E-03    0.1791075290E+00    0.6690836538E+00
    0.1100000000E+08    0.5012368958E+00    0.1038596598E-01    0.1990346754E-03    0.1791564996E+00    0.6706583845E+00
    0.1300000000E+08    0.5011988499E+00    0.9596079074E-02    0.1823214455E-03    0.1791971592E+00    0.6718627334E+00
    0.1500000000E+08    0.5011660442E+00    0.8966091884E-02    0.1690999622E-03    0.1792319250E+00    0.6728228822E+00
    0.1700000000E+08    0.5011372095E+00    0.8448204618E-02    0.1583075153E-03    0.1792622923E+00    0.6736119099E+00
    0.1900000000E+08    0.5011114876E+00    0.8012533666E-02    0.1492846109E-03    0.1792892509E+00    0.6742754819E+00
    0.2100000000E+08    0.5010882717E+00    0.7639300261E-02    0.1415975657E-03    0.1793134899E+00    0.6748438101E+00
    0.2300000000E+08    0.5010671166E+00    0.7314818099E-02    0.1349480000E-03    0.1793355086E+00    0.6753377930E+00
    0.2500000000E+08    0.5010476861E+00    0.7029272230E-02    0.1291230359E-03    0.1793556800E+00    0.6757724131E+00
    0.2700000000E+08    0.5010297200E+00    0.6775414415E-02    0.1239662011E-03    0.1793742907E+00    0.6761587319E+00
