  Pressure (Pa) 22mC5-400 (mol/kg) 2mC6-400 (mol/kg) 33mC5-400 (mol/kg) 23mC5-400 (mol/kg) C7-400 (mol/kg)
    0.1000000000E+01    0.2114615337E-02    0.3967643755E-02    0.3876536266E-03    0.2784777590E-03    0.3422675973E-02
    0.3000000000E+01    0.6247690252E-02    0.1160763538E-01    0.1134121630E-02    0.8227787546E-03    0.1006287645E-01
    0.5000000000E+01    0.1025852326E-01    0.1887567785E-01    0.1844262944E-02    0.1350992070E-02    0.1644391662E-01
    0.7000000000E+01    0.1415380107E-01    0.2579596937E-01    0.2520439362E-02    0.1863997594E-02    0.2258178387E-01
    0.9000000000E+01    0.1793971593E-01    0.3239069974E-01    0.3164816662E-02    0.2362610156E-02    0.2849115631E-01
    0.1100000000E+02    0.2162201073E-01    0.3868025248E-01    0.3779384336E-02    0.2847585461E-02    0.3418553483E-01
    0.1300000000E+02    0.2520601935E-01    0.4468338323E-01    0.4365972998E-02    0.3319625395E-02    0.3967735948E-01
    0.1500000000E+02    0.2869670261E-01    0.5041737741E-01    0.4926269777E-02    0.3779382759E-02    0.4497811219E-01
    0.1700000000E+02    0.3209868058E-01    0.5589819012E-01    0.5461831973E-02    0.4227465521E-02    0.5009840788E-01
    0.1900000000E+02    0.3541626158E-01    0.6114057034E-01    0.5974099174E-02    0.4664440623E-02    0.5504807522E-01
    0.2100000000E+02    0.3865346821E-01    0.6615817165E-01    0.6464404066E-02    0.5090837416E-02    0.5983622859E-01
    0.2300000000E+02    0.4181406083E-01    0.7096365096E-01    0.6933982070E-02    0.5507150745E-02    0.6447133219E-01
    0.2500000000E+02    0.4490155882E-01    0.7556875684E-01    0.7383979961E-02    0.5913843742E-02    0.6896125745E-01
    0.2700000000E+02    0.4791925967E-01    0.7998440870E-01    0.7815463594E-02    0.6311350347E-02    0.7331333430E-01
    0.2900000000E+02    0.5087025642E-01    0.8422076786E-01    0.8229424841E-02    0.6700077595E-02    0.7753439732E-01
    0.3100000000E+02    0.5375745338E-01    0.8828730145E-01    0.8626787831E-02    0.7080407688E-02    0.8163082718E-01
    0.3300000000E+02    0.5658358047E-01    0.9219284003E-01    0.9008414570E-02    0.7452699878E-02    0.8560858798E-01
    0.3500000000E+02    0.5935120621E-01    0.9594562960E-01    0.9375110013E-02    0.7817292183E-02    0.8947326095E-01
    0.3700000000E+02    0.6206274966E-01    0.9955337858E-01    0.9727626660E-02    0.8174502951E-02    0.9323007493E-01
    0.3900000000E+02    0.6472049119E-01    0.1030233005E+00    0.1006666870E-01    0.8524632280E-02    0.9688393395E-01
    0.4100000000E+02    0.6732658243E-01    0.1063621523E+00    0.1039289580E-01    0.8867963328E-02    0.1004394423E+00
    0.4300000000E+02    0.6988305531E-01    0.1095762700E+00    0.1070692649E-01    0.9204763505E-02    0.1039009273E+00
    0.4500000000E+02    0.7239183041E-01    0.1126716000E+00    0.1100934133E-01    0.9535285562E-02    0.1072724598E+00
    0.4700000000E+02    0.7485472452E-01    0.1156537284E+00    0.1130068571E-01    0.9859768596E-02    0.1105578734E+00
    0.4900000000E+02    0.7727345770E-01    0.1185279079E+00    0.1158147244E-01    0.1017843897E-01    0.1137607814E+00
    0.1000000000E+02    0.1979347332E-01    0.3557241487E-01    0.3475708755E-02    0.2606757395E-02    0.3136441871E-01
    0.3000000000E+02    0.5232165532E-01    0.8627469666E-01    0.8430125849E-02    0.6891269316E-02    0.7959780929E-01
    0.5000000000E+02    0.7846677659E-01    0.1199260729E+00    0.1171805863E-01    0.1033566188E-01    0.1153323686E+00
    0.7000000000E+02    0.1003685607E+00    0.1432798154E+00    0.1399878974E-01    0.1322152533E-01    0.1431661131E+00
    0.9000000000E+02    0.1192719804E+00    0.1599997768E+00    0.1563010010E-01    0.1571270798E-01    0.1656567764E+00
    0.1100000000E+03    0.1359543300E+00    0.1722337597E+00    0.1682180587E-01    0.1791151237E-01    0.1843460629E+00
    0.1300000000E+03    0.1509283149E+00    0.1813176621E+00    0.1770447174E-01    0.1988542003E-01    0.2002217973E+00
    0.1500000000E+03    0.1645473616E+00    0.1881222040E+00    0.1836324701E-01    0.2168094988E-01    0.2139481207E+00
    0.1700000000E+03    0.1770640912E+00    0.1932368399E+00    0.1885581445E-01    0.2333135346E-01    0.2259892777E+00
    0.1900000000E+03    0.1886646408E+00    0.1970733121E+00    0.1922249754E-01    0.2486113179E-01    0.2366803839E+00
    0.2100000000E+03    0.1994897554E+00    0.1999268891E+00    0.1949223849E-01    0.2628881133E-01    0.2462699646E+00
    0.2300000000E+03    0.2096482630E+00    0.2020140988E+00    0.1968628221E-01    0.2762871750E-01    0.2549466182E+00
    0.2500000000E+03    0.2192259724E+00    0.2034968048E+00    0.1982052742E-01    0.2889214573E-01    0.2628563332E+00
    0.2700000000E+03    0.2282917190E+00    0.2044980373E+00    0.1990707294E-01    0.3008815726E-01    0.2701140844E+00
    0.2900000000E+03    0.2369015767E+00    0.2051126787E+00    0.1995526166E-01    0.3122413353E-01    0.2768118059E+00
    0.3100000000E+03    0.2451018576E+00    0.2054148437E+00    0.1997240171E-01    0.3230617097E-01    0.2830240036E+00
    0.3300000000E+03    0.2529312895E+00    0.2054630808E+00    0.1996427506E-01    0.3333936769E-01    0.2888117866E+00
    0.3500000000E+03    0.2604226259E+00    0.2053041066E+00    0.1993550257E-01    0.3432803535E-01    0.2942258177E+00
    0.3700000000E+03    0.2676038534E+00    0.2049755288E+00    0.1988981052E-01    0.3527585812E-01    0.2993085086E+00
    0.3900000000E+03    0.2744991116E+00    0.2045078634E+00    0.1983022796E-01    0.3618601376E-01    0.3040956764E+00
    0.4100000000E+03    0.2811294018E+00    0.2039260471E+00    0.1975923484E-01    0.3706126693E-01    0.3086178122E+00
    0.4300000000E+03    0.2875131404E+00    0.2032505864E+00    0.1967887457E-01    0.3790404202E-01    0.3129010635E+00
    0.4500000000E+03    0.2936665952E+00    0.2024984394E+00    0.1959084053E-01    0.3871648056E-01    0.3169680035E+00
    0.4700000000E+03    0.2996042327E+00    0.2016837003E+00    0.1949654314E-01    0.3950048701E-01    0.3208382406E+00
    0.4900000000E+03    0.3053389975E+00    0.2008181349E+00    0.1939716249E-01    0.4025776547E-01    0.3245289050E+00
    0.1000000000E+03    0.1278540869E+00    0.1665801491E+00    0.1627138898E-01    0.1684382683E-01    0.1754052809E+00
    0.3000000000E+03    0.2410503372E+00    0.2052988462E+00    0.1996732047E-01    0.3177155536E-01    0.2799745009E+00
    0.5000000000E+03    0.3081339885E+00    0.2003694384E+00    0.1934588214E-01    0.4062686692E-01    0.3263116711E+00
    0.7000000000E+03    0.3556996832E+00    0.1904239843E+00    0.1822476017E-01    0.4691067189E-01    0.3553844677E+00
    0.9000000000E+03    0.3915116948E+00    0.1806144246E+00    0.1712494372E-01    0.5164519096E-01    0.3763468673E+00
    0.1100000000E+04    0.4193580130E+00    0.1718739845E+00    0.1614387869E-01    0.5532926148E-01    0.3926323524E+00
    0.1300000000E+04    0.4415020410E+00    0.1642667334E+00    0.1528913015E-01    0.5826104312E-01    0.4058855916E+00
    0.1500000000E+04    0.4594283362E+00    0.1576601578E+00    0.1454697687E-01    0.6063616241E-01    0.4170179845E+00
    0.1700000000E+04    0.4741608707E+00    0.1518937667E+00    0.1390020071E-01    0.6258959641E-01    0.4265861562E+00
    0.1900000000E+04    0.4864290293E+00    0.1468229089E+00    0.1333295960E-01    0.6421752060E-01    0.4349545472E+00
    0.2100000000E+04    0.4967648146E+00    0.1423274306E+00    0.1283188601E-01    0.6559010517E-01    0.4423745656E+00
    0.2300000000E+04    0.5055637814E+00    0.1383102681E+00    0.1238604374E-01    0.6675953835E-01    0.4490268434E+00
    0.2500000000E+04    0.5131249154E+00    0.1346936296E+00    0.1198657682E-01    0.6776527860E-01    0.4550454561E+00
    0.2700000000E+04    0.5196775308E+00    0.1314151201E+00    0.1162632177E-01    0.6863759805E-01    0.4605326092E+00
    0.2900000000E+04    0.5253998364E+00    0.1284244493E+00    0.1129946496E-01    0.6940002882E-01    0.4655679641E+00
    0.3100000000E+04    0.5304319970E+00    0.1256808052E+00    0.1100126238E-01    0.7007108448E-01    0.4702147888E+00
    0.3300000000E+04    0.5348854756E+00    0.1231508127E+00    0.1072781753E-01    0.7066549162E-01    0.4745241480E+00
    0.3500000000E+04    0.5388498152E+00    0.1208069604E+00    0.1047590772E-01    0.7119508389E-01    0.4785378366E+00
    0.3700000000E+04    0.5423976264E+00    0.1186263905E+00    0.1024284877E-01    0.7166945992E-01    0.4822904835E+00
    0.3900000000E+04    0.5455883037E+00    0.1165899651E+00    0.1002638949E-01    0.7209647336E-01    0.4858110915E+00
    0.4100000000E+04    0.5484708244E+00    0.1146815423E+00    0.9824629149E-02    0.7248260220E-01    0.4891241858E+00
    0.4300000000E+04    0.5510858800E+00    0.1128874116E+00    0.9635952571E-02    0.7283323000E-01    0.4922506839E+00
    0.4500000000E+04    0.5534675153E+00    0.1111958498E+00    0.9458978787E-02    0.7315286218E-01    0.4952085652E+00
    0.4700000000E+04    0.5556444008E+00    0.1095967706E+00    0.9292520198E-02    0.7344529401E-01    0.4980133922E+00
    0.4900000000E+04    0.5576408293E+00    0.1080814440E+00    0.9135549852E-02    0.7371374213E-01    0.5006787214E+00
    0.1000000000E+04    0.4062653871E+00    0.1760982805E+00    0.1661821368E-01    0.5359677545E-01    0.3849471989E+00
    0.3000000000E+04    0.5279946354E+00    0.1270239887E+00    0.1114704304E-01    0.6974598120E-01    0.4679365044E+00
    0.5000000000E+04    0.5585779635E+00    0.1073527748E+00    0.9060339179E-02    0.7383984532E-01    0.5019628441E+00
    0.7000000000E+04    0.5715519442E+00    0.9576248092E-01    0.7888704282E-02    0.7559378851E-01    0.5225614602E+00
    0.9000000000E+04    0.5785586957E+00    0.8773315957E-01    0.7105099425E-02    0.7655096345E-01    0.5369465810E+00
    0.1100000000E+05    0.5828990690E+00    0.8167959126E-01    0.6529484853E-02    0.7715030838E-01    0.5478009101E+00
    0.1300000000E+05    0.5858350071E+00    0.7687249968E-01    0.6081445638E-02    0.7756018964E-01    0.5564036217E+00
    0.1500000000E+05    0.5879459743E+00    0.7291847965E-01    0.5718745953E-02    0.7785818189E-01    0.5634587461E+00
    0.1700000000E+05    0.5895332625E+00    0.6958205238E-01    0.5416680391E-02    0.7808476074E-01    0.5693923709E+00
    0.1900000000E+05    0.5907682819E+00    0.6671156115E-01    0.5159647826E-02    0.7826303531E-01    0.5744805217E+00
    0.2100000000E+05    0.5917554380E+00    0.6420387355E-01    0.4937216473E-02    0.7840713216E-01    0.5789114291E+00
    0.2300000000E+05    0.5925618223E+00    0.6198584278E-01    0.4742094792E-02    0.7852616224E-01    0.5828187187E+00
    0.2500000000E+05    0.5932324488E+00    0.6000382004E-01    0.4569002579E-02    0.7862626094E-01    0.5863003750E+00
    0.2700000000E+05    0.5937986103E+00    0.5821736436E-01    0.4414003979E-02    0.7871170936E-01    0.5894301905E+00
    0.2900000000E+05    0.5942827173E+00    0.5659528728E-01    0.4274093738E-02    0.7878558489E-01    0.5922649967E+00
    0.3100000000E+05    0.5947012295E+00    0.5511306681E-01    0.4146929971E-02    0.7885015631E-01    0.5948494038E+00
    0.3300000000E+05    0.5950665017E+00    0.5375110025E-01    0.4030655614E-02    0.7890713295E-01    0.5972190089E+00
    0.3500000000E+05    0.5953879837E+00    0.5249349033E-01    0.3923775606E-02    0.7895782727E-01    0.5994026261E+00
    0.3700000000E+05    0.5956730244E+00    0.5132718117E-01    0.3825070285E-02    0.7900326374E-01    0.6014238741E+00
    0.3900000000E+05    0.5959274230E+00    0.5024133029E-01    0.3733532953E-02    0.7904425391E-01    0.6033023300E+00
    0.4100000000E+05    0.5961558155E+00    0.4922684354E-01    0.3648324010E-02    0.7908144906E-01    0.6050543831E+00
    0.4300000000E+05    0.5963619521E+00    0.4827602498E-01    0.3568736661E-02    0.7911537797E-01    0.6066938770E+00
    0.4500000000E+05    0.5965488980E+00    0.4738230947E-01    0.3494170902E-02    0.7914647454E-01    0.6082325998E+00
    0.4700000000E+05    0.5967191830E+00    0.4654005560E-01    0.3424113496E-02    0.7917509822E-01    0.6096806632E+00
    0.4900000000E+05    0.5968749127E+00    0.4574438349E-01    0.3358122385E-02    0.7920154936E-01    0.6110467990E+00
    0.1000000000E+05    0.5809592594E+00    0.8451622221E-01    0.6797607660E-02    0.7688164518E-01    0.5427161370E+00
    0.3000000000E+05    0.5944993208E+00    0.5583801915E-01    0.4209044321E-02    0.7881891589E-01    0.5935860940E+00
    0.5000000000E+05    0.5969478829E+00    0.4536266669E-01    0.3326529930E-02    0.7921404087E-01    0.6117015541E+00
    0.7000000000E+05    0.5979527184E+00    0.3938270014E-01    0.2837258855E-02    0.7939444641E-01    0.6219046069E+00
    0.9000000000E+05    0.5984945313E+00    0.3536324513E-01    0.2514495701E-02    0.7950179245E-01    0.6287047995E+00
    0.1100000000E+06    0.5988309880E+00    0.3241305993E-01    0.2280840955E-02    0.7957488492E-01    0.6336662575E+00
    0.1300000000E+06    0.5990588961E+00    0.3012403675E-01    0.2101519917E-02    0.7962888621E-01    0.6374984576E+00
    0.1500000000E+06    0.5992226623E+00    0.2827849387E-01    0.1958242483E-02    0.7967101767E-01    0.6405771574E+00
    0.1700000000E+06    0.5993454746E+00    0.2674798229E-01    0.1840335474E-02    0.7970518956E-01    0.6431228502E+00
    0.1900000000E+06    0.5994406024E+00    0.2545102548E-01    0.1741090875E-02    0.7973371976E-01    0.6452747641E+00
    0.2100000000E+06    0.5995161764E+00    0.2433304793E-01    0.1656050641E-02    0.7975807811E-01    0.6471258048E+00
    0.2300000000E+06    0.5995774507E+00    0.2335590118E-01    0.1582119874E-02    0.7977924665E-01    0.6487407037E+00
    0.2500000000E+06    0.5996279674E+00    0.2249198862E-01    0.1517073291E-02    0.7979790948E-01    0.6501661562E+00
    0.2700000000E+06    0.5996701996E+00    0.2172077527E-01    0.1459264045E-02    0.7981455963E-01    0.6514368235E+00
    0.2900000000E+06    0.5997059243E+00    0.2102661512E-01    0.1407443568E-02    0.7982956269E-01    0.6525790566E+00
    0.3100000000E+06    0.5997364506E+00    0.2039734504E-01    0.1360645618E-02    0.7984319626E-01    0.6536133004E+00
    0.3300000000E+06    0.5997627633E+00    0.1982334431E-01    0.1318109109E-02    0.7985567554E-01    0.6545556979E+00
    0.3500000000E+06    0.5997856170E+00    0.1929688772E-01    0.1279225270E-02    0.7986717031E-01    0.6554191903E+00
    0.3700000000E+06    0.5998055990E+00    0.1881168942E-01    0.1243500543E-02    0.7987781665E-01    0.6562142923E+00
    0.3900000000E+06    0.5998231733E+00    0.1836257452E-01    0.1210529970E-02    0.7988772509E-01    0.6569496484E+00
    0.4100000000E+06    0.5998387109E+00    0.1794523793E-01    0.1179977734E-02    0.7989698651E-01    0.6576324410E+00
    0.4300000000E+06    0.5998525120E+00    0.1755606450E-01    0.1151562676E-02    0.7990567646E-01    0.6582686945E+00
    0.4500000000E+06    0.5998648216E+00    0.1719199257E-01    0.1125047364E-02    0.7991385835E-01    0.6588635053E+00
    0.4700000000E+06    0.5998758422E+00    0.1685040934E-01    0.1100229715E-02    0.7992158589E-01    0.6594212185E+00
    0.4900000000E+06    0.5998857417E+00    0.1652906934E-01    0.1076936507E-02    0.7992890489E-01    0.6599455644E+00
    0.1000000000E+06    0.5986805249E+00    0.3378637180E-01    0.2389257846E-02    0.7954139458E-01    0.6313598305E+00
    0.3000000000E+06    0.5997217694E+00    0.2070452099E-01    0.1383468441E-02    0.7983653598E-01    0.6531085822E+00
    0.5000000000E+06    0.5998903160E+00    0.1637537325E-01    0.1065814050E-02    0.7993242372E-01    0.6601962494E+00
    0.7000000000E+06    0.5999475636E+00    0.1400618921E-01    0.8959612919E-03    0.7998855694E-01    0.6640515630E+00
    0.9000000000E+06    0.5999712493E+00    0.1245347301E-01    0.7863923018E-03    0.8002799658E-01    0.6665690498E+00
    0.1100000000E+07    0.5999812007E+00    0.1133344445E-01    0.7083055725E-03    0.8005832260E-01    0.6683803836E+00
    0.1300000000E+07    0.5999845575E+00    0.1047557189E-01    0.6490782889E-03    0.8008292863E-01    0.6697650871E+00
    0.1500000000E+07    0.5999844327E+00    0.9790850721E-02    0.6021926080E-03    0.8010361781E-01    0.6708686161E+00
    0.1700000000E+07    0.5999823610E+00    0.9227633278E-02    0.5638995905E-03    0.8012145986E-01    0.6717751821E+00
    0.1900000000E+07    0.5999791655E+00    0.8753596271E-02    0.5318705596E-03    0.8013714039E-01    0.6725373906E+00
    0.2100000000E+07    0.5999753159E+00    0.8347327876E-02    0.5045730078E-03    0.8015112469E-01    0.6731900349E+00
    0.2300000000E+07    0.5999710924E+00    0.7994001177E-02    0.4809518755E-03    0.8016374281E-01    0.6737571766E+00
    0.2500000000E+07    0.5999666682E+00    0.7682976791E-02    0.4602540232E-03    0.8017523724E-01    0.6742560619E+00
    0.2700000000E+07    0.5999621525E+00    0.7406393513E-02    0.4419256055E-03    0.8018579131E-01    0.6746994208E+00
    0.2900000000E+07    0.5999576156E+00    0.7158298963E-02    0.4255490767E-03    0.8019554695E-01    0.6750968837E+00
    0.3100000000E+07    0.5999531030E+00    0.6934091431E-02    0.4108029293E-03    0.8020461625E-01    0.6754558897E+00
    0.3300000000E+07    0.5999486442E+00    0.6730149243E-02    0.3974350673E-03    0.8021308932E-01    0.6757822894E+00
    0.3500000000E+07    0.5999442579E+00    0.6543577398E-02    0.3852446757E-03    0.8022103960E-01    0.6760807562E+00
    0.3700000000E+07    0.5999399560E+00    0.6372030001E-02    0.3740695576E-03    0.8022852780E-01    0.6763550751E+00
    0.3900000000E+07    0.5999357454E+00    0.6213583041E-02    0.3637770925E-03    0.8023560461E-01    0.6766083484E+00
    0.4100000000E+07    0.5999316297E+00    0.6066641472E-02    0.3542576527E-03    0.8024231287E-01    0.6768431467E+00
    0.4300000000E+07    0.5999276102E+00    0.5929870160E-02    0.3454197259E-03    0.8024868901E-01    0.6770616207E+00
    0.4500000000E+07    0.5999236869E+00    0.5802141773E-02    0.3371862435E-03    0.8025476437E-01    0.6772655855E+00
    0.4700000000E+07    0.5999198584E+00    0.5682496914E-02    0.3294917804E-03    0.8026056602E-01    0.6774565852E+00
    0.4900000000E+07    0.5999161230E+00    0.5570113220E-02    0.3222803888E-03    0.8026611756E-01    0.6776359428E+00
    0.1000000000E+07    0.5999773517E+00    0.1185278340E-01    0.7444095081E-03    0.8004403304E-01    0.6675409839E+00
    0.3000000000E+07    0.5999553541E+00    0.7043455225E-02    0.4179893432E-03    0.8020016132E-01    0.6752807965E+00
    0.5000000000E+07    0.5999142894E+00    0.5516418724E-02    0.3188405284E-03    0.8026880609E-01    0.6777216186E+00
    0.7000000000E+07    0.5998818353E+00    0.4693463143E-02    0.2665959431E-03    0.8031334624E-01    0.6790332976E+00
    0.9000000000E+07    0.5998556524E+00    0.4158869032E-02    0.2331787934E-03    0.8034637695E-01    0.6798838557E+00
    0.1100000000E+08    0.5998338244E+00    0.3775545599E-02    0.2094998038E-03    0.8037264187E-01    0.6804929592E+00
    0.1300000000E+08    0.5998151424E+00    0.3483230628E-02    0.1916155956E-03    0.8039444764E-01    0.6809569911E+00
    0.1500000000E+08    0.5997988261E+00    0.3250709921E-02    0.1775045241E-03    0.8041309137E-01    0.6813258074E+00
    0.1700000000E+08    0.5997843491E+00    0.3059974526E-02    0.1660100920E-03    0.8042937543E-01    0.6816281421E+00
    0.1900000000E+08    0.5997713412E+00    0.2899805147E-02    0.1564170407E-03    0.8044383085E-01    0.6818818802E+00
    0.2100000000E+08    0.5997595330E+00    0.2762797681E-02    0.1482563304E-03    0.8045682740E-01    0.6820988160E+00
    0.2300000000E+08    0.5997487226E+00    0.2643841221E-02    0.1412060163E-03    0.8046863291E-01    0.6822870859E+00
    0.2500000000E+08    0.5997387549E+00    0.2539278230E-02    0.1350368729E-03    0.8047944760E-01    0.6824525091E+00
    0.2700000000E+08    0.5997295082E+00    0.2446412589E-02    0.1295807087E-03    0.8048942510E-01    0.6825993732E+00
