  Pressure (Pa) 22mC5-400 (mol/kg) 2mC6-400 (mol/kg) 33mC5-400 (mol/kg) 23mC5-400 (mol/kg) C7-400 (mol/kg)
    0.1000000000E+01    0.2119814078E-02    0.7968846930E-03    0.3244093872E-03    0.7444324196E-03    0.3436053395E-02
    0.3000000000E+01    0.6292845622E-02    0.2350526037E-02    0.9568932265E-03    0.2209929025E-02    0.1017899927E-01
    0.5000000000E+01    0.1037964137E-01    0.3852527646E-02    0.1568354110E-02    0.3645165974E-02    0.1675523583E-01
    0.7000000000E+01    0.1438314793E-01    0.5305024826E-02    0.2159659048E-02    0.5051177004E-02    0.2317107517E-01
    0.9000000000E+01    0.1830617642E-01    0.6710043020E-02    0.2731630467E-02    0.6428948317E-02    0.2943251225E-01
    0.1100000000E+02    0.2215141012E-01    0.8069504615E-02    0.3285048982E-02    0.7779421275E-02    0.3554524452E-01
    0.1300000000E+02    0.2592141162E-01    0.9385235266E-02    0.3820655956E-02    0.9103494907E-02    0.4151469031E-01
    0.1500000000E+02    0.2961862953E-01    0.1065896975E-01    0.4339155880E-02    0.1040202825E-01    0.4734600564E-01
    0.1700000000E+02    0.3324540470E-01    0.1189235741E-01    0.4841218584E-02    0.1167584257E-01    0.5304410003E-01
    0.1900000000E+02    0.3680397612E-01    0.1308696724E-01    0.5327481291E-02    0.1292572334E-01    0.5861365106E-01
    0.2100000000E+02    0.4029648630E-01    0.1424429257E-01    0.5798550532E-02    0.1415242227E-01    0.6405911792E-01
    0.2300000000E+02    0.4372498651E-01    0.1536575547E-01    0.6255003928E-02    0.1535665898E-01    0.6938475409E-01
    0.2500000000E+02    0.4709144148E-01    0.1645271086E-01    0.6697391847E-02    0.1653912281E-01    0.7459461906E-01
    0.2700000000E+02    0.5039773398E-01    0.1750645027E-01    0.7126238953E-02    0.1770047429E-01    0.7969258931E-01
    0.2900000000E+02    0.5364566901E-01    0.1852820547E-01    0.7542045656E-02    0.1884134669E-01    0.8468236854E-01
    0.3100000000E+02    0.5683697778E-01    0.1951915176E-01    0.7945289457E-02    0.1996234739E-01    0.8956749722E-01
    0.3300000000E+02    0.5997332143E-01    0.2048041109E-01    0.8336426215E-02    0.2106405922E-01    0.9435136148E-01
    0.3500000000E+02    0.6305629459E-01    0.2141305497E-01    0.8715891323E-02    0.2214704163E-01    0.9903720152E-01
    0.3700000000E+02    0.6608742861E-01    0.2231810720E-01    0.9084100819E-02    0.2321183189E-01    0.1036281193E+00
    0.3900000000E+02    0.6906819473E-01    0.2319654640E-01    0.9441452416E-02    0.2425894620E-01    0.1081270861E+00
    0.4100000000E+02    0.7200000696E-01    0.2404930844E-01    0.9788326480E-02    0.2528888066E-01    0.1125369490E+00
    0.4300000000E+02    0.7488422487E-01    0.2487728868E-01    0.1012508693E-01    0.2630211228E-01    0.1168604375E+00
    0.4500000000E+02    0.7772215619E-01    0.2568134403E-01    0.1045208211E-01    0.2729909989E-01    0.1211001698E+00
    0.4700000000E+02    0.8051505924E-01    0.2646229498E-01    0.1076964556E-01    0.2828028498E-01    0.1252586579E+00
    0.4900000000E+02    0.8326414528E-01    0.2722092744E-01    0.1107809682E-01    0.2924609252E-01    0.1293383134E+00
    0.1000000000E+02    0.2023835471E-01    0.7395352092E-02    0.3010611611E-02    0.7107539937E-02    0.3250712150E-01
    0.3000000000E+02    0.5524829625E-01    0.1902745839E-01    0.7745208935E-02    0.1940429402E-01    0.8713779905E-01
    0.5000000000E+02    0.8462262311E-01    0.2759211081E-01    0.1122900156E-01    0.2972335820E-01    0.1313493062E+00
    0.7000000000E+02    0.1097537903E+00    0.3401137115E-01    0.1383675050E-01    0.3855327858E-01    0.1679476977E+00
    0.9000000000E+02    0.1315973338E+00    0.3888731765E-01    0.1581338501E-01    0.4622932267E-01    0.1988070609E+00
    0.1100000000E+03    0.1508314492E+00    0.4262715173E-01    0.1732474126E-01    0.5298945820E-01    0.2252277113E+00
    0.1300000000E+03    0.1679515398E+00    0.4551443675E-01    0.1848645100E-01    0.5900752102E-01    0.2481408207E+00
    0.1500000000E+03    0.1833285954E+00    0.4775156238E-01    0.1938116230E-01    0.6441369545E-01    0.2682311968E+00
    0.1700000000E+03    0.1972465341E+00    0.4948605084E-01    0.2006920992E-01    0.6930761514E-01    0.2860140426E+00
    0.1900000000E+03    0.2099268309E+00    0.5082739832E-01    0.2059544885E-01    0.7376700374E-01    0.3018846488E+00
    0.2100000000E+03    0.2215452029E+00    0.5185816791E-01    0.2099375756E-01    0.7785352886E-01    0.3161515468E+00
    0.2300000000E+03    0.2322431830E+00    0.5264147981E-01    0.2129008057E-01    0.8161686313E-01    0.3290592128E+00
    0.2500000000E+03    0.2421363221E+00    0.5322618055E-01    0.2150452986E-01    0.8509756178E-01    0.3408039773E+00
    0.2700000000E+03    0.2513201109E+00    0.5365048041E-01    0.2165286478E-01    0.8832914073E-01    0.3515454042E+00
    0.2900000000E+03    0.2598743313E+00    0.5394455749E-01    0.2174755261E-01    0.9133960337E-01    0.3614145767E+00
    0.3100000000E+03    0.2678663037E+00    0.5413245118E-01    0.2179854054E-01    0.9415257991E-01    0.3705202320E+00
    0.3300000000E+03    0.2753533445E+00    0.5423345844E-01    0.2181382565E-01    0.9678818991E-01    0.3789533689E+00
    0.3500000000E+03    0.2823846524E+00    0.5426317646E-01    0.2179988103E-01    0.9926370396E-01    0.3867907563E+00
    0.3700000000E+03    0.2890027714E+00    0.5423429046E-01    0.2176197823E-01    0.1015940573E+00    0.3940976368E+00
    0.3900000000E+03    0.2952447407E+00    0.5415717501E-01    0.2170443371E-01    0.1037922531E+00    0.4009298335E+00
    0.4100000000E+03    0.3011430061E+00    0.5404035770E-01    0.2163079915E-01    0.1058696825E+00    0.4073354084E+00
    0.4300000000E+03    0.3067261511E+00    0.5389087966E-01    0.2154400969E-01    0.1078363811E+00    0.4133559813E+00
    0.4500000000E+03    0.3120194866E+00    0.5371457830E-01    0.2144650033E-01    0.1097012357E+00    0.4190277862E+00
    0.4700000000E+03    0.3170455330E+00    0.5351631062E-01    0.2134029806E-01    0.1114721540E+00    0.4243825256E+00
    0.4900000000E+03    0.3218244152E+00    0.5330013094E-01    0.2122709524E-01    0.1131562025E+00    0.4294480662E+00
    0.1000000000E+03    0.1415061371E+00    0.4087922701E-01    0.1661906207E-01    0.4971179676E-01    0.2125071016E+00
    0.3000000000E+03    0.2639368062E+00    0.5405047372E-01    0.2177796912E-01    0.9276944623E-01    0.3660567865E+00
    0.5000000000E+03    0.3241268858E+00    0.5318640720E-01    0.2116832073E-01    0.1139676578E+00    0.4318801889E+00
    0.7000000000E+03    0.3607443599E+00    0.5055247729E-01    0.1986743180E-01    0.1268807799E+00    0.4700231182E+00
    0.9000000000E+03    0.3853774315E+00    0.4789936054E-01    0.1860198781E-01    0.1355787739E+00    0.4955172849E+00
    0.1100000000E+04    0.4030231778E+00    0.4552852074E-01    0.1749026031E-01    0.1418175408E+00    0.5140417257E+00
    0.1300000000E+04    0.4162403843E+00    0.4345901861E-01    0.1653241108E-01    0.1464966275E+00    0.5282604808E+00
    0.1500000000E+04    0.4264815075E+00    0.4165275829E-01    0.1570604353E-01    0.1501268847E+00    0.5396054116E+00
    0.1700000000E+04    0.4346319171E+00    0.4006579823E-01    0.1498778692E-01    0.1530198518E+00    0.5489220108E+00
    0.1900000000E+04    0.4412610211E+00    0.3865987855E-01    0.1435787317E-01    0.1553759788E+00    0.5567452377E+00
    0.2100000000E+04    0.4467508876E+00    0.3740395677E-01    0.1380049168E-01    0.1573298257E+00    0.5634319783E+00
    0.2300000000E+04    0.4513669297E+00    0.3627332297E-01    0.1330317756E-01    0.1589749096E+00    0.5692305102E+00
    0.2500000000E+04    0.4552989542E+00    0.3524833066E-01    0.1285609718E-01    0.1603781375E+00    0.5743195288E+00
    0.2700000000E+04    0.4586860961E+00    0.3431326632E-01    0.1245144056E-01    0.1615885761E+00    0.5788313200E+00
    0.2900000000E+04    0.4616325445E+00    0.3345545196E-01    0.1208294843E-01    0.1626429847E+00    0.5828661606E+00
    0.3100000000E+04    0.4642177857E+00    0.3266455957E-01    0.1174555475E-01    0.1635694195E+00    0.5865016157E+00
    0.3300000000E+04    0.4665034613E+00    0.3193209347E-01    0.1143511874E-01    0.1643896478E+00    0.5897987383E+00
    0.3500000000E+04    0.4685380742E+00    0.3125099955E-01    0.1114822377E-01    0.1651208048E+00    0.5928063220E+00
    0.3700000000E+04    0.4703602884E+00    0.3061536867E-01    0.1088202530E-01    0.1657765561E+00    0.5955638878E+00
    0.3900000000E+04    0.4720012861E+00    0.3002020974E-01    0.1063413524E-01    0.1663679277E+00    0.5981038289E+00
    0.4100000000E+04    0.4734864824E+00    0.2946127468E-01    0.1040253296E-01    0.1669039104E+00    0.6004529790E+00
    0.4300000000E+04    0.4748367912E+00    0.2893492200E-01    0.1018549633E-01    0.1673919062E+00    0.6026337791E+00
    0.4500000000E+04    0.4760695732E+00    0.2843800958E-01    0.9981547735E-02    0.1678380621E+00    0.6046651590E+00
    0.4700000000E+04    0.4771993554E+00    0.2796780965E-01    0.9789411395E-02    0.1682475242E+00    0.6065632115E+00
    0.4900000000E+04    0.4782383833E+00    0.2752194071E-01    0.9607979411E-02    0.1686246324E+00    0.6083417154E+00
    0.1000000000E+04    0.3948782364E+00    0.4667496141E-01    0.1802587721E-01    0.1389368473E+00    0.5054433142E+00
    0.3000000000E+04    0.4629661087E+00    0.3305220934E-01    0.1191064213E-01    0.1631207134E+00    0.5847296658E+00
    0.5000000000E+04    0.4787271746E+00    0.2730746713E-01    0.9520970409E-02    0.1688022274E+00    0.6091899125E+00
    0.7000000000E+04    0.4855905860E+00    0.2390071171E-01    0.8161804240E-02    0.1713128290E+00    0.6220528250E+00
    0.9000000000E+04    0.4894064296E+00    0.2156388911E-01    0.7254188003E-02    0.1727291917E+00    0.6302501650E+00
    0.1100000000E+05    0.4918273270E+00    0.1982646183E-01    0.6592225122E-02    0.1736409695E+00    0.6360374000E+00
    0.1300000000E+05    0.4934962202E+00    0.1846629694E-01    0.6081595251E-02    0.1742787140E+00    0.6403937136E+00
    0.1500000000E+05    0.4947143644E+00    0.1736243258E-01    0.5672082091E-02    0.1747509894E+00    0.6438206578E+00
    0.1700000000E+05    0.4956414115E+00    0.1644239714E-01    0.5334127899E-02    0.1751156151E+00    0.6466047118E+00
    0.1900000000E+05    0.4963697561E+00    0.1565967852E-01    0.5049033905E-02    0.1754062181E+00    0.6489227376E+00
    0.2100000000E+05    0.4969565317E+00    0.1498282893E-01    0.4804308774E-02    0.1756436948E+00    0.6508904963E+00
    0.2300000000E+05    0.4974389443E+00    0.1438969805E-01    0.4591244156E-02    0.1758417202E+00    0.6525872958E+00
    0.2500000000E+05    0.4978422512E+00    0.1386416045E-01    0.4403556704E-02    0.1760096234E+00    0.6540694992E+00
    0.2700000000E+05    0.4981841943E+00    0.1339415259E-01    0.4236582622E-02    0.1761539897E+00    0.6553783888E+00
    0.2900000000E+05    0.4984775973E+00    0.1297044088E-01    0.4086777101E-02    0.1762796023E+00    0.6565449728E+00
    0.3100000000E+05    0.4987319570E+00    0.1258581873E-01    0.3951390889E-02    0.1763900208E+00    0.6575930468E+00
    0.3300000000E+05    0.4989544541E+00    0.1223456620E-01    0.3828254343E-02    0.1764879500E+00    0.6585412106E+00
    0.3500000000E+05    0.4991506181E+00    0.1191207634E-01    0.3715629110E-02    0.1765754826E+00    0.6594042375E+00
    0.3700000000E+05    0.4993247746E+00    0.1161459049E-01    0.3612103739E-02    0.1766542640E+00    0.6601940276E+00
    0.3900000000E+05    0.4994803558E+00    0.1133900685E-01    0.3516518619E-02    0.1767256058E+00    0.6609202865E+00
    0.4100000000E+05    0.4996201190E+00    0.1108273945E-01    0.3427910980E-02    0.1767905671E+00    0.6615910182E+00
    0.4300000000E+05    0.4997463046E+00    0.1084361252E-01    0.3345473895E-02    0.1768500125E+00    0.6622128893E+00
    0.4500000000E+05    0.4998607515E+00    0.1061978017E-01    0.3268525272E-02    0.1769046550E+00    0.6627915022E+00
    0.4700000000E+05    0.4999649827E+00    0.1040966464E-01    0.3196484063E-02    0.1769550880E+00    0.6633316040E+00
    0.4900000000E+05    0.5000602706E+00    0.1021190799E-01    0.3128851800E-02    0.1770018099E+00    0.6638372461E+00
    0.1000000000E+05    0.4907390860E+00    0.2063748774E-01    0.6899870338E-02    0.1732294738E+00    0.6333676137E+00
    0.3000000000E+05    0.4986091636E+00    0.1277363093E-01    0.4017428770E-02    0.1763365251E+00    0.6570825578E+00
    0.5000000000E+05    0.5001049022E+00    0.1011729049E-01    0.3096552197E-02    0.1770239134E+00    0.6640782522E+00
    0.7000000000E+05    0.5007165262E+00    0.8656521690E-02    0.2602929026E-02    0.1773459621E+00    0.6677241527E+00
    0.9000000000E+05    0.5010406731E+00    0.7697262608E-02    0.2284220056E-02    0.1775400881E+00    0.6700426849E+00
    0.1100000000E+06    0.5012371780E+00    0.7004636471E-02    0.2057006362E-02    0.1776732974E+00    0.6716799184E+00
    0.1300000000E+06    0.5013665209E+00    0.6473847114E-02    0.1884648789E-02    0.1777722166E+00    0.6729138155E+00
    0.1500000000E+06    0.5014564872E+00    0.6050066514E-02    0.1748205493E-02    0.1778496690E+00    0.6738860453E+00
    0.1700000000E+06    0.5015215620E+00    0.5701429341E-02    0.1636773390E-02    0.1779126536E+00    0.6746772984E+00
    0.1900000000E+06    0.5015700041E+00    0.5407971666E-02    0.1543576750E-02    0.1779653440E+00    0.6753373122E+00
    0.2100000000E+06    0.5016068486E+00    0.5156458824E-02    0.1464155077E-02    0.1780103990E+00    0.6758986160E+00
    0.2300000000E+06    0.5016353290E+00    0.4937721223E-02    0.1395436910E-02    0.1780496018E+00    0.6763834899E+00
    0.2500000000E+06    0.5016576104E+00    0.4745176310E-02    0.1335229447E-02    0.1780841983E+00    0.6768077696E+00
    0.2700000000E+06    0.5016751926E+00    0.4573958872E-02    0.1281920014E-02    0.1781150887E+00    0.6771830575E+00
    0.2900000000E+06    0.5016891448E+00    0.4420384175E-02    0.1234292755E-02    0.1781429420E+00    0.6775180730E+00
    0.3100000000E+06    0.5017002475E+00    0.4281603085E-02    0.1191411457E-02    0.1781682670E+00    0.6778195112E+00
    0.3300000000E+06    0.5017090824E+00    0.4155372938E-02    0.1152542027E-02    0.1781914589E+00    0.6780926093E+00
    0.3500000000E+06    0.5017160912E+00    0.4039900866E-02    0.1117099711E-02    0.1782128299E+00    0.6783415301E+00
    0.3700000000E+06    0.5017216142E+00    0.3933733943E-02    0.1084612219E-02    0.1782326303E+00    0.6785696295E+00
    0.3900000000E+06    0.5017259171E+00    0.3835680466E-02    0.1054693395E-02    0.1782510639E+00    0.6787796466E+00
    0.4100000000E+06    0.5017292106E+00    0.3744752447E-02    0.1027024044E-02    0.1782682983E+00    0.6789738425E+00
    0.4300000000E+06    0.5017316628E+00    0.3660122861E-02    0.1001337729E-02    0.1782844730E+00    0.6791541018E+00
    0.4500000000E+06    0.5017334097E+00    0.3581093395E-02    0.9774100770E-03    0.1782997052E+00    0.6793220097E+00
    0.4700000000E+06    0.5017345620E+00    0.3507069751E-02    0.9550506200E-03    0.1783140940E+00    0.6794789106E+00
    0.4900000000E+06    0.5017352107E+00    0.3437542516E-02    0.9340964908E-03    0.1783277242E+00    0.6796259526E+00
    0.1000000000E+06    0.5011499466E+00    0.7325855040E-02    0.2162065705E-02    0.1776121619E+00    0.6709244465E+00
    0.3000000000E+06    0.5016950121E+00    0.4349296696E-02    0.1212308766E-02    0.1781558936E+00    0.6776726330E+00
    0.5000000000E+06    0.5017353702E+00    0.3404325314E-02    0.9241018392E-03    0.1783342781E+00    0.6796960907E+00
    0.7000000000E+06    0.5017249561E+00    0.2895345087E-02    0.7723499018E-03    0.1784388774E+00    0.6807616355E+00
    0.9000000000E+06    0.5017039783E+00    0.2564858381E-02    0.6753360927E-03    0.1785124096E+00    0.6814441600E+00
    0.1100000000E+07    0.5016810071E+00    0.2327971253E-02    0.6066205358E-03    0.1785689627E+00    0.6819287541E+00
    0.1300000000E+07    0.5016584569E+00    0.2147377562E-02    0.5547374658E-03    0.1786148532E+00    0.6822955425E+00
    0.1500000000E+07    0.5016370507E+00    0.2003759304E-02    0.5138109383E-03    0.1786534403E+00    0.6825855683E+00
    0.1700000000E+07    0.5016169593E+00    0.1885973879E-02    0.4804806277E-03    0.1786867175E+00    0.6828223075E+00
    0.1900000000E+07    0.5015981603E+00    0.1787081218E-02    0.4526688298E-03    0.1787159632E+00    0.6830202827E+00
    0.2100000000E+07    0.5015805642E+00    0.1702502203E-02    0.4290133820E-03    0.1787420448E+00    0.6831890218E+00
    0.2300000000E+07    0.5015640641E+00    0.1629076539E-02    0.4085794992E-03    0.1787655781E+00    0.6833350690E+00
    0.2500000000E+07    0.5015485541E+00    0.1564542991E-02    0.3907017329E-03    0.1787870153E+00    0.6834630870E+00
    0.2700000000E+07    0.5015339363E+00    0.1507234956E-02    0.3748918982E-03    0.1788066982E+00    0.6835764995E+00
    0.2900000000E+07    0.5015201229E+00    0.1455893297E-02    0.3607827308E-03    0.1788248918E+00    0.6836778849E+00
    0.3100000000E+07    0.5015070364E+00    0.1409546504E-02    0.3480919734E-03    0.1788418051E+00    0.6837692265E+00
    0.3300000000E+07    0.5014946084E+00    0.1367431323E-02    0.3365986822E-03    0.1788576061E+00    0.6838520783E+00
    0.3500000000E+07    0.5014827790E+00    0.1328938620E-02    0.3261271281E-03    0.1788724319E+00    0.6839276776E+00
    0.3700000000E+07    0.5014714954E+00    0.1293575518E-02    0.3165355748E-03    0.1788863957E+00    0.6839970231E+00
    0.3900000000E+07    0.5014607113E+00    0.1260938321E-02    0.3077082803E-03    0.1788995922E+00    0.6840609312E+00
    0.4100000000E+07    0.5014503856E+00    0.1230692766E-02    0.2995496825E-03    0.1789121012E+00    0.6841200766E+00
    0.4300000000E+07    0.5014404819E+00    0.1202559377E-02    0.2919800974E-03    0.1789239907E+00    0.6841750223E+00
    0.4500000000E+07    0.5014309677E+00    0.1176302427E-02    0.2849324865E-03    0.1789353191E+00    0.6842262424E+00
    0.4700000000E+07    0.5014218143E+00    0.1151721500E-02    0.2783499929E-03    0.1789461371E+00    0.6842741394E+00
    0.4900000000E+07    0.5014129957E+00    0.1128644965E-02    0.2721840391E-03    0.1789564884E+00    0.6843190574E+00
    0.1000000000E+07    0.5016925273E+00    0.2437655784E-02    0.6383476978E-03    0.1785423140E+00    0.6817048610E+00
    0.3000000000E+07    0.5015134933E+00    0.1432147396E-02    0.3542750792E-03    0.1788334971E+00    0.6837247055E+00
    0.5000000000E+07    0.5014087046E+00    0.1117623801E-02    0.2692439758E-03    0.1789615014E+00    0.6843404935E+00
    0.7000000000E+07    0.5013358932E+00    0.9490540270E-03    0.2246796269E-03    0.1790445447E+00    0.6846670078E+00
    0.9000000000E+07    0.5012801459E+00    0.8398992471E-03    0.1962635493E-03    0.1791061228E+00    0.6848770259E+00
    0.1100000000E+08    0.5012349849E+00    0.7617997052E-03    0.1761705440E-03    0.1791550838E+00    0.6850265704E+00
    0.1300000000E+08    0.5011970301E+00    0.7023368113E-03    0.1610181992E-03    0.1791957300E+00    0.6851400053E+00
    0.1500000000E+08    0.5011642970E+00    0.6550954585E-03    0.1490769807E-03    0.1792304803E+00    0.6852298525E+00
    0.1700000000E+08    0.5011355218E+00    0.6163820628E-03    0.1393594535E-03    0.1792608312E+00    0.6853032933E+00
    0.1900000000E+08    0.5011098500E+00    0.5838993355E-03    0.1312558801E-03    0.1792877728E+00    0.6853647794E+00
    0.2100000000E+08    0.5010866769E+00    0.5561332288E-03    0.1243669348E-03    0.1793119947E+00    0.6854172368E+00
    0.2300000000E+08    0.5010655588E+00    0.5320398051E-03    0.1184188223E-03    0.1793339962E+00    0.6854626780E+00
    0.2500000000E+08    0.5010461608E+00    0.5108727104E-03    0.1132167815E-03    0.1793541506E+00    0.6855025389E+00
    0.2700000000E+08    0.5010282236E+00    0.4920822402E-03    0.1086180250E-03    0.1793727445E+00    0.6855378751E+00
