  Pressure (Pa) 22mC5-400 (mol/kg) 2mC6-400 (mol/kg) 33mC5-400 (mol/kg) 23mC5-400 (mol/kg) C7-400 (mol/kg)
    0.1000000000E+01    0.2121142638E-02    0.7921940651E-03    0.5160439247E-03    0.1862246240E-03    0.8524204772E-02
    0.3000000000E+01    0.6304566943E-02    0.2310180946E-02    0.1505141522E-02    0.5535102588E-03    0.2487783116E-01
    0.5000000000E+01    0.1041156671E-01    0.3745315558E-02    0.2440603655E-02    0.9140914728E-03    0.4036742790E-01
    0.7000000000E+01    0.1444451836E-01    0.5103803989E-02    0.3326453565E-02    0.1268176701E-02    0.5506091791E-01
    0.9000000000E+01    0.1840569848E-01    0.6391231999E-02    0.4166311330E-02    0.1615965623E-02    0.6901925524E-01
    0.1100000000E+02    0.2229728898E-01    0.7612642086E-02    0.4963444044E-02    0.1957649615E-02    0.8229729764E-01
    0.1300000000E+02    0.2612138197E-01    0.8772599247E-02    0.5720808622E-02    0.2293412177E-02    0.9494455104E-01
    0.1500000000E+02    0.2987998430E-01    0.9875247326E-02    0.6441088473E-02    0.2623429334E-02    0.1070058077E+00
    0.1700000000E+02    0.3357502189E-01    0.1092435749E-01    0.7126725041E-02    0.2947870009E-02    0.1185216948E+00
    0.1900000000E+02    0.3720834370E-01    0.1192337009E-01    0.7779945042E-02    0.3266896382E-02    0.1295291485E+00
    0.2100000000E+02    0.4078172560E-01    0.1287543095E-01    0.8402784064E-02    0.3580664216E-02    0.1400618247E+00
    0.2300000000E+02    0.4429687390E-01    0.1378342290E-01    0.8997107084E-02    0.3889323177E-02    0.1501504553E+00
    0.2500000000E+02    0.4775542873E-01    0.1464999336E-01    0.9564626376E-02    0.4193017126E-02    0.1598231603E+00
    0.2700000000E+02    0.5115896721E-01    0.1547757837E-01    0.1010691717E-01    0.4491884399E-02    0.1691057196E+00
    0.2900000000E+02    0.5450900649E-01    0.1626842382E-01    0.1062543143E-01    0.4786058070E-02    0.1780218120E+00
    0.3100000000E+02    0.5780700648E-01    0.1702460404E-01    0.1112150990E-01    0.5075666195E-02    0.1865932257E+00
    0.3300000000E+02    0.6105437264E-01    0.1774803828E-01    0.1159639289E-01    0.5360832054E-02    0.1948400435E+00
    0.3500000000E+02    0.6425245841E-01    0.1844050525E-01    0.1205122964E-01    0.5641674363E-02    0.2027808067E+00
    0.3700000000E+02    0.6740256764E-01    0.1910365610E-01    0.1248708679E-01    0.5918307490E-02    0.2104326612E+00
    0.3900000000E+02    0.7050595682E-01    0.1973902585E-01    0.1290495580E-01    0.6190841650E-02    0.2178114857E+00
    0.4100000000E+02    0.7356383725E-01    0.2034804374E-01    0.1330575965E-01    0.6459383093E-02    0.2249320080E+00
    0.4300000000E+02    0.7657737701E-01    0.2093204234E-01    0.1369035875E-01    0.6724034280E-02    0.2318079067E+00
    0.4500000000E+02    0.7954770292E-01    0.2149226581E-01    0.1405955635E-01    0.6984894051E-02    0.2384519042E+00
    0.4700000000E+02    0.8247590233E-01    0.2202987724E-01    0.1441410321E-01    0.7242057786E-02    0.2448758484E+00
    0.4900000000E+02    0.8536302482E-01    0.2254596535E-01    0.1475470205E-01    0.7495617552E-02    0.2510907869E+00
    0.1000000000E+02    0.2036005963E-01    0.7009893481E-02    0.4570026698E-02    0.1787559086E-02    0.7574010170E-01
    0.3000000000E+02    0.5616442231E-01    0.1665072368E-01    0.1087619538E-01    0.4931425011E-02    0.1823493106E+00
    0.5000000000E+02    0.8679150031E-01    0.2279625952E-01    0.1491997834E-01    0.7621073848E-02    0.2541231291E+00
    0.7000000000E+02    0.1134334906E+00    0.2688888512E-01    0.1763306371E-01    0.9961080634E-02    0.3059703636E+00
    0.9000000000E+02    0.1369313392E+00    0.2967554151E-01    0.1949735140E-01    0.1202521292E-01    0.3453197729E+00
    0.1100000000E+03    0.1578956882E+00    0.3158556539E-01    0.2078976392E-01    0.1386703800E-01    0.3762956109E+00
    0.1300000000E+03    0.1767811580E+00    0.3288436841E-01    0.2168159568E-01    0.1552643781E-01    0.4013751307E+00
    0.1500000000E+03    0.1939336514E+00    0.3374499771E-01    0.2228468328E-01    0.1703375792E-01    0.4221383965E+00
    0.1700000000E+03    0.2096214339E+00    0.3428493186E-01    0.2267510717E-01    0.1841253354E-01    0.4396421093E+00
    0.1900000000E+03    0.2240561183E+00    0.3458648360E-01    0.2290631723E-01    0.1968133021E-01    0.4546205897E+00
    0.2100000000E+03    0.2374071772E+00    0.3470880122E-01    0.2301684694E-01    0.2085501677E-01    0.4676005645E+00
    0.2300000000E+03    0.2498121959E+00    0.3469527031E-01    0.2303506851E-01    0.2194566468E-01    0.4789700546E+00
    0.2500000000E+03    0.2613842551E+00    0.3457825880E-01    0.2298224096E-01    0.2296319570E-01    0.4890214671E+00
    0.2700000000E+03    0.2722173391E+00    0.3438225837E-01    0.2287452844E-01    0.2391585623E-01    0.4979795143E+00
    0.2900000000E+03    0.2823903586E+00    0.3412602164E-01    0.2272437402E-01    0.2481057027E-01    0.5060198585E+00
    0.3100000000E+03    0.2919701873E+00    0.3382405009E-01    0.2254145701E-01    0.2565320577E-01    0.5132818947E+00
    0.3300000000E+03    0.3010139824E+00    0.3348765121E-01    0.2233337386E-01    0.2644877822E-01    0.5198777187E+00
    0.3500000000E+03    0.3095709793E+00    0.3312570283E-01    0.2210613113E-01    0.2720160809E-01    0.5258985488E+00
    0.3700000000E+03    0.3176838960E+00    0.3274521418E-01    0.2186450802E-01    0.2791544404E-01    0.5314194084E+00
    0.3900000000E+03    0.3253900419E+00    0.3235174370E-01    0.2161232685E-01    0.2859356018E-01    0.5365025971E+00
    0.4100000000E+03    0.3327222028E+00    0.3194971376E-01    0.2135265721E-01    0.2923883373E-01    0.5412003013E+00
    0.4300000000E+03    0.3397093521E+00    0.3154265040E-01    0.2108797199E-01    0.2985380741E-01    0.5455565841E+00
    0.4500000000E+03    0.3463772286E+00    0.3113336788E-01    0.2082026766E-01    0.3044074014E-01    0.5496089211E+00
    0.4700000000E+03    0.3527488084E+00    0.3072411182E-01    0.2055115794E-01    0.3100164844E-01    0.5533893986E+00
    0.4900000000E+03    0.3588446938E+00    0.3031667130E-01    0.2028194741E-01    0.3153834052E-01    0.5569256577E+00
    0.1000000000E+03    0.1476987839E+00    0.3072077891E-01    0.2020255549E-01    0.1297115779E-01    0.3616723413E+00
    0.3000000000E+03    0.2872506450E+00    0.3397998126E-01    0.2263649377E-01    0.2523806643E-01    0.5097406046E+00
    0.5000000000E+03    0.3617951207E+00    0.3011408824E-01    0.2014764205E-01    0.3179812065E-01    0.5586098159E+00
    0.7000000000E+03    0.4099995752E+00    0.2637269177E-01    0.1762207101E-01    0.3604450019E-01    0.5838898048E+00
    0.9000000000E+03    0.4439613759E+00    0.2334928119E-01    0.1552881582E-01    0.3903913207E-01    0.5996322076E+00
    0.1100000000E+04    0.4691567895E+00    0.2095828363E-01    0.1384512729E-01    0.4126290350E-01    0.6105007424E+00
    0.1300000000E+04    0.4885395421E+00    0.1905260491E-01    0.1248731656E-01    0.4297528512E-01    0.6185167290E+00
    0.1500000000E+04    0.5038697580E+00    0.1751104121E-01    0.1138000656E-01    0.4433095160E-01    0.6247072304E+00
    0.1700000000E+04    0.5162670175E+00    0.1624402495E-01    0.1046499739E-01    0.4542832356E-01    0.6296529451E+00
    0.1900000000E+04    0.5264779487E+00    0.1518676766E-01    0.9698951220E-02    0.4633305888E-01    0.6337085187E+00
    0.2100000000E+04    0.5350190798E+00    0.1429225007E-01    0.9049731969E-02    0.4709059628E-01    0.6371035792E+00
    0.2300000000E+04    0.5422585684E+00    0.1352594898E-01    0.8493342547E-02    0.4773333338E-01    0.6399937924E+00
    0.2500000000E+04    0.5484654553E+00    0.1286214904E-01    0.8011662707E-02    0.4828495361E-01    0.6424886683E+00
    0.2700000000E+04    0.5538405960E+00    0.1228140793E-01    0.7590837941E-02    0.4876314399E-01    0.6446676366E+00
    0.2900000000E+04    0.5585367511E+00    0.1176881130E-01    0.7220140838E-02    0.4918136092E-01    0.6465898057E+00
    0.3100000000E+04    0.5626720151E+00    0.1131276001E-01    0.6891163338E-02    0.4955001058E-01    0.6483001322E+00
    0.3300000000E+04    0.5663390156E+00    0.1090411688E-01    0.6597238684E-02    0.4987725780E-01    0.6498334587E+00
    0.3500000000E+04    0.5696113531E+00    0.1053559794E-01    0.6333023256E-02    0.5016959241E-01    0.6512172354E+00
    0.3700000000E+04    0.5725481953E+00    0.1020133240E-01    0.6094190518E-02    0.5043223333E-01    0.6524734022E+00
    0.3900000000E+04    0.5751976124E+00    0.9896540112E-02    0.5877204409E-02    0.5066942209E-01    0.6536197199E+00
    0.4100000000E+04    0.5775990353E+00    0.9617292244E-02    0.5679149614E-02    0.5088463905E-01    0.6546707311E+00
    0.4300000000E+04    0.5797850936E+00    0.9360331487E-02    0.5497603049E-02    0.5108076526E-01    0.6556384656E+00
    0.4500000000E+04    0.5817830068E+00    0.9122935462E-02    0.5330535525E-02    0.5126020486E-01    0.6565329665E+00
    0.4700000000E+04    0.5836156498E+00    0.8902811827E-02    0.5176235762E-02    0.5142497898E-01    0.6573626893E+00
    0.4900000000E+04    0.5853023787E+00    0.8698016912E-02    0.5033251121E-02    0.5157679843E-01    0.6581348069E+00
    0.1000000000E+04    0.4574325676E+00    0.2208424124E-01    0.1464091891E-01    0.4022784830E-01    0.6055155776E+00
    0.3000000000E+04    0.5606681946E+00    0.1153433815E-01    0.7050889077E-02    0.4937132641E-01    0.6474690714E+00
    0.5000000000E+04    0.5860962738E+00    0.8600839700E-02    0.4965607059E-02    0.5164831416E-01    0.6585012141E+00
    0.7000000000E+04    0.5972653697E+00    0.7163628954E-02    0.3983513116E-02    0.5265964956E-01    0.6639111658E+00
    0.9000000000E+04    0.6034864924E+00    0.6278268052E-02    0.3399792604E-02    0.5322931071E-01    0.6672125386E+00
    0.1100000000E+05    0.6074360375E+00    0.5663437513E-02    0.3006270005E-02    0.5359505387E-01    0.6694729538E+00
    0.1300000000E+05    0.6101605080E+00    0.5204198227E-02    0.2719410382E-02    0.5385019775E-01    0.6711353590E+00
    0.1500000000E+05    0.6121509085E+00    0.4844036380E-02    0.2498949879E-02    0.5403869241E-01    0.6724191481E+00
    0.1700000000E+05    0.6136674539E+00    0.4551565138E-02    0.2322955514E-02    0.5418391839E-01    0.6734463721E+00
    0.1900000000E+05    0.6148606669E+00    0.4307783081E-02    0.2178386845E-02    0.5429945182E-01    0.6742907738E+00
    0.2100000000E+05    0.6158235697E+00    0.4100424013E-02    0.2056964001E-02    0.5439371465E-01    0.6749997540E+00
    0.2300000000E+05    0.6166167025E+00    0.3921166521E-02    0.1953154040E-02    0.5447220893E-01    0.6756052876E+00
    0.2500000000E+05    0.6172811418E+00    0.3764137723E-02    0.1863105329E-02    0.5453868205E-01    0.6761297936E+00
    0.2700000000E+05    0.6178457286E+00    0.3625057136E-02    0.1784045492E-02    0.5459577521E-01    0.6765894984E+00
    0.2900000000E+05    0.6183313023E+00    0.3500720334E-02    0.1713922677E-02    0.5464540411E-01    0.6769964614E+00
    0.3100000000E+05    0.6187532918E+00    0.3388673702E-02    0.1651182153E-02    0.5468899248E-01    0.6773598487E+00
    0.3300000000E+05    0.6191233623E+00    0.3287001931E-02    0.1594621901E-02    0.5472762082E-01    0.6776867636E+00
    0.3500000000E+05    0.6194504951E+00    0.3194184769E-02    0.1543296256E-02    0.5476212426E-01    0.6779828035E+00
    0.3700000000E+05    0.6197417171E+00    0.3108997831E-02    0.1496449820E-02    0.5479315859E-01    0.6782524449E+00
    0.3900000000E+05    0.6200026039E+00    0.3030442284E-02    0.1453471020E-02    0.5482124621E-01    0.6784993143E+00
    0.4100000000E+05    0.6202376359E+00    0.2957693967E-02    0.1413858795E-02    0.5484680842E-01    0.6787263839E+00
    0.4300000000E+05    0.6204504543E+00    0.2890065888E-02    0.1377198228E-02    0.5487018895E-01    0.6789361152E+00
    0.4500000000E+05    0.6206440485E+00    0.2826980133E-02    0.1343142433E-02    0.5489167104E-01    0.6791305659E+00
    0.4700000000E+05    0.6208208955E+00    0.2767946509E-02    0.1311398878E-02    0.5491149025E-01    0.6793114703E+00
    0.4900000000E+05    0.6209830651E+00    0.2712546097E-02    0.1281718928E-02    0.5492984419E-01    0.6794803020E+00
    0.1000000000E+05    0.6056603591E+00    0.5946242573E-02    0.3185982626E-02    0.5343011301E-01    0.6684374842E+00
    0.3000000000E+05    0.6185494426E+00    0.3443291128E-02    0.1681711711E-02    0.5466787912E-01    0.6771831172E+00
    0.5000000000E+05    0.6210592016E+00    0.2686093707E-02    0.1267585075E-02    0.5493852490E-01    0.6795605918E+00
    0.7000000000E+05    0.6221184933E+00    0.2281876893E-02    0.1054657473E-02    0.5506484001E-01    0.6807607729E+00
    0.9000000000E+05    0.6226999308E+00    0.2020322280E-02    0.9199848116E-03    0.5514084015E-01    0.6815096677E+00
    0.1100000000E+06    0.6230659729E+00    0.1833173298E-02    0.8251695718E-03    0.5519293623E-01    0.6820316180E+00
    0.1300000000E+06    0.6233168259E+00    0.1690644593E-02    0.7538552467E-03    0.5523159598E-01    0.6824211438E+00
    0.1500000000E+06    0.6234989823E+00    0.1577372497E-02    0.6977500442E-03    0.5526185212E-01    0.6827256999E+00
    0.1700000000E+06    0.6236369347E+00    0.1484516786E-02    0.6521465805E-03    0.5528644830E-01    0.6829720030E+00
    0.1900000000E+06    0.6237448008E+00    0.1406580426E-02    0.6141494786E-03    0.5530701924E-01    0.6831763680E+00
    0.2100000000E+06    0.6238312851E+00    0.1339940656E-02    0.5818679633E-03    0.5532460572E-01    0.6833493826E+00
    0.2300000000E+06    0.6239020429E+00    0.1282099374E-02    0.5540084556E-03    0.5533990538E-01    0.6834982508E+00
    0.2500000000E+06    0.6239609062E+00    0.1231270333E-02    0.5296523402E-03    0.5535340549E-01    0.6836280636E+00
    0.2700000000E+06    0.6240105621E+00    0.1186137694E-02    0.5081270475E-03    0.5536545800E-01    0.6837425324E+00
    0.2900000000E+06    0.6240529498E+00    0.1145707736E-02    0.4889274366E-03    0.5537632438E-01    0.6838444339E+00
    0.3100000000E+06    0.6240895036E+00    0.1109213997E-02    0.4716658283E-03    0.5538620350E-01    0.6839358918E+00
    0.3300000000E+06    0.6241213064E+00    0.1076054483E-02    0.4560391184E-03    0.5539524974E-01    0.6840185613E+00
    0.3500000000E+06    0.6241491910E+00    0.1045748871E-02    0.4418064785E-03    0.5540358506E-01    0.6840937537E+00
    0.3700000000E+06    0.6241738079E+00    0.1017908585E-02    0.4287738396E-03    0.5541130728E-01    0.6841625229E+00
    0.3900000000E+06    0.6241956729E+00    0.9922154144E-03    0.4167828492E-03    0.5541849596E-01    0.6842257270E+00
    0.4100000000E+06    0.6242151995E+00    0.9684059152E-03    0.4057028550E-03    0.5542521656E-01    0.6842840720E+00
    0.4300000000E+06    0.6242327234E+00    0.9462598522E-03    0.3954249804E-03    0.5543152354E-01    0.6843381455E+00
    0.4500000000E+06    0.6242485198E+00    0.9255914851E-03    0.3858576778E-03    0.5543746265E-01    0.6843884403E+00
    0.4700000000E+06    0.6242628164E+00    0.9062429134E-03    0.3769233425E-03    0.5544307265E-01    0.6844353736E+00
    0.4900000000E+06    0.6242758028E+00    0.8880789268E-03    0.3685557005E-03    0.5544838662E-01    0.6844793011E+00
    0.1000000000E+06    0.6229017213E+00    0.1919798156E-02    0.8688929292E-03    0.5516903234E-01    0.6817914897E+00
    0.3000000000E+06    0.6240718814E+00    0.1127009741E-02    0.4800750067E-03    0.5538137682E-01    0.6838913555E+00
    0.5000000000E+06    0.6242818557E+00    0.8794040939E-03    0.3645662661E-03    0.5545094165E-01    0.6845002347E+00
    0.7000000000E+06    0.6243621622E+00    0.7467315869E-03    0.3041283042E-03    0.5549171098E-01    0.6848166897E+00
    0.9000000000E+06    0.6244014207E+00    0.6608298525E-03    0.2656186609E-03    0.5552036071E-01    0.6850178021E+00
    0.1100000000E+07    0.6244229853E+00    0.5993709502E-03    0.2383997120E-03    0.5554238845E-01    0.6851598105E+00
    0.1300000000E+07    0.6244355388E+00    0.5525793753E-03    0.2178790480E-03    0.5556025868E-01    0.6852668513E+00
    0.1500000000E+07    0.6244429956E+00    0.5154058725E-03    0.2017101578E-03    0.5557528172E-01    0.6853512116E+00
    0.1700000000E+07    0.6244473554E+00    0.4849434490E-03    0.1885540200E-03    0.5558823515E-01    0.6854198856E+00
    0.1900000000E+07    0.6244497342E+00    0.4593841291E-03    0.1775840862E-03    0.5559961743E-01    0.6854771833E+00
    0.2100000000E+07    0.6244507967E+00    0.4375363894E-03    0.1682591823E-03    0.5560976688E-01    0.6855259230E+00
    0.2300000000E+07    0.6244509595E+00    0.4185786932E-03    0.1602083325E-03    0.5561892348E-01    0.6855680354E+00
    0.2500000000E+07    0.6244504944E+00    0.4019237021E-03    0.1531676913E-03    0.5562726353E-01    0.6856048925E+00
    0.2700000000E+07    0.6244495843E+00    0.3871388368E-03    0.1469438492E-03    0.5563492033E-01    0.6856374998E+00
    0.2900000000E+07    0.6244483560E+00    0.3738974796E-03    0.1413914019E-03    0.5564199706E-01    0.6856666130E+00
    0.3100000000E+07    0.6244468990E+00    0.3619477610E-03    0.1363986675E-03    0.5564857522E-01    0.6856928125E+00
    0.3300000000E+07    0.6244452778E+00    0.3510918995E-03    0.1318782708E-03    0.5565472028E-01    0.6857165522E+00
    0.3500000000E+07    0.6244435395E+00    0.3411721198E-03    0.1277607503E-03    0.5566048566E-01    0.6857381932E+00
    0.3700000000E+07    0.6244417192E+00    0.3320608094E-03    0.1239901050E-03    0.5566591545E-01    0.6857580264E+00
    0.3900000000E+07    0.6244398430E+00    0.3236534833E-03    0.1205206224E-03    0.5567104652E-01    0.6857762895E+00
    0.4100000000E+07    0.6244379306E+00    0.3158636566E-03    0.1173145733E-03    0.5567590998E-01    0.6857931785E+00
    0.4300000000E+07    0.6244359971E+00    0.3086190411E-03    0.1143405077E-03    0.5568053231E-01    0.6858088570E+00
    0.4500000000E+07    0.6244340539E+00    0.3018586817E-03    0.1115719746E-03    0.5568493628E-01    0.6858234625E+00
    0.4700000000E+07    0.6244321098E+00    0.2955307680E-03    0.1089865464E-03    0.5568914155E-01    0.6858371116E+00
    0.4900000000E+07    0.6244301716E+00    0.2895909415E-03    0.1065650664E-03    0.5569316528E-01    0.6858499042E+00
    0.1000000000E+07    0.6244137031E+00    0.6278162752E-03    0.2509613361E-03    0.5553200938E-01    0.6850942816E+00
    0.3000000000E+07    0.6244476516E+00    0.3677746043E-03    0.1388310148E-03    0.5564534404E-01    0.6856800461E+00
    0.5000000000E+07    0.6244292064E+00    0.2867544046E-03    0.1054105676E-03    0.5569511382E-01    0.6858560064E+00
    0.7000000000E+07    0.6244109590E+00    0.2433913714E-03    0.8792028840E-04    0.5572738642E-01    0.6859487376E+00
    0.9000000000E+07    0.6243951151E+00    0.2153341965E-03    0.7677669411E-04    0.5575130972E-01    0.6860081567E+00
    0.1100000000E+08    0.6243814045E+00    0.1952699078E-03    0.6890123535E-04    0.5577032706E-01    0.6860503512E+00
    0.1300000000E+08    0.6243693993E+00    0.1799992882E-03    0.6296455168E-04    0.5578611207E-01    0.6860822898E+00
    0.1500000000E+08    0.6243587506E+00    0.1678708198E-03    0.5828736700E-04    0.5579960559E-01    0.6861075440E+00
    0.1700000000E+08    0.6243491951E+00    0.1579340987E-03    0.5448206466E-04    0.5581138945E-01    0.6861281572E+00
    0.1900000000E+08    0.6243405349E+00    0.1495982405E-03    0.5130938933E-04    0.5582184864E-01    0.6861453940E+00
    0.2100000000E+08    0.6243326198E+00    0.1424739442E-03    0.4861270075E-04    0.5583125118E-01    0.6861600841E+00
    0.2300000000E+08    0.6243253333E+00    0.1362928596E-03    0.4628462880E-04    0.5583979118E-01    0.6861727974E+00
    0.2500000000E+08    0.6243185838E+00    0.1308631765E-03    0.4424881485E-04    0.5584761371E-01    0.6861839401E+00
    0.2700000000E+08    0.6243122981E+00    0.1260436515E-03    0.4244928847E-04    0.5585483009E-01    0.6861938104E+00
