  Pressure (Pa) 22mC5-400 (mol/kg) 2mC6-400 (mol/kg) 33mC5-400 (mol/kg) 23mC5-400 (mol/kg) C7-400 (mol/kg)
    0.1000000000E+01    0.2118647225E-02    0.1595220808E-02    0.5195165037E-03    0.4650141902E-03    0.1720282646E-02
    0.3000000000E+01    0.6282684287E-02    0.4713884114E-02    0.1535108885E-02    0.1378975651E-02    0.5109365365E-02
    0.5000000000E+01    0.1035232155E-01    0.7740074970E-02    0.2520499774E-02    0.2272233088E-02    0.8431625575E-02
    0.7000000000E+01    0.1433130414E-01    0.1067749407E-01    0.3476894610E-02    0.3145607754E-02    0.1168916679E-01
    0.9000000000E+01    0.1822317638E-01    0.1352965083E-01    0.4405436628E-02    0.3999876873E-02    0.1488400373E-01
    0.1100000000E+02    0.2203129507E-01    0.1629987555E-01    0.5307210811E-02    0.4835776556E-02    0.1801806701E-01
    0.1300000000E+02    0.2575884173E-01    0.1899133064E-01    0.6183247542E-02    0.5654004479E-02    0.2109320744E-01
    0.1500000000E+02    0.2940883390E-01    0.2160702102E-01    0.7034525980E-02    0.6455222359E-02    0.2411120022E-01
    0.1700000000E+02    0.3298413556E-01    0.2414980379E-01    0.7861977198E-02    0.7240058243E-02    0.2707374871E-01
    0.1900000000E+02    0.3648746676E-01    0.2662239714E-01    0.8666487084E-02    0.8009108625E-02    0.2998248808E-01
    0.2100000000E+02    0.3992141261E-01    0.2902738866E-01    0.9448899040E-02    0.8762940404E-02    0.3283898871E-01
    0.2300000000E+02    0.4328843151E-01    0.3136724305E-01    0.1021001649E-01    0.9502092697E-02    0.3564475937E-01
    0.2500000000E+02    0.4659086286E-01    0.3364430930E-01    0.1095060521E-01    0.1022707853E-01    0.3840125026E-01
    0.2700000000E+02    0.4983093417E-01    0.3586082736E-01    0.1167139549E-01    0.1093838638E-01    0.4110985581E-01
    0.2900000000E+02    0.5301076769E-01    0.3801893436E-01    0.1237308416E-01    0.1163648168E-01    0.4377191736E-01
    0.3100000000E+02    0.5613238658E-01    0.4012067041E-01    0.1305633651E-01    0.1232180808E-01    0.4638872570E-01
    0.3300000000E+02    0.5919772064E-01    0.4216798402E-01    0.1372178797E-01    0.1299478881E-01    0.4896152340E-01
    0.3500000000E+02    0.6220861164E-01    0.4416273712E-01    0.1437004583E-01    0.1365582777E-01    0.5149150711E-01
    0.3700000000E+02    0.6516681833E-01    0.4610670983E-01    0.1500169073E-01    0.1430531065E-01    0.5397982965E-01
    0.3900000000E+02    0.6807402104E-01    0.4800160484E-01    0.1561727812E-01    0.1494360597E-01    0.5642760199E-01
    0.4100000000E+02    0.7093182607E-01    0.4984905157E-01    0.1621733958E-01    0.1557106598E-01    0.5883589518E-01
    0.4300000000E+02    0.7374176971E-01    0.5165061004E-01    0.1680238413E-01    0.1618802763E-01    0.6120574211E-01
    0.4500000000E+02    0.7650532205E-01    0.5340777448E-01    0.1737289933E-01    0.1679481329E-01    0.6353813925E-01
    0.4700000000E+02    0.7922389051E-01    0.5512197673E-01    0.1792935246E-01    0.1739173164E-01    0.6583404820E-01
    0.4900000000E+02    0.8189882319E-01    0.5679458951E-01    0.1847219152E-01    0.1797907832E-01    0.6809439724E-01
    0.1000000000E+02    0.2013750210E-01    0.1492480324E-01    0.4859604061E-02    0.4420078419E-02    0.1645851458E-01
    0.3000000000E+02    0.5457873123E-01    0.3907672489E-01    0.1271697448E-01    0.1198071407E-01    0.4508589942E-01
    0.5000000000E+02    0.8322033193E-01    0.5761571336E-01    0.1873864075E-01    0.1826925129E-01    0.6921151813E-01
    0.7000000000E+02    0.1076468311E+00    0.7214787587E-01    0.2344858652E-01    0.2363318549E-01    0.8988963984E-01
    0.9000000000E+02    0.1288937087E+00    0.8373133180E-01    0.2719234952E-01    0.2829961330E-01    0.1078643916E+00
    0.1100000000E+03    0.1476674706E+00    0.9309029592E-01    0.3020665774E-01    0.3242348842E-01    0.1236765623E+00
    0.1300000000E+03    0.1644677526E+00    0.1007362364E+00    0.3265886060E-01    0.3611439679E-01    0.1377290187E+00
    0.1500000000E+03    0.1796587659E+00    0.1070399703E+00    0.3467040571E-01    0.3945222401E-01    0.1503283290E+00
    0.1700000000E+03    0.1935130002E+00    0.1122763922E+00    0.3633141226E-01    0.4249673932E-01    0.1617121269E+00
    0.1900000000E+03    0.2062389824E+00    0.1166532207E+00    0.3771004254E-01    0.4529368326E-01    0.1720676157E+00
    0.2100000000E+03    0.2179994888E+00    0.1203300396E+00    0.3885871322E-01    0.4787876178E-01    0.1815443930E+00
    0.2300000000E+03    0.2289238339E+00    0.1234312464E+00    0.3981832163E-01    0.5028034149E-01    0.1902635359E+00
    0.2500000000E+03    0.2391163709E+00    0.1260550616E+00    0.4062118800E-01    0.5252131395E-01    0.1983241609E+00
    0.2700000000E+03    0.2486625011E+00    0.1282799251E+00    0.4129314589E-01    0.5462041374E-01    0.2058082448E+00
    0.2900000000E+03    0.2576330061E+00    0.1301691205E+00    0.4185505435E-01    0.5659316864E-01    0.2127842216E+00
    0.3100000000E+03    0.2660872259E+00    0.1317741728E+00    0.4232390966E-01    0.5845259669E-01    0.2193097054E+00
    0.3300000000E+03    0.2740754283E+00    0.1331373812E+00    0.4271367462E-01    0.6020972592E-01    0.2254335774E+00
    0.3500000000E+03    0.2816405997E+00    0.1342937314E+00    0.4303590535E-01    0.6187398718E-01    0.2311976049E+00
    0.3700000000E+03    0.2888198186E+00    0.1352723584E+00    0.4330023078E-01    0.6345351531E-01    0.2366377099E+00
    0.3900000000E+03    0.2956453196E+00    0.1360976766E+00    0.4351472346E-01    0.6495538266E-01    0.2417849744E+00
    0.4100000000E+03    0.3021453288E+00    0.1367902613E+00    0.4368618921E-01    0.6638578222E-01    0.2466664427E+00
    0.4300000000E+03    0.3083447254E+00    0.1373675437E+00    0.4382039552E-01    0.6775017283E-01    0.2513057687E+00
    0.4500000000E+03    0.3142655712E+00    0.1378443634E+00    0.4392225306E-01    0.6905339528E-01    0.2557237407E+00
    0.4700000000E+03    0.3199275384E+00    0.1382334098E+00    0.4399596125E-01    0.7029976614E-01    0.2599387113E+00
    0.4900000000E+03    0.3253482577E+00    0.1385455789E+00    0.4404512570E-01    0.7149315416E-01    0.2639669513E+00
    0.1000000000E+03    0.1385546657E+00    0.8865293876E-01    0.2877893100E-01    0.3042167951E-01    0.1160129627E+00
    0.3000000000E+03    0.2619213206E+00    0.1310043296E+00    0.4210017806E-01    0.5753631775E-01    0.2161000363E+00
    0.5000000000E+03    0.3279731721E+00    0.1386758215E+00    0.4406149228E-01    0.7207108178E-01    0.2659156359E+00
    0.7000000000E+03    0.3709519158E+00    0.1389488236E+00    0.4366346087E-01    0.8153843068E-01    0.2978837248E+00
    0.9000000000E+03    0.4012726381E+00    0.1371192339E+00    0.4265214705E-01    0.8822414858E-01    0.3210524497E+00
    0.1100000000E+04    0.4237274503E+00    0.1346753744E+00    0.4150823859E-01    0.9318035814E-01    0.3390706793E+00
    0.1300000000E+04    0.4409442692E+00    0.1321129610E+00    0.4038319118E-01    0.9698425525E-01    0.3537373053E+00
    0.1500000000E+04    0.4545061943E+00    0.1296091308E+00    0.3932453334E-01    0.9998368737E-01    0.3660606505E+00
    0.1700000000E+04    0.4654262257E+00    0.1272255187E+00    0.3834357282E-01    0.1024013208E+00    0.3766587830E+00
    0.1900000000E+04    0.4743816495E+00    0.1249788705E+00    0.3743861400E-01    0.1043860841E+00    0.3859363725E+00
    0.2100000000E+04    0.4818411903E+00    0.1228680604E+00    0.3660357714E-01    0.1060410823E+00    0.3941721118E+00
    0.2300000000E+04    0.4881385868E+00    0.1208851066E+00    0.3583132248E-01    0.1074397542E+00    0.4015657629E+00
    0.2500000000E+04    0.4935172633E+00    0.1190198269E+00    0.3511492080E-01    0.1086356840E+00    0.4082652227E+00
    0.2700000000E+04    0.4981585100E+00    0.1172618203E+00    0.3444809549E-01    0.1096687926E+00    0.4143829542E+00
    0.2900000000E+04    0.5021998312E+00    0.1156012776E+00    0.3382532675E-01    0.1105693698E+00    0.4200064144E+00
    0.3100000000E+04    0.5057472208E+00    0.1140292704E+00    0.3324182200E-01    0.1113607725E+00    0.4252049230E+00
    0.3300000000E+04    0.5088835705E+00    0.1125378064E+00    0.3269343932E-01    0.1120612732E+00    0.4300343318E+00
    0.3500000000E+04    0.5116745508E+00    0.1111197851E+00    0.3217660046E-01    0.1126853533E+00    0.4345402871E+00
    0.3700000000E+04    0.5141728011E+00    0.1097689155E+00    0.3168820803E-01    0.1132446249E+00    0.4387605629E+00
    0.3900000000E+04    0.5164209661E+00    0.1084796237E+00    0.3122557238E-01    0.1137484986E+00    0.4427267657E+00
    0.4100000000E+04    0.5184539298E+00    0.1072469637E+00    0.3078634882E-01    0.1142046752E+00    0.4464656022E+00
    0.4300000000E+04    0.5203004821E+00    0.1060665361E+00    0.3036848492E-01    0.1146195125E+00    0.4499998378E+00
    0.4500000000E+04    0.5219845773E+00    0.1049344168E+00    0.2997017637E-01    0.1149983023E+00    0.4533490329E+00
    0.4700000000E+04    0.5235262964E+00    0.1038470944E+00    0.2958983028E-01    0.1153454824E+00    0.4565301144E+00
    0.4900000000E+04    0.5249425908E+00    0.1028014172E+00    0.2922603460E-01    0.1156648004E+00    0.4595578260E+00
    0.1000000000E+04    0.4132862768E+00    0.1359315524E+00    0.4208349896E-01    0.9087517652E-01    0.3305670767E+00
    0.3000000000E+04    0.5040296241E+00    0.1148047283E+00    0.3352893948E-01    0.1109774741E+00    0.4226550249E+00
    0.5000000000E+04    0.5256082905E+00    0.1022932975E+00    0.2904994496E-01    0.1158150255E+00    0.4610182683E+00
    0.7000000000E+04    0.5349065377E+00    0.9375748554E-01    0.2615412739E-01    0.1179253249E+00    0.4846124671E+00
    0.9000000000E+04    0.5400233810E+00    0.8736507109E-01    0.2405436671E-01    0.1191012542E+00    0.5012971287E+00
    0.1100000000E+05    0.5432439573E+00    0.8230587718E-01    0.2242913640E-01    0.1198507910E+00    0.5140123024E+00
    0.1300000000E+05    0.5454507810E+00    0.7815189095E-01    0.2111679473E-01    0.1203709345E+00    0.5241714398E+00
    0.1500000000E+05    0.5470542095E+00    0.7464998051E-01    0.2002499681E-01    0.1207536717E+00    0.5325588986E+00
    0.1700000000E+05    0.5482702183E+00    0.7163837700E-01    0.1909623163E-01    0.1210476205E+00    0.5396530295E+00
    0.1900000000E+05    0.5492230478E+00    0.6900766313E-01    0.1829237721E-01    0.1212808676E+00    0.5457658825E+00
    0.2100000000E+05    0.5499891255E+00    0.6668054125E-01    0.1758693917E-01    0.1214707642E+00    0.5511116010E+00
    0.2300000000E+05    0.5506179978E+00    0.6460048843E-01    0.1696080584E-01    0.1216286068E+00    0.5558430772E+00
    0.2500000000E+05    0.5511431684E+00    0.6272499646E-01    0.1639976984E-01    0.1217620670E+00    0.5600730057E+00
    0.2700000000E+05    0.5515880914E+00    0.6102134279E-01    0.1589300358E-01    0.1218765383E+00    0.5638866589E+00
    0.2900000000E+05    0.5519696688E+00    0.5946383669E-01    0.1543208084E-01    0.1219759241E+00    0.5673499931E+00
    0.3100000000E+05    0.5523003844E+00    0.5803196503E-01    0.1501032609E-01    0.1220631199E+00    0.5705149867E+00
    0.3300000000E+05    0.5525896559E+00    0.5670910748E-01    0.1462236856E-01    0.1221403195E+00    0.5734232676E+00
    0.3500000000E+05    0.5528447201E+00    0.5548162436E-01    0.1426382869E-01    0.1222092157E+00    0.5761086456E+00
    0.3700000000E+05    0.5530712280E+00    0.5433819486E-01    0.1393109254E-01    0.1222711363E+00    0.5785989206E+00
    0.3900000000E+05    0.5532736559E+00    0.5326932782E-01    0.1362114644E-01    0.1223271373E+00    0.5809172030E+00
    0.4100000000E+05    0.5534555949E+00    0.5226699406E-01    0.1333145346E-01    0.1223780697E+00    0.5830828922E+00
    0.4300000000E+05    0.5536199589E+00    0.5132434583E-01    0.1305985987E-01    0.1224246269E+00    0.5851124163E+00
    0.4500000000E+05    0.5537691368E+00    0.5043549986E-01    0.1280452321E-01    0.1224673799E+00    0.5870197973E+00
    0.4700000000E+05    0.5539051052E+00    0.4959536762E-01    0.1256385622E-01    0.1225068031E+00    0.5888170900E+00
    0.4900000000E+05    0.5540295135E+00    0.4879952089E-01    0.1233648285E-01    0.1225432941E+00    0.5905147261E+00
    0.1000000000E+05    0.5417989591E+00    0.8470116407E-01    0.2319479073E-01    0.1195133241E+00    0.5080418168E+00
    0.3000000000E+05    0.5521407359E+00    0.5873331441E-01    0.1521666953E-01    0.1220208950E+00    0.5689669721E+00
    0.5000000000E+05    0.5540878250E+00    0.4841697447E-01    0.1222740021E-01    0.1225605470E+00    0.5913290573E+00
    0.7000000000E+05    0.5548910743E+00    0.4236247224E-01    0.1051942445E-01    0.1228111623E+00    0.6040762460E+00
    0.9000000000E+05    0.5553227784E+00    0.3823020637E-01    0.9374159043E-02    0.1229615549E+00    0.6126304455E+00
    0.1100000000E+06    0.5555889763E+00    0.3516651540E-01    0.8536229157E-02    0.1230644762E+00    0.6188998021E+00
    0.1300000000E+06    0.5557676290E+00    0.3277205104E-01    0.7888240294E-02    0.1231407679E+00    0.6237577871E+00
    0.1500000000E+06    0.5558946193E+00    0.3083069136E-01    0.7367491418E-02    0.1232004288E+00    0.6276700074E+00
    0.1700000000E+06    0.5559887092E+00    0.2921353414E-01    0.6936979258E-02    0.1232489010E+00    0.6309110113E+00
    0.1900000000E+06    0.5560606359E+00    0.2783813027E-01    0.6573244175E-02    0.1232894231E+00    0.6336548226E+00
    0.2100000000E+06    0.5561169729E+00    0.2664887912E-01    0.6260585808E-02    0.1233240549E+00    0.6360179266E+00
    0.2300000000E+06    0.5561619617E+00    0.2560669756E-01    0.5988041371E-02    0.1233541760E+00    0.6380816924E+00
    0.2500000000E+06    0.5561984565E+00    0.2468317837E-01    0.5747689893E-02    0.1233807491E+00    0.6399049451E+00
    0.2700000000E+06    0.5562284450E+00    0.2385709683E-01    0.5533644757E-02    0.1234044694E+00    0.6415314307E+00
    0.2900000000E+06    0.5562533522E+00    0.2311222356E-01    0.5341426687E-02    0.1234258530E+00    0.6429944609E+00
    0.3100000000E+06    0.5562742246E+00    0.2243590204E-01    0.5167558109E-02    0.1234452923E+00    0.6443199180E+00
    0.3300000000E+06    0.5562918468E+00    0.2181809318E-01    0.5009291989E-02    0.1234630916E+00    0.6455282634E+00
    0.3500000000E+06    0.5563068184E+00    0.2125071536E-01    0.4864425408E-02    0.1234794915E+00    0.6466359192E+00
    0.3700000000E+06    0.5563196043E+00    0.2072717774E-01    0.4731168231E-02    0.1234946847E+00    0.6476562411E+00
    0.3900000000E+06    0.5563305705E+00    0.2024204297E-01    0.4608048584E-02    0.1235088280E+00    0.6486002195E+00
    0.4100000000E+06    0.5563400085E+00    0.1979077904E-01    0.4493843536E-02    0.1235220503E+00    0.6494769935E+00
    0.4300000000E+06    0.5563481531E+00    0.1936957351E-01    0.4387527403E-02    0.1235344589E+00    0.6502942342E+00
    0.4500000000E+06    0.5563551957E+00    0.1897519243E-01    0.4288232596E-02    0.1235461439E+00    0.6510584359E+00
    0.4700000000E+06    0.5563612930E+00    0.1860487179E-01    0.4195219590E-02    0.1235571815E+00    0.6517751383E+00
    0.4900000000E+06    0.5563665753E+00    0.1825623286E-01    0.4107853574E-02    0.1235676370E+00    0.6524491008E+00
    0.1000000000E+06    0.5554702074E+00    0.3659583871E-01    0.8925941867E-02    0.1230172682E+00    0.6159824899E+00
    0.3000000000E+06    0.5562642386E+00    0.2276617375E-01    0.5252385013E-02    0.1234357949E+00    0.6436729988E+00
    0.5000000000E+06    0.5563689453E+00    0.1808938934E-01    0.4066113847E-02    0.1235726642E+00    0.6527713625E+00
    0.7000000000E+06    0.5563923419E+00    0.1551021215E-01    0.3426891139E-02    0.1236528943E+00    0.6577308382E+00
    0.9000000000E+06    0.5563936063E+00    0.1381251319E-01    0.3012751169E-02    0.1237092969E+00    0.6609720859E+00
    0.1100000000E+07    0.5563869905E+00    0.1258435476E-01    0.2716756217E-02    0.1237526802E+00    0.6633050373E+00
    0.1300000000E+07    0.5563772877E+00    0.1164167782E-01    0.2491780965E-02    0.1237878884E+00    0.6650887640E+00
    0.1500000000E+07    0.5563664213E+00    0.1088804775E-01    0.2313399642E-02    0.1238174969E+00    0.6665103310E+00
    0.1700000000E+07    0.5563552456E+00    0.1026734389E-01    0.2167523140E-02    0.1238430339E+00    0.6676781219E+00
    0.1900000000E+07    0.5563441610E+00    0.9744363780E-02    0.2045380406E-02    0.1238654794E+00    0.6686598776E+00
    0.2100000000E+07    0.5563333573E+00    0.9295745183E-02    0.1941188726E-02    0.1238854987E+00    0.6695004192E+00
    0.2300000000E+07    0.5563229207E+00    0.8905285575E-02    0.1850960948E-02    0.1239035634E+00    0.6702307513E+00
    0.2500000000E+07    0.5563128840E+00    0.8561343150E-02    0.1771847235E-02    0.1239200205E+00    0.6708731007E+00
    0.2700000000E+07    0.5563032525E+00    0.8255306225E-02    0.1701749532E-02    0.1239351321E+00    0.6714438766E+00
    0.2900000000E+07    0.5562940169E+00    0.7980647645E-02    0.1639084567E-02    0.1239491012E+00    0.6719554935E+00
    0.3100000000E+07    0.5562851607E+00    0.7732316882E-02    0.1582632179E-02    0.1239620881E+00    0.6724175421E+00
    0.3300000000E+07    0.5562766641E+00    0.7506335876E-02    0.1531434894E-02    0.1239742217E+00    0.6728375653E+00
    0.3500000000E+07    0.5562685062E+00    0.7299522480E-02    0.1484729474E-02    0.1239856072E+00    0.6732215888E+00
    0.3700000000E+07    0.5562606663E+00    0.7109296446E-02    0.1441899069E-02    0.1239963312E+00    0.6735744924E+00
    0.3900000000E+07    0.5562531243E+00    0.6933540307E-02    0.1402439021E-02    0.1240064665E+00    0.6739002761E+00
    0.4100000000E+07    0.5562458613E+00    0.6770497683E-02    0.1365931949E-02    0.1240160742E+00    0.6742022541E+00
    0.4300000000E+07    0.5562388595E+00    0.6618697664E-02    0.1332029268E-02    0.1240252066E+00    0.6744831993E+00
    0.4500000000E+07    0.5562321026E+00    0.6476897700E-02    0.1300437283E-02    0.1240339083E+00    0.6747454517E+00
    0.4700000000E+07    0.5562255752E+00    0.6344039881E-02    0.1270906564E-02    0.1240422183E+00    0.6749910021E+00
    0.4900000000E+07    0.5562192635E+00    0.6219217042E-02    0.1243223731E-02    0.1240501702E+00    0.6752215558E+00
    0.1000000000E+07    0.5563908797E+00    0.1315419848E-01    0.2853699054E-02    0.1237322367E+00    0.6622238458E+00
    0.3000000000E+07    0.5562895425E+00    0.7853461321E-02    0.1610146876E-02    0.1239557087E+00    0.6721922015E+00
    0.5000000000E+07    0.5562161843E+00    0.6159569810E-02    0.1230016838E-02    0.1240540213E+00    0.6753316767E+00
    0.7000000000E+07    0.5561632780E+00    0.5244608344E-02    0.1029265429E-02    0.1241178272E+00    0.6770166525E+00
    0.9000000000E+07    0.5561221176E+00    0.4649478976E-02    0.9006964204E-03    0.1241651531E+00    0.6781081363E+00
    0.1100000000E+08    0.5560884736E+00    0.4222381708E-02    0.8095170955E-03    0.1242027896E+00    0.6788890903E+00
    0.1300000000E+08    0.5560600355E+00    0.3896481067E-02    0.7406090842E-03    0.1242340393E+00    0.6794835975E+00
    0.1500000000E+08    0.5560354117E+00    0.3637119284E-02    0.6862132655E-03    0.1242607598E+00    0.6799558071E+00
    0.1700000000E+08    0.5560137015E+00    0.3424283795E-02    0.6418873566E-03    0.1242841000E+00    0.6803426722E+00
    0.1900000000E+08    0.5559942889E+00    0.3245498792E-02    0.6048821716E-03    0.1243048204E+00    0.6806671830E+00
    0.2100000000E+08    0.5559767345E+00    0.3092526477E-02    0.5733939528E-03    0.1243234508E+00    0.6809444942E+00
    0.2300000000E+08    0.5559607137E+00    0.2959677874E-02    0.5461840728E-03    0.1243403746E+00    0.6811850561E+00
    0.2500000000E+08    0.5559459800E+00    0.2842880185E-02    0.5223702954E-03    0.1243558788E+00    0.6813963401E+00
    0.2700000000E+08    0.5559323421E+00    0.2739130175E-02    0.5013050803E-03    0.1243701834E+00    0.6815838492E+00
