  Pressure (Pa) 22mC5-400 (mol/kg) 2mC6-400 (mol/kg) 33mC5-400 (mol/kg) 23mC5-400 (mol/kg) C7-400 (mol/kg)
    0.1000000000E+01    0.2120874466E-02    0.7953017869E-03    0.6475523410E-03    0.1862010915E-03    0.5139247334E-02
    0.3000000000E+01    0.6302211766E-02    0.2336784603E-02    0.1902797395E-02    0.5533035871E-03    0.1513917005E-01
    0.5000000000E+01    0.1040518117E-01    0.3815688064E-02    0.3107261058E-02    0.9135311239E-03    0.2478463519E-01
    0.7000000000E+01    0.1443229932E-01    0.5235298195E-02    0.4263608882E-02    0.1267104439E-02    0.3409472038E-01
    0.9000000000E+01    0.1838597364E-01    0.6598677510E-02    0.5374324876E-02    0.1614234690E-02    0.4308714861E-01
    0.1100000000E+02    0.2226850815E-01    0.7908683866E-02    0.6441726839E-02    0.1955123966E-02    0.5177840666E-01
    0.1300000000E+02    0.2608210897E-01    0.9167987416E-02    0.7467980151E-02    0.2289965770E-02    0.6018385123E-01
    0.1500000000E+02    0.2982888945E-01    0.1037908589E-01    0.8455110197E-02    0.2618945470E-02    0.6831780435E-01
    0.1700000000E+02    0.3351087499E-01    0.1154431841E-01    0.9405013586E-02    0.2942240717E-02    0.7619363930E-01
    0.1900000000E+02    0.3713000756E-01    0.1266587793E-01    0.1031946829E-01    0.3260021850E-02    0.8382385804E-01
    0.2100000000E+02    0.4068814996E-01    0.1374582258E-01    0.1120014285E-01    0.3572452260E-02    0.9122016124E-01
    0.2300000000E+02    0.4418708979E-01    0.1478608590E-01    0.1204860470E-01    0.3879688747E-02    0.9839351162E-01
    0.2500000000E+02    0.4762854324E-01    0.1578848620E-01    0.1286632774E-01    0.4181881842E-02    0.1053541914E+00
    0.2700000000E+02    0.5101415858E-01    0.1675473504E-01    0.1365469930E-01    0.4479176126E-02    0.1121118543E+00
    0.2900000000E+02    0.5434551952E-01    0.1768644497E-01    0.1441502635E-01    0.4771710513E-02    0.1186755733E+00
    0.3100000000E+02    0.5762414833E-01    0.1858513661E-01    0.1514854130E-01    0.5059618530E-02    0.1250538834E+00
    0.3300000000E+02    0.6085150881E-01    0.1945224516E-01    0.1585640727E-01    0.5343028576E-02    0.1312548214E+00
    0.3500000000E+02    0.6402900905E-01    0.2028912626E-01    0.1653972287E-01    0.5622064163E-02    0.1372859613E+00
    0.3700000000E+02    0.6715800407E-01    0.2109706149E-01    0.1719952664E-01    0.5896844149E-02    0.1431544481E+00
    0.3900000000E+02    0.7023979830E-01    0.2187726334E-01    0.1783680108E-01    0.6167482955E-02    0.1488670269E+00
    0.4100000000E+02    0.7327564794E-01    0.2263087980E-01    0.1845247642E-01    0.6434090771E-02    0.1544300714E+00
    0.4300000000E+02    0.7626676315E-01    0.2335899859E-01    0.1904743402E-01    0.6696773750E-02    0.1598496086E+00
    0.4500000000E+02    0.7921431016E-01    0.2406265106E-01    0.1962250954E-01    0.6955634193E-02    0.1651313425E+00
    0.4700000000E+02    0.8211941327E-01    0.2474281579E-01    0.2017849587E-01    0.7210770720E-02    0.1702806753E+00
    0.4900000000E+02    0.8498315667E-01    0.2540042190E-01    0.2071614581E-01    0.7462278437E-02    0.1753027275E+00
    0.1000000000E+02    0.2033599325E-01    0.7260181211E-02    0.5913301355E-02    0.1785447160E-02    0.4746943880E-01
    0.3000000000E+02    0.5599133262E-01    0.1813982645E-01    0.1478506107E-01    0.4916234676E-02    0.1218873910E+00
    0.5000000000E+02    0.8639984678E-01    0.2572104307E-01    0.2097831955E-01    0.7586700289E-02    0.1777675510E+00
    0.7000000000E+02    0.1127981301E+00    0.3114182381E-01    0.2541524966E-01    0.9905314902E-02    0.2214384036E+00
    0.9000000000E+02    0.1360502360E+00    0.3508309849E-01    0.2864757215E-01    0.1194787412E-01    0.2566231809E+00
    0.1100000000E+03    0.1567786860E+00    0.3797642087E-01    0.3102503589E-01    0.1376898812E-01    0.2856584914E+00
    0.1300000000E+03    0.1754439058E+00    0.4010767489E-01    0.3277946744E-01    0.1540904873E-01    0.3100867954E+00
    0.1500000000E+03    0.1923942675E+00    0.4167302087E-01    0.3407007752E-01    0.1689861856E-01    0.3309686253E+00
    0.1700000000E+03    0.2078986672E+00    0.4281095966E-01    0.3500941141E-01    0.1826128852E-01    0.3490580032E+00
    0.1900000000E+03    0.2221683475E+00    0.4362162712E-01    0.3567895739E-01    0.1951559192E-01    0.3649062840E+00
    0.2100000000E+03    0.2353718859E+00    0.4417887995E-01    0.3613892091E-01    0.2067631925E-01    0.3789263586E+00
    0.2300000000E+03    0.2476457205E+00    0.4453812516E-01    0.3643455577E-01    0.2175544149E-01    0.3914338384E+00
    0.2500000000E+03    0.2591016896E+00    0.4474153988E-01    0.3660038499E-01    0.2276277150E-01    0.4026743181E+00
    0.2700000000E+03    0.2698325283E+00    0.4482163831E-01    0.3666308583E-01    0.2370644618E-01    0.4128419246E+00
    0.2900000000E+03    0.2799159414E+00    0.4480376245E-01    0.3664350489E-01    0.2459328376E-01    0.4220922434E+00
    0.3100000000E+03    0.2894176643E+00    0.4470785462E-01    0.3655809286E-01    0.2542905239E-01    0.4305515179E+00
    0.3300000000E+03    0.2983937961E+00    0.4454974027E-01    0.3641994349E-01    0.2621867475E-01    0.4383233225E+00
    0.3500000000E+03    0.3068925979E+00    0.4434207047E-01    0.3623955759E-01    0.2696638584E-01    0.4454934846E+00
    0.3700000000E+03    0.3149558955E+00    0.4409502379E-01    0.3602541235E-01    0.2767585604E-01    0.4521337701E+00
    0.3900000000E+03    0.3226201848E+00    0.4381683538E-01    0.3578439107E-01    0.2835028810E-01    0.4583046832E+00
    0.4100000000E+03    0.3299175114E+00    0.4351420022E-01    0.3552211100E-01    0.2899249429E-01    0.4640576172E+00
    0.4300000000E+03    0.3368761768E+00    0.4319258365E-01    0.3524317619E-01    0.2960495838E-01    0.4694365290E+00
    0.4500000000E+03    0.3435213101E+00    0.4285646265E-01    0.3495137410E-01    0.3018988577E-01    0.4744792539E+00
    0.4700000000E+03    0.3498753345E+00    0.4250951486E-01    0.3464983008E-01    0.3074924445E-01    0.4792185495E+00
    0.4900000000E+03    0.3559583507E+00    0.4215476792E-01    0.3434112942E-01    0.3128479863E-01    0.4836829313E+00
    0.1000000000E+03    0.1466980357E+00    0.3664028283E-01    0.2992656530E-01    0.1288331486E-01    0.2717990594E+00
    0.3000000000E+03    0.2847358053E+00    0.4476448938E-01    0.3660814079E-01    0.2501722625E-01    0.4264138212E+00
    0.5000000000E+03    0.3589039566E+00    0.4197526791E-01    0.3418477995E-01    0.3154415159E-01    0.4858199495E+00
    0.7000000000E+03    0.4071682361E+00    0.3838885109E-01    0.3104026270E-01    0.3579572058E-01    0.5188065408E+00
    0.9000000000E+03    0.4413397105E+00    0.3522010247E-01    0.2823245096E-01    0.3880872384E-01    0.5403254240E+00
    0.1100000000E+04    0.4667836073E+00    0.3257615385E-01    0.2587289136E-01    0.4105429243E-01    0.5557049617E+00
    0.1300000000E+04    0.4864103719E+00    0.3038229718E-01    0.2390700615E-01    0.4278809074E-01    0.5673637794E+00
    0.1500000000E+04    0.5019643762E+00    0.2854735778E-01    0.2225996850E-01    0.4416340596E-01    0.5765739998E+00
    0.1700000000E+04    0.5145608944E+00    0.2699469305E-01    0.2086648800E-01    0.4527827766E-01    0.5840751007E+00
    0.1900000000E+04    0.5249469355E+00    0.2566491002E-01    0.1967482616E-01    0.4619839526E-01    0.5903293130E+00
    0.2100000000E+04    0.5336411762E+00    0.2451289364E-01    0.1864505501E-01    0.4696938485E-01    0.5956419748E+00
    0.2300000000E+04    0.5410144211E+00    0.2350436846E-01    0.1774647492E-01    0.4762387572E-01    0.6002237469E+00
    0.2500000000E+04    0.5473383224E+00    0.2261308878E-01    0.1695535934E-01    0.4818578003E-01    0.6042251679E+00
    0.2700000000E+04    0.5528161033E+00    0.2181873902E-01    0.1625320913E-01    0.4867299241E-01    0.6077569784E+00
    0.2900000000E+04    0.5576025898E+00    0.2110540813E-01    0.1562545369E-01    0.4909915038E-01    0.6109026513E+00
    0.3100000000E+04    0.5618176427E+00    0.2046048748E-01    0.1506049618E-01    0.4947481510E-01    0.6137264247E+00
    0.3300000000E+04    0.5655553862E+00    0.1987387164E-01    0.1454901137E-01    0.4980828272E-01    0.6162786265E+00
    0.3500000000E+04    0.5688906826E+00    0.1933737423E-01    0.1408342665E-01    0.5010615385E-01    0.6185993065E+00
    0.3700000000E+04    0.5718837636E+00    0.1884429654E-01    0.1365753526E-01    0.5037374082E-01    0.6207207745E+00
    0.3900000000E+04    0.5745835966E+00    0.1838910573E-01    0.1326620535E-01    0.5061536391E-01    0.6226694153E+00
    0.4100000000E+04    0.5770303711E+00    0.1796719198E-01    0.1290515911E-01    0.5083457014E-01    0.6244670093E+00
    0.4300000000E+04    0.5792573597E+00    0.1757468336E-01    0.1257080333E-01    0.5103429699E-01    0.6261317125E+00
    0.4500000000E+04    0.5812923289E+00    0.1720830330E-01    0.1226009835E-01    0.5121699669E-01    0.6276787929E+00
    0.4700000000E+04    0.5831586205E+00    0.1686525959E-01    0.1197045568E-01    0.5138473137E-01    0.6291211925E+00
    0.4900000000E+04    0.5848759909E+00    0.1654315741E-01    0.1169965733E-01    0.5153924698E-01    0.6304699621E+00
    0.1000000000E+04    0.4549339380E+00    0.3383602928E-01    0.2699885498E-01    0.4000823092E-01    0.5485929984E+00
    0.3000000000E+04    0.5597751462E+00    0.2077507906E-01    0.1533575443E-01    0.4929273042E-01    0.6123513529E+00
    0.5000000000E+04    0.5856841883E+00    0.1638930236E-01    0.1157071693E-01    0.5161202126E-01    0.6311122569E+00
    0.7000000000E+04    0.5970436485E+00    0.1403267147E-01    0.9631779149E-02    0.5264011311E-01    0.6407748752E+00
    0.9000000000E+04    0.6033582662E+00    0.1249966312E-01    0.8410715154E-02    0.5321800887E-01    0.6468533902E+00
    0.1100000000E+05    0.6073602967E+00    0.1139656791E-01    0.7553591387E-02    0.5358837709E-01    0.6511056059E+00
    0.1300000000E+05    0.6101169741E+00    0.1055187846E-01    0.6909941890E-02    0.5384636043E-01    0.6542842630E+00
    0.1500000000E+05    0.6121284217E+00    0.9877176039E-02    0.6403898824E-02    0.5403671153E-01    0.6567710152E+00
    0.1700000000E+05    0.6136593756E+00    0.9321536648E-02    0.5992608488E-02    0.5418320898E-01    0.6587821146E+00
    0.1900000000E+05    0.6148628079E+00    0.8853233968E-02    0.5649820661E-02    0.5429964463E-01    0.6604501940E+00
    0.2100000000E+05    0.6158331610E+00    0.8451307414E-02    0.5358447113E-02    0.5439456553E-01    0.6618615893E+00
    0.2300000000E+05    0.6166318450E+00    0.8101263635E-02    0.5106824573E-02    0.5447355040E-01    0.6630751708E+00
    0.2500000000E+05    0.6173004923E+00    0.7792709534E-02    0.4886685030E-02    0.5454039561E-01    0.6641326061E+00
    0.2700000000E+05    0.6178683130E+00    0.7517966987E-02    0.4691982665E-02    0.5459777491E-01    0.6650643037E+00
    0.2900000000E+05    0.6183563989E+00    0.7271221035E-02    0.4518180748E-02    0.5464762624E-01    0.6658930315E+00
    0.3100000000E+05    0.6187803560E+00    0.7047974226E-02    0.4361799567E-02    0.5469138894E-01    0.6666362109E+00
    0.3300000000E+05    0.6191519765E+00    0.6844684815E-02    0.4220119551E-02    0.5473015476E-01    0.6673074238E+00
    0.3500000000E+05    0.6194803350E+00    0.6658519712E-02    0.4090980315E-02    0.5476476700E-01    0.6679174326E+00
    0.3700000000E+05    0.6197725276E+00    0.6487181421E-02    0.3972641034E-02    0.5479588760E-01    0.6684748874E+00
    0.3900000000E+05    0.6200341823E+00    0.6328784110E-02    0.3863681190E-02    0.5482404357E-01    0.6689868292E+00
    0.4100000000E+05    0.6202698199E+00    0.6181763088E-02    0.3762928589E-02    0.5484965977E-01    0.6694590536E+00
    0.4300000000E+05    0.6204831124E+00    0.6044807537E-02    0.3669406208E-02    0.5487308267E-01    0.6698963796E+00
    0.4500000000E+05    0.6206770739E+00    0.5916809732E-02    0.3582292315E-02    0.5489459766E-01    0.6703028505E+00
    0.4700000000E+05    0.6208542006E+00    0.5796826184E-02    0.3500890119E-02    0.5491444203E-01    0.6706818870E+00
    0.4900000000E+05    0.6210165778E+00    0.5684047510E-02    0.3424604368E-02    0.5493281474E-01    0.6710364046E+00
    0.1000000000E+05    0.6055617936E+00    0.1190791869E-01    0.7948617285E-02    0.5342142462E-01    0.6491480770E+00
    0.3000000000E+05    0.6185755822E+00    0.7156900661E-02    0.4437997634E-02    0.5467019364E-01    0.6662743897E+00
    0.5000000000E+05    0.6210927950E+00    0.5630137819E-02    0.3388217330E-02    0.5494150279E-01    0.6712052648E+00
    0.7000000000E+05    0.6221519476E+00    0.4801694421E-02    0.2835571858E-02    0.5506780907E-01    0.6737504909E+00
    0.9000000000E+05    0.6227320679E+00    0.4261284836E-02    0.2481919313E-02    0.5514369536E-01    0.6753596903E+00
    0.1100000000E+06    0.6230966608E+00    0.3872686063E-02    0.2231156066E-02    0.5519566534E-01    0.6764913898E+00
    0.1300000000E+06    0.6233461580E+00    0.3575728746E-02    0.2041634711E-02    0.5523420686E-01    0.6773416374E+00
    0.1500000000E+06    0.6235270952E+00    0.3339135239E-02    0.1892007734E-02    0.5526435658E-01    0.6780099040E+00
    0.1700000000E+06    0.6236639610E+00    0.3144809847E-02    0.1770060943E-02    0.5528885789E-01    0.6785526482E+00
    0.1900000000E+06    0.6237708583E+00    0.2981454093E-02    0.1668237793E-02    0.5530934422E-01    0.6790045724E+00
    0.2100000000E+06    0.6238564749E+00    0.2841597924E-02    0.1581581127E-02    0.5532685492E-01    0.6793883191E+00
    0.2300000000E+06    0.6239264516E+00    0.2720076941E-02    0.1506687069E-02    0.5534208637E-01    0.6797193652E+00
    0.2500000000E+06    0.6239846077E+00    0.2613190452E-02    0.1441131118E-02    0.5535552472E-01    0.6800086917E+00
    0.2700000000E+06    0.6240336198E+00    0.2518207403E-02    0.1383133668E-02    0.5536752102E-01    0.6802643315E+00
    0.2900000000E+06    0.6240754185E+00    0.2433062093E-02    0.1331355241E-02    0.5537833599E-01    0.6804923128E+00
    0.3100000000E+06    0.6241114309E+00    0.2356159084E-02    0.1284765911E-02    0.5538816786E-01    0.6806972590E+00
    0.3300000000E+06    0.6241427339E+00    0.2286243800E-02    0.1242559127E-02    0.5539717049E-01    0.6808827820E+00
    0.3500000000E+06    0.6241701551E+00    0.2222314176E-02    0.1204093129E-02    0.5540546540E-01    0.6810517500E+00
    0.3700000000E+06    0.6241943411E+00    0.2163558795E-02    0.1168850100E-02    0.5541315003E-01    0.6812064731E+00
    0.3900000000E+06    0.6242158038E+00    0.2109312602E-02    0.1136407036E-02    0.5542030364E-01    0.6813488349E+00
    0.4100000000E+06    0.6242349538E+00    0.2059024588E-02    0.1106414567E-02    0.5542699142E-01    0.6814803890E+00
    0.4300000000E+06    0.6242521242E+00    0.2012233791E-02    0.1078581280E-02    0.5543326760E-01    0.6816024295E+00
    0.4500000000E+06    0.6242675878E+00    0.1968551198E-02    0.1052661933E-02    0.5543917772E-01    0.6817160439E+00
    0.4700000000E+06    0.6242815703E+00    0.1927645909E-02    0.1028448472E-02    0.5544476036E-01    0.6818221540E+00
    0.4900000000E+06    0.6242942599E+00    0.1889234419E-02    0.1005763091E-02    0.5545004849E-01    0.6819215465E+00
    0.1000000000E+06    0.6229331289E+00    0.4052746796E-02    0.2346969829E-02    0.5517182413E-01    0.6759696773E+00
    0.3000000000E+06    0.6240940739E+00    0.2393665509E-02    0.1307466792E-02    0.5538336432E-01    0.6805974195E+00
    0.5000000000E+06    0.6243001702E+00    0.1870886110E-02    0.9949447786E-03    0.5545259111E-01    0.6819689388E+00
    0.7000000000E+06    0.6243782377E+00    0.1589984143E-02    0.8308505809E-03    0.5549316583E-01    0.6826874926E+00
    0.9000000000E+06    0.6244159874E+00    0.1407831352E-02    0.7261024822E-03    0.5552168481E-01    0.6831462437E+00
    0.1100000000E+07    0.6244364430E+00    0.1277379949E-02    0.6519796095E-03    0.5554361673E-01    0.6834711721E+00
    0.1300000000E+07    0.6244481352E+00    0.1177990530E-02    0.5960518222E-03    0.5556141276E-01    0.6837166423E+00
    0.1500000000E+07    0.6244548966E+00    0.1098987983E-02    0.5519574150E-03    0.5557637606E-01    0.6839104362E+00
    0.1700000000E+07    0.6244586791E+00    0.1034220233E-02    0.5160617902E-03    0.5558928002E-01    0.6840684144E+00
    0.1900000000E+07    0.6244605679E+00    0.9798580865E-03    0.4861193386E-03    0.5560062045E-01    0.6842003732E+00
    0.2100000000E+07    0.6244612075E+00    0.9333763864E-03    0.4606586990E-03    0.5561073386E-01    0.6843127311E+00
    0.2300000000E+07    0.6244610001E+00    0.8930331730E-03    0.4386706467E-03    0.5561985899E-01    0.6844098912E+00
    0.2500000000E+07    0.6244602072E+00    0.8575825258E-03    0.4194370410E-03    0.5562817125E-01    0.6844949875E+00
    0.2700000000E+07    0.6244590041E+00    0.8261064677E-03    0.4024312286E-03    0.5563580327E-01    0.6845703192E+00
    0.2900000000E+07    0.6244575117E+00    0.7979116545E-03    0.3872571281E-03    0.5564285771E-01    0.6846376162E+00
    0.3100000000E+07    0.6244558148E+00    0.7724632618E-03    0.3736104182E-03    0.5564941569E-01    0.6846982083E+00
    0.3300000000E+07    0.6244539745E+00    0.7493412071E-03    0.3612529417E-03    0.5565554236E-01    0.6847531364E+00
    0.3500000000E+07    0.6244520350E+00    0.7282103026E-03    0.3499953199E-03    0.5566129088E-01    0.6848032290E+00
    0.3700000000E+07    0.6244500290E+00    0.7087993827E-03    0.3396848372E-03    0.5566670516E-01    0.6848491543E+00
    0.3900000000E+07    0.6244479806E+00    0.6908863833E-03    0.3301968080E-03    0.5567182188E-01    0.6848914583E+00
    0.4100000000E+07    0.6244459080E+00    0.6742874636E-03    0.3214283030E-03    0.5567667201E-01    0.6849305918E+00
    0.4300000000E+07    0.6244438249E+00    0.6588489364E-03    0.3132935077E-03    0.5568128194E-01    0.6849669310E+00
    0.4500000000E+07    0.6244417415E+00    0.6444411893E-03    0.3057202358E-03    0.5568567430E-01    0.6850007924E+00
    0.4700000000E+07    0.6244396658E+00    0.6309540396E-03    0.2986472725E-03    0.5568986871E-01    0.6850324447E+00
    0.4900000000E+07    0.6244376036E+00    0.6182931403E-03    0.2920223233E-03    0.5569388221E-01    0.6850621174E+00
    0.1000000000E+07    0.6244276771E+00    0.1337770613E-02    0.6861962241E-03    0.5553328224E-01    0.6833211328E+00
    0.3000000000E+07    0.6244566845E+00    0.7848726969E-03    0.3802590498E-03    0.5564619436E-01    0.6846686796E+00
    0.5000000000E+07    0.6244365790E+00    0.6122466762E-03    0.2888635496E-03    0.5569582587E-01    0.6850762742E+00
    0.7000000000E+07    0.6244174110E+00    0.5197877070E-03    0.2409958161E-03    0.5572802353E-01    0.6852915921E+00
    0.9000000000E+07    0.6244009571E+00    0.4599394666E-03    0.2104848434E-03    0.5575189822E-01    0.6854297449E+00
    0.1100000000E+08    0.6243868025E+00    0.4171290286E-03    0.1889159279E-03    0.5577088089E-01    0.6855279357E+00
    0.1300000000E+08    0.6243744545E+00    0.3845402001E-03    0.1726535394E-03    0.5578663964E-01    0.6856023072E+00
    0.1500000000E+08    0.6243635301E+00    0.3586530396E-03    0.1598393138E-03    0.5580011247E-01    0.6856611421E+00
    0.1700000000E+08    0.6243537465E+00    0.3374413781E-03    0.1494125193E-03    0.5581187951E-01    0.6857091834E+00
    0.1900000000E+08    0.6243448932E+00    0.3196452426E-03    0.1407182821E-03    0.5582232473E-01    0.6857493683E+00
    0.2100000000E+08    0.6243368118E+00    0.3044343657E-03    0.1333277823E-03    0.5583171545E-01    0.6857836249E+00
    0.2300000000E+08    0.6243293799E+00    0.2912363507E-03    0.1269470397E-03    0.5584024531E-01    0.6858132785E+00
    0.2500000000E+08    0.6243225018E+00    0.2796420134E-03    0.1213669584E-03    0.5584805904E-01    0.6858392737E+00
    0.2700000000E+08    0.6243161014E+00    0.2693500100E-03    0.1164342557E-03    0.5585526770E-01    0.6858623046E+00
