  Pressure (Pa) 22mC5-400 (mol/kg) 2mC6-400 (mol/kg) 33mC5-400 (mol/kg) 23mC5-400 (mol/kg) C7-400 (mol/kg)
    0.1000000000E+01    0.2113129631E-02    0.4756185746E-02    0.3227061019E-03    0.2782821940E-03    0.3419677289E-02
    0.3000000000E+01    0.6234872855E-02    0.1388648698E-01    0.9422037582E-03    0.8210915717E-03    0.1003711712E-01
    0.5000000000E+01    0.1022436416E-01    0.2253797534E-01    0.1529224113E-02    0.1346495590E-02    0.1637554776E-01
    0.7000000000E+01    0.1408951154E-01    0.3074442944E-01    0.2086057125E-02    0.1855534867E-02    0.2245361437E-01
    0.9000000000E+01    0.1783758415E-01    0.3853658611E-01    0.2614786548E-02    0.2349165963E-02    0.2828830938E-01
    0.1100000000E+02    0.2147527600E-01    0.4594247226E-01    0.3117312427E-02    0.2828269759E-02    0.3389515268E-01
    0.1300000000E+02    0.2500876215E-01    0.5298769447E-01    0.3595370735E-02    0.3293658852E-02    0.3928834873E-01
    0.1500000000E+02    0.2844374846E-01    0.5969569236E-01    0.4050550548E-02    0.3746084104E-02    0.4448092386E-01
    0.1700000000E+02    0.3178551568E-01    0.6608796101E-01    0.4484309122E-02    0.4186240436E-02    0.4948484668E-01
    0.1900000000E+02    0.3503895869E-01    0.7218424658E-01    0.4897985158E-02    0.4614771997E-02    0.5431113403E-01
    0.2100000000E+02    0.3820862140E-01    0.7800271897E-01    0.5292810506E-02    0.5032276752E-02    0.5896994439E-01
    0.2300000000E+02    0.4129872796E-01    0.8356012450E-01    0.5669920513E-02    0.5439310594E-02    0.6347066042E-01
    0.2500000000E+02    0.4431321070E-01    0.8887192129E-01    0.6030363204E-02    0.5836391011E-02    0.6782196218E-01
    0.2700000000E+02    0.4725573513E-01    0.9395239954E-01    0.6375107435E-02    0.6224000385E-02    0.7203189217E-01
    0.2900000000E+02    0.5012972246E-01    0.9881478869E-01    0.6705050154E-02    0.6602588949E-02    0.7610791325E-01
    0.3100000000E+02    0.5293836981E-01    0.1034713530E+00    0.7021022886E-02    0.6972577450E-02    0.8005696035E-01
    0.3300000000E+02    0.5568466851E-01    0.1079334772E+00    0.7323797528E-02    0.7334359552E-02    0.8388548668E-01
    0.3500000000E+02    0.5837142055E-01    0.1122117429E+00    0.7614091545E-02    0.7688304008E-02    0.8759950523E-01
    0.3700000000E+02    0.6100125355E-01    0.1163159975E+00    0.7892572634E-02    0.8034756621E-02    0.9120462593E-01
    0.3900000000E+02    0.6357663424E-01    0.1202554163E+00    0.8159862919E-02    0.8374042026E-02    0.9470608923E-01
    0.4100000000E+02    0.6609988079E-01    0.1240385579E+00    0.8416542735E-02    0.8706465305E-02    0.9810879621E-01
    0.4300000000E+02    0.6857317394E-01    0.1276734149E+00    0.8663154036E-02    0.9032313459E-02    0.1014173359E+00
    0.4500000000E+02    0.7099856720E-01    0.1311674591E+00    0.8900203484E-02    0.9351856741E-02    0.1046360100E+00
    0.4700000000E+02    0.7337799611E-01    0.1345276829E+00    0.9128165241E-02    0.9665349886E-02    0.1077688552E+00
    0.4900000000E+02    0.7571328672E-01    0.1377606368E+00    0.9347483507E-02    0.9973033216E-02    0.1108196633E+00
    0.1000000000E+02    0.1966983018E-01    0.4228615900E-01    0.2869212799E-02    0.2590481466E-02    0.3111929558E-01
    0.3000000000E+02    0.5154202205E-01    0.1011680677E+00    0.6864733191E-02    0.6788632995E-02    0.7809789444E-01
    0.5000000000E+02    0.7686492278E-01    0.1393313220E+00    0.9454032521E-02    0.1012476761E-01    0.1123154261E+00
    0.7000000000E+02    0.9795219869E-01    0.1653683264E+00    0.1121972987E-01    0.1290337508E-01    0.1386860034E+00
    0.9000000000E+02    0.1161032941E+00    0.1837687932E+00    0.1246633042E-01    0.1529547784E-01    0.1598510751E+00
    0.1100000000E+03    0.1321089499E+00    0.1970926892E+00    0.1336751667E-01    0.1740515156E-01    0.1773638979E+00
    0.1300000000E+03    0.1464807676E+00    0.2068987678E+00    0.1402908821E-01    0.1929973476E-01    0.1922013928E+00
    0.1500000000E+03    0.1595661925E+00    0.2141860862E+00    0.1451889064E-01    0.2102496070E-01    0.2050110259E+00
    0.1700000000E+03    0.1716106651E+00    0.2196218728E+00    0.1488226303E-01    0.2261313684E-01    0.2162403019E+00
    0.1900000000E+03    0.1827933280E+00    0.2236670340E+00    0.1515054691E-01    0.2408784441E-01    0.2262093431E+00
    0.2100000000E+03    0.1932485958E+00    0.2266490417E+00    0.1534602850E-01    0.2546677716E-01    0.2351538188E+00
    0.2300000000E+03    0.2030797389E+00    0.2288061694E+00    0.1548493853E-01    0.2676352941E-01    0.2432514991E+00
    0.2500000000E+03    0.2123677488E+00    0.2303153563E+00    0.1557934221E-01    0.2798876282E-01    0.2506393098E+00
    0.2700000000E+03    0.2211773028E+00    0.2313103282E+00    0.1563836851E-01    0.2915099152E-01    0.2574246446E+00
    0.2900000000E+03    0.2295608839E+00    0.2318937123E+00    0.1566903221E-01    0.3025712444E-01    0.2636930822E+00
    0.3100000000E+03    0.2375616942E+00    0.2321453341E+00    0.1567679699E-01    0.3131284878E-01    0.2695137790E+00
    0.3300000000E+03    0.2452157575E+00    0.2321280225E+00    0.1566596960E-01    0.3232290679E-01    0.2749433211E+00
    0.3500000000E+03    0.2525534645E+00    0.2318917497E+00    0.1563998094E-01    0.3329129919E-01    0.2800285278E+00
    0.3700000000E+03    0.2596007275E+00    0.2314766332E+00    0.1560159005E-01    0.3422143713E-01    0.2848085277E+00
    0.3900000000E+03    0.2663798555E+00    0.2309151473E+00    0.1555303437E-01    0.3511625742E-01    0.2893163200E+00
    0.4100000000E+03    0.2729102266E+00    0.2302337736E+00    0.1549614201E-01    0.3597831106E-01    0.2935799647E+00
    0.4300000000E+03    0.2792088114E+00    0.2294542497E+00    0.1543241663E-01    0.3680983212E-01    0.2976235018E+00
    0.4500000000E+03    0.2852905840E+00    0.2285945240E+00    0.1536310247E-01    0.3761279185E-01    0.3014676699E+00
    0.4700000000E+03    0.2911688489E+00    0.2276694938E+00    0.1528923460E-01    0.3838894169E-01    0.3051304724E+00
    0.4900000000E+03    0.2968555029E+00    0.2266915810E+00    0.1521167818E-01    0.3913984782E-01    0.3086276306E+00
    0.1000000000E+03    0.1243374850E+00    0.1909510496E+00    0.1295234594E-01    0.1638077243E-01    0.1689931394E+00
    0.3000000000E+03    0.2336067360E+00    0.2320567235E+00    0.1567548442E-01    0.3079097182E-01    0.2666556040E+00
    0.5000000000E+03    0.2996303618E+00    0.2261861125E+00    0.1517174840E-01    0.3950628022E-01    0.3103184726E+00
    0.7000000000E+03    0.3471959669E+00    0.2150881998E+00    0.1430493594E-01    0.4578978051E-01    0.3380484332E+00
    0.9000000000E+03    0.3834486065E+00    0.2041966660E+00    0.1345696184E-01    0.5058214319E-01    0.3582469515E+00
    0.1100000000E+04    0.4119047193E+00    0.1944918493E+00    0.1269943278E-01    0.5434641856E-01    0.3740708284E+00
    0.1300000000E+04    0.4346990126E+00    0.1860381254E+00    0.1203808093E-01    0.5736379312E-01    0.3870389654E+00
    0.1500000000E+04    0.4532555212E+00    0.1786909195E+00    0.1146280176E-01    0.5982190362E-01    0.3979972980E+00
    0.1700000000E+04    0.4685718655E+00    0.1722751011E+00    0.1096074547E-01    0.6185224284E-01    0.4074650331E+00
    0.1900000000E+04    0.4813683053E+00    0.1666320769E+00    0.1051998003E-01    0.6354977497E-01    0.4157837108E+00
    0.2100000000E+04    0.4921762135E+00    0.1616294793E+00    0.1013036197E-01    0.6498458077E-01    0.4231899769E+00
    0.2300000000E+04    0.5013944667E+00    0.1571599323E+00    0.9783541857E-02    0.6620928160E-01    0.4298545521E+00
    0.2500000000E+04    0.5093269719E+00    0.1531370864E+00    0.9472724542E-02    0.6726398122E-01    0.4359046367E+00
    0.2700000000E+04    0.5162083707E+00    0.1494914979E+00    0.9192391110E-02    0.6817965153E-01    0.4414375390E+00
    0.2900000000E+04    0.5222220253E+00    0.1461670811E+00    0.8938047896E-02    0.6898050215E-01    0.4465293544E+00
    0.3100000000E+04    0.5275128233E+00    0.1431182540E+00    0.8706018358E-02    0.6968566795E-01    0.4512407058E+00
    0.3300000000E+04    0.5321964315E+00    0.1403077027E+00    0.8493276482E-02    0.7031042870E-01    0.4556206655E+00
    0.3500000000E+04    0.5363660719E+00    0.1377046492E+00    0.8297315466E-02    0.7086710242E-01    0.4597095079E+00
    0.3700000000E+04    0.5400975457E+00    0.1352835131E+00    0.8116044777E-02    0.7136570779E-01    0.4635406885E+00
    0.3900000000E+04    0.5434529992E+00    0.1330228753E+00    0.7947709470E-02    0.7181446091E-01    0.4671422960E+00
    0.4100000000E+04    0.5464837773E+00    0.1309046722E+00    0.7790826790E-02    0.7222015164E-01    0.4705381380E+00
    0.4300000000E+04    0.5492326075E+00    0.1289135651E+00    0.7644136145E-02    0.7258843176E-01    0.4737485650E+00
    0.4500000000E+04    0.5517352861E+00    0.1270364439E+00    0.7506559422E-02    0.7292403748E-01    0.4767911059E+00
    0.4700000000E+04    0.5540219927E+00    0.1252620344E+00    0.7377169324E-02    0.7323096292E-01    0.4796809639E+00
    0.4900000000E+04    0.5561183222E+00    0.1235805845E+00    0.7255163962E-02    0.7351259635E-01    0.4824314080E+00
    0.1000000000E+04    0.3984962729E+00    0.1991831270E+00    0.1306588269E-01    0.5257238286E-01    0.3665885738E+00
    0.3000000000E+04    0.5249499568E+00    0.1446107223E+00    0.8819446596E-02    0.6934401210E-01    0.4489292872E+00
    0.5000000000E+04    0.5571020451E+00    0.1227720250E+00    0.7196709126E-02    0.7364484878E-01    0.4837580459E+00
    0.7000000000E+04    0.5706920596E+00    0.1099046763E+00    0.6286097406E-02    0.7548012370E-01    0.5051751531E+00
    0.9000000000E+04    0.5779972460E+00    0.1009731585E+00    0.5676555702E-02    0.7647671819E-01    0.5202886164E+00
    0.1100000000E+05    0.5825037931E+00    0.9422224615E-01    0.5228104718E-02    0.7709802069E-01    0.5317810294E+00
    0.1300000000E+05    0.5855415546E+00    0.8884750123E-01    0.4878413584E-02    0.7752136054E-01    0.5409450821E+00
    0.1500000000E+05    0.5877193889E+00    0.8441570176E-01    0.4594807088E-02    0.7782819327E-01    0.5484981149E+00
    0.1700000000E+05    0.5893529449E+00    0.8066763072E-01    0.4358190378E-02    0.7806089052E-01    0.5548771964E+00
    0.1900000000E+05    0.5906213116E+00    0.7743627514E-01    0.4156508707E-02    0.7824357579E-01    0.5603670726E+00
    0.2100000000E+05    0.5916333016E+00    0.7460796312E-01    0.3981700271E-02    0.7839095788E-01    0.5651628703E+00
    0.2300000000E+05    0.5924586819E+00    0.7210198419E-01    0.3828127506E-02    0.7851250130E-01    0.5694037039E+00
    0.2500000000E+05    0.5931441668E+00    0.6985906945E-01    0.3691705308E-02    0.7861456621E-01    0.5731919697E+00
    0.2700000000E+05    0.5937221722E+00    0.6783448394E-01    0.3569386322E-02    0.7870158214E-01    0.5766050460E+00
    0.2900000000E+05    0.5942158744E+00    0.6599368274E-01    0.3458841771E-02    0.7877672775E-01    0.5797027087E+00
    0.3100000000E+05    0.5946422702E+00    0.6430946978E-01    0.3358255337E-02    0.7884234278E-01    0.5825320116E+00
    0.3300000000E+05    0.5950140996E+00    0.6276007720E-01    0.3266185429E-02    0.7890018757E-01    0.5851305978E+00
    0.3500000000E+05    0.5953410951E+00    0.6132783009E-01    0.3181470430E-02    0.7895161191E-01    0.5875290103E+00
    0.3700000000E+05    0.5956308167E+00    0.5999819541E-01    0.3103161854E-02    0.7899766823E-01    0.5897523397E+00
    0.3900000000E+05    0.5958892236E+00    0.5875909006E-01    0.3030476144E-02    0.7903918925E-01    0.5918214258E+00
    0.4100000000E+05    0.5961210753E+00    0.5760036813E-01    0.2962759234E-02    0.7907684255E-01    0.5937537481E+00
    0.4300000000E+05    0.5963302183E+00    0.5651343448E-01    0.2899460059E-02    0.7911116966E-01    0.5955640979E+00
    0.4500000000E+05    0.5965197937E+00    0.5549094941E-01    0.2840110427E-02    0.7914261456E-01    0.5972650911E+00
    0.4700000000E+05    0.5966923920E+00    0.5452659973E-01    0.2784309536E-02    0.7917154470E-01    0.5988675667E+00
    0.4900000000E+05    0.5968501678E+00    0.5361491930E-01    0.2731711900E-02    0.7919826692E-01    0.6003808987E+00
    0.1000000000E+05    0.5804918105E+00    0.9738784002E-01    0.5437091396E-02    0.7681981994E-01    0.5263877059E+00
    0.3000000000E+05    0.5944366067E+00    0.6513347254E-01    0.3407401396E-02    0.7881060530E-01    0.5811483628E+00
    0.5000000000E+05    0.5969240735E+00    0.5317731789E-01    0.2706519079E-02    0.7921088238E-01    0.6011067263E+00
    0.7000000000E+05    0.5979402156E+00    0.4630198315E-01    0.2315304821E-02    0.7939278641E-01    0.6124618337E+00
    0.9000000000E+05    0.5984868217E+00    0.4165918117E-01    0.2056093452E-02    0.7950076803E-01    0.6200772236E+00
    0.1100000000E+06    0.5988257538E+00    0.3824015489E-01    0.1867851700E-02    0.7957418888E-01    0.6256579523E+00
    0.1300000000E+06    0.5990551070E+00    0.3558064002E-01    0.1723033089E-02    0.7962838194E-01    0.6299828811E+00
    0.1500000000E+06    0.5992197905E+00    0.3343205246E-01    0.1607098585E-02    0.7967063518E-01    0.6334666570E+00
    0.1700000000E+06    0.5993432218E+00    0.3164726199E-01    0.1511540125E-02    0.7970488926E-01    0.6363535825E+00
    0.1900000000E+06    0.5994387872E+00    0.3013270900E-01    0.1430998026E-02    0.7973347757E-01    0.6387984296E+00
    0.2100000000E+06    0.5995146821E+00    0.2882559227E-01    0.1361903313E-02    0.7975787854E-01    0.6409047628E+00
    0.2300000000E+06    0.5995761987E+00    0.2768193405E-01    0.1301774098E-02    0.7977907928E-01    0.6427449109E+00
    0.2500000000E+06    0.5996269030E+00    0.2666987058E-01    0.1248823213E-02    0.7979776703E-01    0.6443711576E+00
    0.2700000000E+06    0.5996692833E+00    0.2576565857E-01    0.1201726302E-02    0.7981443688E-01    0.6458223820E+00
    0.2900000000E+06    0.5997051271E+00    0.2495118507E-01    0.1159478120E-02    0.7982945576E-01    0.6471281901E+00
    0.3100000000E+06    0.5997357506E+00    0.2421235337E-01    0.1121299901E-02    0.7984310225E-01    0.6483115854E+00
    0.3300000000E+06    0.5997621436E+00    0.2353800204E-01    0.1086577641E-02    0.7985559221E-01    0.6493907550E+00
    0.3500000000E+06    0.5997850644E+00    0.2291916042E-01    0.1054819784E-02    0.7986709592E-01    0.6503802963E+00
    0.3700000000E+06    0.5998051032E+00    0.2234852308E-01    0.1025627482E-02    0.7987774981E-01    0.6512920826E+00
    0.3900000000E+06    0.5998227259E+00    0.2182007102E-01    0.9986732436E-03    0.7988766469E-01    0.6521358853E+00
    0.4100000000E+06    0.5998383051E+00    0.2132879331E-01    0.9736853017E-03    0.7989693164E-01    0.6529198308E+00
    0.4300000000E+06    0.5998521422E+00    0.2087047921E-01    0.9504359787E-03    0.7990562639E-01    0.6536507412E+00
    0.4500000000E+06    0.5998644833E+00    0.2044156048E-01    0.9287328898E-03    0.7991381246E-01    0.6543343924E+00
    0.4700000000E+06    0.5998755313E+00    0.2003899015E-01    0.9084122025E-03    0.7992154366E-01    0.6549757125E+00
    0.4900000000E+06    0.5998854552E+00    0.1966014819E-01    0.8893334063E-03    0.7992886589E-01    0.6555789354E+00
    0.1000000000E+06    0.5986742329E+00    0.3983291780E-01    0.1955260094E-02    0.7954055822E-01    0.6230610468E+00
    0.3000000000E+06    0.5997210231E+00    0.2457307036E-01    0.1139921931E-02    0.7983643583E-01    0.6477339563E+00
    0.5000000000E+06    0.5998900406E+00    0.1947890476E-01    0.8802211566E-03    0.7993238620E-01    0.6558674242E+00
    0.7000000000E+06    0.5999474207E+00    0.1668144280E-01    0.7408905986E-03    0.7998853710E-01    0.6603118165E+00
    0.9000000000E+06    0.5999711618E+00    0.1484430752E-01    0.6508326081E-03    0.8002798412E-01    0.6632218778E+00
    0.1100000000E+07    0.5999811415E+00    0.1351726801E-01    0.5865635256E-03    0.8005831392E-01    0.6653196162E+00
    0.1300000000E+07    0.5999845146E+00    0.1249978399E-01    0.5377673939E-03    0.8008292215E-01    0.6669255310E+00
    0.1500000000E+07    0.5999844002E+00    0.1168700841E-01    0.4991087082E-03    0.8010361271E-01    0.6682067776E+00
    0.1700000000E+07    0.5999823354E+00    0.1101802013E-01    0.4675146890E-03    0.8012145570E-01    0.6692602984E+00
    0.1900000000E+07    0.5999791448E+00    0.1045465178E-01    0.4410747162E-03    0.8013713689E-01    0.6701467365E+00
    0.2100000000E+07    0.5999752987E+00    0.9971598107E-02    0.4185303473E-03    0.8015112168E-01    0.6709062482E+00
    0.2300000000E+07    0.5999710780E+00    0.9551323181E-02    0.3990145860E-03    0.8016374017E-01    0.6715666308E+00
    0.2500000000E+07    0.5999666558E+00    0.9181235666E-02    0.3819081591E-03    0.8017523488E-01    0.6721478254E+00
    0.2700000000E+07    0.5999621418E+00    0.8852026924E-02    0.3667554198E-03    0.8018578918E-01    0.6726645622E+00
    0.2900000000E+07    0.5999576062E+00    0.8556645126E-02    0.3532126918E-03    0.8019554499E-01    0.6731279920E+00
    0.3100000000E+07    0.5999530947E+00    0.8289636204E-02    0.3410152345E-03    0.8020461445E-01    0.6735467337E+00
    0.3300000000E+07    0.5999486367E+00    0.8046705946E-02    0.3299553839E-03    0.8021308764E-01    0.6739275691E+00
    0.3500000000E+07    0.5999442512E+00    0.7824420531E-02    0.3198676618E-03    0.8022103802E-01    0.6742759186E+00
    0.3700000000E+07    0.5999399500E+00    0.7619996528E-02    0.3106183701E-03    0.8022852631E-01    0.6745961734E+00
    0.3900000000E+07    0.5999357399E+00    0.7431150397E-02    0.3020981591E-03    0.8023560320E-01    0.6748919348E+00
    0.4100000000E+07    0.5999316246E+00    0.7255988506E-02    0.2942166133E-03    0.8024231152E-01    0.6751661878E+00
    0.4300000000E+07    0.5999276055E+00    0.7092925384E-02    0.2868982389E-03    0.8024868772E-01    0.6754214306E+00
    0.4500000000E+07    0.5999236825E+00    0.6940622011E-02    0.2800794433E-03    0.8025476313E-01    0.6756597723E+00
    0.4700000000E+07    0.5999198544E+00    0.6797938577E-02    0.2737062296E-03    0.8026056482E-01    0.6758830077E+00
    0.4900000000E+07    0.5999161192E+00    0.6663897875E-02    0.2677324137E-03    0.8026611640E-01    0.6760926750E+00
    0.1000000000E+07    0.5999772804E+00    0.1413278792E-01    0.6162878982E-03    0.8004402275E-01    0.6643470776E+00
    0.3000000000E+07    0.5999553453E+00    0.8419885588E-02    0.3469599199E-03    0.8020015944E-01    0.6733424883E+00
    0.5000000000E+07    0.5999142857E+00    0.6599850441E-02    0.2648826344E-03    0.8026880495E-01    0.6761928425E+00
    0.7000000000E+07    0.5998818332E+00    0.5617758241E-02    0.2215804108E-03    0.8031334533E-01    0.6777274806E+00
    0.9000000000E+07    0.5998556509E+00    0.4979323752E-02    0.1938633355E-03    0.8034637614E-01    0.6787237395E+00
    0.1100000000E+08    0.5998338232E+00    0.4521316972E-02    0.1742138769E-03    0.8037264112E-01    0.6794377436E+00
    0.1300000000E+08    0.5998151414E+00    0.4171922808E-02    0.1593678062E-03    0.8039444693E-01    0.6799820145E+00
    0.1500000000E+08    0.5997988253E+00    0.3893920019E-02    0.1476506590E-03    0.8041309069E-01    0.6804148096E+00
    0.1700000000E+08    0.5997843483E+00    0.3665823817E-02    0.1381041114E-03    0.8042937477E-01    0.6807697280E+00
    0.1900000000E+08    0.5997713405E+00    0.3474244508E-02    0.1301352545E-03    0.8044383021E-01    0.6810676953E+00
    0.2100000000E+08    0.5997595324E+00    0.3310342929E-02    0.1233551655E-03    0.8045682678E-01    0.6813225172E+00
    0.2300000000E+08    0.5997487220E+00    0.3168015997E-02    0.1174968245E-03    0.8046863230E-01    0.6815437214E+00
    0.2500000000E+08    0.5997387543E+00    0.3042895169E-02    0.1123700716E-03    0.8047944700E-01    0.6817381249E+00
    0.2700000000E+08    0.5997295076E+00    0.2931759589E-02    0.1078353532E-03    0.8048942450E-01    0.6819107517E+00
