  Pressure (Pa) 22mC5-400 (mol/kg) 2mC6-400 (mol/kg) 33mC5-400 (mol/kg) 23mC5-400 (mol/kg) C7-400 (mol/kg)
    0.1000000000E+01    0.2112385136E-02    0.4765612409E-02    0.1293342165E-03    0.6490966108E-03    0.1714497166E-02
    0.3000000000E+01    0.6228419819E-02    0.1396773584E-01    0.3790507371E-03    0.1913899699E-02    0.5058815663E-02
    0.5000000000E+01    0.1020708523E-01    0.2275431613E-01    0.6174634397E-03    0.3136519614E-02    0.8295243543E-02
    0.7000000000E+01    0.1405683719E-01    0.3115125427E-01    0.8452762298E-03    0.4319552609E-02    0.1142941896E-01
    0.9000000000E+01    0.1778542947E-01    0.3918236283E-01    0.1063136292E-02    0.5465379407E-02    0.1446658605E-01
    0.1100000000E+02    0.2139998560E-01    0.4686957201E-01    0.1271639682E-02    0.6576187232E-02    0.1741162899E-01
    0.1300000000E+02    0.2490706200E-01    0.5423311176E-01    0.1471336275E-02    0.7653989198E-02    0.2026910265E-01
    0.1500000000E+02    0.2831270367E-01    0.6129167315E-01    0.1662734144E-02    0.8700641410E-02    0.2304326000E-01
    0.1700000000E+02    0.3162249346E-01    0.6806255170E-01    0.1846303450E-02    0.9717858080E-02    0.2573807702E-01
    0.1900000000E+02    0.3484159574E-01    0.7456177492E-01    0.2022479907E-02    0.1070722493E-01    0.2835727498E-01
    0.2100000000E+02    0.3797479513E-01    0.8080421619E-01    0.2191667874E-02    0.1167021111E-01    0.3090434072E-01
    0.2300000000E+02    0.4102653114E-01    0.8680369649E-01    0.2354243119E-02    0.1260817979E-01    0.3338254500E-01
    0.2500000000E+02    0.4400092893E-01    0.9257307568E-01    0.2510555294E-02    0.1352239763E-01    0.3579495906E-01
    0.2700000000E+02    0.4690182692E-01    0.9812433427E-01    0.2660930157E-02    0.1441404327E-01    0.3814446981E-01
    0.2900000000E+02    0.4973280151E-01    0.1034686472E+00    0.2805671577E-02    0.1528421489E-01    0.4043379351E-01
    0.3100000000E+02    0.5249718929E-01    0.1086164500E+00    0.2945063334E-02    0.1613393702E-01    0.4266548835E-01
    0.3300000000E+02    0.5519810698E-01    0.1135774989E+00    0.3079370744E-02    0.1696416671E-01    0.4484196589E-01
    0.3500000000E+02    0.5783846946E-01    0.1183609251E+00    0.3208842136E-02    0.1777579903E-01    0.4696550149E-01
    0.3700000000E+02    0.6042100603E-01    0.1229752836E+00    0.3333710181E-02    0.1856967207E-01    0.4903824391E-01
    0.3900000000E+02    0.6294827510E-01    0.1274285977E+00    0.3454193103E-02    0.1934657144E-01    0.5106222404E-01
    0.4100000000E+02    0.6542267752E-01    0.1317283998E+00    0.3570495778E-02    0.2010723438E-01    0.5303936300E-01
    0.4300000000E+02    0.6784646868E-01    0.1358817681E+00    0.3682810739E-02    0.2085235346E-01    0.5497147950E-01
    0.4500000000E+02    0.7022176948E-01    0.1398953600E+00    0.3791319079E-02    0.2158257997E-01    0.5686029665E-01
    0.4700000000E+02    0.7255057636E-01    0.1437754429E+00    0.3896191294E-02    0.2229852697E-01    0.5870744824E-01
    0.4900000000E+02    0.7483477040E-01    0.1475279222E+00    0.3997588034E-02    0.2300077211E-01    0.6051448449E-01
    0.1000000000E+02    0.1960653967E-01    0.4306765261E-01    0.1168522175E-02    0.6025031001E-02    0.1595033098E-01
    0.3000000000E+02    0.5112311902E-01    0.1060664873E+00    0.2876019166E-02    0.1571157081E-01    0.4155669050E-01
    0.5000000000E+02    0.7596069597E-01    0.1493580632E+00    0.4047030787E-02    0.2334692794E-01    0.6140342227E-01
    0.7000000000E+02    0.9651860368E-01    0.1804587143E+00    0.4885992214E-02    0.2966787159E-01    0.7739713853E-01
    0.9000000000E+02    0.1141270660E+00    0.2035340819E+00    0.5506255022E-02    0.3508289956E-01    0.9067211116E-01
    0.1100000000E+03    0.1295877068E+00    0.2210732372E+00    0.5975579333E-02    0.3983819344E-01    0.1019478126E+00
    0.1300000000E+03    0.1434153327E+00    0.2346513948E+00    0.6336866568E-02    0.4409185815E-01    0.1117040925E+00
    0.1500000000E+03    0.1559576059E+00    0.2453116951E+00    0.6618540339E-02    0.4795066930E-01    0.1202741760E+00
    0.1700000000E+03    0.1674591057E+00    0.2537707898E+00    0.6840137849E-02    0.5148974514E-01    0.1278972856E+00
    0.1900000000E+03    0.1780978376E+00    0.2605362180E+00    0.7015502960E-02    0.5476375806E-01    0.1347500053E+00
    0.2100000000E+03    0.1880071337E+00    0.2659767189E+00    0.7154699337E-02    0.5781366014E-01    0.1409658017E+00
    0.2300000000E+03    0.1972893628E+00    0.2703660774E+00    0.7265203714E-02    0.6067089376E-01    0.1466476258E+00
    0.2500000000E+03    0.2060248308E+00    0.2739114158E+00    0.7352676008E-02    0.6336012488E-01    0.1518763072E+00
    0.2700000000E+03    0.2142777389E+00    0.2767719943E+00    0.7421471173E-02    0.6590107315E-01    0.1567163010E+00
    0.2900000000E+03    0.2221002831E+00    0.2790720271E+00    0.7474988224E-02    0.6830977083E-01    0.1612197150E+00
    0.3100000000E+03    0.2295355408E+00    0.2809096192E+00    0.7515913645E-02    0.7059944948E-01    0.1654291939E+00
    0.3300000000E+03    0.2366195469E+00    0.2823631218E+00    0.7546394554E-02    0.7278117748E-01    0.1693800225E+00
    0.3500000000E+03    0.2433828138E+00    0.2834957341E+00    0.7568164116E-02    0.7486432714E-01    0.1731016854E+00
    0.3700000000E+03    0.2498514651E+00    0.2843588888E+00    0.7582633823E-02    0.7685692259E-01    0.1766190428E+00
    0.3900000000E+03    0.2560480910E+00    0.2849947779E+00    0.7590962388E-02    0.7876590280E-01    0.1799532264E+00
    0.4100000000E+03    0.2619924053E+00    0.2854382633E+00    0.7594107857E-02    0.8059732323E-01    0.1831223333E+00
    0.4300000000E+03    0.2677017547E+00    0.2857183379E+00    0.7592867494E-02    0.8235651230E-01    0.1861419675E+00
    0.4500000000E+03    0.2731915185E+00    0.2858592564E+00    0.7587908645E-02    0.8404819415E-01    0.1890256686E+00
    0.4700000000E+03    0.2784754257E+00    0.2858814182E+00    0.7579792869E-02    0.8567658613E-01    0.1917852528E+00
    0.4900000000E+03    0.2835658097E+00    0.2858020641E+00    0.7568994962E-02    0.8724547681E-01    0.1944310882E+00
    0.1000000000E+03    0.1220887418E+00    0.2128814673E+00    0.5756674156E-02    0.3753161257E-01    0.9652561814E-01
    0.3000000000E+03    0.2258639256E+00    0.2800433293E+00    0.7496879713E-02    0.6946875122E-01    0.1633588390E+00
    0.5000000000E+03    0.2860419542E+00    0.2857289812E+00    0.7562718653E-02    0.8800869163E-01    0.1957142497E+00
    0.7000000000E+03    0.3276372456E+00    0.2815230248E+00    0.7367600861E-02    0.1008349722E+00    0.2171465382E+00
    0.9000000000E+03    0.3581626814E+00    0.2753933716E+00    0.7130649219E-02    0.1102557550E+00    0.2332711329E+00
    0.1100000000E+04    0.3813521022E+00    0.2692278041E+00    0.6902866956E-02    0.1174185679E+00    0.2462555323E+00
    0.1300000000E+04    0.3994225968E+00    0.2635081424E+00    0.6696144822E-02    0.1230050555E+00    0.2571581339E+00
    0.1500000000E+04    0.4137998227E+00    0.2583203643E+00    0.6511457046E-02    0.1274537036E+00    0.2665746801E+00
    0.1700000000E+04    0.4254431391E+00    0.2536337829E+00    0.6346714470E-02    0.1310596877E+00    0.2748741196E+00
    0.1900000000E+04    0.4350189053E+00    0.2493880477E+00    0.6199204443E-02    0.1340281050E+00    0.2823011846E+00
    0.2100000000E+04    0.4430017363E+00    0.2455212248E+00    0.6066356553E-02    0.1365050857E+00    0.2890268205E+00
    0.2300000000E+04    0.4497369606E+00    0.2419782207E+00    0.5945949486E-02    0.1385969889E+00    0.2951753366E+00
    0.2500000000E+04    0.4554805905E+00    0.2387124472E+00    0.5836128821E-02    0.1403826905E+00    0.3008400883E+00
    0.2700000000E+04    0.4604256308E+00    0.2356852508E+00    0.5735365774E-02    0.1419216734E+00    0.3060930560E+00
    0.2900000000E+04    0.4647198057E+00    0.2328647337E+00    0.5642403303E-02    0.1432594797E+00    0.3109909691E+00
    0.3100000000E+04    0.4684777481E+00    0.2302245439E+00    0.5556205448E-02    0.1444314612E+00    0.3155793736E+00
    0.3300000000E+04    0.4717895361E+00    0.2277428146E+00    0.5475914358E-02    0.1454654061E+00    0.3198954204E+00
    0.3500000000E+04    0.4747267704E+00    0.2254012911E+00    0.5400815397E-02    0.1463834096E+00    0.3239698315E+00
    0.3700000000E+04    0.4773469685E+00    0.2231846303E+00    0.5330309318E-02    0.1472032267E+00    0.3278283183E+00
    0.3900000000E+04    0.4796967851E+00    0.2210798451E+00    0.5263890249E-02    0.1479392639E+00    0.3314926270E+00
    0.4100000000E+04    0.4818144044E+00    0.2190758659E+00    0.5201128290E-02    0.1486033159E+00    0.3349813235E+00
    0.4300000000E+04    0.4837313377E+00    0.2171631921E+00    0.5141655737E-02    0.1492051194E+00    0.3383103907E+00
    0.4500000000E+04    0.4854737901E+00    0.2153336170E+00    0.5085156120E-02    0.1497527743E+00    0.3414936924E+00
    0.4700000000E+04    0.4870637099E+00    0.2135800067E+00    0.5031355450E-02    0.1502530670E+00    0.3445433359E+00
    0.4900000000E+04    0.4885196026E+00    0.2118961237E+00    0.4980015177E-02    0.1507117212E+00    0.3474699596E+00
    0.1000000000E+04    0.3705117898E+00    0.2722698712E+00    0.7014449556E-02    0.1140694211E+00    0.2400744975E+00
    0.3000000000E+04    0.4666596816E+00    0.2315235585E+00    0.5598516142E-02    0.1438643094E+00    0.3133213675E+00
    0.5000000000E+04    0.4892022899E+00    0.2110785901E+00    0.4955201411E-02    0.1509269812E+00    0.3488901197E+00
    0.7000000000E+04    0.4986110565E+00    0.1973476674E+00    0.4548838198E-02    0.1539104034E+00    0.3726355782E+00
    0.9000000000E+04    0.5036648591E+00    0.1869630916E+00    0.4253341332E-02    0.1555332212E+00    0.3904091645E+00
    0.1100000000E+05    0.5067883478E+00    0.1786156470E+00    0.4022219888E-02    0.1565492513E+00    0.4045569715E+00
    0.1300000000E+05    0.5088985908E+00    0.1716488883E+00    0.3833223252E-02    0.1572447565E+00    0.4162661365E+00
    0.1500000000E+05    0.5104145664E+00    0.1656827678E+00    0.3673945177E-02    0.1577510604E+00    0.4262230210E+00
    0.1700000000E+05    0.5115535705E+00    0.1604760843E+00    0.3536746257E-02    0.1581365588E+00    0.4348608632E+00
    0.1900000000E+05    0.5124390686E+00    0.1558656428E+00    0.3416583190E-02    0.1584402797E+00    0.4424707984E+00
    0.2100000000E+05    0.5131462167E+00    0.1517356752E+00    0.3309950390E-02    0.1586860836E+00    0.4492579047E+00
    0.2300000000E+05    0.5137232982E+00    0.1480010009E+00    0.3214312288E-02    0.1588893662E+00    0.4553720573E+00
    0.2500000000E+05    0.5142027060E+00    0.1445970897E+00    0.3127775971E-02    0.1590605022E+00    0.4609260788E+00
    0.2700000000E+05    0.5146069599E+00    0.1414738752E+00    0.3048891348E-02    0.1592067363E+00    0.4660069930E+00
    0.2900000000E+05    0.5149521890E+00    0.1385917314E+00    0.2976523452E-02    0.1593332803E+00    0.4706833079E+00
    0.3100000000E+05    0.5152502411E+00    0.1359187607E+00    0.2909767682E-02    0.1594439798E+00    0.4750098990E+00
    0.3300000000E+05    0.5155100097E+00    0.1334289107E+00    0.2847891728E-02    0.1595417345E+00    0.4790313842E+00
    0.3500000000E+05    0.5157382981E+00    0.1311006324E+00    0.2790294702E-02    0.1596287726E+00    0.4827845164E+00
    0.3700000000E+05    0.5159403972E+00    0.1289159026E+00    0.2736477679E-02    0.1597068348E+00    0.4862999180E+00
    0.3900000000E+05    0.5161204822E+00    0.1268594980E+00    0.2686022046E-02    0.1597773009E+00    0.4896033634E+00
    0.4100000000E+05    0.5162818913E+00    0.1249184469E+00    0.2638573287E-02    0.1598412793E+00    0.4927167437E+00
    0.4300000000E+05    0.5164273242E+00    0.1230816087E+00    0.2593828653E-02    0.1598996702E+00    0.4956588032E+00
    0.4500000000E+05    0.5165589880E+00    0.1213393468E+00    0.2551527651E-02    0.1599532129E+00    0.4984457101E+00
    0.4700000000E+05    0.5166787035E+00    0.1196832718E+00    0.2511444612E-02    0.1600025204E+00    0.5010915035E+00
    0.4900000000E+05    0.5167879864E+00    0.1181060366E+00    0.2473382816E-02    0.1600481049E+00    0.5036084483E+00
    0.1000000000E+05    0.5053929747E+00    0.1825847673E+00    0.4131449980E-02    0.1560937236E+00    0.3978458334E+00
    0.3000000000E+05    0.5151064990E+00    0.1372308469E+00    0.2942493313E-02    0.1593904110E+00    0.4728873217E+00
    0.5000000000E+05    0.5168391212E+00    0.1173449318E+00    0.2455055151E-02    0.1600696387E+00    0.5048220211E+00
    0.7000000000E+05    0.5175368313E+00    0.1050322153E+00    0.2162076351E-02    0.1603811204E+00    0.5243691266E+00
    0.9000000000E+05    0.5179049424E+00    0.9632271750E-01    0.1958798625E-02    0.1605668995E+00    0.5381060058E+00
    0.1100000000E+06    0.5181281433E+00    0.8969292368E-01    0.1806261578E-02    0.1606935833E+00    0.5485173638E+00
    0.1300000000E+06    0.5182754913E+00    0.8440342709E-01    0.1685939451E-02    0.1607872707E+00    0.5567977007E+00
    0.1500000000E+06    0.5183784858E+00    0.8004241547E-01    0.1587670128E-02    0.1608604164E+00    0.5636079489E+00
    0.1700000000E+06    0.5184534737E+00    0.7635845719E-01    0.1505323843E-02    0.1609197743E+00    0.5693496793E+00
    0.1900000000E+06    0.5185097480E+00    0.7318754296E-01    0.1434942158E-02    0.1609693523E+00    0.5742838415E+00
    0.2100000000E+06    0.5185529638E+00    0.7041719488E-01    0.1373833601E-02    0.1610116940E+00    0.5785888447E+00
    0.2300000000E+06    0.5185867489E+00    0.6796718169E-01    0.1320092677E-02    0.1610485004E+00    0.5823916242E+00
    0.2500000000E+06    0.5186135312E+00    0.6577842836E-01    0.1272325650E-02    0.1610809567E+00    0.5857854410E+00
    0.2700000000E+06    0.5186349925E+00    0.6380628345E-01    0.1229485348E-02    0.1611099179E+00    0.5888406538E+00
    0.2900000000E+06    0.5186523322E+00    0.6201624737E-01    0.1190767054E-02    0.1611360179E+00    0.5916115361E+00
    0.3100000000E+06    0.5186664264E+00    0.6038116031E-01    0.1155540382E-02    0.1611597384E+00    0.5941407531E+00
    0.3300000000E+06    0.5186779287E+00    0.5887929254E-01    0.1123303281E-02    0.1611814530E+00    0.5964623959E+00
    0.3500000000E+06    0.5186873359E+00    0.5749301221E-01    0.1093650093E-02    0.1612014564E+00    0.5986040948E+00
    0.3700000000E+06    0.5186950312E+00    0.5620783425E-01    0.1066248874E-02    0.1612199849E+00    0.6005885249E+00
    0.3900000000E+06    0.5187013146E+00    0.5501172741E-01    0.1040824926E-02    0.1612372304E+00    0.6024345020E+00
    0.4100000000E+06    0.5187064240E+00    0.5389460008E-01    0.1017148631E-02    0.1612533509E+00    0.6041577951E+00
    0.4300000000E+06    0.5187105497E+00    0.5284791269E-01    0.9950263240E-03    0.1612684776E+00    0.6057717368E+00
    0.4500000000E+06    0.5187138461E+00    0.5186438131E-01    0.9742933216E-03    0.1612827206E+00    0.6072876911E+00
    0.4700000000E+06    0.5187164390E+00    0.5093774792E-01    0.9548085518E-03    0.1612961733E+00    0.6087154147E+00
    0.4900000000E+06    0.5187184322E+00    0.5006260040E-01    0.9364503502E-03    0.1613089154E+00    0.6100633400E+00
    0.1000000000E+06    0.5180290103E+00    0.9280483829E-01    0.1877622011E-02    0.1606355196E+00    0.5436351280E+00
    0.3000000000E+06    0.5186597398E+00    0.6118080273E-01    0.1172751223E-02    0.1611481501E+00    0.5929040494E+00
    0.5000000000E+06    0.5187192313E+00    0.4964283812E-01    0.9276601680E-03    0.1613150418E+00    0.6107097074E+00
    0.7000000000E+06    0.5187184655E+00    0.4307378235E-01    0.7914330578E-03    0.1614127858E+00    0.6208115939E+00
    0.9000000000E+06    0.5187037147E+00    0.3866544362E-01    0.7014983476E-03    0.1614814766E+00    0.6275768920E+00
    0.1100000000E+07    0.5186852743E+00    0.3543314729E-01    0.6363725528E-03    0.1615343019E+00    0.6325304696E+00
    0.1300000000E+07    0.5186662603E+00    0.3292699047E-01    0.5863831936E-03    0.1615771677E+00    0.6363672591E+00
    0.1500000000E+07    0.5186477432E+00    0.3090739157E-01    0.5464380301E-03    0.1616132129E+00    0.6394566589E+00
    0.1700000000E+07    0.5186300891E+00    0.2923315476E-01    0.5135639857E-03    0.1616442998E+00    0.6420160745E+00
    0.1900000000E+07    0.5186133949E+00    0.2781480464E-01    0.4858919645E-03    0.1616716221E+00    0.6441831261E+00
    0.2100000000E+07    0.5185976498E+00    0.2659245381E-01    0.4621795755E-03    0.1616959901E+00    0.6460498432E+00
    0.2300000000E+07    0.5185828005E+00    0.2552426685E-01    0.4415642210E-03    0.1617179784E+00    0.6476804664E+00
    0.2500000000E+07    0.5185687797E+00    0.2457999548E-01    0.4234256331E-03    0.1617380093E+00    0.6491214139E+00
    0.2700000000E+07    0.5185555180E+00    0.2373714119E-01    0.4073047512E-03    0.1617564022E+00    0.6504071918E+00
    0.2900000000E+07    0.5185429493E+00    0.2297856812E-01    0.3928535232E-03    0.1617734041E+00    0.6515640686E+00
    0.3100000000E+07    0.5185310128E+00    0.2229095902E-01    0.3798025908E-03    0.1617892104E+00    0.6526124500E+00
    0.3300000000E+07    0.5185196536E+00    0.2166378308E-01    0.3679397828E-03    0.1618039780E+00    0.6535684656E+00
    0.3500000000E+07    0.5185088222E+00    0.2108858624E-01    0.3570953858E-03    0.1618178348E+00    0.6544450595E+00
    0.3700000000E+07    0.5184984748E+00    0.2055849102E-01    0.3471318040E-03    0.1618308865E+00    0.6552527586E+00
    0.3900000000E+07    0.5184885721E+00    0.2006783640E-01    0.3379361406E-03    0.1618432215E+00    0.6560002250E+00
    0.4100000000E+07    0.5184790792E+00    0.1961191366E-01    0.3294147723E-03    0.1618549143E+00    0.6566946617E+00
    0.4300000000E+07    0.5184699645E+00    0.1918676920E-01    0.3214893141E-03    0.1618660285E+00    0.6573421152E+00
    0.4500000000E+07    0.5184612003E+00    0.1878905520E-01    0.3140935705E-03    0.1618766186E+00    0.6579477041E+00
    0.4700000000E+07    0.5184527612E+00    0.1841591489E-01    0.3071712012E-03    0.1618867318E+00    0.6585157953E+00
    0.4900000000E+07    0.5184446246E+00    0.1806489344E-01    0.3006739112E-03    0.1618964091E+00    0.6590501406E+00
    0.1000000000E+07    0.5186946850E+00    0.3693745084E-01    0.6665928803E-03    0.1615094100E+00    0.6302258049E+00
    0.3000000000E+07    0.5185369056E+00    0.2262660700E-01    0.3861674224E-03    0.1617814462E+00    0.6521007276E+00
    0.5000000000E+07    0.5184406632E+00    0.1789700248E-01    0.2975714228E-03    0.1619010958E+00    0.6593056897E+00
    0.7000000000E+07    0.5183732727E+00    0.1530909236E-01    0.2501886600E-03    0.1619787444E+00    0.6632427683E+00
    0.9000000000E+07    0.5183215051E+00    0.1361303301E-01    0.2196180037E-03    0.1620363353E+00    0.6658209522E+00
    0.1100000000E+08    0.5182794912E+00    0.1238955891E-01    0.1978283397E-03    0.1620821341E+00    0.6676796988E+00
    0.1300000000E+08    0.5182441403E+00    0.1145240644E-01    0.1812995186E-03    0.1621201604E+00    0.6691028375E+00
    0.1500000000E+08    0.5182136286E+00    0.1070436807E-01    0.1682137255E-03    0.1621526747E+00    0.6702383971E+00
    0.1700000000E+08    0.5181867906E+00    0.1008903791E-01    0.1575252989E-03    0.1621810755E+00    0.6711722298E+00
    0.1900000000E+08    0.5181628365E+00    0.9571114963E-02    0.1485846687E-03    0.1622062884E+00    0.6719580434E+00
    0.2100000000E+08    0.5181412065E+00    0.9127214686E-02    0.1409643213E-03    0.1622289578E+00    0.6726314035E+00
    0.2300000000E+08    0.5181214893E+00    0.8741143859E-02    0.1343699145E-03    0.1622495506E+00    0.6732169313E+00
    0.2500000000E+08    0.5181033740E+00    0.8401282423E-02    0.1285913238E-03    0.1622684160E+00    0.6737322902E+00
    0.2700000000E+08    0.5180866197E+00    0.8099044375E-02    0.1234740188E-03    0.1622858215E+00    0.6741905287E+00
