  Pressure (Pa) 22mC5-400 (mol/kg) 2mC6-400 (mol/kg) 33mC5-400 (mol/kg) 23mC5-400 (mol/kg) C7-400 (mol/kg)
    0.1000000000E+01    0.2119490547E-02    0.1582734104E-02    0.3866280239E-03    0.2791194862E-03    0.8517416239E-02
    0.3000000000E+01    0.6290077684E-02    0.4606242610E-02    0.1125398650E-02    0.8283582873E-03    0.2482038393E-01
    0.5000000000E+01    0.1037233455E-01    0.7453377234E-02    0.1821327485E-02    0.1365973374E-02    0.4021712997E-01
    0.7000000000E+01    0.1436954228E-01    0.1013815618E-01    0.2477823096E-02    0.1892396450E-02    0.5478301625E-01
    0.9000000000E+01    0.1828481715E-01    0.1267312205E-01    0.3097934481E-02    0.2408037534E-02    0.6858522415E-01
    0.1100000000E+02    0.2212112082E-01    0.1506953446E-01    0.3684398082E-02    0.2913286300E-02    0.8168383714E-01
    0.1300000000E+02    0.2588126978E-01    0.1733753298E-01    0.4239677548E-02    0.3408513327E-02    0.9413275576E-01
    0.1500000000E+02    0.2956794415E-01    0.1948627566E-01    0.4765997519E-02    0.3894071250E-02    0.1059804746E+00
    0.1700000000E+02    0.3318369582E-01    0.2152405714E-01    0.5265372458E-02    0.4370295836E-02    0.1172707448E+00
    0.1900000000E+02    0.3673095606E-01    0.2345841006E-01    0.5739631360E-02    0.4837506981E-02    0.1280431416E+00
    0.2100000000E+02    0.4021204254E-01    0.2529619221E-01    0.6190439022E-02    0.5296009636E-02    0.1383335519E+00
    0.2300000000E+02    0.4362916589E-01    0.2704366193E-01    0.6619314412E-02    0.5746094672E-02    0.1481745956E+00
    0.2500000000E+02    0.4698443587E-01    0.2870654344E-01    0.7027646599E-02    0.6188039684E-02    0.1575959896E+00
    0.2700000000E+02    0.5027986699E-01    0.3029008375E-01    0.7416708608E-02    0.6622109743E-02    0.1666248648E+00
    0.2900000000E+02    0.5351738392E-01    0.3179910225E-01    0.7787669526E-02    0.7048558092E-02    0.1752860424E+00
    0.3100000000E+02    0.5669882638E-01    0.3323803430E-01    0.8141605092E-02    0.7467626803E-02    0.1836022750E+00
    0.3300000000E+02    0.5982595383E-01    0.3461096937E-01    0.8479507009E-02    0.7879547388E-02    0.1915944585E+00
    0.3500000000E+02    0.6290044982E-01    0.3592168478E-01    0.8802291142E-02    0.8284541368E-02    0.1992818183E+00
    0.3700000000E+02    0.6592392601E-01    0.3717367544E-01    0.9110804768E-02    0.8682820810E-02    0.2066820735E+00
    0.3900000000E+02    0.6889792603E-01    0.3837018021E-01    0.9405832987E-02    0.9074588828E-02    0.2138115821E+00
    0.4100000000E+02    0.7182392903E-01    0.3951420535E-01    0.9688104428E-02    0.9460040051E-02    0.2206854699E+00
    0.4300000000E+02    0.7470335299E-01    0.4060854536E-01    0.9958296323E-02    0.9839361065E-02    0.2273177444E+00
    0.4500000000E+02    0.7753755792E-01    0.4165580163E-01    0.1021703904E-01    0.1021273082E-01    0.2337213970E+00
    0.4700000000E+02    0.8032784879E-01    0.4265839907E-01    0.1046492012E-01    0.1058032104E-01    0.2399084938E+00
    0.4900000000E+02    0.8307547827E-01    0.4361860107E-01    0.1070248793E-01    0.1094229656E-01    0.2458902569E+00
    0.1000000000E+02    0.2021266105E-01    0.1388798919E-01    0.3395212305E-02    0.2661937362E-02    0.7521897603E-01
    0.3000000000E+02    0.5511500266E-01    0.3252706580E-01    0.7966701628E-02    0.7259000192E-02    0.1794859296E+00
    0.5000000000E+02    0.8443367281E-01    0.4408347026E-01    0.1081756582E-01    0.1112122851E-01    0.2488074324E+00
    0.7000000000E+02    0.1096265174E+00    0.5160183226E-01    0.1268589018E-01    0.1444044987E-01    0.2985622186E+00
    0.9000000000E+02    0.1316670994E+00    0.5661322542E-01    0.1394253903E-01    0.1734477387E-01    0.3362100866E+00
    0.1100000000E+03    0.1512313379E+00    0.5997653821E-01    0.1479556907E-01    0.1992314699E-01    0.3658182581E+00
    0.1300000000E+03    0.1688040465E+00    0.6221148211E-01    0.1537097941E-01    0.2223936962E-01    0.3897987407E+00
    0.1500000000E+03    0.1847427520E+00    0.6365045041E-01    0.1574947766E-01    0.2434049294E-01    0.4096757849E+00
    0.1700000000E+03    0.1993175084E+00    0.6451520468E-01    0.1598502411E-01    0.2626205750E-01    0.4264618012E+00
    0.1900000000E+03    0.2127366125E+00    0.6495869240E-01    0.1611493564E-01    0.2803147699E-01    0.4408567434E+00
    0.2100000000E+03    0.2251637199E+00    0.6508925747E-01    0.1616573263E-01    0.2967029041E-01    0.4533607717E+00
    0.2300000000E+03    0.2367295400E+00    0.6498534598E-01    0.1615668980E-01    0.3119570102E-01    0.4643412924E+00
    0.2500000000E+03    0.2475400130E+00    0.6470479711E-01    0.1610207994E-01    0.3262165244E-01    0.4740746039E+00
    0.2700000000E+03    0.2576821477E+00    0.6429090878E-01    0.1601263933E-01    0.3395959675E-01    0.4827727263E+00
    0.2900000000E+03    0.2672282645E+00    0.6377650978E-01    0.1589655223E-01    0.3521905298E-01    0.4906012363E+00
    0.3100000000E+03    0.2762391318E+00    0.6318675959E-01    0.1576012836E-01    0.3640801980E-01    0.4976914461E+00
    0.3300000000E+03    0.2847663202E+00    0.6254111414E-01    0.1560827922E-01    0.3753328535E-01    0.5041489213E+00
    0.3500000000E+03    0.2928539920E+00    0.6185473118E-01    0.1544485901E-01    0.3860066276E-01    0.5100595642E+00
    0.3700000000E+03    0.3005402806E+00    0.6113949153E-01    0.1527291286E-01    0.3961517165E-01    0.5154940393E+00
    0.3900000000E+03    0.3078583646E+00    0.6040475186E-01    0.1509486011E-01    0.4058117954E-01    0.5205110482E+00
    0.4100000000E+03    0.3148373140E+00    0.5965790676E-01    0.1491263150E-01    0.4150251320E-01    0.5251597887E+00
    0.4300000000E+03    0.3215027632E+00    0.5890481337E-01    0.1472777303E-01    0.4238254718E-01    0.5294818275E+00
    0.4500000000E+03    0.3278774509E+00    0.5815011540E-01    0.1454152544E-01    0.4322427497E-01    0.5335125432E+00
    0.4700000000E+03    0.3339816576E+00    0.5739749293E-01    0.1435488566E-01    0.4403036646E-01    0.5372822522E+00
    0.4900000000E+03    0.3398335626E+00    0.5664985647E-01    0.1416865471E-01    0.4480321499E-01    0.5408170945E+00
    0.1000000000E+03    0.1417248797E+00    0.5846275783E-01    0.1441026467E-01    0.1867024555E-01    0.3518413069E+00
    0.3000000000E+03    0.2717971889E+00    0.6348972260E-01    0.1583054719E-01    0.3582189800E-01    0.4942315084E+00
    0.5000000000E+03    0.3426700817E+00    0.5627864521E-01    0.1407589872E-01    0.4517785509E-01    0.5425036441E+00
    0.7000000000E+03    0.3894001626E+00    0.4945688194E-01    0.1234206800E-01    0.5135272270E-01    0.5680951830E+00
    0.9000000000E+03    0.4227391117E+00    0.4395697113E-01    0.1090987842E-01    0.5576219454E-01    0.5843549972E+00
    0.1100000000E+04    0.4476594933E+00    0.3959984213E-01    0.9756633532E-02    0.5906124498E-01    0.5957698306E+00
    0.1300000000E+04    0.4669124160E+00    0.3611761745E-01    0.8824556654E-02    0.6161237635E-01    0.6043090447E+00
    0.1500000000E+04    0.4821725450E+00    0.3329267492E-01    0.8062644716E-02    0.6363633272E-01    0.6109851096E+00
    0.1700000000E+04    0.4945225870E+00    0.3096447916E-01    0.7431631776E-02    0.6527588052E-01    0.6163766390E+00
    0.1900000000E+04    0.5046933330E+00    0.2901674755E-01    0.6902247159E-02    0.6662741569E-01    0.6208404754E+00
    0.2100000000E+04    0.5131948172E+00    0.2736489972E-01    0.6452738692E-02    0.6775823783E-01    0.6246097438E+00
    0.2300000000E+04    0.5203928805E+00    0.2594668465E-01    0.6066824783E-02    0.6871663619E-01    0.6278437837E+00
    0.2500000000E+04    0.5265560809E+00    0.2471562656E-01    0.5732183350E-02    0.6953807091E-01    0.6306555427E+00
    0.2700000000E+04    0.5318855460E+00    0.2363651226E-01    0.5439373635E-02    0.7024910738E-01    0.6331275213E+00
    0.2900000000E+04    0.5365345693E+00    0.2268227688E-01    0.5181072217E-02    0.7086999966E-01    0.6353215161E+00
    0.3100000000E+04    0.5406218181E+00    0.2183183434E-01    0.4951529551E-02    0.7141643188E-01    0.6372848166E+00
    0.3300000000E+04    0.5442404410E+00    0.2106854704E-01    0.4746180056E-02    0.7190071943E-01    0.6390542841E+00
    0.3500000000E+04    0.5474644759E+00    0.2037913198E-01    0.4561359374E-02    0.7233265427E-01    0.6406591165E+00
    0.3700000000E+04    0.5503534410E+00    0.1975286824E-01    0.4394097004E-02    0.7272011064E-01    0.6421227693E+00
    0.3900000000E+04    0.5529556776E+00    0.1918101521E-01    0.4241962465E-02    0.7306948617E-01    0.6434643224E+00
    0.4100000000E+04    0.5553108198E+00    0.1865638003E-01    0.4102949882E-02    0.7338602792E-01    0.6446994697E+00
    0.4300000000E+04    0.5574516443E+00    0.1817299233E-01    0.3975390465E-02    0.7367407654E-01    0.6458412499E+00
    0.4500000000E+04    0.5594054725E+00    0.1772585665E-01    0.3857885450E-02    0.7393725148E-01    0.6469005937E+00
    0.4700000000E+04    0.5611952461E+00    0.1731076210E-01    0.3749254218E-02    0.7417859297E-01    0.6478867401E+00
    0.4900000000E+04    0.5628403597E+00    0.1692413465E-01    0.3648493783E-02    0.7440067207E-01    0.6488075565E+00
    0.1000000000E+04    0.4360460089E+00    0.4165304476E-01    0.1030199167E-01    0.5752343244E-01    0.5905125387E+00
    0.3000000000E+04    0.5386420813E+00    0.2224521106E-01    0.5063015392E-02    0.7115168591E-01    0.6363294923E+00
    0.5000000000E+04    0.5636139234E+00    0.1674052429E-01    0.3600792257E-02    0.7450518497E-01    0.6492456121E+00
    0.7000000000E+04    0.5744397864E+00    0.1401259856E-01    0.2905509507E-02    0.7597551524E-01    0.6558019838E+00
    0.9000000000E+04    0.5804148841E+00    0.1231927224E-01    0.2489368132E-02    0.7679641579E-01    0.6598957601E+00
    0.1100000000E+05    0.5841832349E+00    0.1113696563E-01    0.2207321874E-02    0.7732017120E-01    0.6627468276E+00
    0.1300000000E+05    0.5867696801E+00    0.1025027754E-01    0.2000857973E-02    0.7768385390E-01    0.6648719626E+00
    0.1500000000E+05    0.5886517372E+00    0.9552702782E-02    0.1841645133E-02    0.7795157851E-01    0.6665312789E+00
    0.1700000000E+05    0.5900810677E+00    0.8984814872E-02    0.1714189428E-02    0.7815726606E-01    0.6678713880E+00
    0.1900000000E+05    0.5912025840E+00    0.8510497012E-02    0.1609246890E-02    0.7832052534E-01    0.6689818538E+00
    0.2100000000E+05    0.5921055001E+00    0.8106357151E-02    0.1520930221E-02    0.7845347567E-01    0.6699207960E+00
    0.2300000000E+05    0.5928476909E+00    0.7756481017E-02    0.1445294613E-02    0.7856400999E-01    0.6707277476E+00
    0.2500000000E+05    0.5934683151E+00    0.7449609407E-02    0.1379587320E-02    0.7865748980E-01    0.6714306328E+00
    0.2700000000E+05    0.5939948007E+00    0.7177518331E-02    0.1321822634E-02    0.7873768526E-01    0.6720497973E+00
    0.2900000000E+05    0.5944469240E+00    0.6934039536E-02    0.1270528038E-02    0.7880732546E-01    0.6726004530E+00
    0.3100000000E+05    0.5948392987E+00    0.6714442066E-02    0.1224585793E-02    0.7886843509E-01    0.6730942265E+00
    0.3300000000E+05    0.5951829550E+00    0.6515027340E-02    0.1183130341E-02    0.7892254833E-01    0.6735401732E+00
    0.3500000000E+05    0.5954863726E+00    0.6332855680E-02    0.1145479715E-02    0.7897084924E-01    0.6739454623E+00
    0.3700000000E+05    0.5957561761E+00    0.6165556621E-02    0.1111088419E-02    0.7901426656E-01    0.6743158521E+00
    0.3900000000E+05    0.5959976157E+00    0.6011194222E-02    0.1079514272E-02    0.7905353918E-01    0.6746560267E+00
    0.4100000000E+05    0.5962149050E+00    0.5868169465E-02    0.1050394576E-02    0.7908926247E-01    0.6749698397E+00
    0.4300000000E+05    0.5964114649E+00    0.5735148217E-02    0.1023428669E-02    0.7912192165E-01    0.6752604938E+00
    0.4500000000E+05    0.5965901007E+00    0.5611007210E-02    0.9983649371E-03    0.7915191624E-01    0.6755306751E+00
    0.4700000000E+05    0.5967531353E+00    0.5494792920E-02    0.9749909991E-03    0.7917957828E-01    0.6757826553E+00
    0.4900000000E+05    0.5969025074E+00    0.5385689861E-02    0.9531261847E-03    0.7920518605E-01    0.6760183700E+00
    0.1000000000E+05    0.5824916421E+00    0.1168146621E-01    0.2336288461E-02    0.7708431166E-01    0.6614355484E+00
    0.3000000000E+05    0.5946498206E+00    0.6821507289E-02    0.1246946947E-02    0.7883884114E-01    0.6728538331E+00
    0.5000000000E+05    0.5969725903E+00    0.5333581746E-02    0.9427104481E-03    0.7921729449E-01    0.6761306561E+00
    0.7000000000E+05    0.5979440719E+00    0.4536220086E-02    0.7855242836E-03    0.7939327087E-01    0.6778245084E+00
    0.9000000000E+05    0.5984734761E+00    0.4019204350E-02    0.6858477835E-03    0.7949896490E-01    0.6788973228E+00
    0.1100000000E+06    0.5988045783E+00    0.3648768399E-02    0.6155538984E-03    0.7957134172E-01    0.6796530684E+00
    0.1300000000E+06    0.5990300581E+00    0.3366380363E-02    0.5626204757E-03    0.7962501626E-01    0.6802217338E+00
    0.1500000000E+06    0.5991927729E+00    0.3141792974E-02    0.5209389849E-03    0.7966700425E-01    0.6806693098E+00
    0.1700000000E+06    0.5993152361E+00    0.2957578393E-02    0.4870356690E-03    0.7970112630E-01    0.6810332778E+00
    0.1900000000E+06    0.5994103913E+00    0.2802888220E-02    0.4587711374E-03    0.7972965701E-01    0.6813366931E+00
    0.2100000000E+06    0.5994862001E+00    0.2670566872E-02    0.4347468406E-03    0.7975404366E-01    0.6815946101E+00
    0.2300000000E+06    0.5995478233E+00    0.2555676705E-02    0.4140051348E-03    0.7977525592E-01    0.6818173265E+00
    0.2500000000E+06    0.5995987502E+00    0.2454684995E-02    0.3958654725E-03    0.7979397079E-01    0.6820121537E+00
    0.2700000000E+06    0.5996414224E+00    0.2364988040E-02    0.3798292787E-03    0.7981067714E-01    0.6821844441E+00
    0.2900000000E+06    0.5996775984E+00    0.2284618647E-02    0.3655218920E-03    0.7982573802E-01    0.6823382170E+00
    0.3100000000E+06    0.5997085758E+00    0.2212058910E-02    0.3526556366E-03    0.7983942952E-01    0.6824765568E+00
    0.3300000000E+06    0.5997353327E+00    0.2146116221E-02    0.3410055012E-03    0.7985196591E-01    0.6826018748E+00
    0.3500000000E+06    0.5997586195E+00    0.2085838717E-02    0.3303926386E-03    0.7986351644E-01    0.6827160870E+00
    0.3700000000E+06    0.5997790214E+00    0.2030456131E-02    0.3206728782E-03    0.7987421686E-01    0.6828207370E+00
    0.3900000000E+06    0.5997970011E+00    0.1979337513E-02    0.3117285466E-03    0.7988417753E-01    0.6829170848E+00
    0.4100000000E+06    0.5998129292E+00    0.1931960386E-02    0.3034625278E-03    0.7989348927E-01    0.6830061695E+00
    0.4300000000E+06    0.5998271058E+00    0.1887887868E-02    0.2957938714E-03    0.7990222762E-01    0.6830888575E+00
    0.4500000000E+06    0.5998397763E+00    0.1846751431E-02    0.2886544951E-03    0.7991045603E-01    0.6831658772E+00
    0.4700000000E+06    0.5998511435E+00    0.1808237726E-02    0.2819866733E-03    0.7991822824E-01    0.6832378461E+00
    0.4900000000E+06    0.5998613760E+00    0.1772078386E-02    0.2757410984E-03    0.7992559015E-01    0.6833052916E+00
    0.1000000000E+06    0.5986562655E+00    0.3820281381E-02    0.6479813144E-03    0.7953813922E-01    0.6793045200E+00
    0.3000000000E+06    0.5996936696E+00    0.2247443592E-02    0.3589239316E-03    0.7983274033E-01    0.6824091519E+00
    0.5000000000E+06    0.5998661119E+00    0.1754808036E-02    0.2727631677E-03    0.7992912979E-01    0.6833374623E+00
    0.7000000000E+06    0.5999260186E+00    0.1490578133E-02    0.2276306917E-03    0.7998560519E-01    0.6838262049E+00
    0.9000000000E+06    0.5999515964E+00    0.1319399052E-02    0.1988555336E-03    0.8002528739E-01    0.6841393106E+00
    0.1100000000E+07    0.5999629744E+00    0.1196881113E-02    0.1785086821E-03    0.8005579555E-01    0.6843616685E+00
    0.1300000000E+07    0.5999674555E+00    0.1103576267E-02    0.1631644192E-03    0.8008054451E-01    0.6845300134E+00
    0.1500000000E+07    0.5999682467E+00    0.1029434282E-02    0.1510714278E-03    0.8010134963E-01    0.6846631601E+00
    0.1700000000E+07    0.5999669402E+00    0.9686668432E-03    0.1412299337E-03    0.8011928814E-01    0.6847718698E+00
    0.1900000000E+07    0.5999643969E+00    0.9176729140E-03    0.1330226062E-03    0.8013505053E-01    0.6848628000E+00
    0.2100000000E+07    0.5999611121E+00    0.8740787132E-03    0.1260451523E-03    0.8014910543E-01    0.6849403188E+00
    0.2300000000E+07    0.5999573842E+00    0.8362472284E-03    0.1200203699E-03    0.8016178525E-01    0.6850074265E+00
    0.2500000000E+07    0.5999533997E+00    0.8030079160E-03    0.1147510717E-03    0.8017333419E-01    0.6850662613E+00
    0.2700000000E+07    0.5999492777E+00    0.7734985330E-03    0.1100926891E-03    0.8018393687E-01    0.6851183932E+00
    0.2900000000E+07    0.5999450961E+00    0.7470679606E-03    0.1059365215E-03    0.8019373621E-01    0.6851650046E+00
    0.3100000000E+07    0.5999409064E+00    0.7232140338E-03    0.1021990679E-03    0.8020284508E-01    0.6852070054E+00
    0.3300000000E+07    0.5999367428E+00    0.7015423840E-03    0.9881499396E-04    0.8021135418E-01    0.6852451083E+00
    0.3500000000E+07    0.5999326279E+00    0.6817383841E-03    0.9573235485E-04    0.8021933745E-01    0.6852798810E+00
    0.3700000000E+07    0.5999285766E+00    0.6635475345E-03    0.9290926835E-04    0.8022685600E-01    0.6853117818E+00
    0.3900000000E+07    0.5999245983E+00    0.6467614426E-03    0.9031154392E-04    0.8023396086E-01    0.6853411852E+00
    0.4100000000E+07    0.5999206989E+00    0.6312076035E-03    0.8791096017E-04    0.8024069512E-01    0.6853684008E+00
    0.4300000000E+07    0.5999168816E+00    0.6167418210E-03    0.8568399087E-04    0.8024709547E-01    0.6853936872E+00
    0.4500000000E+07    0.5999131476E+00    0.6032424970E-03    0.8361084801E-04    0.8025319343E-01    0.6854172619E+00
    0.4700000000E+07    0.5999094971E+00    0.5906062703E-03    0.8167475258E-04    0.8025901624E-01    0.6854393096E+00
    0.4900000000E+07    0.5999059293E+00    0.5787446417E-03    0.7986137186E-04    0.8026458764E-01    0.6854599883E+00
    0.1000000000E+07    0.5999584579E+00    0.1253591541E-02    0.1878996684E-03    0.8004142086E-01    0.6842589274E+00
    0.3000000000E+07    0.5999429998E+00    0.7348457121E-03    0.1040199000E-03    0.8019837084E-01    0.6851865329E+00
    0.5000000000E+07    0.5999041760E+00    0.5730800475E-03    0.7899677932E-04    0.8026728565E-01    0.6854698576E+00
    0.7000000000E+07    0.5998729676E+00    0.4864733151E-03    0.6589692286E-04    0.8031197046E-01    0.6856202566E+00
    0.9000000000E+07    0.5998476104E+00    0.4304258735E-03    0.5754906174E-04    0.8034509377E-01    0.6857170742E+00
    0.1100000000E+08    0.5998263835E+00    0.3903401734E-03    0.5164868722E-04    0.8037142387E-01    0.6857860583E+00
    0.1300000000E+08    0.5998081655E+00    0.3598287876E-03    0.4720045922E-04    0.8039327831E-01    0.6858384130E+00
    0.1500000000E+08    0.5997922222E+00    0.3355938477E-03    0.4369570015E-04    0.8041195990E-01    0.6858799001E+00
    0.1700000000E+08    0.5997780537E+00    0.3157372962E-03    0.4084410825E-04    0.8042827426E-01    0.6859138251E+00
    0.1900000000E+08    0.5997653069E+00    0.2990789627E-03    0.3846647888E-04    0.8044275450E-01    0.6859422378E+00
    0.2100000000E+08    0.5997537235E+00    0.2848412391E-03    0.3644547799E-04    0.8045577174E-01    0.6859664862E+00
    0.2300000000E+08    0.5997431095E+00    0.2724880747E-03    0.3470067303E-04    0.8046759472E-01    0.6859874974E+00
    0.2500000000E+08    0.5997333153E+00    0.2616362928E-03    0.3317485946E-04    0.8047842435E-01    0.6860059334E+00
    0.2700000000E+08    0.5997242236E+00    0.2520037191E-03    0.3182610472E-04    0.8048841473E-01    0.6860222808E+00
