  Pressure (Pa) 22mC5-400 (mol/kg) 2mC6-400 (mol/kg) 33mC5-400 (mol/kg) 23mC5-400 (mol/kg) C7-400 (mol/kg)
    0.1000000000E+01    0.2111056221E-02    0.5554032578E-02    0.1291982686E-03    0.5560186373E-03    0.1712860493E-02
    0.3000000000E+01    0.6217027071E-02    0.1624547067E-01    0.3778834962E-03    0.1637485855E-02    0.5044651491E-02
    0.5000000000E+01    0.1017690659E-01    0.2641346964E-01    0.6143672069E-03    0.2680499539E-02    0.8257380435E-02
    0.7000000000E+01    0.1400037054E-01    0.3609349517E-01    0.8394755749E-03    0.3687606171E-02    0.1135794839E-01
    0.9000000000E+01    0.1769623063E-01    0.4531791001E-01    0.1053962524E-02    0.4661124854E-02    0.1435272218E-01
    0.1100000000E+02    0.2127252958E-01    0.5411630541E-01    0.1258517439E-02    0.5603172321E-02    0.1724758550E-01
    0.1300000000E+02    0.2473662385E-01    0.6251579083E-01    0.1453771913E-02    0.6515684707E-02    0.2004798425E-01
    0.1500000000E+02    0.2809525589E-01    0.7054124815E-01    0.1640305665E-02    0.7400436563E-02    0.2275896681E-01
    0.1700000000E+02    0.3135461745E-01    0.7821555520E-01    0.1818651739E-02    0.8259057509E-02    0.2538521999E-01
    0.1900000000E+02    0.3452040516E-01    0.8555978298E-01    0.1989301101E-02    0.9093046871E-02    0.2793110107E-01
    0.2100000000E+02    0.3759786953E-01    0.9259336999E-01    0.2152706696E-02    0.9903786563E-02    0.3040066652E-01
    0.2300000000E+02    0.4059185821E-01    0.9933427682E-01    0.2309287044E-02    0.1069255248E-01    0.3279769775E-01
    0.2500000000E+02    0.4350685425E-01    0.1057991235E+00    0.2459429444E-02    0.1146052456E-01    0.3512572423E-01
    0.2700000000E+02    0.4634701019E-01    0.1120033118E+00    0.2603492815E-02    0.1220879576E-01    0.3738804433E-01
    0.2900000000E+02    0.4911617820E-01    0.1179611345E+00    0.2741810244E-02    0.1293837999E-01    0.3958774409E-01
    0.3100000000E+02    0.5181793715E-01    0.1236858727E+00    0.2874691256E-02    0.1365021924E-01    0.4172771421E-01
    0.3300000000E+02    0.5445561668E-01    0.1291898841E+00    0.3002423857E-02    0.1434518988E-01    0.4381066543E-01
    0.3500000000E+02    0.5703231878E-01    0.1344846806E+00    0.3125276360E-02    0.1502410838E-01    0.4583914241E-01
    0.3700000000E+02    0.5955093717E-01    0.1395810001E+00    0.3243499034E-02    0.1568773642E-01    0.4781553643E-01
    0.3900000000E+02    0.6201417473E-01    0.1444888692E+00    0.3357325589E-02    0.1633678542E-01    0.4974209688E-01
    0.4100000000E+02    0.6442455919E-01    0.1492176616E+00    0.3466974517E-02    0.1697192071E-01    0.5162094172E-01
    0.4300000000E+02    0.6678445726E-01    0.1537761499E+00    0.3572650303E-02    0.1759376525E-01    0.5345406708E-01
    0.4500000000E+02    0.6909608747E-01    0.1581725525E+00    0.3674544526E-02    0.1820290300E-01    0.5524335595E-01
    0.4700000000E+02    0.7136153175E-01    0.1624145768E+00    0.3772836856E-02    0.1879988196E-01    0.5699058620E-01
    0.4900000000E+02    0.7358274592E-01    0.1665094580E+00    0.3867695959E-02    0.1938521694E-01    0.5869743790E-01
    0.1000000000E+02    0.1949885028E-01    0.4976861077E-01    0.1157440729E-02    0.5135957483E-02    0.1581229251E-01
    0.3000000000E+02    0.5047527013E-01    0.1208518461E+00    0.2808911820E-02    0.1329646150E-01    0.4066502189E-01
    0.5000000000E+02    0.7467734580E-01    0.1685038605E+00    0.3913887955E-02    0.1967367037E-01    0.5953622173E-01
    0.7000000000E+02    0.9464060588E-01    0.2021174416E+00    0.4691301847E-02    0.2493496784E-01    0.7453573147E-01
    0.9000000000E+02    0.1117290680E+00    0.2267050617E+00    0.5258024117E-02    0.2943940165E-01    0.8686818730E-01
    0.1100000000E+03    0.1267475411E+00    0.2451778481E+00    0.5681951460E-02    0.3339883022E-01    0.9727453464E-01
    0.1300000000E+03    0.1402049408E+00    0.2593376941E+00    0.6005123273E-02    0.3694722596E-01    0.1062373210E+00
    0.1500000000E+03    0.1524409347E+00    0.2703568138E+00    0.6254897659E-02    0.4017400952E-01    0.1140853848E+00
    0.1700000000E+03    0.1636922854E+00    0.2790288935E+00    0.6449805482E-02    0.4314151245E-01    0.1210512318E+00
    0.1900000000E+03    0.1741300306E+00    0.2859092637E+00    0.6602818073E-02    0.4589476410E-01    0.1273043601E+00
    0.2100000000E+03    0.1838814922E+00    0.2913972909E+00    0.6723268220E-02    0.4846728517E-01    0.1329715615E+00
    0.2300000000E+03    0.1930439088E+00    0.2957869393E+00    0.6818029162E-02    0.5088467648E-01    0.1381497937E+00
    0.2500000000E+03    0.2016932087E+00    0.2992989498E+00    0.6892265044E-02    0.5316692852E-01    0.1429146260E+00
    0.2700000000E+03    0.2098898431E+00    0.3021019686E+00    0.6949923720E-02    0.5532995702E-01    0.1473259445E+00
    0.2900000000E+03    0.2176827747E+00    0.3043268021E+00    0.6994069275E-02    0.5738665302E-01    0.1514319066E+00
    0.3100000000E+03    0.2251122729E+00    0.3060762634E+00    0.7027111756E-02    0.5934761883E-01    0.1552717445E+00
    0.3300000000E+03    0.2322119164E+00    0.3074321191E+00    0.7050969265E-02    0.6122169515E-01    0.1588777914E+00
    0.3500000000E+03    0.2390100540E+00    0.3084600812E+00    0.7067184472E-02    0.6301634580E-01    0.1622769746E+00
    0.3700000000E+03    0.2455308905E+00    0.3092134559E+00    0.7077009777E-02    0.6473794353E-01    0.1654919305E+00
    0.3900000000E+03    0.2517953047E+00    0.3097358493E+00    0.7081470506E-02    0.6639198544E-01    0.1685418518E+00
    0.4100000000E+03    0.2578214757E+00    0.3100632034E+00    0.7081412445E-02    0.6798325780E-01    0.1714431387E+00
    0.4300000000E+03    0.2636253672E+00    0.3102253453E+00    0.7077538043E-02    0.6951596368E-01    0.1742099049E+00
    0.4500000000E+03    0.2692211074E+00    0.3102471808E+00    0.7070434297E-02    0.7099382286E-01    0.1768543762E+00
    0.4700000000E+03    0.2746212896E+00    0.3101496224E+00    0.7060594461E-02    0.7242015103E-01    0.1793872070E+00
    0.4900000000E+03    0.2798372124E+00    0.3099503190E+00    0.7048435102E-02    0.7379792305E-01    0.1818177343E+00
    0.1000000000E+03    0.1194602035E+00    0.2365743561E+00    0.5484770586E-02    0.3147754098E-01    0.9227745006E-01
    0.3000000000E+03    0.2214407168E+00    0.3052554168E+00    0.7011848535E-02    0.5837851344E-01    0.1533829282E+00
    0.5000000000E+03    0.2823793019E+00    0.3098172804E+00    0.7041598196E-02    0.7446944972E-01    0.1829972430E+00
    0.7000000000E+03    0.3255893528E+00    0.3044533461E+00    0.6845452132E-02    0.8588842282E-01    0.2027802255E+00
    0.9000000000E+03    0.3579598208E+00    0.2972983260E+00    0.6615516431E-02    0.9444942864E-01    0.2177770932E+00
    0.1100000000E+04    0.3829562737E+00    0.2902576269E+00    0.6396404151E-02    0.1010652811E+00    0.2299293660E+00
    0.1300000000E+04    0.4026870146E+00    0.2838019047E+00    0.6198400985E-02    0.1062914959E+00    0.2401866665E+00
    0.1500000000E+04    0.4185440248E+00    0.2779981564E+00    0.6022118209E-02    0.1104949787E+00    0.2490851465E+00
    0.1700000000E+04    0.4314871955E+00    0.2727959792E+00    0.5865426707E-02    0.1139288314E+00    0.2569579847E+00
    0.1900000000E+04    0.4421976206E+00    0.2681172317E+00    0.5725645685E-02    0.1167727029E+00    0.2640269359E+00
    0.2100000000E+04    0.4511692782E+00    0.2638848913E+00    0.5600242195E-02    0.1191569298E+00    0.2704473946E+00
    0.2300000000E+04    0.4587671075E+00    0.2600314527E+00    0.5487023961E-02    0.1211778312E+00    0.2763327017E+00
    0.2500000000E+04    0.4652651419E+00    0.2565002724E+00    0.5384156933E-02    0.1229077553E+00    0.2817682123E+00
    0.2700000000E+04    0.4708722023E+00    0.2532446045E+00    0.5290126554E-02    0.1244018501E+00    0.2868199081E+00
    0.2900000000E+04    0.4757495678E+00    0.2502260498E+00    0.5203686213E-02    0.1257027205E+00    0.2915399145E+00
    0.3100000000E+04    0.4800233465E+00    0.2474130262E+00    0.5123808230E-02    0.1268436902E+00    0.2959701736E+00
    0.3300000000E+04    0.4837932733E+00    0.2447794472E+00    0.5049641909E-02    0.1278511218E+00    0.3001449674E+00
    0.3500000000E+04    0.4871390588E+00    0.2423036396E+00    0.4980479221E-02    0.1287460908E+00    0.3040926995E+00
    0.3700000000E+04    0.4901250328E+00    0.2399674777E+00    0.4915727289E-02    0.1295456114E+00    0.3078371839E+00
    0.3900000000E+04    0.4928035825E+00    0.2377556982E+00    0.4854886516E-02    0.1302635429E+00    0.3113985961E+00
    0.4100000000E+04    0.4952177281E+00    0.2356553595E+00    0.4797533230E-02    0.1309112702E+00    0.3147941879E+00
    0.4300000000E+04    0.4974030743E+00    0.2336554142E+00    0.4743305909E-02    0.1314982184E+00    0.3180388339E+00
    0.4500000000E+04    0.4993893031E+00    0.2317463704E+00    0.4691894203E-02    0.1320322471E+00    0.3211454544E+00
    0.4700000000E+04    0.5012013272E+00    0.2299200212E+00    0.4643030147E-02    0.1325199552E+00    0.3241253482E+00
    0.4900000000E+04    0.5028601890E+00    0.2281692290E+00    0.4596481095E-02    0.1329669181E+00    0.3269884561E+00
    0.1000000000E+04    0.3712264485E+00    0.2937188614E+00    0.6503594299E-02    0.9796009742E-01    0.2241358638E+00
    0.3000000000E+04    0.4779551382E+00    0.2487955920E+00    0.5162983805E-02    0.1262914043E+00    0.2937889641E+00
    0.5000000000E+04    0.5036378786E+00    0.2273201850E+00    0.4574010221E-02    0.1331766293E+00    0.3283790036E+00
    0.7000000000E+04    0.5143358230E+00    0.2131324770E+00    0.4208169978E-02    0.1360764095E+00    0.3517471634E+00
    0.9000000000E+04    0.5200550672E+00    0.2024538973E+00    0.3943970471E-02    0.1376449001E+00    0.3693860234E+00
    0.1100000000E+05    0.5235741675E+00    0.1938757644E+00    0.3737851485E-02    0.1386217534E+00    0.3835192276E+00
    0.1300000000E+05    0.5259427660E+00    0.1867095251E+00    0.3569386271E-02    0.1392874136E+00    0.3952798837E+00
    0.1500000000E+05    0.5276390575E+00    0.1805625177E+00    0.3427342296E-02    0.1397701309E+00    0.4053268250E+00
    0.1700000000E+05    0.5289102745E+00    0.1751877772E+00    0.3304867290E-02    0.1401364707E+00    0.4140779070E+00
    0.1900000000E+05    0.5298964659E+00    0.1704191139E+00    0.3197466193E-02    0.1404242901E+00    0.4218151027E+00
    0.2100000000E+05    0.5306826427E+00    0.1661390151E+00    0.3102027953E-02    0.1406566620E+00    0.4287377772E+00
    0.2300000000E+05    0.5313232792E+00    0.1622611740E+00    0.3016308932E-02    0.1408484316E+00    0.4349921215E+00
    0.2500000000E+05    0.5318548365E+00    0.1587202673E+00    0.2938637415E-02    0.1410095767E+00    0.4406885239E+00
    0.2700000000E+05    0.5323026099E+00    0.1554656289E+00    0.2867734373E-02    0.1411470483E+00    0.4459123724E+00
    0.2900000000E+05    0.5326846817E+00    0.1524571539E+00    0.2802599483E-02    0.1412658362E+00    0.4507310643E+00
    0.3100000000E+05    0.5330143112E+00    0.1496625467E+00    0.2742435763E-02    0.1413696150E+00    0.4551987183E+00
    0.3300000000E+05    0.5333014365E+00    0.1470554148E+00    0.2686598104E-02    0.1414611505E+00    0.4593594383E+00
    0.3500000000E+05    0.5335536486E+00    0.1446139121E+00    0.2634557117E-02    0.1415425643E+00    0.4632496327E+00
    0.3700000000E+05    0.5337768438E+00    0.1423197522E+00    0.2585873140E-02    0.1416155115E+00    0.4668996990E+00
    0.3900000000E+05    0.5339756693E+00    0.1401574761E+00    0.2540177149E-02    0.1416813021E+00    0.4703352721E+00
    0.4100000000E+05    0.5341538366E+00    0.1381138991E+00    0.2497156484E-02    0.1417409869E+00    0.4735781646E+00
    0.4300000000E+05    0.5343143446E+00    0.1361776870E+00    0.2456544004E-02    0.1417954185E+00    0.4766470866E+00
    0.4500000000E+05    0.5344596422E+00    0.1343390268E+00    0.2418109724E-02    0.1418452965E+00    0.4795582038E+00
    0.4700000000E+05    0.5345917487E+00    0.1325893669E+00    0.2381654282E-02    0.1418911997E+00    0.4823255757E+00
    0.4900000000E+05    0.5347123432E+00    0.1309212112E+00    0.2347003786E-02    0.1419336120E+00    0.4849615037E+00
    0.1000000000E+05    0.5220038304E+00    0.1979550420E+00    0.3835233763E-02    0.1381843781E+00    0.3768046453E+00
    0.3000000000E+05    0.5328553661E+00    0.1510348866E+00    0.2771939622E-02    0.1413194112E+00    0.4530058107E+00
    0.5000000000E+05    0.5347687725E+00    0.1301156019E+00    0.2330306981E-02    0.1419536388E+00    0.4862336096E+00
    0.7000000000E+05    0.5355392996E+00    0.1170242606E+00    0.2062309056E-02    0.1422427163E+00    0.5068296396E+00
    0.9000000000E+05    0.5359471301E+00    0.1076946512E+00    0.1875077908E-02    0.1424145981E+00    0.5214262839E+00
    0.1100000000E+06    0.5361956079E+00    0.1005525604E+00    0.1733836726E-02    0.1425315862E+00    0.5325588813E+00
    0.1300000000E+06    0.5363606199E+00    0.9482861249E-01    0.1621950652E-02    0.1426179963E+00    0.5414567135E+00
    0.1500000000E+06    0.5364767583E+00    0.9009184993E-01    0.1530249001E-02    0.1426854017E+00    0.5488045125E+00
    0.1700000000E+06    0.5365619769E+00    0.8607788902E-01    0.1453176322E-02    0.1427400663E+00    0.5550205897E+00
    0.1900000000E+06    0.5366264877E+00    0.8261356290E-01    0.1387131724E-02    0.1427857022E+00    0.5603780304E+00
    0.2100000000E+06    0.5366765108E+00    0.7957968813E-01    0.1329658850E-02    0.1428246625E+00    0.5650642853E+00
    0.2300000000E+06    0.5367160410E+00    0.7689098161E-01    0.1279013618E-02    0.1428585193E+00    0.5692131883E+00
    0.2500000000E+06    0.5367477553E+00    0.7448447139E-01    0.1233917038E-02    0.1428883674E+00    0.5729233737E+00
    0.2700000000E+06    0.5367735110E+00    0.7231243954E-01    0.1193405889E-02    0.1429149959E+00    0.5762694611E+00
    0.2900000000E+06    0.5367946348E+00    0.7033793208E-01    0.1156738381E-02    0.1429389897E+00    0.5793091555E+00
    0.3100000000E+06    0.5368120976E+00    0.6853179557E-01    0.1123332283E-02    0.1429607931E+00    0.5820879234E+00
    0.3300000000E+06    0.5368266251E+00    0.6687065999E-01    0.1092723054E-02    0.1429807503E+00    0.5846421708E+00
    0.3500000000E+06    0.5368387697E+00    0.6533552852E-01    0.1064534719E-02    0.1429991329E+00    0.5870014613E+00
    0.3700000000E+06    0.5368489588E+00    0.6391076881E-01    0.1038459140E-02    0.1430161586E+00    0.5891901001E+00
    0.3900000000E+06    0.5368575276E+00    0.6258337649E-01    0.1014240951E-02    0.1430320043E+00    0.5912282895E+00
    0.4100000000E+06    0.5368647424E+00    0.6134242793E-01    0.9916664041E-03    0.1430468152E+00    0.5931329865E+00
    0.4300000000E+06    0.5368708169E+00    0.6017866692E-01    0.9705549852E-03    0.1430607122E+00    0.5949185496E+00
    0.4500000000E+06    0.5368759247E+00    0.5908418814E-01    0.9507530125E-03    0.1430737968E+00    0.5965972337E+00
    0.4700000000E+06    0.5368802080E+00    0.5805219153E-01    0.9321286869E-03    0.1430861548E+00    0.5981795739E+00
    0.4900000000E+06    0.5368837839E+00    0.5707678945E-01    0.9145682192E-03    0.1430978595E+00    0.5996746868E+00
    0.1000000000E+06    0.5360850818E+00    0.1039093519E+00    0.1799994696E-02    0.1424779877E+00    0.5273308523E+00
    0.3000000000E+06    0.5368037737E+00    0.6941539475E-01    0.1139659057E-02    0.1429501417E+00    0.5807286972E+00
    0.5000000000E+06    0.5368853378E+00    0.5660868266E-01    0.9061555304E-03    0.1431034870E+00    0.6003920537E+00
    0.7000000000E+06    0.5368960886E+00    0.4926110053E-01    0.7754019782E-03    0.1431932597E+00    0.6116391736E+00
    0.9000000000E+06    0.5368888883E+00    0.4430686038E-01    0.6886831156E-03    0.1432563396E+00    0.6192093534E+00
    0.1100000000E+07    0.5368759881E+00    0.4066213495E-01    0.6256821863E-03    0.1433048467E+00    0.6247718730E+00
    0.1300000000E+07    0.5368613193E+00    0.3782903897E-01    0.5772048838E-03    0.1433442074E+00    0.6290918434E+00
    0.1500000000E+07    0.5368463627E+00    0.3554138266E-01    0.5383923132E-03    0.1433773047E+00    0.6325776816E+00
    0.1700000000E+07    0.5368317174E+00    0.3364179934E-01    0.5063991840E-03    0.1434058490E+00    0.6354705493E+00
    0.1900000000E+07    0.5368176245E+00    0.3203031276E-01    0.4794323924E-03    0.1434309365E+00    0.6379235140E+00
    0.2100000000E+07    0.5368041681E+00    0.3063986477E-01    0.4562976345E-03    0.1434533112E+00    0.6400391646E+00
    0.2300000000E+07    0.5367913606E+00    0.2942352546E-01    0.4361642567E-03    0.1434735010E+00    0.6418892502E+00
    0.2500000000E+07    0.5367791818E+00    0.2834730945E-01    0.4184340573E-03    0.1434918935E+00    0.6435257002E+00
    0.2700000000E+07    0.5367675973E+00    0.2738590345E-01    0.4026637169E-03    0.1435087820E+00    0.6449871746E+00
    0.2900000000E+07    0.5367565677E+00    0.2652000383E-01    0.3885167197E-03    0.1435243933E+00    0.6463031420E+00
    0.3100000000E+07    0.5367460529E+00    0.2573459197E-01    0.3757323576E-03    0.1435389069E+00    0.6474965212E+00
    0.3300000000E+07    0.5367360143E+00    0.2501777976E-01    0.3641050751E-03    0.1435524666E+00    0.6485854471E+00
    0.3500000000E+07    0.5367264159E+00    0.2436001474E-01    0.3534703064E-03    0.1435651902E+00    0.6495844875E+00
    0.3700000000E+07    0.5367172245E+00    0.2375351933E-01    0.3436945212E-03    0.1435771745E+00    0.6505054997E+00
    0.3900000000E+07    0.5367084098E+00    0.2319188669E-01    0.3346680775E-03    0.1435885007E+00    0.6513582489E+00
    0.4100000000E+07    0.5366999443E+00    0.2266978391E-01    0.3262999888E-03    0.1435992373E+00    0.6521508613E+00
    0.4300000000E+07    0.5366918030E+00    0.2218273035E-01    0.3185140289E-03    0.1436094426E+00    0.6528901633E+00
    0.4500000000E+07    0.5366839632E+00    0.2172692951E-01    0.3112457872E-03    0.1436191667E+00    0.6535819372E+00
    0.4700000000E+07    0.5366764043E+00    0.2129913993E-01    0.3044404121E-03    0.1436284529E+00    0.6542311195E+00
    0.4900000000E+07    0.5366691078E+00    0.2089657464E-01    0.2980508602E-03    0.1436373390E+00    0.6548419534E+00
    0.1000000000E+07    0.5368828151E+00    0.4235967096E-01    0.6549381121E-03    0.1432819898E+00    0.6221818201E+00
    0.3000000000E+07    0.5367512484E+00    0.2611804261E-01    0.3819681582E-03    0.1435317776E+00    0.6469139260E+00
    0.5000000000E+07    0.5366655526E+00    0.2070398467E-01    0.2949991075E-03    0.1436416424E+00    0.6551341566E+00
    0.7000000000E+07    0.5366048253E+00    0.1773158149E-01    0.2483336052E-03    0.1437129423E+00    0.6596419875E+00
    0.9000000000E+07    0.5365579332E+00    0.1577966742E-01    0.2181674340E-03    0.1437658252E+00    0.6626001202E+00
    0.1100000000E+08    0.5365197645E+00    0.1436971709E-01    0.1966375953E-03    0.1438078803E+00    0.6647358583E+00
    0.1300000000E+08    0.5364875883E+00    0.1328863973E-01    0.1802898141E-03    0.1438427985E+00    0.6663728219E+00
    0.1500000000E+08    0.5364597800E+00    0.1242504024E-01    0.1673374050E-03    0.1438726554E+00    0.6676800911E+00
    0.1700000000E+08    0.5364352960E+00    0.1171419694E-01    0.1567513376E-03    0.1438987351E+00    0.6687558603E+00
    0.1900000000E+08    0.5364134265E+00    0.1111556272E-01    0.1478917385E-03    0.1439218875E+00    0.6696616251E+00
    0.2100000000E+08    0.5363936670E+00    0.1060225492E-01    0.1403371296E-03    0.1439427044E+00    0.6704381449E+00
    0.2300000000E+08    0.5363756460E+00    0.1015564457E-01    0.1337971233E-03    0.1439616144E+00    0.6711136578E+00
    0.2500000000E+08    0.5363590824E+00    0.9762355435E-02    0.1280642938E-03    0.1439789381E+00    0.6717084355E+00
    0.2700000000E+08    0.5363437580E+00    0.9412498544E-02    0.1229860162E-03    0.1439949213E+00    0.6722374615E+00
