  Pressure (Pa) 22mC5-400 (mol/kg) 2mC6-400 (mol/kg) 33mC5-400 (mol/kg) 23mC5-400 (mol/kg) C7-400 (mol/kg)
    0.1000000000E+01    0.2119639204E-02    0.7953218562E-03    0.1295121676E-03    0.9304639037E-03    0.5142406091E-02
    0.3000000000E+01    0.6291288652E-02    0.2336896831E-02    0.3805636775E-03    0.2761729091E-02    0.1516651792E-01
    0.5000000000E+01    0.1037536255E-01    0.3815825788E-02    0.6214356548E-03    0.4554582669E-02    0.2485776221E-01
    0.7000000000E+01    0.1437485019E-01    0.5235255689E-02    0.8526386843E-03    0.6310335484E-02    0.3423278187E-01
    0.9000000000E+01    0.1829260383E-01    0.6598134116E-02    0.1074650976E-02    0.8030238298E-02    0.4330712303E-01
    0.1100000000E+02    0.2213134641E-01    0.7907224742E-02    0.1287920882E-02    0.9715485177E-02    0.5209532413E-01
    0.1300000000E+02    0.2589367878E-01    0.9165121386E-02    0.1492869180E-02    0.1136721665E-01    0.6061099631E-01
    0.1500000000E+02    0.2958208646E-01    0.1037426079E-01    0.1689891150E-02    0.1298652268E-01    0.6886689630E-01
    0.1700000000E+02    0.3319894590E-01    0.1153693423E-01    0.1879358467E-02    0.1457444539E-01    0.7687499258E-01
    0.1900000000E+02    0.3674653040E-01    0.1265529815E-01    0.2061620921E-02    0.1613198171E-01    0.8464652536E-01
    0.2100000000E+02    0.4022701563E-01    0.1373138387E-01    0.2237007997E-02    0.1766008573E-01    0.9219206131E-01
    0.2300000000E+02    0.4364248482E-01    0.1476710639E-01    0.2405830311E-02    0.1915967102E-01    0.9952154330E-01
    0.2500000000E+02    0.4699493357E-01    0.1576427256E-01    0.2568380932E-02    0.2063161271E-01    0.1066443359E+00
    0.2700000000E+02    0.5028627442E-01    0.1672458851E-01    0.2724936590E-02    0.2207674955E-01    0.1135692667E+00
    0.2900000000E+02    0.5351834115E-01    0.1764966650E-01    0.2875758787E-02    0.2349588570E-01    0.1203046648E+00
    0.3100000000E+02    0.5669289273E-01    0.1854103118E-01    0.3021094819E-02    0.2488979255E-01    0.1268583950E+00
    0.3300000000E+02    0.5981161716E-01    0.1940012542E-01    0.3161178714E-02    0.2625921038E-01    0.1332378901E+00
    0.3500000000E+02    0.6287613495E-01    0.2022831559E-01    0.3296232103E-02    0.2760484985E-01    0.1394501803E+00
    0.3700000000E+02    0.6588800252E-01    0.2102689656E-01    0.3426465013E-02    0.2892739353E-01    0.1455019199E+00
    0.3900000000E+02    0.6884871529E-01    0.2179709616E-01    0.3552076610E-02    0.3022749725E-01    0.1513994122E+00
    0.4100000000E+02    0.7175971069E-01    0.2254007947E-01    0.3673255878E-02    0.3150579138E-01    0.1571486326E+00
    0.4300000000E+02    0.7462237090E-01    0.2325695263E-01    0.3790182256E-02    0.3276288210E-01    0.1627552495E+00
    0.4500000000E+02    0.7743802553E-01    0.2394876654E-01    0.3903026219E-02    0.3399935252E-01    0.1682246439E+00
    0.4700000000E+02    0.8020795407E-01    0.2461652011E-01    0.4011949821E-02    0.3521576377E-01    0.1735619274E+00
    0.4900000000E+02    0.8293338825E-01    0.2526116345E-01    0.4117107202E-02    0.3641265605E-01    0.1787719588E+00
    0.1000000000E+02    0.2022168617E-01    0.7259236965E-02    0.1182351808E-02    0.8877121227E-02    0.4773611955E-01
    0.3000000000E+02    0.5511269921E-01    0.1809947097E-01    0.2949097646E-02    0.2419594581E-01    0.1236037641E+00
    0.5000000000E+02    0.8427979235E-01    0.2557510305E-01    0.4168319680E-02    0.3700394589E-01    0.1813307082E+00
    0.7000000000E+02    0.1091384218E+00    0.3083857754E-01    0.5026966376E-02    0.4792187605E-01    0.2268363252E+00
    0.9000000000E+02    0.1306607194E+00    0.3459128057E-01    0.5638873926E-02    0.5737608976E-01    0.2637054676E+00
    0.1100000000E+03    0.1495371250E+00    0.3728156521E-01    0.6076879826E-02    0.6566941096E-01    0.2942379054E+00
    0.1300000000E+03    0.1662722722E+00    0.3920729496E-01    0.6389438392E-02    0.7302317943E-01    0.3199779954E+00
    0.1500000000E+03    0.1812442478E+00    0.4057259556E-01    0.6609811032E-02    0.7960323639E-01    0.3420021002E+00
    0.1700000000E+03    0.1947425208E+00    0.4152097042E-01    0.6761427105E-02    0.8553655770E-01    0.3610839125E+00
    0.1900000000E+03    0.2069929709E+00    0.4215547712E-01    0.6861149897E-02    0.9092222967E-01    0.3777942270E+00
    0.2100000000E+03    0.2181748509E+00    0.4255147107E-01    0.6921339817E-02    0.9583888788E-01    0.3925636224E+00
    0.2300000000E+03    0.2284325575E+00    0.4276490385E-01    0.6951198467E-02    0.1003498798E+00    0.4057232157E+00
    0.2500000000E+03    0.2378839759E+00    0.4283787018E-01    0.6957667683E-02    0.1045069241E+00    0.4175319524E+00
    0.2700000000E+03    0.2466265077E+00    0.4280240110E-01    0.6946044873E-02    0.1083527549E+00    0.4281953574E+00
    0.2900000000E+03    0.2547415021E+00    0.4268310989E-01    0.6920412739E-02    0.1119230646E+00    0.4378787139E+00
    0.3100000000E+03    0.2622975647E+00    0.4249907065E-01    0.6883944767E-02    0.1152479560E+00    0.4467165126E+00
    0.3300000000E+03    0.2693530642E+00    0.4226517290E-01    0.6839125866E-02    0.1183530410E+00    0.4548193496E+00
    0.3500000000E+03    0.2759580563E+00    0.4199311223E-01    0.6787913986E-02    0.1212602848E+00    0.4622790438E+00
    0.3700000000E+03    0.2821557790E+00    0.4169212390E-01    0.6731860033E-02    0.1239886618E+00    0.4691724881E+00
    0.3900000000E+03    0.2879838273E+00    0.4136953221E-01    0.6672197855E-02    0.1265546708E+00    0.4755645865E+00
    0.4100000000E+03    0.2934750871E+00    0.4103116623E-01    0.6609912486E-02    0.1289727446E+00    0.4815105216E+00
    0.4300000000E+03    0.2986584822E+00    0.4068167733E-01    0.6545792388E-02    0.1312555780E+00    0.4870575237E+00
    0.4500000000E+03    0.3035595811E+00    0.4032478370E-01    0.6480469786E-02    0.1334143933E+00    0.4922462651E+00
    0.4700000000E+03    0.3082010901E+00    0.3996346022E-01    0.6414452057E-02    0.1354591572E+00    0.4971119709E+00
    0.4900000000E+03    0.3126032597E+00    0.3960008686E-01    0.6348146342E-02    0.1373987589E+00    0.5016853086E+00
    0.1000000000E+03    0.1403945904E+00    0.3604789891E-01    0.5876147076E-02    0.6165248067E-01    0.2796537082E+00
    0.3000000000E+03    0.2585855368E+00    0.4259816819E-01    0.6903363920E-02    0.1136144926E+00    0.4423959029E+00
    0.5000000000E+03    0.3147203333E+00    0.3941824180E-01    0.6314990174E-02    0.1383316442E+00    0.5038708573E+00
    0.7000000000E+03    0.3480388429E+00    0.3596812736E-01    0.5687484559E-02    0.1530235257E+00    0.5372623506E+00
    0.9000000000E+03    0.3700730819E+00    0.3309054262E-01    0.5165520914E-02    0.1627534177E+00    0.5586217094E+00
    0.1100000000E+04    0.3856709237E+00    0.3075500038E-01    0.4743455760E-02    0.1696509663E+00    0.5736312715E+00
    0.1300000000E+04    0.3972569505E+00    0.2884160730E-01    0.4399531423E-02    0.1747818267E+00    0.5848447809E+00
    0.1500000000E+04    0.4061807526E+00    0.2724811872E-01    0.4114968461E-02    0.1787394710E+00    0.5935912997E+00
    0.1700000000E+04    0.4132521683E+00    0.2589885877E-01    0.3875740322E-02    0.1818801963E+00    0.6006354538E+00
    0.1900000000E+04    0.4189855577E+00    0.2473912156E-01    0.3671644410E-02    0.1844304115E+00    0.6064505195E+00
    0.2100000000E+04    0.4237226314E+00    0.2372911400E-01    0.3495231073E-02    0.1865406031E+00    0.6113462591E+00
    0.2300000000E+04    0.4276988811E+00    0.2283944714E-01    0.3340987764E-02    0.1883145303E+00    0.6155345505E+00
    0.2500000000E+04    0.4310816361E+00    0.2204803204E-01    0.3204769242E-02    0.1898259551E+00    0.6191655866E+00
    0.2700000000E+04    0.4339929160E+00    0.2133797452E-01    0.3083407192E-02    0.1911286927E+00    0.6223490250E+00
    0.2900000000E+04    0.4365237049E+00    0.2069613933E-01    0.2974442003E-02    0.1922628900E+00    0.6251669416E+00
    0.3100000000E+04    0.4387431720E+00    0.2011215789E-01    0.2875936396E-02    0.1932590829E+00    0.6276820832E+00
    0.3300000000E+04    0.4407048035E+00    0.1957773168E-01    0.2786344057E-02    0.1941408956E+00    0.6299433052E+00
    0.3500000000E+04    0.4424505847E+00    0.1908613504E-01    0.2704415629E-02    0.1949268814E+00    0.6319892585E+00
    0.3700000000E+04    0.4440139173E+00    0.1863185453E-01    0.2629130398E-02    0.1956318079E+00    0.6338509529E+00
    0.3900000000E+04    0.4454216949E+00    0.1821032347E-01    0.2559645953E-02    0.1962675714E+00    0.6355535796E+00
    0.4100000000E+04    0.4466958070E+00    0.1781772345E-01    0.2495260549E-02    0.1968438592E+00    0.6371178311E+00
    0.4300000000E+04    0.4478542451E+00    0.1745083426E-01    0.2435384638E-02    0.1973686378E+00    0.6385608758E+00
    0.4500000000E+04    0.4489119299E+00    0.1710691864E-01    0.2379519043E-02    0.1978485170E+00    0.6398970866E+00
    0.4700000000E+04    0.4498813366E+00    0.1678363310E-01    0.2327238065E-02    0.1982890260E+00    0.6411385954E+00
    0.4900000000E+04    0.4507729737E+00    0.1647895790E-01    0.2278176249E-02    0.1986948250E+00    0.6422957189E+00
    0.1000000000E+04    0.3784901770E+00    0.3186256150E-01    0.4943363174E-02    0.1664743310E+00    0.5667194237E+00
    0.3000000000E+04    0.4376686997E+00    0.2039747745E-01    0.2923986309E-02    0.1927766234E+00    0.6264590301E+00
    0.5000000000E+04    0.4511924680E+00    0.1633304266E-01    0.2254752178E-02    0.1988859680E+00    0.6428454472E+00
    0.7000000000E+04    0.4570870102E+00    0.1406761876E-01    0.1897273465E-02    0.2015915625E+00    0.6510101971E+00
    0.9000000000E+04    0.4603691433E+00    0.1256540195E-01    0.1666831541E-02    0.2031220739E+00    0.6560396888E+00
    0.1100000000E+05    0.4624538527E+00    0.1147259547E-01    0.1502590116E-02    0.2041096219E+00    0.6595056644E+00
    0.1300000000E+05    0.4638921028E+00    0.1063016745E-01    0.1377959782E-02    0.2048016853E+00    0.6620670548E+00
    0.1500000000E+05    0.4649423815E+00    0.9954351039E-02    0.1279239253E-02    0.2053149974E+00    0.6640526562E+00
    0.1700000000E+05    0.4657418478E+00    0.9396166931E-02    0.1198557673E-02    0.2057118318E+00    0.6656464182E+00
    0.1900000000E+05    0.4663699686E+00    0.8924764155E-02    0.1131029304E-02    0.2060284614E+00    0.6669599871E+00
    0.2100000000E+05    0.4668759314E+00    0.8519593379E-02    0.1073439765E-02    0.2062874577E+00    0.6680653967E+00
    0.2300000000E+05    0.4672917945E+00    0.8166356938E-02    0.1023576190E-02    0.2065036101E+00    0.6690113922E+00
    0.2500000000E+05    0.4676393366E+00    0.7854752380E-02    0.9798587598E-03    0.2066870188E+00    0.6698322451E+00
    0.2700000000E+05    0.4679338650E+00    0.7577139438E-02    0.9411254388E-03    0.2068448208E+00    0.6705528193E+00
    0.2900000000E+05    0.4681864499E+00    0.7327714107E-02    0.9064999044E-03    0.2069822043E+00    0.6711916328E+00
    0.3100000000E+05    0.4684052926E+00    0.7101976274E-02    0.8753071658E-03    0.2071030336E+00    0.6717627881E+00
    0.3300000000E+05    0.4685965970E+00    0.6896374908E-02    0.8470177674E-03    0.2072102472E+00    0.6722772320E+00
    0.3500000000E+05    0.4687651415E+00    0.6708064729E-02    0.8212097963E-03    0.2073061201E+00    0.6727436047E+00
    0.3700000000E+05    0.4689146654E+00    0.6534735143E-02    0.7975423471E-03    0.2073924421E+00    0.6731688255E+00
    0.3900000000E+05    0.4690481360E+00    0.6374487352E-02    0.7757365727E-03    0.2074706409E+00    0.6735585075E+00
    0.4100000000E+05    0.4691679377E+00    0.6225744362E-02    0.7555618848E-03    0.2075418697E+00    0.6739172570E+00
    0.4300000000E+05    0.4692760081E+00    0.6087183945E-02    0.7368257272E-03    0.2076070705E+00    0.6742488926E+00
    0.4500000000E+05    0.4693739377E+00    0.5957687953E-02    0.7193658785E-03    0.2076670206E+00    0.6745566100E+00
    0.4700000000E+05    0.4694630440E+00    0.5836303443E-02    0.7030445765E-03    0.2077223672E+00    0.6748431057E+00
    0.4900000000E+05    0.4695444275E+00    0.5722212501E-02    0.6877439761E-03    0.2077736536E+00    0.6751106727E+00
    0.1000000000E+05    0.4615164918E+00    0.1198029447E-01    0.1578534890E-02    0.2036636757E+00    0.6579155992E+00
    0.3000000000E+05    0.4682996623E+00    0.7212125157E-02    0.8905104243E-03    0.2070444865E+00    0.6714849211E+00
    0.5000000000E+05    0.4695825185E+00    0.5667677507E-02    0.6804441680E-03    0.2077979208E+00    0.6752379826E+00
    0.7000000000E+05    0.4701019566E+00    0.4829896587E-02    0.5694641123E-03    0.2081518124E+00    0.6771463557E+00
    0.9000000000E+05    0.4703739456E+00    0.4283818243E-02    0.4983670485E-03    0.2083654208E+00    0.6783426883E+00
    0.1100000000E+06    0.4705365439E+00    0.3891428692E-02    0.4479354924E-03    0.2085121211E+00    0.6791793386E+00
    0.1300000000E+06    0.4706418747E+00    0.3591762519E-02    0.4098165992E-03    0.2086211194E+00    0.6798054127E+00
    0.1500000000E+06    0.4707138178E+00    0.3353138450E-02    0.3797223646E-03    0.2087064970E+00    0.6802960141E+00
    0.1700000000E+06    0.4707647834E+00    0.3157235166E-02    0.3551972640E-03    0.2087759462E+00    0.6806935356E+00
    0.1900000000E+06    0.4708018232E+00    0.2992618423E-02    0.3347213764E-03    0.2088340569E+00    0.6810239204E+00
    0.2100000000E+06    0.4708292205E+00    0.2851731658E-02    0.3172973224E-03    0.2088837546E+00    0.6813040357E+00
    0.2300000000E+06    0.4708497156E+00    0.2729352775E-02    0.3022401226E-03    0.2089270024E+00    0.6815453766E+00
    0.2500000000E+06    0.4708651359E+00    0.2621741137E-02    0.2890618362E-03    0.2089651722E+00    0.6817560783E+00
    0.2700000000E+06    0.4708767417E+00    0.2526137165E-02    0.2774042941E-03    0.2089992555E+00    0.6819420791E+00
    0.2900000000E+06    0.4708854275E+00    0.2440454250E-02    0.2669979067E-03    0.2090299895E+00    0.6821078272E+00
    0.3100000000E+06    0.4708918433E+00    0.2363081278E-02    0.2576353895E-03    0.2090579349E+00    0.6822567279E+00
    0.3300000000E+06    0.4708964712E+00    0.2292751695E-02    0.2491544200E-03    0.2090835273E+00    0.6823914383E+00
    0.3500000000E+06    0.4708996753E+00    0.2228454125E-02    0.2414258463E-03    0.2091071108E+00    0.6825140652E+00
    0.3700000000E+06    0.4709017347E+00    0.2169369803E-02    0.2343454647E-03    0.2091289616E+00    0.6826263034E+00
    0.3900000000E+06    0.4709028662E+00    0.2114827800E-02    0.2278281566E-03    0.2091493042E+00    0.6827295336E+00
    0.4100000000E+06    0.4709032404E+00    0.2064272354E-02    0.2218036245E-03    0.2091683236E+00    0.6828248934E+00
    0.4300000000E+06    0.4709029930E+00    0.2017238617E-02    0.2162132357E-03    0.2091861736E+00    0.6829133293E+00
    0.4500000000E+06    0.4709022329E+00    0.1973334369E-02    0.2110076508E-03    0.2092029834E+00    0.6829956365E+00
    0.4700000000E+06    0.4709010481E+00    0.1932226037E-02    0.2061450143E-03    0.2092188624E+00    0.6830724881E+00
    0.4900000000E+06    0.4708995105E+00    0.1893627874E-02    0.2015895587E-03    0.2092339043E+00    0.6831444584E+00
    0.1000000000E+06    0.4704646633E+00    0.4073213068E-02    0.4712282470E-03    0.2084447821E+00    0.6787941205E+00
    0.3000000000E+06    0.4708888857E+00    0.2400815050E-02    0.2621972039E-03    0.2090442811E+00    0.6821842025E+00
    0.5000000000E+06    0.4708986283E+00    0.1875191761E-02    0.1994172374E-03    0.2092411369E+00    0.6831787701E+00
    0.7000000000E+06    0.4708723894E+00    0.1593056545E-02    0.1664758989E-03    0.2093565630E+00    0.6836986495E+00
    0.9000000000E+06    0.4708411237E+00    0.1410216098E-02    0.1454573637E-03    0.2094376958E+00    0.6840303282E+00
    0.1100000000E+07    0.4708106540E+00    0.1279326643E-02    0.1305887326E-03    0.2095000860E+00    0.6842652238E+00
    0.1300000000E+07    0.4707822534E+00    0.1179633979E-02    0.1193726405E-03    0.2095507069E+00    0.6844427020E+00
    0.1500000000E+07    0.4707560732E+00    0.1100409187E-02    0.1105313806E-03    0.2095932667E+00    0.6845828545E+00
    0.1700000000E+07    0.4707319610E+00    0.1035471629E-02    0.1033351688E-03    0.2096299665E+00    0.6846971425E+00
    0.1900000000E+07    0.4707096953E+00    0.9809755581E-03    0.9733321630E-04    0.2096622171E+00    0.6847926416E+00
    0.2100000000E+07    0.4706890561E+00    0.9343855573E-03    0.9223021566E-04    0.2096909763E+00    0.6848739861E+00
    0.2300000000E+07    0.4706698464E+00    0.8939529749E-03    0.8782364555E-04    0.2097169237E+00    0.6849443548E+00
    0.2500000000E+07    0.4706518959E+00    0.8584273392E-03    0.8396941738E-04    0.2097405583E+00    0.6850060097E+00
    0.2700000000E+07    0.4706350589E+00    0.8268874705E-03    0.8056187640E-04    0.2097622577E+00    0.6850606105E+00
    0.2900000000E+07    0.4706192116E+00    0.7986377061E-03    0.7752157164E-04    0.2097823139E+00    0.6851094058E+00
    0.3100000000E+07    0.4706042482E+00    0.7731415020E-03    0.7478746475E-04    0.2098009577E+00    0.6851533554E+00
    0.3300000000E+07    0.4705900783E+00    0.7499774735E-03    0.7231179254E-04    0.2098183747E+00    0.6851932109E+00
    0.3500000000E+07    0.4705766240E+00    0.7288094283E-03    0.7005657764E-04    0.2098347161E+00    0.6852295703E+00
    0.3700000000E+07    0.4705638181E+00    0.7093654146E-03    0.6799119740E-04    0.2098501067E+00    0.6852629161E+00
    0.3900000000E+07    0.4705516020E+00    0.6914227431E-03    0.6609065155E-04    0.2098646510E+00    0.6852936425E+00
    0.4100000000E+07    0.4705399248E+00    0.6747970701E-03    0.6433430340E-04    0.2098784370E+00    0.6853220752E+00
    0.4300000000E+07    0.4705287414E+00    0.6593342995E-03    0.6270494878E-04    0.2098915399E+00    0.6853484858E+00
    0.4500000000E+07    0.4705180124E+00    0.6449044827E-03    0.6118811654E-04    0.2099040240E+00    0.6853731031E+00
    0.4700000000E+07    0.4705077026E+00    0.6313971582E-03    0.5977153560E-04    0.2099159451E+00    0.6853961210E+00
    0.4900000000E+07    0.4704977808E+00    0.6187177459E-03    0.5844472355E-04    0.2099273518E+00    0.6854177055E+00
    0.1000000000E+07    0.4708256658E+00    0.1339914447E-02    0.1374518935E-03    0.2094706878E+00    0.6841567568E+00
    0.3000000000E+07    0.4706116254E+00    0.7855740399E-03    0.7611949262E-04    0.2097917998E+00    0.6851319352E+00
    0.5000000000E+07    0.4704929566E+00    0.6126625858E-03    0.5781211369E-04    0.2099328758E+00    0.6854280057E+00
    0.7000000000E+07    0.4704114086E+00    0.5200822813E-03    0.4822669971E-04    0.2100243722E+00    0.6855848586E+00
    0.9000000000E+07    0.4703492782E+00    0.4601670529E-03    0.4211802018E-04    0.2100922053E+00    0.6856857233E+00
    0.1100000000E+08    0.4702990864E+00    0.4173142022E-03    0.3780016585E-04    0.2101461321E+00    0.6857575420E+00
    0.1300000000E+08    0.4702569794E+00    0.3846961366E-03    0.3454490183E-04    0.2101908957E+00    0.6858120220E+00
    0.1500000000E+08    0.4702207112E+00    0.3587876150E-03    0.3198003374E-04    0.2102291627E+00    0.6858551775E+00
    0.1700000000E+08    0.4701888580E+00    0.3375596718E-03    0.2989314151E-04    0.2102625825E+00    0.6858904566E+00
    0.1900000000E+08    0.4701604605E+00    0.3197507201E-03    0.2815309312E-04    0.2102922463E+00    0.6859199967E+00
    0.2100000000E+08    0.4701348415E+00    0.3045294956E-03    0.2667402794E-04    0.2103189140E+00    0.6859452022E+00
    0.2300000000E+08    0.4701115053E+00    0.2913229534E-03    0.2539708733E-04    0.2103431359E+00    0.6859670392E+00
    0.2500000000E+08    0.4700900781E+00    0.2797214693E-03    0.2428040974E-04    0.2103653233E+00    0.6859861968E+00
    0.2700000000E+08    0.4700702707E+00    0.2694233906E-03    0.2329330904E-04    0.2103857917E+00    0.6860031818E+00
