  Pressure (Pa) 22mC5-400 (mol/kg) 2mC6-400 (mol/kg) 33mC5-400 (mol/kg) 23mC5-400 (mol/kg) C7-400 (mol/kg)
    0.1000000000E+01    0.2118971999E-02    0.2348818719E-02    0.1275202584E-03    0.9301706460E-04    0.1681555252E-01
    0.3000000000E+01    0.6285569465E-02    0.6701384056E-02    0.3639875397E-03    0.2759215157E-03    0.4782551550E-01
    0.5000000000E+01    0.1036023345E-01    0.1064999054E-01    0.5787217407E-03    0.4547932034E-03    0.7577907384E-01
    0.7000000000E+01    0.1434661530E-01    0.1425064660E-01    0.7747453135E-03    0.6297922742E-03    0.1011140268E+00
    0.9000000000E+01    0.1824816996E-01    0.1754908783E-01    0.9545246179E-03    0.8010702614E-03    0.1241880324E+00
    0.1100000000E+02    0.2206816903E-01    0.2058305127E-01    0.1120093270E-02    0.9687706572E-03    0.1452961652E+00
    0.1300000000E+02    0.2580971278E-01    0.2338397080E-01    0.1273144055E-02    0.1133029441E-02    0.1646840499E+00
    0.1500000000E+02    0.2947574126E-01    0.2597825827E-01    0.1415098358E-02    0.1293975564E-02    0.1825578194E+00
    0.1700000000E+02    0.3306904454E-01    0.2838828365E-01    0.1547159259E-02    0.1451731401E-02    0.1990917584E+00
    0.1900000000E+02    0.3659227218E-01    0.3063313363E-01    0.1670352608E-02    0.1606413164E-02    0.2144342368E+00
    0.2100000000E+02    0.4004794196E-01    0.3272920483E-01    0.1785559133E-02    0.1758131287E-02    0.2287123635E+00
    0.2300000000E+02    0.4343844807E-01    0.3469067218E-01    0.1893539778E-02    0.1906990782E-02    0.2420356710E+00
    0.2500000000E+02    0.4676606857E-01    0.3652986218E-01    0.1994955889E-02    0.2053091566E-02    0.2544990592E+00
    0.2700000000E+02    0.5003297237E-01    0.3825755280E-01    0.2090385417E-02    0.2196528775E-02    0.2661851661E+00
    0.2900000000E+02    0.5324122577E-01    0.3988321627E-01    0.2180336044E-02    0.2337393039E-02    0.2771662910E+00
    0.3100000000E+02    0.5639279845E-01    0.4141521717E-01    0.2265255868E-02    0.2475770752E-02    0.2875059673E+00
    0.3300000000E+02    0.5948956906E-01    0.4286097510E-01    0.2345542191E-02    0.2611744317E-02    0.2972602556E+00
    0.3500000000E+02    0.6253333049E-01    0.4422709914E-01    0.2421548766E-02    0.2745392376E-02    0.3064788146E+00
    0.3700000000E+02    0.6552579471E-01    0.4551949969E-01    0.2493591830E-02    0.2876790019E-02    0.3152057923E+00
    0.3900000000E+02    0.6846859732E-01    0.4674348192E-01    0.2561955139E-02    0.3006008989E-02    0.3234805727E+00
    0.4100000000E+02    0.7136330176E-01    0.4790382449E-01    0.2626894209E-02    0.3133117864E-02    0.3313384034E+00
    0.4300000000E+02    0.7421140331E-01    0.4900484598E-01    0.2688639890E-02    0.3258182232E-02    0.3388109273E+00
    0.4500000000E+02    0.7701433277E-01    0.5005046132E-01    0.2747401401E-02    0.3381264852E-02    0.3459266330E+00
    0.4700000000E+02    0.7977345993E-01    0.5104422999E-01    0.2803368928E-02    0.3502425810E-02    0.3527112407E+00
    0.4900000000E+02    0.8249009680E-01    0.5198939726E-01    0.2856715836E-02    0.3621722654E-02    0.3591880311E+00
    0.1000000000E+02    0.2016816630E-01    0.1909703364E-01    0.1038972394E-02    0.8853589893E-03    0.1349714521E+00
    0.3000000000E+02    0.5482397772E-01    0.4066044037E-01    0.2223398876E-02    0.2406887473E-02    0.2824126448E+00
    0.5000000000E+02    0.8383287634E-01    0.5244469245E-01    0.2882456610E-02    0.3680689358E-02    0.3623176738E+00
    0.7000000000E+02    0.1087372342E+00    0.5960066858E-01    0.3291819894E-02    0.4774417977E-02    0.4129674472E+00
    0.9000000000E+02    0.1305447926E+00    0.6413294343E-01    0.3558562664E-02    0.5732277920E-02    0.4482021349E+00
    0.1100000000E+03    0.1499431427E+00    0.6702252397E-01    0.3735143196E-02    0.6584431504E-02    0.4742723349E+00
    0.1300000000E+03    0.1674185456E+00    0.6881878755E-01    0.3851034781E-02    0.7352210050E-02    0.4944270173E+00
    0.1500000000E+03    0.1833254101E+00    0.6985731443E-01    0.3924326526E-02    0.8051161249E-02    0.5105281605E+00
    0.1700000000E+03    0.1979287910E+00    0.7035575426E-01    0.3966819328E-02    0.8692913164E-02    0.5237225659E+00
    0.1900000000E+03    0.2114313913E+00    0.7046156856E-01    0.3986562366E-02    0.9286358671E-02    0.5347568136E+00
    0.2100000000E+03    0.2239912903E+00    0.7027803162E-01    0.3989235188E-02    0.9838433075E-02    0.5441388079E+00
    0.2300000000E+03    0.2357339162E+00    0.6987937377E-01    0.3978953724E-02    0.1035463931E-01    0.5522266815E+00
    0.2500000000E+03    0.2467603356E+00    0.6932007189E-01    0.3958765737E-02    0.1083941155E-01    0.5592805793E+00
    0.2700000000E+03    0.2571531195E+00    0.6864078996E-01    0.3930968396E-02    0.1129637256E-01    0.5654942652E+00
    0.2900000000E+03    0.2669805763E+00    0.6787230809E-01    0.3897318907E-02    0.1172851939E-01    0.5710151865E+00
    0.3100000000E+03    0.2762998603E+00    0.6703819520E-01    0.3859178252E-02    0.1213835971E-01    0.5759576430E+00
    0.3300000000E+03    0.2851592901E+00    0.6615667076E-01    0.3817611658E-02    0.1252801358E-01    0.5804116846E+00
    0.3500000000E+03    0.2936001032E+00    0.6524192852E-01    0.3773460304E-02    0.1289929038E-01    0.5844492736E+00
    0.3700000000E+03    0.3016578012E+00    0.6430509452E-01    0.3727393420E-02    0.1325374781E-01    0.5881286502E+00
    0.3900000000E+03    0.3093631925E+00    0.6335493129E-01    0.3679946760E-02    0.1359273769E-01    0.5914974847E+00
    0.4100000000E+03    0.3167432107E+00    0.6239836287E-01    0.3631551402E-02    0.1391744183E-01    0.5945951941E+00
    0.4300000000E+03    0.3238215629E+00    0.6144087087E-01    0.3582555590E-02    0.1422890049E-01    0.5974546714E+00
    0.4500000000E+03    0.3306192476E+00    0.6048679673E-01    0.3533241486E-02    0.1452803508E-01    0.6001035953E+00
    0.4700000000E+03    0.3371549728E+00    0.5953957469E-01    0.3483838151E-02    0.1481566652E-01    0.6025654349E+00
    0.4900000000E+03    0.3434454962E+00    0.5860191298E-01    0.3434531697E-02    0.1509253015E-01    0.6048602281E+00
    0.1000000000E+03    0.1405109933E+00    0.6574206439E-01    0.3655926071E-02    0.6170071006E-02    0.4621352938E+00
    0.3000000000E+03    0.2717005358E+00    0.6746220906E-01    0.3878737421E-02    0.1193608728E-01    0.5735526092E+00
    0.5000000000E+03    0.3465035801E+00    0.5813735064E-01    0.3409963224E-02    0.1522713349E-01    0.6059504596E+00
    0.7000000000E+03    0.3977855438E+00    0.4965815993E-01    0.2947763619E-02    0.1748525237E-01    0.6221212370E+00
    0.9000000000E+03    0.4355054778E+00    0.4284745572E-01    0.2560383909E-02    0.1914750833E-01    0.6320257262E+00
    0.1100000000E+04    0.4643696632E+00    0.3746321420E-01    0.2244956531E-02    0.2042049876E-01    0.6388008341E+00
    0.1300000000E+04    0.4870734855E+00    0.3318115262E-01    0.1988432354E-02    0.2142258382E-01    0.6437694669E+00
    0.1500000000E+04    0.5053181264E+00    0.2973513311E-01    0.1778342826E-02    0.2222849039E-01    0.6475925382E+00
    0.1700000000E+04    0.5202404156E+00    0.2692520900E-01    0.1604616200E-02    0.2288817136E-01    0.6506394534E+00
    0.1900000000E+04    0.5326299652E+00    0.2460412089E-01    0.1459480482E-02    0.2343633353E-01    0.6531339494E+00
    0.2100000000E+04    0.5430513767E+00    0.2266332890E-01    0.1337008092E-02    0.2389780105E-01    0.6552199871E+00
    0.2300000000E+04    0.5519179408E+00    0.2102216316E-01    0.1232673815E-02    0.2429075073E-01    0.6569946833E+00
    0.2500000000E+04    0.5595382432E+00    0.1961999411E-01    0.1143001286E-02    0.2462875833E-01    0.6585260940E+00
    0.2700000000E+04    0.5661466947E+00    0.1841070108E-01    0.1065296961E-02    0.2492213937E-01    0.6598634263E+00
    0.2900000000E+04    0.5719240954E+00    0.1735877412E-01    0.9974540942E-03    0.2517885247E-01    0.6610432029E+00
    0.3100000000E+04    0.5770118132E+00    0.1643655164E-01    0.9378090204E-03    0.2540512223E-01    0.6620931428E+00
    0.3300000000E+04    0.5815217548E+00    0.1562224503E-01    0.8850355340E-03    0.2560587747E-01    0.6630346901E+00
    0.3500000000E+04    0.5855435037E+00    0.1489851124E-01    0.8380668081E-03    0.2578506491E-01    0.6638847134E+00
    0.3700000000E+04    0.5891495108E+00    0.1425140960E-01    0.7960372228E-03    0.2594587740E-01    0.6646566779E+00
    0.3900000000E+04    0.5923989237E+00    0.1366963102E-01    0.7582386538E-03    0.2609092224E-01    0.6653614723E+00
    0.4100000000E+04    0.5953404481E+00    0.1314392226E-01    0.7240873370E-03    0.2622234708E-01    0.6660080038E+00
    0.4300000000E+04    0.5980145122E+00    0.1266665130E-01    0.6930985266E-03    0.2634193508E-01    0.6666036349E+00
    0.4500000000E+04    0.6004549221E+00    0.1223147598E-01    0.6648669470E-03    0.2645117774E-01    0.6671545081E+00
    0.4700000000E+04    0.6026901412E+00    0.1183308899E-01    0.6390515857E-03    0.2655133122E-01    0.6676657919E+00
    0.4900000000E+04    0.6047442870E+00    0.1146701976E-01    0.6153637697E-03    0.2664346020E-01    0.6681418691E+00
    0.1000000000E+04    0.4508453219E+00    0.3999819171E-01    0.2394455740E-02    0.1982391455E-01    0.6356990863E+00
    0.3000000000E+04    0.5745465749E+00    0.1688293032E-01    0.9666966021E-03    0.2529545851E-01    0.6615829382E+00
    0.5000000000E+04    0.6057100029E+00    0.1129489718E-01    0.6042394320E-03    0.2668680453E-01    0.6683678965E+00
    0.7000000000E+04    0.6192017141E+00    0.8876630698E-02    0.4495447502E-03    0.2729516127E-01    0.6717153317E+00
    0.9000000000E+04    0.6266163423E+00    0.7513979135E-02    0.3647767281E-03    0.2763292581E-01    0.6737710539E+00
    0.1100000000E+05    0.6312747746E+00    0.6626592292E-02    0.3112247827E-03    0.2784734444E-01    0.6751867777E+00
    0.1300000000E+05    0.6344626409E+00    0.5994535220E-02    0.2741773024E-03    0.2799561256E-01    0.6762333980E+00
    0.1500000000E+05    0.6367771688E+00    0.5516423255E-02    0.2468946106E-03    0.2810439021E-01    0.6770454349E+00
    0.1700000000E+05    0.6385320842E+00    0.5138938450E-02    0.2258703265E-03    0.2818773022E-01    0.6776979312E+00
    0.1900000000E+05    0.6399074838E+00    0.4831258511E-02    0.2091038565E-03    0.2825372779E-01    0.6782363544E+00
    0.2100000000E+05    0.6410139374E+00    0.4574252193E-02    0.1953709508E-03    0.2830737035E-01    0.6786900104E+00
    0.2300000000E+05    0.6419229997E+00    0.4355369516E-02    0.1838801332E-03    0.2835189687E-01    0.6790787199E+00
    0.2500000000E+05    0.6426829822E+00    0.4166005943E-02    0.1740965818E-03    0.2838950191E-01    0.6794164155E+00
    0.2700000000E+05    0.6433276612E+00    0.4000045517E-02    0.1656455296E-03    0.2842172523E-01    0.6797132053E+00
    0.2900000000E+05    0.6438813505E+00    0.3853009052E-02    0.1582562677E-03    0.2844967916E-01    0.6799766190E+00
    0.3100000000E+05    0.6443619920E+00    0.3721532301E-02    0.1517281527E-03    0.2847418743E-01    0.6802123926E+00
    0.3300000000E+05    0.6447831108E+00    0.3603033441E-02    0.1459091512E-03    0.2849587321E-01    0.6804249803E+00
    0.3500000000E+05    0.6451550934E+00    0.3495493949E-02    0.1406818357E-03    0.2851521676E-01    0.6806178991E+00
    0.3700000000E+05    0.6454860468E+00    0.3397309957E-02    0.1359539753E-03    0.2853259428E-01    0.6807939672E+00
    0.3900000000E+05    0.6457823904E+00    0.3307188820E-02    0.1316520515E-03    0.2854830471E-01    0.6809554717E+00
    0.4100000000E+05    0.6460492728E+00    0.3224075526E-02    0.1277166880E-03    0.2856258864E-01    0.6811042905E+00
    0.4300000000E+05    0.6462908711E+00    0.3147099301E-02    0.1240993645E-03    0.2857564200E-01    0.6812419815E+00
    0.4500000000E+05    0.6465106094E+00    0.3075534174E-02    0.1207600122E-03    0.2858762592E-01    0.6813698489E+00
    0.4700000000E+05    0.6467113208E+00    0.3008769383E-02    0.1176652253E-03    0.2859867424E-01    0.6814889939E+00
    0.4900000000E+05    0.6468953700E+00    0.2946286858E-02    0.1147869112E-03    0.2860889902E-01    0.6816003534E+00
    0.1000000000E+05    0.6291855602E+00    0.7028814277E-02    0.3352997053E-03    0.2775090742E-01    0.6745372911E+00
    0.3000000000E+05    0.6441298709E+00    0.3785502423E-02    0.1548950163E-03    0.2846232114E-01    0.6800976571E+00
    0.5000000000E+05    0.6469817803E+00    0.2916510538E-02    0.1134213464E-03    0.2861373273E-01    0.6816533691E+00
    0.7000000000E+05    0.6481850465E+00    0.2465709131E-02    0.9322610315E-04    0.2868391714E-01    0.6824506218E+00
    0.9000000000E+05    0.6488479336E+00    0.2177635823E-02    0.8078559027E-04    0.2872602216E-01    0.6829531759E+00
    0.1100000000E+06    0.6492674157E+00    0.1972929232E-02    0.7216168980E-04    0.2875483993E-01    0.6833061097E+00
    0.1300000000E+06    0.6495565933E+00    0.1817702604E-02    0.6574085930E-04    0.2877620567E-01    0.6835710940E+00
    0.1500000000E+06    0.6497679090E+00    0.1694702613E-02    0.6072535118E-04    0.2879291706E-01    0.6837793081E+00
    0.1700000000E+06    0.6499290002E+00    0.1594087043E-02    0.5667012832E-04    0.2880649651E-01    0.6839484072E+00
    0.1900000000E+06    0.6500558129E+00    0.1509773147E-02    0.5330497542E-04    0.2881784999E-01    0.6840892251E+00
    0.2100000000E+06    0.6501581917E+00    0.1437770369E-02    0.5045517564E-04    0.2882755379E-01    0.6842088224E+00
    0.2300000000E+06    0.6502425432E+00    0.1375336635E-02    0.4800213104E-04    0.2883599396E-01    0.6843120210E+00
    0.2500000000E+06    0.6503132157E+00    0.1320516692E-02    0.4586215540E-04    0.2884344000E-01    0.6844022400E+00
    0.2700000000E+06    0.6503732644E+00    0.1271873453E-02    0.4397429856E-04    0.2885008649E-01    0.6844819792E+00
    0.2900000000E+06    0.6504248987E+00    0.1228323649E-02    0.4229298475E-04    0.2885607796E-01    0.6845531141E+00
    0.3100000000E+06    0.6504697558E+00    0.1189033051E-02    0.4078336706E-04    0.2886152430E-01    0.6846170826E+00
    0.3300000000E+06    0.6505090746E+00    0.1153347312E-02    0.3941828853E-04    0.2886651081E-01    0.6846750080E+00
    0.3500000000E+06    0.6505438099E+00    0.1120744931E-02    0.3817623231E-04    0.2887110485E-01    0.6847277822E+00
    0.3700000000E+06    0.6505747094E+00    0.1090804441E-02    0.3703990190E-04    0.2887536046E-01    0.6847761232E+00
    0.3900000000E+06    0.6506023668E+00    0.1063180990E-02    0.3599521470E-04    0.2887932158E-01    0.6848206167E+00
    0.4100000000E+06    0.6506272596E+00    0.1037589302E-02    0.3503057397E-04    0.2888302436E-01    0.6848617459E+00
    0.4300000000E+06    0.6506497761E+00    0.1013791050E-02    0.3413633252E-04    0.2888649887E-01    0.6848999129E+00
    0.4500000000E+06    0.6506702355E+00    0.9915853583E-03    0.3330439122E-04    0.2888977037E-01    0.6849354560E+00
    0.4700000000E+06    0.6506889022E+00    0.9708015538E-03    0.3252789414E-04    0.2889286026E-01    0.6849686617E+00
    0.4900000000E+06    0.6507059976E+00    0.9512935605E-03    0.3180099381E-04    0.2889578681E-01    0.6849997747E+00
    0.1000000000E+06    0.6490788932E+00    0.2067547760E-02    0.7612560505E-04    0.2874162113E-01    0.6831434481E+00
    0.3000000000E+06    0.6504480892E+00    0.1208190426E-02    0.4151856366E-04    0.2885886346E-01    0.6845859177E+00
    0.5000000000E+06    0.6507140154E+00    0.9419779720E-03    0.3145454504E-04    0.2889719384E-01    0.6850146134E+00
    0.7000000000E+06    0.6508247423E+00    0.7995890891E-03    0.2621446290E-04    0.2891963497E-01    0.6852398980E+00
    0.9000000000E+06    0.6508843465E+00    0.7074702853E-03    0.2288300349E-04    0.2893539243E-01    0.6853840871E+00
    0.1100000000E+07    0.6509209989E+00    0.6415938328E-03    0.2053128132E-04    0.2894749988E-01    0.6854864267E+00
    0.1300000000E+07    0.6509454546E+00    0.5914541648E-03    0.1875974531E-04    0.2895731681E-01    0.6855638768E+00
    0.1500000000E+07    0.6509626941E+00    0.5516293372E-03    0.1736469587E-04    0.2896556579E-01    0.6856251163E+00
    0.1700000000E+07    0.6509753328E+00    0.5189995008E-03    0.1623006738E-04    0.2897267551E-01    0.6856751058E+00
    0.1900000000E+07    0.6509848720E+00    0.4916250658E-03    0.1528429268E-04    0.2897892066E-01    0.6857169128E+00
    0.2100000000E+07    0.6509922329E+00    0.4682281557E-03    0.1448055231E-04    0.2898448764E-01    0.6857525490E+00
    0.2300000000E+07    0.6509980107E+00    0.4479279041E-03    0.1378677206E-04    0.2898950863E-01    0.6857833960E+00
    0.2500000000E+07    0.6510026063E+00    0.4300946772E-03    0.1318015190E-04    0.2899408071E-01    0.6858104379E+00
    0.2700000000E+07    0.6510062989E+00    0.4142648188E-03    0.1264398556E-04    0.2899827725E-01    0.6858343973E+00
    0.2900000000E+07    0.6510092888E+00    0.4000882934E-03    0.1216571785E-04    0.2900215505E-01    0.6858558183E+00
    0.3100000000E+07    0.6510117229E+00    0.3872952043E-03    0.1173570829E-04    0.2900575895E-01    0.6858751193E+00
    0.3300000000E+07    0.6510137113E+00    0.3756736347E-03    0.1134641654E-04    0.2900912498E-01    0.6858926284E+00
    0.3500000000E+07    0.6510153381E+00    0.3650545481E-03    0.1099184953E-04    0.2901228251E-01    0.6859086066E+00
    0.3700000000E+07    0.6510166683E+00    0.3553012342E-03    0.1066717652E-04    0.2901525579E-01    0.6859232647E+00
    0.3900000000E+07    0.6510177530E+00    0.3463017667E-03    0.1036845494E-04    0.2901806508E-01    0.6859367748E+00
    0.4100000000E+07    0.6510186330E+00    0.3379635066E-03    0.1009243128E-04    0.2902072750E-01    0.6859492794E+00
    0.4300000000E+07    0.6510193408E+00    0.3302090267E-03    0.9836393890E-05    0.2902325759E-01    0.6859608974E+00
    0.4500000000E+07    0.6510199032E+00    0.3229730415E-03    0.9598062398E-05    0.2902566787E-01    0.6859717286E+00
    0.4700000000E+07    0.6510203417E+00    0.3162000623E-03    0.9375503540E-05    0.2902796915E-01    0.6859818582E+00
    0.4900000000E+07    0.6510206743E+00    0.3098425837E-03    0.9167066166E-05    0.2903017084E-01    0.6859913586E+00
    0.1000000000E+07    0.6509046661E+00    0.6720808078E-03    0.2161632199E-04    0.2894179596E-01    0.6854391462E+00
    0.3000000000E+07    0.6510105677E+00    0.3935332191E-03    0.1194519381E-04    0.2900398881E-01    0.6858657115E+00
    0.5000000000E+07    0.6510208058E+00    0.3068066388E-03    0.9067691483E-05    0.2903123696E-01    0.6859958928E+00
    0.7000000000E+07    0.6510204470E+00    0.2603982713E-03    0.7562409915E-05    0.2904888690E-01    0.6860649866E+00
    0.9000000000E+07    0.6510175603E+00    0.2303735891E-03    0.6603539663E-05    0.2906196189E-01    0.6861094627E+00
    0.1100000000E+08    0.6510139872E+00    0.2089036032E-03    0.5925961956E-05    0.2907235070E-01    0.6861411519E+00
    0.1300000000E+08    0.6510102973E+00    0.1925638258E-03    0.5415230198E-05    0.2908097066E-01    0.6861652020E+00
    0.1500000000E+08    0.6510066909E+00    0.1795866073E-03    0.5012875773E-05    0.2908833718E-01    0.6861842599E+00
    0.1700000000E+08    0.6510032391E+00    0.1689547793E-03    0.4685539059E-05    0.2909476883E-01    0.6861998440E+00
    0.1900000000E+08    0.6509999625E+00    0.1600359792E-03    0.4412630939E-05    0.2910047634E-01    0.6862128960E+00
    0.2100000000E+08    0.6509968611E+00    0.1524135947E-03    0.4180672754E-05    0.2910560638E-01    0.6862240351E+00
    0.2300000000E+08    0.6509939263E+00    0.1458004588E-03    0.3980426026E-05    0.2911026512E-01    0.6862336872E+00
    0.2500000000E+08    0.6509911467E+00    0.1399913168E-03    0.3805320928E-05    0.2911453191E-01    0.6862421562E+00
    0.2700000000E+08    0.6509885101E+00    0.1348350287E-03    0.3650542015E-05    0.2911846762E-01    0.6862496659E+00
