  Pressure (Pa) 22mC5-400 (mol/kg) 2mC6-400 (mol/kg) 33mC5-400 (mol/kg) 23mC5-400 (mol/kg) C7-400 (mol/kg)
    0.1000000000E+01    0.2119028010E-02    0.1582745513E-02    0.1933145275E-03    0.5581173036E-03    0.8519365432E-02
    0.3000000000E+01    0.6285999458E-02    0.4606236078E-02    0.5626907270E-03    0.1655643806E-02    0.2483684884E-01
    0.5000000000E+01    0.1036123297E-01    0.7453092507E-02    0.9106075679E-03    0.2729026491E-02    0.4026013193E-01
    0.7000000000E+01    0.1434821245E-01    0.1013713871E-01    0.1238745840E-02    0.3779182102E-02    0.5486239456E-01
    0.9000000000E+01    0.1825024318E-01    0.1267077216E-01    0.1548612533E-02    0.4806980379E-02    0.6870899991E-01
    0.1100000000E+02    0.2207046303E-01    0.1506514646E-01    0.1841563117E-02    0.5813247024E-02    0.8185851257E-01
    0.1300000000E+02    0.2581185298E-01    0.1733032635E-01    0.2118820458E-02    0.6798766446E-02    0.9436356159E-01
    0.1500000000E+02    0.2947724671E-01    0.1947541978E-01    0.2381490928E-02    0.7764284312E-02    0.1062715752E+00
    0.1700000000E+02    0.3306933964E-01    0.2150869105E-01    0.2630578202E-02    0.8710509901E-02    0.1176254090E+00
    0.1900000000E+02    0.3659069722E-01    0.2343765796E-01    0.2866995116E-02    0.9638118301E-02    0.1284638852E+00
    0.2100000000E+02    0.4004376269E-01    0.2526917583E-01    0.3091573897E-02    0.1054775244E-01    0.1388222572E+00
    0.2300000000E+02    0.4343086424E-01    0.2700951014E-01    0.3305075028E-02    0.1144002497E-01    0.1487326113E+00
    0.2500000000E+02    0.4675422172E-01    0.2866439976E-01    0.3508194948E-02    0.1231552005E-01    0.1582242156E+00
    0.2700000000E+02    0.5001595289E-01    0.3023911209E-01    0.3701572777E-02    0.1317479497E-01    0.1673238234E+00
    0.2900000000E+02    0.5321807920E-01    0.3173849134E-01    0.3885796189E-02    0.1401838167E-01    0.1760559382E+00
    0.3100000000E+02    0.5636253121E-01    0.3316700087E-01    0.4061406578E-02    0.1484678819E-01    0.1844430463E+00
    0.3300000000E+02    0.5945115369E-01    0.3452876051E-01    0.4228903597E-02    0.1566049998E-01    0.1925058204E+00
    0.3500000000E+02    0.6248571028E-01    0.3582757951E-01    0.4388749171E-02    0.1645998117E-01    0.2002632997E+00
    0.3700000000E+02    0.6546788798E-01    0.3706698572E-01    0.4541371047E-02    0.1724567569E-01    0.2077330484E+00
    0.3900000000E+02    0.6839930121E-01    0.3825025145E-01    0.4687165947E-02    0.1801800839E-01    0.2149312963E+00
    0.4100000000E+02    0.7128149576E-01    0.3938041654E-01    0.4826502370E-02    0.1877738606E-01    0.2218730635E+00
    0.4300000000E+02    0.7411595233E-01    0.4046030893E-01    0.4959723093E-02    0.1952419836E-01    0.2285722718E+00
    0.4500000000E+02    0.7690409002E-01    0.4149256303E-01    0.5087147409E-02    0.2025881875E-01    0.2350418433E+00
    0.4700000000E+02    0.7964726942E-01    0.4247963619E-01    0.5209073130E-02    0.2098160528E-01    0.2412937887E+00
    0.4900000000E+02    0.8234679571E-01    0.4342382350E-01    0.5325778385E-02    0.2169290143E-01    0.2473392872E+00
    0.1000000000E+02    0.2017038959E-01    0.1388471378E-01    0.1697123002E-02    0.5312755193E-02    0.7536747357E-01
    0.3000000000E+02    0.5479739724E-01    0.3246133968E-01    0.3974645855E-02    0.1443445160E-01    0.1802912858E+00
    0.5000000000E+02    0.8368058233E-01    0.4388051112E-01    0.5382255271E-02    0.2204434414E-01    0.2502879024E+00
    0.7000000000E+02    0.1083438209E+00    0.5121647264E-01    0.6292694060E-02    0.2854345461E-01    0.3006092090E+00
    0.9000000000E+02    0.1297974093E+00    0.5602512698E-01    0.6894492838E-02    0.3419766346E-01    0.3387105957E+00
    0.1100000000E+03    0.1487386193E+00    0.5918128490E-01    0.7293683194E-02    0.3919047949E-01    0.3686777270E+00
    0.1300000000E+03    0.1656651782E+00    0.6121411689E-01    0.7554473108E-02    0.4365289982E-01    0.3929421874E+00
    0.1500000000E+03    0.1809427267E+00    0.6246135394E-01    0.7717916157E-02    0.4768116071E-01    0.4130445115E+00
    0.1700000000E+03    0.1948466186E+00    0.6314755403E-01    0.7811376530E-02    0.5134773720E-01    0.4300098144E+00
    0.1900000000E+03    0.2075887568E+00    0.6342691062E-01    0.7853702103E-02    0.5470840515E-01    0.4445477850E+00
    0.2100000000E+03    0.2193353581E+00    0.6340807481E-01    0.7858222828E-02    0.5780691639E-01    0.4571660326E+00
    0.2300000000E+03    0.2302190325E+00    0.6316923896E-01    0.7834572701E-02    0.6067817757E-01    0.4682376931E+00
    0.2500000000E+03    0.2403471927E+00    0.6276766239E-01    0.7789840700E-02    0.6335046346E-01    0.4780435063E+00
    0.2700000000E+03    0.2498080329E+00    0.6224588374E-01    0.7729321869E-02    0.6584699042E-01    0.4867989667E+00
    0.2900000000E+03    0.2586748606E+00    0.6163588500E-01    0.7657021204E-02    0.6818705653E-01    0.4946723925E+00
    0.3100000000E+03    0.2670092883E+00    0.6096194886E-01    0.7575999847E-02    0.7038688159E-01    0.5017972785E+00
    0.3300000000E+03    0.2748636224E+00    0.6024266000E-01    0.7488617931E-02    0.7246023590E-01    0.5082809425E+00
    0.3500000000E+03    0.2822826756E+00    0.5949233214E-01    0.7396708047E-02    0.7441891730E-01    0.5142107041E+00
    0.3700000000E+03    0.2893051612E+00    0.5872204175E-01    0.7301701180E-02    0.7627311808E-01    0.5196583829E+00
    0.3900000000E+03    0.2959647771E+00    0.5794038764E-01    0.7204719456E-02    0.7803171039E-01    0.5246836281E+00
    0.4100000000E+03    0.3022910588E+00    0.5715405596E-01    0.7106645325E-02    0.7970247074E-01    0.5293364196E+00
    0.4300000000E+03    0.3083100576E+00    0.5636824539E-01    0.7008173775E-02    0.8129225848E-01    0.5336589736E+00
    0.4500000000E+03    0.3140448848E+00    0.5558699026E-01    0.6909852147E-02    0.8280715899E-01    0.5376872107E+00
    0.4700000000E+03    0.3195161515E+00    0.5481340844E-01    0.6812110783E-02    0.8425259964E-01    0.5414519019E+00
    0.4900000000E+03    0.3247423292E+00    0.5404989296E-01    0.6715286823E-02    0.8563344445E-01    0.5449795704E+00
    0.1000000000E+03    0.1395472282E+00    0.5777092258E-01    0.7114702872E-02    0.3676757787E-01    0.3545318326E+00
    0.3000000000E+03    0.2629051608E+00    0.6130563301E-01    0.7617438982E-02    0.6930358735E-01    0.4983211642E+00
    0.5000000000E+03    0.3272687707E+00    0.5367249719E-01    0.6667303409E-02    0.8630102882E-01    0.5466618278E+00
    0.7000000000E+03    0.3682204487E+00    0.4689807696E-01    0.5793626085E-02    0.9712788718E-01    0.5721112221E+00
    0.9000000000E+03    0.3966176861E+00    0.4160884870E-01    0.5097464950E-02    0.1046437709E+00    0.5881930872E+00
    0.1100000000E+04    0.4173778302E+00    0.3750214772E-01    0.4549918869E-02    0.1101443385E+00    0.5994340976E+00
    0.1300000000E+04    0.4331421540E+00    0.3426265961E-01    0.4114523203E-02    0.1143258262E+00    0.6078133557E+00
    0.1500000000E+04    0.4454703284E+00    0.3165652636E-01    0.3762659999E-02    0.1175995314E+00    0.6143447669E+00
    0.1700000000E+04    0.4553430748E+00    0.2951962041E-01    0.3473572140E-02    0.1202241817E+00    0.6196059573E+00
    0.1900000000E+04    0.4634065096E+00    0.2773696604E-01    0.3232379964E-02    0.1223702991E+00    0.6239521707E+00
    0.2100000000E+04    0.4701023432E+00    0.2622694048E-01    0.3028335594E-02    0.1241545039E+00    0.6276149103E+00
    0.2300000000E+04    0.4757419050E+00    0.2493055964E-01    0.2853566675E-02    0.1256590253E+00    0.6307520527E+00
    0.2500000000E+04    0.4805503740E+00    0.2380440182E-01    0.2702215671E-02    0.1269433608E+00    0.6334752812E+00
    0.2700000000E+04    0.4846942847E+00    0.2281592436E-01    0.2569855067E-02    0.1280515297E+00    0.6358660221E+00
    0.2900000000E+04    0.4882992166E+00    0.2194032584E-01    0.2453087561E-02    0.1290167385E+00    0.6379851637E+00
    0.3100000000E+04    0.4914615017E+00    0.2115840998E-01    0.2349269422E-02    0.1298644696E+00    0.6398792278E+00
    0.3300000000E+04    0.4942561683E+00    0.2045510656E-01    0.2256316359E-02    0.1306145780E+00    0.6415844251E+00
    0.3500000000E+04    0.4967424535E+00    0.1981842998E-01    0.2172565280E-02    0.1312827454E+00    0.6431293990E+00
    0.3700000000E+04    0.4989677025E+00    0.1923873400E-01    0.2096674421E-02    0.1318815106E+00    0.6445371317E+00
    0.3900000000E+04    0.5009701775E+00    0.1870817023E-01    0.2027550185E-02    0.1324210108E+00    0.6458262956E+00
    0.4100000000E+04    0.5027811129E+00    0.1822028906E-01    0.1964292846E-02    0.1329095244E+00    0.6470122326E+00
    0.4300000000E+04    0.5044262413E+00    0.1776974155E-01    0.1906155746E-02    0.1333538743E+00    0.6481076760E+00
    0.4500000000E+04    0.5059269418E+00    0.1735205405E-01    0.1852514282E-02    0.1337597314E+00    0.6491232900E+00
    0.4700000000E+04    0.5073011142E+00    0.1696345570E-01    0.1802842068E-02    0.1341318456E+00    0.6500680799E+00
    0.4900000000E+04    0.5085638529E+00    0.1660074504E-01    0.1756692435E-02    0.1344742238E+00    0.6509497076E+00
    0.1000000000E+04    0.4077531552E+00    0.3942920373E-01    0.4807538627E-02    0.1075934564E+00    0.5942622745E+00
    0.3000000000E+04    0.4899305755E+00    0.2153868224E-01    0.2399701358E-02    0.1294539355E+00    0.6389578628E+00
    0.5000000000E+04    0.5091575157E+00    0.1642822675E-01    0.1734817166E-02    0.1346353458E+00    0.6513689241E+00
    0.7000000000E+04    0.5174636372E+00    0.1384299729E-01    0.1413550028E-02    0.1369034361E+00    0.6576276521E+00
    0.9000000000E+04    0.5220520054E+00    0.1221560700E-01    0.1218556153E-02    0.1381731099E+00    0.6615198540E+00
    0.1100000000E+05    0.5249498164E+00    0.1106868963E-01    0.1084975301E-02    0.1389857319E+00    0.6642229102E+00
    0.1300000000E+05    0.5269411333E+00    0.1020298661E-01    0.9863911120E-03    0.1395516284E+00    0.6662334631E+00
    0.1500000000E+05    0.5283913921E+00    0.9518768486E-02    0.9098868806E-03    0.1399692687E+00    0.6678007044E+00
    0.1700000000E+05    0.5294933956E+00    0.8959842224E-02    0.8483355731E-03    0.1402908386E+00    0.6690647424E+00
    0.1900000000E+05    0.5303583102E+00    0.8491787024E-02    0.7974518318E-03    0.1405465631E+00    0.6701109957E+00
    0.2100000000E+05    0.5310546652E+00    0.8092167338E-02    0.7544879045E-03    0.1407551588E+00    0.6709948005E+00
    0.2300000000E+05    0.5316269725E+00    0.7745640232E-02    0.7175918324E-03    0.1409288373E+00    0.6717537420E+00
    0.2500000000E+05    0.5321053831E+00    0.7441304050E-02    0.6854646886E-03    0.1410759080E+00    0.6724143357E+00
    0.2700000000E+05    0.5325110376E+00    0.7171167366E-02    0.6571652982E-03    0.1412022233E+00    0.6729958791E+00
    0.2900000000E+05    0.5328591922E+00    0.6929218182E-02    0.6319929870E-03    0.1413120254E+00    0.6735127867E+00
    0.3100000000E+05    0.5331611297E+00    0.6710833481E-02    0.6094140511E-03    0.1414084662E+00    0.6739760659E+00
    0.3300000000E+05    0.5334253721E+00    0.6512391046E-02    0.5890139250E-03    0.1414939367E+00    0.6743942827E+00
    0.3500000000E+05    0.5336584744E+00    0.6331006361E-02    0.5704650777E-03    0.1415702845E+00    0.6747742145E+00
    0.3700000000E+05    0.5338655607E+00    0.6164349544E-02    0.5535048752E-03    0.1416389603E+00    0.6751213009E+00
    0.3900000000E+05    0.5340506936E+00    0.6010515003E-02    0.5379199509E-03    0.1417011194E+00    0.6754399642E+00
    0.4100000000E+05    0.5342171349E+00    0.5867926740E-02    0.5235349397E-03    0.1417576936E+00    0.6757338407E+00
    0.4300000000E+05    0.5343675333E+00    0.5735268320E-02    0.5102042055E-03    0.1418094429E+00    0.6760059508E+00
    0.4500000000E+05    0.5345040620E+00    0.5611430231E-02    0.4978056674E-03    0.1418569936E+00    0.6762588265E+00
    0.4700000000E+05    0.5346285203E+00    0.5495469762E-02    0.4862361223E-03    0.1419008666E+00    0.6764946083E+00
    0.4900000000E+05    0.5347424106E+00    0.5386580008E-02    0.4754076540E-03    0.1419414987E+00    0.6767151192E+00
    0.1000000000E+05    0.5236485276E+00    0.1159796669E-01    0.1146207708E-02    0.1386194839E+00    0.6629805045E+00
    0.3000000000E+05    0.5330153517E+00    0.6817326557E-02    0.6204076140E-03    0.1413617517E+00    0.6737505461E+00
    0.5000000000E+05    0.5347957958E+00    0.5334565555E-02    0.4702473301E-03    0.1419607172E+00    0.6768201455E+00
    0.7000000000E+05    0.5355311833E+00    0.4538062481E-02    0.3922281258E-03    0.1422404507E+00    0.6784031514E+00
    0.9000000000E+05    0.5359259424E+00    0.4021146875E-02    0.3426296880E-03    0.1424088432E+00    0.6794045145E+00
    0.1100000000E+06    0.5361687667E+00    0.3650628755E-02    0.3076032971E-03    0.1425243124E+00    0.6801093855E+00
    0.1300000000E+06    0.5363311997E+00    0.3368115545E-02    0.2812044851E-03    0.1426100219E+00    0.6806394978E+00
    0.1500000000E+06    0.5364462061E+00    0.3143400142E-02    0.2604050309E-03    0.1426771125E+00    0.6810565793E+00
    0.1700000000E+06    0.5365310311E+00    0.2959066674E-02    0.2434798940E-03    0.1427316597E+00    0.6813956601E+00
    0.1900000000E+06    0.5365955451E+00    0.2804269635E-02    0.2293653638E-03    0.1427772846E+00    0.6816782735E+00
    0.2100000000E+06    0.5366457904E+00    0.2671853289E-02    0.2173654417E-03    0.1428162931E+00    0.6819184725E+00
    0.2300000000E+06    0.5366856641E+00    0.2556878871E-02    0.2070032128E-03    0.1428502310E+00    0.6821258657E+00
    0.2500000000E+06    0.5367177875E+00    0.2455812326E-02    0.1979395701E-03    0.1428801783E+00    0.6823072732E+00
    0.2700000000E+06    0.5367439850E+00    0.2366048682E-02    0.1899259685E-03    0.1429069153E+00    0.6824676859E+00
    0.2900000000E+06    0.5367655635E+00    0.2285619614E-02    0.1827755665E-03    0.1429310216E+00    0.6826108507E+00
    0.3100000000E+06    0.5367834820E+00    0.2213006249E-02    0.1763448574E-03    0.1429529380E+00    0.6827396424E+00
    0.3300000000E+06    0.5367984588E+00    0.2147015160E-02    0.1705215654E-03    0.1429730070E+00    0.6828563082E+00
    0.3500000000E+06    0.5368110422E+00    0.2086693787E-02    0.1652164297E-03    0.1429914990E+00    0.6829626331E+00
    0.3700000000E+06    0.5368216569E+00    0.2031271284E-02    0.1603574823E-03    0.1430086308E+00    0.6830600553E+00
    0.3900000000E+06    0.5368306369E+00    0.1980116205E-02    0.1558859728E-03    0.1430245790E+00    0.6831497481E+00
    0.4100000000E+06    0.5368382478E+00    0.1932705656E-02    0.1517534070E-03    0.1430394888E+00    0.6832326797E+00
    0.4300000000E+06    0.5368447036E+00    0.1888602399E-02    0.1479193579E-03    0.1430534810E+00    0.6833096567E+00
    0.4500000000E+06    0.5368501778E+00    0.1847437604E-02    0.1443498209E-03    0.1430666569E+00    0.6833813574E+00
    0.4700000000E+06    0.5368548131E+00    0.1808897659E-02    0.1410159613E-03    0.1430791027E+00    0.6834483569E+00
    0.4900000000E+06    0.5368587273E+00    0.1772713973E-02    0.1378931472E-03    0.1430908917E+00    0.6835111461E+00
    0.1000000000E+06    0.5360605136E+00    0.3822192997E-02    0.3237659655E-03    0.1424713261E+00    0.6797843535E+00
    0.3000000000E+06    0.5367749307E+00    0.2248417044E-02    0.1794778885E-03    0.1429422302E+00    0.6826768903E+00
    0.5000000000E+06    0.5368604453E+00    0.1755432099E-02    0.1364041447E-03    0.1430965600E+00    0.6835410961E+00
    0.7000000000E+06    0.5368738980E+00    0.1491035362E-02    0.1138356947E-03    0.1431870029E+00    0.6839961446E+00
    0.9000000000E+06    0.5368686196E+00    0.1319759201E-02    0.9944547337E-04    0.1432505546E+00    0.6842877341E+00
    0.1100000000E+07    0.5368571678E+00    0.1197177888E-02    0.8926981630E-04    0.1432994136E+00    0.6844948644E+00
    0.1300000000E+07    0.5368436398E+00    0.1103828461E-02    0.8159588202E-04    0.1433390483E+00    0.6846517194E+00
    0.1500000000E+07    0.5368296119E+00    0.1029653431E-02    0.7554792729E-04    0.1433723662E+00    0.6847758072E+00
    0.1700000000E+07    0.5368157422E+00    0.9688605283E-03    0.7062598522E-04    0.1434010928E+00    0.6848771427E+00
    0.1900000000E+07    0.5368023099E+00    0.9178463831E-03    0.6652132907E-04    0.1434263339E+00    0.6849619219E+00
    0.2100000000E+07    0.5367894252E+00    0.8742357475E-03    0.6303176690E-04    0.1434488402E+00    0.6850342108E+00
    0.2300000000E+07    0.5367771192E+00    0.8363906419E-03    0.6001866415E-04    0.1434691441E+00    0.6850968022E+00
    0.2500000000E+07    0.5367653851E+00    0.8031398588E-03    0.5738340236E-04    0.1434876368E+00    0.6851516866E+00
    0.2700000000E+07    0.5367541986E+00    0.7736206849E-03    0.5505367829E-04    0.1435046140E+00    0.6852003258E+00
    0.2900000000E+07    0.5367435280E+00    0.7471816586E-03    0.5297512720E-04    0.1435203046E+00    0.6852438211E+00
    0.3100000000E+07    0.5367333393E+00    0.7233203594E-03    0.5110598748E-04    0.1435348893E+00    0.6852830194E+00
    0.3300000000E+07    0.5367235988E+00    0.7016422242E-03    0.4941358302E-04    0.1435485135E+00    0.6853185849E+00
    0.3500000000E+07    0.5367142742E+00    0.6818324755E-03    0.4787193445E-04    0.1435612956E+00    0.6853510461E+00
    0.3700000000E+07    0.5367053356E+00    0.6636364952E-03    0.4646009497E-04    0.1435733335E+00    0.6853808299E+00
    0.3900000000E+07    0.5366967553E+00    0.6468457965E-03    0.4516096470E-04    0.1435847088E+00    0.6854082853E+00
    0.4100000000E+07    0.5366885078E+00    0.6312877985E-03    0.4396042914E-04    0.1435954907E+00    0.6854337008E+00
    0.4300000000E+07    0.5366805702E+00    0.6168182427E-03    0.4284672203E-04    0.1436057378E+00    0.6854573172E+00
    0.4500000000E+07    0.5366729211E+00    0.6033154801E-03    0.4180994673E-04    0.1436155007E+00    0.6854793372E+00
    0.4700000000E+07    0.5366655415E+00    0.5906761070E-03    0.4084171153E-04    0.1436248230E+00    0.6854999330E+00
    0.4900000000E+07    0.5366584138E+00    0.5788115885E-03    0.3993484819E-04    0.1436337427E+00    0.6855192519E+00
    0.1000000000E+07    0.5368633172E+00    0.1253916986E-02    0.9396636751E-04    0.1432763925E+00    0.6843991528E+00
    0.3000000000E+07    0.5367383756E+00    0.7349556021E-03    0.5201660381E-04    0.1435277254E+00    0.6852639122E+00
    0.5000000000E+07    0.5366549394E+00    0.5731456360E-03    0.3950247035E-04    0.1436380621E+00    0.6855284728E+00
    0.7000000000E+07    0.5365954638E+00    0.4865198931E-03    0.3295138343E-04    0.1437095977E+00    0.6856690481E+00
    0.9000000000E+07    0.5365493991E+00    0.4304619085E-03    0.2877679719E-04    0.1437626209E+00    0.6857596057E+00
    0.1100000000E+08    0.5365118314E+00    0.3903695154E-03    0.2582618936E-04    0.1438047674E+00    0.6858241649E+00
    0.1300000000E+08    0.5364801180E+00    0.3598535076E-03    0.2360178322E-04    0.1438397482E+00    0.6858731837E+00
    0.1500000000E+08    0.5364526808E+00    0.3356151865E-03    0.2184918926E-04    0.1438696493E+00    0.6859120423E+00
    0.1700000000E+08    0.5364285033E+00    0.3157560554E-03    0.2042322940E-04    0.1438957608E+00    0.6859438283E+00
    0.1900000000E+08    0.5364068926E+00    0.2990956900E-03    0.1923428547E-04    0.1439189361E+00    0.6859704575E+00
    0.2100000000E+08    0.5363873556E+00    0.2848563248E-03    0.1822368057E-04    0.1439397694E+00    0.6859931896E+00
    0.2300000000E+08    0.5363695287E+00    0.2725018070E-03    0.1735119196E-04    0.1439586909E+00    0.6860128916E+00
    0.2500000000E+08    0.5363531364E+00    0.2616488903E-03    0.1658821299E-04    0.1439760224E+00    0.6860301826E+00
    0.2700000000E+08    0.5363379646E+00    0.2520153517E-03    0.1591377427E-04    0.1439920105E+00    0.6860455176E+00
