  Pressure (Pa) 22mC5-400 (mol/kg) 2mC6-400 (mol/kg) 33mC5-400 (mol/kg) 23mC5-400 (mol/kg) C7-400 (mol/kg)
    0.1000000000E+01    0.2120468628E-02    0.1567503690E-02    0.1914789830E-03    0.9308273216E-04    0.1683001888E-01
    0.3000000000E+01    0.6298666192E-02    0.4480918841E-02    0.5476117287E-03    0.2764961645E-03    0.4794163781E-01
    0.5000000000E+01    0.1039561840E-01    0.7133938762E-02    0.8722371874E-03    0.4563458099E-03    0.7606838671E-01
    0.7000000000E+01    0.1441409629E-01    0.9561730748E-02    0.1169625286E-02    0.6327531983E-03    0.1016252209E+00
    0.9000000000E+01    0.1835674296E-01    0.1179316993E-01    0.1443279432E-02    0.8058342493E-03    0.1249533521E+00
    0.1100000000E+02    0.2222608086E-01    0.1385219638E-01    0.1696102164E-02    0.9756995923E-03    0.1463359483E+00
    0.1300000000E+02    0.2602451862E-01    0.1575883586E-01    0.1930519693E-02    0.1142454864E-02    0.1660099849E+00
    0.1500000000E+02    0.2975435738E-01    0.1752997736E-01    0.2148576737E-02    0.1306200989E-02    0.1841753056E+00
    0.1700000000E+02    0.3341779670E-01    0.1917997229E-01    0.2352009577E-02    0.1467034435E-02    0.2010016298E+00
    0.1900000000E+02    0.3701694013E-01    0.2072110127E-01    0.2542302943E-02    0.1625047462E-02    0.2166340308E+00
    0.2100000000E+02    0.4055380039E-01    0.2216394137E-01    0.2720734743E-02    0.1780328343E-02    0.2311972593E+00
    0.2300000000E+02    0.4403030420E-01    0.2351765756E-01    0.2888411565E-02    0.1932961585E-02    0.2447991873E+00
    0.2500000000E+02    0.4744829686E-01    0.2479023623E-01    0.3046297078E-02    0.2083028118E-02    0.2575335744E+00
    0.2700000000E+02    0.5080954649E-01    0.2598867345E-01    0.3195234952E-02    0.2230605493E-02    0.2694823065E+00
    0.2900000000E+02    0.5411574804E-01    0.2711912821E-01    0.3335967478E-02    0.2375768048E-02    0.2807172219E+00
    0.3100000000E+02    0.5736852704E-01    0.2818704775E-01    0.3469150804E-02    0.2518587079E-02    0.2913016093E+00
    0.3300000000E+02    0.6056944312E-01    0.2919727086E-01    0.3595367487E-02    0.2659130991E-02    0.3012914458E+00
    0.3500000000E+02    0.6371999332E-01    0.3015411354E-01    0.3715136884E-02    0.2797465444E-02    0.3107364258E+00
    0.3700000000E+02    0.6682161524E-01    0.3106144043E-01    0.3828923824E-02    0.2933653492E-02    0.3196808203E+00
    0.3900000000E+02    0.6987568991E-01    0.3192272462E-01    0.3937145866E-02    0.3067755707E-02    0.3281641989E+00
    0.4100000000E+02    0.7288354462E-01    0.3274109815E-01    0.4040179417E-02    0.3199830305E-02    0.3362220398E+00
    0.4300000000E+02    0.7584645548E-01    0.3351939474E-01    0.4138364902E-02    0.3329933257E-02    0.3438862463E+00
    0.4500000000E+02    0.7876564987E-01    0.3426018609E-01    0.4232011174E-02    0.3458118397E-02    0.3511855876E+00
    0.4700000000E+02    0.8164230877E-01    0.3496581299E-01    0.4321399268E-02    0.3584437525E-02    0.3581460752E+00
    0.4900000000E+02    0.8447756895E-01    0.3563841193E-01    0.4406785625E-02    0.3708940500E-02    0.3647912872E+00
    0.1000000000E+02    0.2030042237E-01    0.1284290151E-01    0.1572133157E-02    0.8911621683E-03    0.1358720662E+00
    0.3000000000E+02    0.5574871638E-01    0.2766058928E-01    0.3403464788E-02    0.2447466163E-02    0.2860870746E+00
    0.5000000000E+02    0.8588001817E-01    0.3596294344E-01    0.4448052257E-02    0.3770526003E-02    0.3680024368E+00
    0.7000000000E+02    0.1120014343E+00    0.4111707270E-01    0.5110975492E-02    0.4917672136E-02    0.4199602395E+00
    0.9000000000E+02    0.1350095903E+00    0.4445058808E-01    0.5551514673E-02    0.5928232620E-02    0.4560474101E+00
    0.1100000000E+03    0.1555407291E+00    0.4662216885E-01    0.5848741323E-02    0.6830115515E-02    0.4826790410E+00
    0.1300000000E+03    0.1740594867E+00    0.4800655172E-01    0.6047777754E-02    0.7643702191E-02    0.5032047837E+00
    0.1500000000E+03    0.1909136680E+00    0.4883651743E-01    0.6176785993E-02    0.8384249641E-02    0.5195489902E+00
    0.1700000000E+03    0.2063692857E+00    0.4926558906E-01    0.6254449535E-02    0.9063427215E-02    0.5328982306E+00
    0.1900000000E+03    0.2206336810E+00    0.4939945522E-01    0.6293718386E-02    0.9690330709E-02    0.5440252100E+00
    0.2100000000E+03    0.2338712002E+00    0.4931324141E-01    0.6303867480E-02    0.1027216994E-01    0.5534554711E+00
    0.2300000000E+03    0.2462140795E+00    0.4906168346E-01    0.6291710346E-02    0.1081474621E-01    0.5615593451E+00
    0.2500000000E+03    0.2577701653E+00    0.4868544792E-01    0.6262354428E-02    0.1132279089E-01    0.5686055918E+00
    0.2700000000E+03    0.2686284935E+00    0.4821522714E-01    0.6219691616E-02    0.1180021019E-01    0.5747941702E+00
    0.2900000000E+03    0.2788633908E+00    0.4767448390E-01    0.6166727930E-02    0.1225026508E-01    0.5802770529E+00
    0.3100000000E+03    0.2885375366E+00    0.4708134291E-01    0.6105811463E-02    0.1267570553E-01    0.5851718900E+00
    0.3300000000E+03    0.2977042804E+00    0.4644992518E-01    0.6038793743E-02    0.1307887225E-01    0.5895712403E+00
    0.3500000000E+03    0.3064094187E+00    0.4579130816E-01    0.5967146296E-02    0.1346177460E-01    0.5935489643E+00
    0.3700000000E+03    0.3146925735E+00    0.4511422866E-01    0.5892046318E-02    0.1382615104E-01    0.5971647499E+00
    0.3900000000E+03    0.3225882727E+00    0.4442560506E-01    0.5814440624E-02    0.1417351656E-01    0.6004673792E+00
    0.4100000000E+03    0.3301268063E+00    0.4373093051E-01    0.5735093998E-02    0.1450520023E-01    0.6034971280E+00
    0.4300000000E+03    0.3373349106E+00    0.4303457236E-01    0.5654626222E-02    0.1482237523E-01    0.6062875554E+00
    0.4500000000E+03    0.3442363199E+00    0.4234000274E-01    0.5573540709E-02    0.1512608300E-01    0.6088668586E+00
    0.4700000000E+03    0.3508522148E+00    0.4164997754E-01    0.5492246879E-02    0.1541725299E-01    0.6112589101E+00
    0.4900000000E+03    0.3572015900E+00    0.4096667675E-01    0.5411077790E-02    0.1569671870E-01    0.6134840630E+00
    0.1000000000E+03    0.1455524890E+00    0.4565378927E-01    0.5714695081E-02    0.6391342024E-02    0.4702902285E+00
    0.3000000000E+03    0.2837670277E+00    0.4738349947E-01    0.6137137980E-02    0.1246590723E-01    0.5827916900E+00
    0.5000000000E+03    0.3602817463E+00    0.4062809952E-01    0.5370626729E-02    0.1583230002E-01    0.6145396084E+00
    0.7000000000E+03    0.4112861981E+00    0.3446108085E-01    0.4611219545E-02    0.1807838206E-01    0.6300605526E+00
    0.9000000000E+03    0.4480237091E+00    0.2954847387E-01    0.3980206540E-02    0.1969759717E-01    0.6394194959E+00
    0.1100000000E+04    0.4757107344E+00    0.2570253152E-01    0.3471600690E-02    0.2091895510E-01    0.6457418330E+00
    0.1300000000E+04    0.4972498644E+00    0.2267121591E-01    0.3061828199E-02    0.2186992664E-01    0.6503304351E+00
    0.1500000000E+04    0.5144216706E+00    0.2025049573E-01    0.2728926775E-02    0.2262873427E-01    0.6538298500E+00
    0.1700000000E+04    0.5283869121E+00    0.1828935503E-01    0.2455508394E-02    0.2324638838E-01    0.6565972853E+00
    0.1900000000E+04    0.5399353696E+00    0.1667810477E-01    0.2228381606E-02    0.2375760776E-01    0.6588474746E+00
    0.2100000000E+04    0.5496223320E+00    0.1533688436E-01    0.2037629849E-02    0.2418681069E-01    0.6607176642E+00
    0.2300000000E+04    0.5578487523E+00    0.1420696924E-01    0.1875775027E-02    0.2455163420E-01    0.6622998837E+00
    0.2500000000E+04    0.5649107051E+00    0.1324462754E-01    0.1737131991E-02    0.2486510601E-01    0.6636582705E+00
    0.2700000000E+04    0.5710310858E+00    0.1241685494E-01    0.1617334881E-02    0.2513703684E-01    0.6648389651E+00
    0.2900000000E+04    0.5763805642E+00    0.1169841294E-01    0.1512994933E-02    0.2537494101E-01    0.6658760551E+00
    0.3100000000E+04    0.5810917994E+00    0.1106975674E-01    0.1421453629E-02    0.2558466107E-01    0.6667952997E+00
    0.3300000000E+04    0.5852693009E+00    0.1051556966E-01    0.1340603727E-02    0.2577080120E-01    0.6676165467E+00
    0.3500000000E+04    0.5889964050E+00    0.1002371420E-01    0.1268758480E-02    0.2593703394E-01    0.6683553501E+00
    0.3700000000E+04    0.5923402979E+00    0.9584471842E-02    0.1204555169E-02    0.2608632098E-01    0.6690240818E+00
    0.3900000000E+04    0.5953556900E+00    0.9189985483E-02    0.1146883230E-02    0.2622107484E-01    0.6696327128E+00
    0.4100000000E+04    0.5980875416E+00    0.8833845602E-02    0.1094830191E-02    0.2634327865E-01    0.6701893737E+00
    0.4300000000E+04    0.6005731119E+00    0.8510779675E-02    0.1047640591E-02    0.2645457643E-01    0.6707007649E+00
    0.4500000000E+04    0.6028435181E+00    0.8216416585E-02    0.1004684480E-02    0.2655634155E-01    0.6711724606E+00
    0.4700000000E+04    0.6049249339E+00    0.7947106098E-02    0.9654330360E-03    0.2664972961E-01    0.6716091383E+00
    0.4900000000E+04    0.6068395215E+00    0.7699779237E-02    0.9294395413E-03    0.2673571937E-01    0.6720147539E+00
    0.1000000000E+04    0.4627820641E+00    0.2750869176E-01    0.3712028449E-02    0.2034850279E-01    0.6428561780E+00
    0.3000000000E+04    0.5788088638E+00    0.1137390404E-01    0.1465767345E-02    0.2548301136E-01    0.6663490510E+00
    0.5000000000E+04    0.6077402666E+00    0.7583532226E-02    0.9125436238E-03    0.2677620547E-01    0.6722069863E+00
    0.7000000000E+04    0.6203790190E+00    0.5952960894E-02    0.6780412095E-03    0.2734702891E-01    0.6750262646E+00
    0.9000000000E+04    0.6273839744E+00    0.5035985786E-02    0.5498474764E-03    0.2766675797E-01    0.6767291115E+00
    0.1100000000E+05    0.6318150431E+00    0.4439377701E-02    0.4689482950E-03    0.2787116348E-01    0.6778873595E+00
    0.1300000000E+05    0.6348637763E+00    0.4014660494E-02    0.4130139840E-03    0.2801330236E-01    0.6787352530E+00
    0.1500000000E+05    0.6370869805E+00    0.3693508812E-02    0.3718370985E-03    0.2811805589E-01    0.6793877981E+00
    0.1700000000E+05    0.6387787115E+00    0.3440024086E-02    0.3401135627E-03    0.2819861111E-01    0.6799085573E+00
    0.1900000000E+05    0.6401085665E+00    0.3233465495E-02    0.3148193185E-03    0.2826260095E-01    0.6803357402E+00
    0.2100000000E+05    0.6411810963E+00    0.3060964037E-02    0.2941046903E-03    0.2831474780E-01    0.6806938073E+00
    0.2300000000E+05    0.6420642035E+00    0.2914079938E-02    0.2767742494E-03    0.2835812976E-01    0.6809992031E+00
    0.2500000000E+05    0.6428038788E+00    0.2787027877E-02    0.2620203962E-03    0.2839483917E-01    0.6812634253E+00
    0.2700000000E+05    0.6434323663E+00    0.2675696432E-02    0.2492773157E-03    0.2842634829E-01    0.6814947755E+00
    0.2900000000E+05    0.6439729348E+00    0.2577074927E-02    0.2381363508E-03    0.2845372338E-01    0.6816994106E+00
    0.3100000000E+05    0.6444427935E+00    0.2488902383E-02    0.2282946459E-03    0.2847775591E-01    0.6818820019E+00
    0.3300000000E+05    0.6448549413E+00    0.2409443866E-02    0.2195227384E-03    0.2849904585E-01    0.6820461636E+00
    0.3500000000E+05    0.6452193792E+00    0.2337343121E-02    0.2116434091E-03    0.2851805645E-01    0.6821947398E+00
    0.3700000000E+05    0.6455439258E+00    0.2271522619E-02    0.2045174746E-03    0.2853515121E-01    0.6823300019E+00
    0.3900000000E+05    0.6458347820E+00    0.2211114006E-02    0.1980339965E-03    0.2855061943E-01    0.6824537883E+00
    0.4100000000E+05    0.6460969279E+00    0.2155408636E-02    0.1921033814E-03    0.2856469428E-01    0.6825676038E+00
    0.4300000000E+05    0.6463344089E+00    0.2103821669E-02    0.1866524208E-03    0.2857756587E-01    0.6826726938E+00
    0.4500000000E+05    0.6465505454E+00    0.2055865564E-02    0.1816206610E-03    0.2858939078E-01    0.6827700981E+00
    0.4700000000E+05    0.6467480876E+00    0.2011130189E-02    0.1769577032E-03    0.2860029917E-01    0.6828606929E+00
    0.4900000000E+05    0.6469293333E+00    0.1969267685E-02    0.1726211666E-03    0.2861040015E-01    0.6829452218E+00
    0.1000000000E+05    0.6298245241E+00    0.4709751579E-02    0.5053101883E-03    0.2777907341E-01    0.6773575495E+00
    0.3000000000E+05    0.6442158083E+00    0.2531801285E-02    0.2330688627E-03    0.2846611623E-01    0.6817932149E+00
    0.5000000000E+05    0.6470144615E+00    0.1949319156E-02    0.1705638638E-03    0.2861517725E-01    0.6829854139E+00
    0.7000000000E+05    0.6482022243E+00    0.1647407780E-02    0.1401459656E-03    0.2868467686E-01    0.6835857786E+00
    0.9000000000E+05    0.6488585324E+00    0.1454584148E-02    0.1214160305E-03    0.2872649113E-01    0.6839601020E+00
    0.1100000000E+06    0.6492746144E+00    0.1317615463E-02    0.1084363021E-03    0.2875515856E-01    0.6842209378E+00
    0.1300000000E+06    0.6495618060E+00    0.1213784019E-02    0.9877475839E-04    0.2877643647E-01    0.6844156072E+00
    0.1500000000E+06    0.6497718604E+00    0.1131528022E-02    0.9122932844E-04    0.2879309206E-01    0.6845678395E+00
    0.1700000000E+06    0.6499321002E+00    0.1064254222E-02    0.8512957716E-04    0.2880663384E-01    0.6846909841E+00
    0.1900000000E+06    0.6500583109E+00    0.1007888951E-02    0.8006851733E-04    0.2881796067E-01    0.6847931891E+00
    0.2100000000E+06    0.6501602482E+00    0.9597603260E-03    0.7578304497E-04    0.2882764493E-01    0.6848797406E+00
    0.2300000000E+06    0.6502442662E+00    0.9180327547E-03    0.7209459317E-04    0.2883607033E-01    0.6849542349E+00
    0.2500000000E+06    0.6503146805E+00    0.8813975873E-03    0.6887717756E-04    0.2884350494E-01    0.6850192131E+00
    0.2700000000E+06    0.6503745252E+00    0.8488931296E-03    0.6603905308E-04    0.2885014240E-01    0.6850765276E+00
    0.2900000000E+06    0.6504259956E+00    0.8197945604E-03    0.6351162476E-04    0.2885612660E-01    0.6851275644E+00
    0.3100000000E+06    0.6504707188E+00    0.7935437626E-03    0.6124245077E-04    0.2886156702E-01    0.6851733834E+00
    0.3300000000E+06    0.6505099270E+00    0.7697030116E-03    0.5919066589E-04    0.2886654862E-01    0.6852148109E+00
    0.3500000000E+06    0.6505445698E+00    0.7479234860E-03    0.5732389489E-04    0.2887113856E-01    0.6852525015E+00
    0.3700000000E+06    0.6505753911E+00    0.7279233005E-03    0.5561611469E-04    0.2887539071E-01    0.6852869814E+00
    0.3900000000E+06    0.6506029818E+00    0.7094718320E-03    0.5404613923E-04    0.2887934887E-01    0.6853186790E+00
    0.4100000000E+06    0.6506278172E+00    0.6923783134E-03    0.5259652336E-04    0.2888304911E-01    0.6853479468E+00
    0.4300000000E+06    0.6506502842E+00    0.6764833852E-03    0.5125275562E-04    0.2888652142E-01    0.6853750783E+00
    0.4500000000E+06    0.6506707003E+00    0.6616527390E-03    0.5000265393E-04    0.2888979101E-01    0.6854003197E+00
    0.4700000000E+06    0.6506893291E+00    0.6477722673E-03    0.4883590666E-04    0.2889287921E-01    0.6854238792E+00
    0.4900000000E+06    0.6507063910E+00    0.6347443137E-03    0.4774371947E-04    0.2889580428E-01    0.6854459347E+00
    0.1000000000E+06    0.6490875450E+00    0.1380918906E-02    0.1144019048E-03    0.2874200402E-01    0.6841009389E+00
    0.3000000000E+06    0.6504491159E+00    0.8063429440E-03    0.6234753955E-04    0.2885890899E-01    0.6851510698E+00
    0.5000000000E+06    0.6507143935E+00    0.6285232772E-03    0.4722318361E-04    0.2889721063E-01    0.6854564470E+00
    0.7000000000E+06    0.6508249377E+00    0.5334475327E-03    0.3935102349E-04    0.2891964366E-01    0.6856155081E+00
    0.9000000000E+06    0.6508844656E+00    0.4719509827E-03    0.3434718831E-04    0.2893539773E-01    0.6857167619E+00
    0.1100000000E+07    0.6509210791E+00    0.4279795094E-03    0.3081539621E-04    0.2894750345E-01    0.6857883540E+00
    0.1300000000E+07    0.6509455122E+00    0.3945155823E-03    0.2815519004E-04    0.2895731938E-01    0.6858423774E+00
    0.1500000000E+07    0.6509627375E+00    0.3679380823E-03    0.2606049491E-04    0.2896556773E-01    0.6858849945E+00
    0.1700000000E+07    0.6509753666E+00    0.3461636561E-03    0.2435693510E-04    0.2897267703E-01    0.6859197158E+00
    0.1900000000E+07    0.6509848991E+00    0.3278972359E-03    0.2293699980E-04    0.2897892188E-01    0.6859487066E+00
    0.2100000000E+07    0.6509922552E+00    0.3122856560E-03    0.2173036098E-04    0.2898448864E-01    0.6859733836E+00
    0.2300000000E+07    0.6509980293E+00    0.2987408557E-03    0.2068884301E-04    0.2898950947E-01    0.6859947178E+00
    0.2500000000E+07    0.6510026220E+00    0.2868425223E-03    0.1977820220E-04    0.2899408142E-01    0.6860133999E+00
    0.2700000000E+07    0.6510063124E+00    0.2762811587E-03    0.1897334851E-04    0.2899827786E-01    0.6860299361E+00
    0.2900000000E+07    0.6510093005E+00    0.2668231227E-03    0.1825542699E-04    0.2900215558E-01    0.6860447071E+00
    0.3100000000E+07    0.6510117332E+00    0.2582882711E-03    0.1760996052E-04    0.2900575942E-01    0.6860580056E+00
    0.3300000000E+07    0.6510137204E+00    0.2505351649E-03    0.1702562616E-04    0.2900912539E-01    0.6860700603E+00
    0.3500000000E+07    0.6510153461E+00    0.2434509888E-03    0.1649342474E-04    0.2901228287E-01    0.6860810535E+00
    0.3700000000E+07    0.6510166755E+00    0.2369445048E-03    0.1600610267E-04    0.2901525611E-01    0.6860911319E+00
    0.3900000000E+07    0.6510177595E+00    0.2309410175E-03    0.1555774016E-04    0.2901806538E-01    0.6861004156E+00
    0.4100000000E+07    0.6510186388E+00    0.2253787049E-03    0.1514345217E-04    0.2902072776E-01    0.6861090035E+00
    0.4300000000E+07    0.6510193462E+00    0.2202058978E-03    0.1475916732E-04    0.2902325784E-01    0.6861169782E+00
    0.4500000000E+07    0.6510199080E+00    0.2153790304E-03    0.1440146189E-04    0.2902566810E-01    0.6861244093E+00
    0.4700000000E+07    0.6510203461E+00    0.2108610752E-03    0.1406743333E-04    0.2902796936E-01    0.6861313558E+00
    0.4900000000E+07    0.6510206785E+00    0.2066203326E-03    0.1375460270E-04    0.2903017103E-01    0.6861378679E+00
    0.1000000000E+07    0.6509047629E+00    0.4483284274E-03    0.3244484894E-04    0.2894180027E-01    0.6857553076E+00
    0.3000000000E+07    0.6510105787E+00    0.2624499098E-03    0.1792440725E-04    0.2900398931E-01    0.6860515249E+00
    0.5000000000E+07    0.6510208097E+00    0.2045952292E-03    0.1360545869E-04    0.2903123714E-01    0.6861409749E+00
    0.7000000000E+07    0.6510204490E+00    0.1736402805E-03    0.1134639311E-04    0.2904888699E-01    0.6861882391E+00
    0.9000000000E+07    0.6510175616E+00    0.1536148414E-03    0.9907457113E-05    0.2906196195E-01    0.6862185779E+00
    0.1100000000E+08    0.6510139880E+00    0.1392957637E-03    0.8890691440E-05    0.2907235074E-01    0.6862401505E+00
    0.1300000000E+08    0.6510102979E+00    0.1283985750E-03    0.8124318726E-05    0.2908097070E-01    0.6862564969E+00
    0.1500000000E+08    0.6510066913E+00    0.1197441472E-03    0.7520586126E-05    0.2908833721E-01    0.6862694334E+00
    0.1700000000E+08    0.6510032394E+00    0.1126539985E-03    0.7029427882E-05    0.2909476885E-01    0.6862800004E+00
    0.1900000000E+08    0.6509999628E+00    0.1067063391E-03    0.6619945124E-05    0.2910047636E-01    0.6862888423E+00
    0.2100000000E+08    0.6509968613E+00    0.1016232941E-03    0.6271910488E-05    0.2910560640E-01    0.6862963820E+00
    0.2300000000E+08    0.6509939265E+00    0.9721333128E-04    0.5971460158E-05    0.2911026513E-01    0.6863029105E+00
    0.2500000000E+08    0.6509911469E+00    0.9333955496E-04    0.5708735256E-05    0.2911453192E-01    0.6863086350E+00
    0.2700000000E+08    0.6509885102E+00    0.8990116303E-04    0.5476509708E-05    0.2911846763E-01    0.6863137080E+00
