  Pressure (Pa) 22mC5-400 (mol/kg) 2mC6-400 (mol/kg) 33mC5-400 (mol/kg) 23mC5-400 (mol/kg) C7-400 (mol/kg)
    0.1000000000E+01    0.2117153988E-02    0.2390312583E-02    0.4540981342E-03    0.4646865963E-03    0.1718765913E-02
    0.3000000000E+01    0.6269675229E-02    0.7048844749E-02    0.1339041666E-02    0.1376121635E-02    0.5096040447E-02
    0.5000000000E+01    0.1031732539E-01    0.1155087657E-01    0.2194177265E-02    0.2264555329E-02    0.8395484401E-02
    0.7000000000E+01    0.1426484570E-01    0.1590356035E-01    0.3020864582E-02    0.3131027408E-02    0.1161998007E-01
    0.9000000000E+01    0.1811668761E-01    0.2011362566E-01    0.3820383012E-02    0.3976514070E-02    0.1477226666E-01
    0.1100000000E+02    0.2187703469E-01    0.2418741009E-01    0.4593937511E-02    0.4801932766E-02    0.1785494908E-01
    0.1300000000E+02    0.2554982248E-01    0.2813088724E-01    0.5342663920E-02    0.5608146562E-02    0.2087050616E-01
    0.1500000000E+02    0.2913875666E-01    0.3194969240E-01    0.6067633830E-02    0.6395968121E-02    0.2382129823E-01
    0.1700000000E+02    0.3264732965E-01    0.3564914610E-01    0.6769859056E-02    0.7166163336E-02    0.2670957414E-01
    0.1900000000E+02    0.3607883571E-01    0.3923427566E-01    0.7450295725E-02    0.7919454661E-02    0.2953747784E-01
    0.2100000000E+02    0.3943638493E-01    0.4270983506E-01    0.8109848045E-02    0.8656524151E-02    0.3230705442E-01
    0.2300000000E+02    0.4272291591E-01    0.4608032321E-01    0.8749371770E-02    0.9378016262E-02    0.3502025584E-01
    0.2500000000E+02    0.4594120749E-01    0.4935000069E-01    0.9369677388E-02    0.1008454042E-01    0.3767894616E-01
    0.2700000000E+02    0.4909388949E-01    0.5252290530E-01    0.9971533062E-02    0.1077667336E-01    0.4028490651E-01
    0.2900000000E+02    0.5218345263E-01    0.5560286638E-01    0.1055566735E-01    0.1145496133E-01    0.4283983964E-01
    0.3100000000E+02    0.5521225765E-01    0.5859351797E-01    0.1112277170E-01    0.1211992207E-01    0.4534537425E-01
    0.3300000000E+02    0.5818254370E-01    0.6149831108E-01    0.1167350280E-01    0.1277204666E-01    0.4780306898E-01
    0.3500000000E+02    0.6109643616E-01    0.6432052498E-01    0.1220848468E-01    0.1341180121E-01    0.5021441617E-01
    0.3700000000E+02    0.6395595378E-01    0.6706327772E-01    0.1272831076E-01    0.1403962847E-01    0.5258084540E-01
    0.3900000000E+02    0.6676301532E-01    0.6972953585E-01    0.1323354564E-01    0.1465594926E-01    0.5490372673E-01
    0.4100000000E+02    0.6951944574E-01    0.7232212344E-01    0.1372472688E-01    0.1526116381E-01    0.5718437385E-01
    0.4300000000E+02    0.7222698189E-01    0.7484373050E-01    0.1420236653E-01    0.1585565307E-01    0.5942404691E-01
    0.4500000000E+02    0.7488727779E-01    0.7729692078E-01    0.1466695265E-01    0.1643977977E-01    0.6162395529E-01
    0.4700000000E+02    0.7750190958E-01    0.7968413905E-01    0.1511895068E-01    0.1701388961E-01    0.6378526013E-01
    0.4900000000E+02    0.8007238003E-01    0.8200771786E-01    0.1555880475E-01    0.1757831217E-01    0.6590907675E-01
    0.1000000000E+02    0.2000804644E-01    0.2216717142E-01    0.4210333202E-02    0.4391676746E-02    0.1632215060E-01
    0.3000000000E+02    0.5370530720E-01    0.5710913602E-01    0.1084130643E-01    0.1178907631E-01    0.4409868275E-01
    0.5000000000E+02    0.8134150539E-01    0.8314634228E-01    0.1577431105E-01    0.1785698956E-01    0.6695726353E-01
    0.7000000000E+02    0.1047212974E+00    0.1030686408E+00    0.1954036420E-01    0.2299120823E-01    0.8619253820E-01
    0.9000000000E+02    0.1249717380E+00    0.1186288932E+00    0.2247335458E-01    0.2743892619E-01    0.1026742679E+00
    0.1100000000E+03    0.1428349546E+00    0.1309816216E+00    0.2479336324E-01    0.3136291884E-01    0.1170093753E+00
    0.1300000000E+03    0.1588210483E+00    0.1409167092E+00    0.2665107570E-01    0.3487507373E-01    0.1296348999E+00
    0.1500000000E+03    0.1732933459E+00    0.1489917418E+00    0.2815294349E-01    0.3805508686E-01    0.1408739942E+00
    0.1700000000E+03    0.1865185341E+00    0.1556107754E+00    0.2937616656E-01    0.4096145772E-01    0.1509710657E+00
    0.1900000000E+03    0.1986974789E+00    0.1610732024E+00    0.3037799219E-01    0.4363824861E-01    0.1601146128E+00
    0.2100000000E+03    0.2099848977E+00    0.1656051494E+00    0.3120169242E-01    0.4611939941E-01    0.1684525142E+00
    0.2300000000E+03    0.2205023290E+00    0.1693802692E+00    0.3188052392E-01    0.4843157205E-01    0.1761025373E+00
    0.2500000000E+03    0.2303469236E+00    0.1725338724E+00    0.3244042074E-01    0.5059607903E-01    0.1831597273E+00
    0.2700000000E+03    0.2395975547E+00    0.1751727565E+00    0.3290186785E-01    0.5263022340E-01    0.1897017091E+00
    0.2900000000E+03    0.2483191549E+00    0.1773821807E+00    0.3328123144E-01    0.5454825024E-01    0.1957925620E+00
    0.3100000000E+03    0.2565658568E+00    0.1792309069E+00    0.3359172059E-01    0.5636203545E-01    0.2014856971E+00
    0.3300000000E+03    0.2643833056E+00    0.1807749012E+00    0.3384409389E-01    0.5808159311E-01    0.2068260251E+00
    0.3500000000E+03    0.2718103898E+00    0.1820600918E+00    0.3404718627E-01    0.5971545511E-01    0.2118516127E+00
    0.3700000000E+03    0.2788805547E+00    0.1831244520E+00    0.3420830688E-01    0.6127095925E-01    0.2165949628E+00
    0.3900000000E+03    0.2856228122E+00    0.1839995917E+00    0.3433354347E-01    0.6275447076E-01    0.2210840149E+00
    0.4100000000E+03    0.2920625263E+00    0.1847119867E+00    0.3442799752E-01    0.6417155469E-01    0.2253429353E+00
    0.4300000000E+03    0.2982220317E+00    0.1852839381E+00    0.3449596798E-01    0.6552711145E-01    0.2293927473E+00
    0.4500000000E+03    0.3041211247E+00    0.1857343286E+00    0.3454109596E-01    0.6682548466E-01    0.2332518370E+00
    0.4700000000E+03    0.3097774574E+00    0.1860792222E+00    0.3456647985E-01    0.6807054757E-01    0.2369363644E+00
    0.4900000000E+03    0.3152068572E+00    0.1863323453E+00    0.3457476748E-01    0.6926577313E-01    0.2404605985E+00
    0.1000000000E+03    0.1341656547E+00    0.1251501771E+00    0.2369929721E-01    0.2945847113E-01    0.1100796392E+00
    0.3000000000E+03    0.2524988391E+00    0.1783478694E+00    0.3344436238E-01    0.5546750850E-01    0.1986858597E+00
    0.5000000000E+03    0.3178409695E+00    0.1864282402E+00    0.3457322307E-01    0.6984568699E-01    0.2421666164E+00
    0.7000000000E+03    0.3614447985E+00    0.1856474795E+00    0.3405335902E-01    0.7944975114E-01    0.2703016573E+00
    0.9000000000E+03    0.3927490514E+00    0.1825734404E+00    0.3314854308E-01    0.8635110992E-01    0.2909375750E+00
    0.1100000000E+04    0.4162104166E+00    0.1789629051E+00    0.3219083305E-01    0.9152817142E-01    0.3071786283E+00
    0.1300000000E+04    0.4343453377E+00    0.1753631696E+00    0.3127777145E-01    0.9553359878E-01    0.3205455560E+00
    0.1500000000E+04    0.4487086881E+00    0.1719475811E+00    0.3043531098E-01    0.9870900292E-01    0.3318901646E+00
    0.1700000000E+04    0.4603159411E+00    0.1687608724E+00    0.2966571427E-01    0.1012775682E+00    0.3417356569E+00
    0.1900000000E+04    0.4698570327E+00    0.1658018620E+00    0.2896354869E-01    0.1033909848E+00    0.3504257853E+00
    0.2100000000E+04    0.4778154705E+00    0.1630537421E+00    0.2832138566E-01    0.1051555943E+00    0.3581982885E+00
    0.2300000000E+04    0.4845389058E+00    0.1604956376E+00    0.2773184791E-01    0.1066478842E+00    0.3652243538E+00
    0.2500000000E+04    0.4902828576E+00    0.1581069984E+00    0.2718828749E-01    0.1079240906E+00    0.3716313199E+00
    0.2700000000E+04    0.4952387654E+00    0.1558691357E+00    0.2668494081E-01    0.1090263609E+00    0.3775164753E+00
    0.2900000000E+04    0.4995525128E+00    0.1537656045E+00    0.2621688998E-01    0.1099868236E+00    0.3829558295E+00
    0.3100000000E+04    0.5033369646E+00    0.1517821355E+00    0.2577996145E-01    0.1108303434E+00    0.3880099040E+00
    0.3300000000E+04    0.5066806369E+00    0.1499064064E+00    0.2537061402E-01    0.1115764276E+00    0.3927276780E+00
    0.3500000000E+04    0.5096538102E+00    0.1481277791E+00    0.2498583506E-01    0.1122405697E+00    0.3971493534E+00
    0.3700000000E+04    0.5123129136E+00    0.1464370480E+00    0.2462305125E-01    0.1128352140E+00    0.4013083367E+00
    0.3900000000E+04    0.5147037194E+00    0.1448262181E+00    0.2428005383E-01    0.1133704581E+00    0.4052326926E+00
    0.4100000000E+04    0.5168637044E+00    0.1432883162E+00    0.2395493728E-01    0.1138545720E+00    0.4089462267E+00
    0.4300000000E+04    0.5188238176E+00    0.1418172321E+00    0.2364604906E-01    0.1142943880E+00    0.4124693075E+00
    0.4500000000E+04    0.5206098208E+00    0.1404075873E+00    0.2335194868E-01    0.1146955949E+00    0.4158194988E+00
    0.4700000000E+04    0.5222433147E+00    0.1390546256E+00    0.2307137422E-01    0.1150629646E+00    0.4190120530E+00
    0.4900000000E+04    0.5237425350E+00    0.1377541219E+00    0.2280321488E-01    0.1154005266E+00    0.4220603000E+00
    0.1000000000E+04    0.4052729985E+00    0.1807872770E+00    0.3266755059E-01    0.8911409230E-01    0.2994904670E+00
    0.3000000000E+04    0.5015048794E+00    0.1527596749E+00    0.2599477029E-01    0.1104218745E+00    0.3855277320E+00
    0.5000000000E+04    0.5244467268E+00    0.1371223482E+00    0.2267347944E-01    0.1155592205E+00    0.4235340259E+00
    0.7000000000E+04    0.5342434023E+00    0.1265085394E+00    0.2054270650E-01    0.1177792092E+00    0.4476561599E+00
    0.9000000000E+04    0.5395947933E+00    0.1185316312E+00    0.1899580376E-01    0.1190067797E+00    0.4650858217E+00
    0.1100000000E+05    0.5429440167E+00    0.1121843127E+00    0.1779404761E-01    0.1197846515E+00    0.4785872854E+00
    0.1300000000E+05    0.5452289631E+00    0.1069435337E+00    0.1681941732E-01    0.1203220070E+00    0.4895165293E+00
    0.1500000000E+05    0.5468833932E+00    0.1025019134E+00    0.1600500685E-01    0.1207159836E+00    0.4986382174E+00
    0.1700000000E+05    0.5481345467E+00    0.9866331751E-01    0.1530928231E-01    0.1210176792E+00    0.5064249814E+00
    0.1900000000E+05    0.5491126302E+00    0.9529498296E-01    0.1470473474E-01    0.1212564940E+00    0.5131886999E+00
    0.2100000000E+05    0.5498974714E+00    0.9230293815E-01    0.1417223537E-01    0.1214505280E+00    0.5191455559E+00
    0.2300000000E+05    0.5505406704E+00    0.8961829390E-01    0.1369796744E-01    0.1216115302E+00    0.5244512768E+00
    0.2500000000E+05    0.5510770309E+00    0.8718909622E-01    0.1327164147E-01    0.1217474586E+00    0.5292215660E+00
    0.2700000000E+05    0.5515308629E+00    0.8497523405E-01    0.1288539983E-01    0.1218638953E+00    0.5335446077E+00
    0.2900000000E+05    0.5519196507E+00    0.8294512299E-01    0.1253311426E-01    0.1219648719E+00    0.5374890614E+00
    0.3100000000E+05    0.5522562854E+00    0.8107347039E-01    0.1220991891E-01    0.1220533738E+00    0.5411093649E+00
    0.3300000000E+05    0.5525504767E+00    0.7933972507E-01    0.1191189017E-01    0.1221316591E+00    0.5444493604E+00
    0.3500000000E+05    0.5528096750E+00    0.7772697471E-01    0.1163582140E-01    0.1222014677E+00    0.5475448415E+00
    0.3700000000E+05    0.5530396907E+00    0.7622114465E-01    0.1137906074E-01    0.1222641625E+00    0.5504253825E+00
    0.3900000000E+05    0.5532451210E+00    0.7481040451E-01    0.1113939199E-01    0.1223208263E+00    0.5531156803E+00
    0.4100000000E+05    0.5534296500E+00    0.7348472133E-01    0.1091494567E-01    0.1223723304E+00    0.5556365548E+00
    0.4300000000E+05    0.5535962641E+00    0.7223551791E-01    0.1070413142E-01    0.1224193845E+00    0.5580057076E+00
    0.4500000000E+05    0.5537474092E+00    0.7105540817E-01    0.1050558601E-01    0.1224625719E+00    0.5602383053E+00
    0.4700000000E+05    0.5538851078E+00    0.6993798957E-01    0.1031813282E-01    0.1225023771E+00    0.5623474336E+00
    0.4900000000E+05    0.5540110460E+00    0.6887767856E-01    0.1014074987E-01    0.1225392059E+00    0.5643444546E+00
    0.1000000000E+05    0.5414433176E+00    0.1151939052E+00    0.1836083044E-01    0.1194349152E+00    0.4722234490E+00
    0.3000000000E+05    0.5520938184E+00    0.8199087028E-01    0.1236814461E-01    0.1220105269E+00    0.5393367775E+00
    0.5000000000E+05    0.5540700569E+00    0.6836738450E-01    0.1005555126E-01    0.1225566132E+00    0.5653040757E+00
    0.7000000000E+05    0.5548817511E+00    0.6023573550E-01    0.8712887367E-02    0.1228090941E+00    0.5804707598E+00
    0.9000000000E+05    0.5553170302E+00    0.5462413327E-01    0.7803015263E-02    0.1229602768E+00    0.5908069275E+00
    0.1100000000E+06    0.5555850730E+00    0.5043011151E-01    0.7132155523E-02    0.1230636060E+00    0.5984666430E+00
    0.1300000000E+06    0.5557648022E+00    0.4713181047E-01    0.6610253733E-02    0.1231401358E+00    0.6044526875E+00
    0.1500000000E+06    0.5558924756E+00    0.4444423746E-01    0.6188803721E-02    0.1231999479E+00    0.6093063856E+00
    0.1700000000E+06    0.5559870264E+00    0.4219617054E-01    0.5838983209E-02    0.1232485221E+00    0.6133501455E+00
    0.1900000000E+06    0.5560592788E+00    0.4027742713E-01    0.5542414861E-02    0.1232891163E+00    0.6167900189E+00
    0.2100000000E+06    0.5561158547E+00    0.3861332112E-01    0.5286739801E-02    0.1233238010E+00    0.6197648932E+00
    0.2300000000E+06    0.5561610239E+00    0.3715111949E-01    0.5063292030E-02    0.1233539620E+00    0.6223723702E+00
    0.2500000000E+06    0.5561976582E+00    0.3585234378E-01    0.4865786867E-02    0.1233805661E+00    0.6246833818E+00
    0.2700000000E+06    0.5562277570E+00    0.3468814458E-01    0.4689538346E-02    0.1234043108E+00    0.6267509231E+00
    0.2900000000E+06    0.5562527528E+00    0.3363639370E-01    0.4530970251E-02    0.1234257141E+00    0.6286155170E+00
    0.3100000000E+06    0.5562736975E+00    0.3267978592E-01    0.4387298693E-02    0.1234451694E+00    0.6303087672E+00
    0.3300000000E+06    0.5562913795E+00    0.3180455966E-01    0.4256319249E-02    0.1234629820E+00    0.6318557437E+00
    0.3500000000E+06    0.5563064011E+00    0.3099961077E-01    0.4136260188E-02    0.1234793929E+00    0.6332766303E+00
    0.3700000000E+06    0.5563192293E+00    0.3025586385E-01    0.4025678812E-02    0.1234945955E+00    0.6345878891E+00
    0.3900000000E+06    0.5563302315E+00    0.2956581698E-01    0.3923386662E-02    0.1235087468E+00    0.6358031030E+00
    0.4100000000E+06    0.5563397005E+00    0.2892320573E-01    0.3828394543E-02    0.1235219760E+00    0.6369335944E+00
    0.4300000000E+06    0.5563478720E+00    0.2832275124E-01    0.3739871444E-02    0.1235343906E+00    0.6379888895E+00
    0.4500000000E+06    0.5563549379E+00    0.2775996846E-01    0.3657113363E-02    0.1235460808E+00    0.6389770697E+00
    0.4700000000E+06    0.5563610558E+00    0.2723101826E-01    0.3579519344E-02    0.1235571230E+00    0.6399050430E+00
    0.4900000000E+06    0.5563663561E+00    0.2673259197E-01    0.3506572828E-02    0.1235675825E+00    0.6407787552E+00
    0.1000000000E+06    0.5554655159E+00    0.5239038626E-01    0.7444721015E-02    0.1230162237E+00    0.5948933055E+00
    0.3000000000E+06    0.5562636771E+00    0.3314712817E-01    0.4457421788E-02    0.1234356644E+00    0.6294818622E+00
    0.5000000000E+06    0.5563687344E+00    0.2649391356E-01    0.3471700358E-02    0.1235726115E+00    0.6411969001E+00
    0.7000000000E+06    0.5563922300E+00    0.2279155834E-01    0.2935862133E-02    0.1236528637E+00    0.6476627427E+00
    0.9000000000E+06    0.5563935358E+00    0.2034137634E-01    0.2586875347E-02    0.1237092756E+00    0.6519204843E+00
    0.1100000000E+07    0.5563869412E+00    0.1856224574E-01    0.2336540931E-02    0.1237526637E+00    0.6550012794E+00
    0.1300000000E+07    0.5563772508E+00    0.1719286982E-01    0.2145754828E-02    0.1237878748E+00    0.6573661874E+00
    0.1500000000E+07    0.5563663923E+00    0.1609572197E-01    0.1994159921E-02    0.1238174850E+00    0.6592568957E+00
    0.1700000000E+07    0.5563552219E+00    0.1519048637E-01    0.1869974245E-02    0.1238430233E+00    0.6608141088E+00
    0.1900000000E+07    0.5563441411E+00    0.1442664126E-01    0.1765843086E-02    0.1238654698E+00    0.6621261109E+00
    0.2100000000E+07    0.5563333402E+00    0.1377057904E-01    0.1676906567E-02    0.1238854896E+00    0.6632515047E+00
    0.2300000000E+07    0.5563229056E+00    0.1319894531E-01    0.1599807416E-02    0.1239035549E+00    0.6642309406E+00
    0.2500000000E+07    0.5563128706E+00    0.1269493069E-01    0.1532142039E-02    0.1239200124E+00    0.6650936304E+00
    0.2700000000E+07    0.5563032404E+00    0.1224608226E-01    0.1472138350E-02    0.1239351243E+00    0.6658611848E+00
    0.2900000000E+07    0.5562940058E+00    0.1184294886E-01    0.1418457350E-02    0.1239490937E+00    0.6665499850E+00
    0.3100000000E+07    0.5562851505E+00    0.1147820878E-01    0.1370065950E-02    0.1239620808E+00    0.6671727070E+00
    0.3300000000E+07    0.5562766547E+00    0.1114608887E-01    0.1326152633E-02    0.1239742147E+00    0.6677393358E+00
    0.3500000000E+07    0.5562684974E+00    0.1084196654E-01    0.1286069909E-02    0.1239856003E+00    0.6682578587E+00
    0.3700000000E+07    0.5562606580E+00    0.1056209024E-01    0.1249294024E-02    0.1239963245E+00    0.6687347524E+00
    0.3900000000E+07    0.5562531165E+00    0.1030337879E-01    0.1215396149E-02    0.1240064599E+00    0.6691753322E+00
    0.4100000000E+07    0.5562458539E+00    0.1006327448E-01    0.1184021359E-02    0.1240160677E+00    0.6695840069E+00
    0.4300000000E+07    0.5562388524E+00    0.9839633837E-02    0.1154873034E-02    0.1240252002E+00    0.6699644688E+00
    0.4500000000E+07    0.5562320958E+00    0.9630644992E-02    0.1127701103E-02    0.1240339020E+00    0.6703198371E+00
    0.4700000000E+07    0.5562255687E+00    0.9434764381E-02    0.1102293065E-02    0.1240422121E+00    0.6706527672E+00
    0.4900000000E+07    0.5562192572E+00    0.9250667637E-02    0.1078467028E-02    0.1240501640E+00    0.6709655364E+00
    0.1000000000E+07    0.5563908214E+00    0.1938842451E-01    0.2452453860E-02    0.1237322181E+00    0.6535717916E+00
    0.3000000000E+07    0.5562895319E+00    0.1165617141E-01    0.1393655586E-02    0.1239557013E+00    0.6668689280E+00
    0.5000000000E+07    0.5562161782E+00    0.9162674630E-02    0.1067097428E-02    0.1240540151E+00    0.6711149854E+00
    0.7000000000E+07    0.5561632732E+00    0.7811159711E-02    0.8940566904E-03    0.1241178216E+00    0.6734065963E+00
    0.9000000000E+07    0.5561221136E+00    0.6930314664E-02    0.7830175490E-03    0.1241651478E+00    0.6748960802E+00
    0.1100000000E+08    0.5560884700E+00    0.6297311395E-02    0.7041654168E-03    0.1242027845E+00    0.6759643464E+00
    0.1300000000E+08    0.5560600321E+00    0.5813806585E-02    0.6445150637E-03    0.1242340344E+00    0.6767790489E+00
    0.1500000000E+08    0.5560354085E+00    0.5428717322E-02    0.5973912192E-03    0.1242607550E+00    0.6774270965E+00
    0.1700000000E+08    0.5560136985E+00    0.5112508433E-02    0.5589673565E-03    0.1242840952E+00    0.6779586570E+00
    0.1900000000E+08    0.5559942861E+00    0.4846748725E-02    0.5268730023E-03    0.1243048158E+00    0.6784049958E+00
    0.2100000000E+08    0.5559767318E+00    0.4619257702E-02    0.4995515990E-03    0.1243234462E+00    0.6787867514E+00
    0.2300000000E+08    0.5559607110E+00    0.4421617558E-02    0.4759335300E-03    0.1243403701E+00    0.6791181729E+00
    0.2500000000E+08    0.5559459775E+00    0.4247798184E-02    0.4552564883E-03    0.1243558744E+00    0.6794094587E+00
    0.2700000000E+08    0.5559323396E+00    0.4093350662E-02    0.4369606691E-03    0.1243701790E+00    0.6796681272E+00
