  Pressure (Pa) 22mC5-400 (mol/kg) 2mC6-400 (mol/kg) 33mC5-400 (mol/kg) 23mC5-400 (mol/kg) C7-400 (mol/kg)
    0.1000000000E+01    0.2120066746E-02    0.1576589569E-02    0.3851479605E-03    0.9306509927E-04    0.1186553995E-01
    0.3000000000E+01    0.6295143144E-02    0.4554976935E-02    0.1113058581E-02    0.2763415869E-03    0.3425390962E-01
    0.5000000000E+01    0.1038608324E-01    0.7321040695E-02    0.1789495016E-02    0.4559274414E-03    0.5501766858E-01
    0.7000000000E+01    0.1439588137E-01    0.9896564428E-02    0.2419750353E-02    0.6319539876E-03    0.7433067277E-01
    0.9000000000E+01    0.1832738758E-01    0.1230034852E-01    0.3008390776E-02    0.8045462232E-03    0.9234271315E-01
    0.1100000000E+02    0.2218331623E-01    0.1454871134E-01    0.3559377908E-02    0.9738231955E-03    0.1091835457E+00
    0.1300000000E+02    0.2596625399E-01    0.1665589232E-01    0.4076167170E-02    0.1139898352E-02    0.1249661376E+00
    0.1500000000E+02    0.2967866722E-01    0.1863437850E-01    0.4561787466E-02    0.1302879863E-02    0.1397893017E+00
    0.1700000000E+02    0.3332290893E-01    0.2049517115E-01    0.5018906198E-02    0.1462870931E-02    0.1537398499E+00
    0.1900000000E+02    0.3690122521E-01    0.2224800479E-01    0.5449882681E-02    0.1619970066E-02    0.1668943646E+00
    0.2100000000E+02    0.4041576124E-01    0.2390152829E-01    0.5856812293E-02    0.1774271355E-02    0.1793206654E+00
    0.2300000000E+02    0.4386856689E-01    0.2546345559E-01    0.6241563191E-02    0.1925864705E-02    0.1910790303E+00
    0.2500000000E+02    0.4726160200E-01    0.2694069166E-01    0.6605807014E-02    0.2074836073E-02    0.2022232176E+00
    0.2700000000E+02    0.5059674125E-01    0.2833943849E-01    0.6951044693E-02    0.2221267682E-02    0.2128013268E+00
    0.2900000000E+02    0.5387577874E-01    0.2966528471E-01    0.7278628257E-02    0.2365238223E-02    0.2228565252E+00
    0.3100000000E+02    0.5710043231E-01    0.3092328155E-01    0.7589779347E-02    0.2506823040E-02    0.2324276668E+00
    0.3300000000E+02    0.6027234756E-01    0.3211800781E-01    0.7885604997E-02    0.2646094310E-02    0.2415498186E+00
    0.3500000000E+02    0.6339310159E-01    0.3325362533E-01    0.8167111149E-02    0.2783121206E-02    0.2502547131E+00
    0.3700000000E+02    0.6646420658E-01    0.3433392686E-01    0.8435214280E-02    0.2917970054E-02    0.2585711358E+00
    0.3900000000E+02    0.6948711307E-01    0.3536237730E-01    0.8690751431E-02    0.3050704476E-02    0.2665252613E+00
    0.4100000000E+02    0.7246321312E-01    0.3634214945E-01    0.8934488898E-02    0.3181385530E-02    0.2741409435E+00
    0.4300000000E+02    0.7539384321E-01    0.3727615515E-01    0.9167129786E-02    0.3310071835E-02    0.2814399680E+00
    0.4500000000E+02    0.7828028702E-01    0.3816707240E-01    0.9389320606E-02    0.3436819696E-02    0.2884422722E+00
    0.4700000000E+02    0.8112377803E-01    0.3901736911E-01    0.9601657038E-02    0.3561683216E-02    0.2951661383E+00
    0.4900000000E+02    0.8392550193E-01    0.3982932400E-01    0.9804688998E-02    0.3684714401E-02    0.3016283620E+00
    0.1000000000E+02    0.2026463453E-01    0.1344302305E-01    0.3288364189E-02    0.8895918995E-03    0.1009021100E+00
    0.3000000000E+02    0.5549479902E-01    0.3030246775E-01    0.7436186154E-02    0.2436324263E-02    0.2277003283E+00
    0.5000000000E+02    0.8531105925E-01    0.4022158819E-01    0.9902876245E-02    0.3745558572E-02    0.3047662371E+00
    0.7000000000E+02    0.1110848323E+00    0.4649064868E-01    0.1148348670E-01    0.4877446939E-02    0.3569556463E+00
    0.9000000000E+02    0.1337445926E+00    0.5058502239E-01    0.1253390224E-01    0.5872715089E-02    0.3948567881E+00
    0.1100000000E+03    0.1539421901E+00    0.5328059791E-01    0.1324126444E-01    0.6759956173E-02    0.4237599772E+00
    0.1300000000E+03    0.1721494827E+00    0.5502959624E-01    0.1371478844E-01    0.7559868734E-02    0.4466110012E+00
    0.1500000000E+03    0.1887170884E+00    0.5611496065E-01    0.1402297258E-01    0.8287833438E-02    0.4651846328E+00
    0.1700000000E+03    0.2039115051E+00    0.5672306967E-01    0.1421108895E-01    0.8955541141E-02    0.4806162710E+00
    0.1900000000E+03    0.2179393497E+00    0.5698155758E-01    0.1431026954E-01    0.9572056035E-02    0.4936674534E+00
    0.2100000000E+03    0.2309636460E+00    0.5698051590E-01    0.1434259671E-01    0.1014453005E-01    0.5048688733E+00
    0.2300000000E+03    0.2431150466E+00    0.5678509088E-01    0.1432412773E-01    0.1067869511E-01    0.5146022200E+00
    0.2500000000E+03    0.2544997385E+00    0.5644332389E-01    0.1426677804E-01    0.1117920987E-01    0.5231493932E+00
    0.2700000000E+03    0.2652051229E+00    0.5599121906E-01    0.1417953960E-01    0.1164990888E-01    0.5307233478E+00
    0.2900000000E+03    0.2753039686E+00    0.5545612298E-01    0.1406929446E-01    0.1209398481E-01    0.5374881196E+00
    0.3100000000E+03    0.2848574986E+00    0.5485903903E-01    0.1394137274E-01    0.1251412378E-01    0.5435722227E+00
    0.3300000000E+03    0.2939177161E+00    0.5421624846E-01    0.1379994432E-01    0.1291260746E-01    0.5490778537E+00
    0.3500000000E+03    0.3025291824E+00    0.5354046828E-01    0.1364829912E-01    0.1329139101E-01    0.5540873597E+00
    0.3700000000E+03    0.3107303900E+00    0.5284169254E-01    0.1348905141E-01    0.1365216339E-01    0.5586678794E+00
    0.3900000000E+03    0.3185548374E+00    0.5212781291E-01    0.1332429077E-01    0.1399639442E-01    0.5628747327E+00
    0.4100000000E+03    0.3260318769E+00    0.5140508259E-01    0.1315569550E-01    0.1432537204E-01    0.5667539371E+00
    0.4300000000E+03    0.3331873911E+00    0.5067846731E-01    0.1298461851E-01    0.1464023197E-01    0.5703441045E+00
    0.4500000000E+03    0.3400443372E+00    0.4995191374E-01    0.1281215341E-01    0.1494198156E-01    0.5736778881E+00
    0.4700000000E+03    0.3466231879E+00    0.4922855676E-01    0.1263918564E-01    0.1523151919E-01    0.5767831021E+00
    0.4900000000E+03    0.3529422927E+00    0.4851088097E-01    0.1246643257E-01    0.1550965007E-01    0.5796835952E+00
    0.1000000000E+03    0.1441182750E+00    0.5207420022E-01    0.1292238905E-01    0.6328396419E-02    0.4102124230E+00
    0.3000000000E+03    0.2801454549E+00    0.5516421664E-01    0.1400725908E-01    0.1230689534E-01    0.5406083371E+00
    0.5000000000E+03    0.3560096680E+00    0.4815480390E-01    0.1238032265E-01    0.1564466739E-01    0.5810636128E+00
    0.7000000000E+03    0.4069962439E+00    0.4162317795E-01    0.1076133352E-01    0.1788991551E-01    0.6016866626E+00
    0.9000000000E+03    0.4439661781E+00    0.3635993681E-01    0.9410588481E-02    0.1951930194E-01    0.6144623454E+00
    0.1100000000E+04    0.4719732952E+00    0.3219522529E-01    0.8315792256E-02    0.2075469333E-01    0.6232658754E+00
    0.1300000000E+04    0.4938487580E+00    0.2887791904E-01    0.7428108417E-02    0.2172042083E-01    0.6297559606E+00
    0.1500000000E+04    0.5113423725E+00    0.2620115098E-01    0.6702087531E-02    0.2249335319E-01    0.6347695145E+00
    0.1700000000E+04    0.5256028957E+00    0.2401032135E-01    0.6101699146E-02    0.2312397170E-01    0.6387777013E+00
    0.1900000000E+04    0.5374168146E+00    0.2219227561E-01    0.5599536371E-02    0.2364684903E-01    0.6420674860E+00
    0.2100000000E+04    0.5473400663E+00    0.2066406331E-01    0.5174927539E-02    0.2408643087E-01    0.6448243443E+00
    0.2300000000E+04    0.5557759003E+00    0.1936429481E-01    0.4812226792E-02    0.2446045440E-01    0.6471738656E+00
    0.2500000000E+04    0.5630232350E+00    0.1824697256E-01    0.4499494006E-02    0.2478207170E-01    0.6492043371E+00
    0.2700000000E+04    0.5693078395E+00    0.1727717683E-01    0.4227524351E-02    0.2506121937E-01    0.6509797677E+00
    0.2900000000E+04    0.5748030609E+00    0.1642805135E-01    0.3989145462E-02    0.2530552904E-01    0.6525477802E+00
    0.3100000000E+04    0.5796439537E+00    0.1567868252E-01    0.3778709011E-02    0.2552094830E-01    0.6539445939E+00
    0.3300000000E+04    0.5839371252E+00    0.1501259190E-01    0.3591721019E-02    0.2571217336E-01    0.6551982818E+00
    0.3500000000E+04    0.5877677277E+00    0.1441665191E-01    0.3424570902E-02    0.2588295642E-01    0.6563309644E+00
    0.3700000000E+04    0.5912045097E+00    0.1388029652E-01    0.3274331003E-02    0.2603632775E-01    0.6573603262E+00
    0.3900000000E+04    0.5943035221E+00    0.1339493979E-01    0.3138606819E-02    0.2617475867E-01    0.6583006874E+00
    0.4100000000E+04    0.5971108744E+00    0.1295354246E-01    0.3015423986E-02    0.2630028281E-01    0.6591637776E+00
    0.4300000000E+04    0.5996648122E+00    0.1255028539E-01    0.2903142181E-02    0.2641458745E-01    0.6599593031E+00
    0.4500000000E+04    0.6019973002E+00    0.1218032084E-01    0.2800388900E-02    0.2651908321E-01    0.6606953709E+00
    0.4700000000E+04    0.6041352422E+00    0.1183958118E-01    0.2706008082E-02    0.2661495774E-01    0.6613788089E+00
    0.4900000000E+04    0.6061014308E+00    0.1152463038E-01    0.2619019894E-02    0.2670321749E-01    0.6620154124E+00
    0.1000000000E+04    0.4588794248E+00    0.3415657699E-01    0.8834153536E-02    0.2017699659E-01    0.6192289202E+00
    0.3000000000E+04    0.5772980619E+00    0.1604201679E-01    0.3880738783E-02    0.2541653123E-01    0.6532656712E+00
    0.5000000000E+04    0.6070263029E+00    0.1137589557E-01    0.2578032079E-02    0.2674476502E-01    0.6623177276E+00
    0.7000000000E+04    0.6199887514E+00    0.9233676358E-02    0.1996691399E-02    0.2732983328E-01    0.6668000501E+00
    0.9000000000E+04    0.6271545443E+00    0.7971538276E-02    0.1665677331E-02    0.2765664431E-01    0.6695564832E+00
    0.1100000000E+05    0.6316765371E+00    0.7121804240E-02    0.1449812689E-02    0.2786505532E-01    0.6714557240E+00
    0.1300000000E+05    0.6347813501E+00    0.6501106955E-02    0.1296499868E-02    0.2800966576E-01    0.6728599522E+00
    0.1500000000E+05    0.6370413579E+00    0.6022333822E-02    0.1181094117E-02    0.2811604197E-01    0.6739493436E+00
    0.1700000000E+05    0.6387583812E+00    0.5638456434E-02    0.1090503847E-02    0.2819771278E-01    0.6748245263E+00
    0.1900000000E+05    0.6401062417E+00    0.5321664289E-02    0.1017115732E-02    0.2826249711E-01    0.6755465162E+00
    0.2100000000E+05    0.6411919481E+00    0.5054352392E-02    0.9561890778E-03    0.2831522561E-01    0.6761546603E+00
    0.2300000000E+05    0.6420849117E+00    0.4824772455E-02    0.9046100108E-03    0.2835904283E-01    0.6766755795E+00
    0.2500000000E+05    0.6428320903E+00    0.4624748107E-02    0.8602436956E-03    0.2839608374E-01    0.6771279902E+00
    0.2700000000E+05    0.6434663709E+00    0.4448390820E-02    0.8215742304E-03    0.2842784890E-01    0.6775254732E+00
    0.2900000000E+05    0.6440114626E+00    0.4291337653E-02    0.7874932400E-03    0.2845542402E-01    0.6778781454E+00
    0.3100000000E+05    0.6444848842E+00    0.4150277790E-02    0.7571700051E-03    0.2847961419E-01    0.6781937137E+00
    0.3300000000E+05    0.6448998573E+00    0.4022647025E-02    0.7299685651E-03    0.2850102920E-01    0.6784781628E+00
    0.3500000000E+05    0.6452665460E+00    0.3906424109E-02    0.7053930374E-03    0.2852013952E-01    0.6787362179E+00
    0.3700000000E+05    0.6455928910E+00    0.3799991132E-02    0.6830505115E-03    0.2853731401E-01    0.6789716649E+00
    0.3900000000E+05    0.6458851849E+00    0.3702035438E-02    0.6626252355E-03    0.2855284602E-01    0.6791875763E+00
    0.4100000000E+05    0.6461484788E+00    0.3611479220E-02    0.6438602621E-03    0.2856697187E-01    0.6793864743E+00
    0.4300000000E+05    0.6463868731E+00    0.3527428011E-02    0.6265441418E-03    0.2857988408E-01    0.6795704510E+00
    0.4500000000E+05    0.6466037312E+00    0.3449132357E-02    0.6105011064E-03    0.2859174113E-01    0.6797412579E+00
    0.4700000000E+05    0.6468018377E+00    0.3375958860E-02    0.5955837145E-03    0.2860267470E-01    0.6799003736E+00
    0.4900000000E+05    0.6469835176E+00    0.3307367998E-02    0.5816672618E-03    0.2861279512E-01    0.6800490559E+00
    0.1000000000E+05    0.6296464136E+00    0.7509952155E-02    0.1547619369E-02    0.2777122033E-01    0.6705843579E+00
    0.3000000000E+05    0.6442562220E+00    0.4218983550E-02    0.7719054688E-03    0.2846790030E-01    0.6780401594E+00
    0.5000000000E+05    0.6470688213E+00    0.3274643808E-02    0.5750505554E-03    0.2861758008E-01    0.6801198274E+00
    0.7000000000E+05    0.6482568791E+00    0.2776509647E-02    0.4761382802E-03    0.2868709470E-01    0.6811829968E+00
    0.9000000000E+05    0.6489112460E+00    0.2455836412E-02    0.4142558177E-03    0.2872882456E-01    0.6818519419E+00
    0.1100000000E+06    0.6493250589E+00    0.2227030069E-02    0.3709620978E-03    0.2875739274E-01    0.6823210440E+00
    0.1300000000E+06    0.6496100848E+00    0.2053080582E-02    0.3385323175E-03    0.2877857571E-01    0.6826728251E+00
    0.1500000000E+06    0.6498181719E+00    0.1915001059E-02    0.3130917278E-03    0.2879514498E-01    0.6829489595E+00
    0.1700000000E+06    0.6499766484E+00    0.1801905462E-02    0.2924565973E-03    0.2880860933E-01    0.6831730223E+00
    0.1900000000E+06    0.6501012805E+00    0.1707041666E-02    0.2752909384E-03    0.2881986682E-01    0.6833594675E+00
    0.2100000000E+06    0.6502018002E+00    0.1625968049E-02    0.2607258572E-03    0.2882948879E-01    0.6835177074E+00
    0.2300000000E+06    0.6502845392E+00    0.1555626242E-02    0.2481688006E-03    0.2883785798E-01    0.6836541657E+00
    0.2500000000E+06    0.6503537938E+00    0.1493831850E-02    0.2372000628E-03    0.2884524160E-01    0.6837733942E+00
    0.2700000000E+06    0.6504125814E+00    0.1438977216E-02    0.2275130065E-03    0.2885183259E-01    0.6838787192E+00
    0.2900000000E+06    0.6504630836E+00    0.1389849144E-02    0.2188777374E-03    0.2885777422E-01    0.6839726348E+00
    0.3100000000E+06    0.6505069161E+00    0.1345512479E-02    0.2111180850E-03    0.2886317547E-01    0.6840570522E+00
    0.3300000000E+06    0.6505453013E+00    0.1305233125E-02    0.2040964899E-03    0.2886812088E-01    0.6841334636E+00
    0.3500000000E+06    0.6505791808E+00    0.1268425623E-02    0.1977037781E-03    0.2887267726E-01    0.6842030534E+00
    0.3700000000E+06    0.6506092917E+00    0.1234616532E-02    0.1918520588E-03    0.2887689816E-01    0.6842667749E+00
    0.3900000000E+06    0.6506362191E+00    0.1203418275E-02    0.1864696792E-03    0.2888082715E-01    0.6843254053E+00
    0.4100000000E+06    0.6506604332E+00    0.1174510079E-02    0.1814975655E-03    0.2888450006E-01    0.6843795852E+00
    0.4300000000E+06    0.6506823166E+00    0.1147623856E-02    0.1768865234E-03    0.2888794670E-01    0.6844298481E+00
    0.4500000000E+06    0.6507021833E+00    0.1122533561E-02    0.1725952143E-03    0.2889119212E-01    0.6844766423E+00
    0.4700000000E+06    0.6507202935E+00    0.1099047071E-02    0.1685886146E-03    0.2889425752E-01    0.6845203475E+00
    0.4900000000E+06    0.6507368648E+00    0.1076999904E-02    0.1648368297E-03    0.2889716101E-01    0.6845612878E+00
    0.1000000000E+06    0.6491391248E+00    0.2332876376E-02    0.3909003907E-03    0.2874428789E-01    0.6821049182E+00
    0.3000000000E+06    0.6504857495E+00    0.1367131770E-02    0.2148978231E-03    0.2886053663E-01    0.6840159292E+00
    0.5000000000E+06    0.6507446318E+00    0.1066470991E-02    0.1630483211E-03    0.2889855699E-01    0.6845808098E+00
    0.7000000000E+06    0.6508514730E+00    0.9054764546E-03    0.1359699093E-03    0.2892082716E-01    0.6848768956E+00
    0.9000000000E+06    0.6509085022E+00    0.8012666789E-03    0.1187306244E-03    0.2893647137E-01    0.6850660788E+00
    0.1100000000E+07    0.6509432778E+00    0.7267209635E-03    0.1065514990E-03    0.2894849631E-01    0.6852001854E+00
    0.1300000000E+07    0.6509662827E+00    0.6699714583E-03    0.9737229330E-04    0.2895824949E-01    0.6853015768E+00
    0.1500000000E+07    0.6509823545E+00    0.6248899964E-03    0.9014121276E-04    0.2896644719E-01    0.6853816817E+00
    0.1700000000E+07    0.6509940255E+00    0.5879491224E-03    0.8425839939E-04    0.2897351443E-01    0.6854470263E+00
    0.1900000000E+07    0.6510027447E+00    0.5569552775E-03    0.7935372529E-04    0.2897972361E-01    0.6855016427E+00
    0.2100000000E+07    0.6510093985E+00    0.5304629758E-03    0.7518492749E-04    0.2898525958E-01    0.6855481736E+00
    0.2300000000E+07    0.6510145578E+00    0.5074756585E-03    0.7158597392E-04    0.2899025346E-01    0.6855884326E+00
    0.2500000000E+07    0.6510186060E+00    0.4872809049E-03    0.6843880191E-04    0.2899480156E-01    0.6856237109E+00
    0.2700000000E+07    0.6510218095E+00    0.4693540393E-03    0.6565688011E-04    0.2899897668E-01    0.6856549561E+00
    0.2900000000E+07    0.6510243586E+00    0.4532989243E-03    0.6317516331E-04    0.2900283519E-01    0.6856828814E+00
    0.3100000000E+07    0.6510263926E+00    0.4388100920E-03    0.6094369712E-04    0.2900642159E-01    0.6857080352E+00
    0.3300000000E+07    0.6510280157E+00    0.4256476796E-03    0.5892340297E-04    0.2900977164E-01    0.6857308470E+00
    0.3500000000E+07    0.6510293068E+00    0.4136203481E-03    0.5708321674E-04    0.2901291450E-01    0.6857516587E+00
    0.3700000000E+07    0.6510303273E+00    0.4025733415E-03    0.5539809587E-04    0.2901587425E-01    0.6857707460E+00
    0.3900000000E+07    0.6510311250E+00    0.3923799532E-03    0.5384759979E-04    0.2901867102E-01    0.6857883344E+00
    0.4100000000E+07    0.6510317379E+00    0.3829353065E-03    0.5241485874E-04    0.2902132178E-01    0.6858046101E+00
    0.4300000000E+07    0.6510321963E+00    0.3741517424E-03    0.5108581120E-04    0.2902384099E-01    0.6858197286E+00
    0.4500000000E+07    0.6510325250E+00    0.3659553456E-03    0.4984863125E-04    0.2902624109E-01    0.6858338206E+00
    0.4700000000E+07    0.6510327441E+00    0.3582832907E-03    0.4869329223E-04    0.2902853280E-01    0.6858469971E+00
    0.4900000000E+07    0.6510328700E+00    0.3510817892E-03    0.4761123007E-04    0.2903072549E-01    0.6858593531E+00
    0.1000000000E+07    0.6509278175E+00    0.7612222058E-03    0.1121716530E-03    0.2894283074E-01    0.6851382468E+00
    0.3000000000E+07    0.6510254328E+00    0.4458750212E-03    0.6203080750E-04    0.2900465999E-01    0.6856957755E+00
    0.5000000000E+07    0.6510329024E+00    0.3476427555E-03    0.4709533560E-04    0.2903178730E-01    0.6858652494E+00
    0.7000000000E+07    0.6510310087E+00    0.2950699267E-03    0.3928004589E-04    0.2904937055E-01    0.6859550357E+00
    0.9000000000E+07    0.6510271045E+00    0.2610544145E-03    0.3430098273E-04    0.2906240154E-01    0.6860127646E+00
    0.1100000000E+08    0.6510227902E+00    0.2367294646E-03    0.3078227207E-04    0.2907275843E-01    0.6860538615E+00
    0.1300000000E+08    0.6510185276E+00    0.2182162554E-03    0.2812985234E-04    0.2908135383E-01    0.6860850308E+00
    0.1500000000E+08    0.6510144606E+00    0.2035124805E-03    0.2604018864E-04    0.2908870067E-01    0.6861097166E+00
    0.1700000000E+08    0.6510106274E+00    0.1914658831E-03    0.2434008134E-04    0.2909511609E-01    0.6861298937E+00
    0.1900000000E+08    0.6510070277E+00    0.1813600897E-03    0.2292262654E-04    0.2910080991E-01    0.6861467858E+00
    0.2100000000E+08    0.6510036478E+00    0.1727231255E-03    0.2171783591E-04    0.2910592818E-01    0.6861611971E+00
    0.2300000000E+08    0.6510004696E+00    0.1652296535E-03    0.2067773629E-04    0.2911057667E-01    0.6861736809E+00
    0.2500000000E+08    0.6509974746E+00    0.1586471323E-03    0.1976821100E-04    0.2911483443E-01    0.6861846316E+00
    0.2700000000E+08    0.6509946456E+00    0.1528043256E-03    0.1896425295E-04    0.2911876209E-01    0.6861943394E+00
