  Pressure (Pa) 22mC5-400 (mol/kg) 2mC6-400 (mol/kg) 33mC5-400 (mol/kg) 23mC5-400 (mol/kg) C7-400 (mol/kg)
    0.1000000000E+01    0.2645132304E-02    0.2389289180E-02    0.5835879222E-03    0.1857826906E-03    0.1718500775E-02
    0.3000000000E+01    0.7825668981E-02    0.7039948577E-02    0.1719429151E-02    0.5496468447E-03    0.5093716906E-02
    0.5000000000E+01    0.1286588987E-01    0.1152699571E-01    0.2815188862E-02    0.9036629061E-03    0.8389197503E-02
    0.7000000000E+01    0.1777256436E-01    0.1585830362E-01    0.3872791694E-02    0.1248305913E-02    0.1160797319E-01
    0.9000000000E+01    0.2255202093E-01    0.2004125376E-01    0.4894042290E-02    0.1584019963E-02    0.1475292018E-01
    0.1100000000E+02    0.2721018248E-01    0.2408277386E-01    0.5880634513E-02    0.1911220700E-02    0.1782677001E-01
    0.1300000000E+02    0.3175259840E-01    0.2798937221E-01    0.6834159820E-02    0.2230297555E-02    0.2083211863E-01
    0.1500000000E+02    0.3618447359E-01    0.3176716895E-01    0.7756114889E-02    0.2541615789E-02    0.2377143472E-01
    0.1700000000E+02    0.4051069485E-01    0.3542192454E-01    0.8647908573E-02    0.2845518342E-02    0.2664706750E-01
    0.1900000000E+02    0.4473585489E-01    0.3895906579E-01    0.9510868246E-02    0.3142327516E-02    0.2946125385E-01
    0.2100000000E+02    0.4886427418E-01    0.4238370968E-01    0.1034624560E-01    0.3432346513E-02    0.3221612505E-01
    0.2300000000E+02    0.5290002092E-01    0.4570068509E-01    0.1115522198E-01    0.3715860828E-02    0.3491371297E-01
    0.2500000000E+02    0.5684692923E-01    0.4891455278E-01    0.1193891323E-01    0.3993139536E-02    0.3755595580E-01
    0.2700000000E+02    0.6070861582E-01    0.5202962372E-01    0.1269837417E-01    0.4264436452E-02    0.4014470350E-01
    0.2900000000E+02    0.6448849527E-01    0.5504997592E-01    0.1343460271E-01    0.4529991211E-02    0.4268172271E-01
    0.3100000000E+02    0.6818979404E-01    0.5797946992E-01    0.1414854364E-01    0.4790030242E-02    0.4516870151E-01
    0.3300000000E+02    0.7181556328E-01    0.6082176306E-01    0.1484109209E-01    0.5044767677E-02    0.4760725371E-01
    0.3500000000E+02    0.7536869067E-01    0.6358032265E-01    0.1551309678E-01    0.5294406173E-02    0.4999892296E-01
    0.3700000000E+02    0.7885191129E-01    0.6625843809E-01    0.1616536291E-01    0.5539137680E-02    0.5234518653E-01
    0.3900000000E+02    0.8226781762E-01    0.6885923216E-01    0.1679865500E-01    0.5779144143E-02    0.5464745886E-01
    0.4100000000E+02    0.8561886879E-01    0.7138567132E-01    0.1741369936E-01    0.6014598148E-02    0.5690709492E-01
    0.4300000000E+02    0.8890739913E-01    0.7384057540E-01    0.1801118644E-01    0.6245663520E-02    0.5912539332E-01
    0.4500000000E+02    0.9213562599E-01    0.7622662649E-01    0.1859177305E-01    0.6472495880E-02    0.6130359920E-01
    0.4700000000E+02    0.9530565711E-01    0.7854637719E-01    0.1915608432E-01    0.6695243154E-02    0.6344290705E-01
    0.4900000000E+02    0.9841949730E-01    0.8080225836E-01    0.1970471563E-01    0.6914046045E-02    0.6554446318E-01
    0.1000000000E+02    0.2489590834E-01    0.2207927635E-01    0.5391568925E-02    0.1748659567E-02    0.1629856691E-01
    0.3000000000E+02    0.6634877258E-01    0.5652584701E-01    0.1379430205E-01    0.4660686531E-02    0.4393136461E-01
    0.5000000000E+02    0.9995594572E-01    0.8190697598E-01    0.1997332964E-01    0.7022010453E-02    0.6658143004E-01
    0.7000000000E+02    0.1281530864E+00    0.1011568250E+00    0.2464702840E-01    0.9003569228E-02    0.8558450108E-01
    0.9000000000E+02    0.1524253125E+00    0.1160843808E+00    0.2825869510E-01    0.1070959567E-01    0.1018304565E+00
    0.1100000000E+03    0.1737326086E+00    0.1278638445E+00    0.3109632604E-01    0.1220746907E-01    0.1159360604E+00
    0.1300000000E+03    0.1927253287E+00    0.1372892424E+00    0.3335484350E-01    0.1354283804E-01    0.1283429653E+00
    0.1500000000E+03    0.2098614263E+00    0.1449157421E+00    0.3517065259E-01    0.1474784758E-01    0.1393762141E+00
    0.1700000000E+03    0.2254740155E+00    0.1511424218E+00    0.3664189270E-01    0.1584588053E-01    0.1492806765E+00
    0.1900000000E+03    0.2398122125E+00    0.1562629503E+00    0.3784084395E-01    0.1685442392E-01    0.1582445717E+00
    0.2100000000E+03    0.2530668364E+00    0.1604977969E+00    0.3882181639E-01    0.1778687290E-01    0.1664151318E+00
    0.2300000000E+03    0.2653871487E+00    0.1640153641E+00    0.3962632884E-01    0.1865370553E-01    0.1739093147E+00
    0.2500000000E+03    0.2768920836E+00    0.1669462391E+00    0.4028660315E-01    0.1946327109E-01    0.1808213050E+00
    0.2700000000E+03    0.2876779798E+00    0.1693930370E+00    0.4082797898E-01    0.2022233278E-01    0.1872278768E+00
    0.2900000000E+03    0.2978240279E+00    0.1714373448E+00    0.4127061826E-01    0.2093645006E-01    0.1931922998E+00
    0.3100000000E+03    0.3073961862E+00    0.1731447128E+00    0.4163073099E-01    0.2161025353E-01    0.1987672306E+00
    0.3300000000E+03    0.3164500475E+00    0.1745683018E+00    0.4192147163E-01    0.2224764615E-01    0.2039968869E+00
    0.3500000000E+03    0.3250329728E+00    0.1757515901E+00    0.4215360466E-01    0.2285195306E-01    0.2089187033E+00
    0.3700000000E+03    0.3331857035E+00    0.1767304089E+00    0.4233600537E-01    0.2342603467E-01    0.2135646093E+00
    0.3900000000E+03    0.3409435957E+00    0.1775344918E+00    0.4247604146E-01    0.2397237338E-01    0.2179620252E+00
    0.4100000000E+03    0.3483375778E+00    0.1781886687E+00    0.4257986709E-01    0.2449314076E-01    0.2221346483E+00
    0.4300000000E+03    0.3553949011E+00    0.1787137934E+00    0.4265265174E-01    0.2499025027E-01    0.2261030781E+00
    0.4500000000E+03    0.3621397361E+00    0.1791274735E+00    0.4269876014E-01    0.2546539907E-01    0.2298853177E+00
    0.4700000000E+03    0.3685936487E+00    0.1794446472E+00    0.4272189487E-01    0.2592010150E-01    0.2334971808E+00
    0.4900000000E+03    0.3747759869E+00    0.1796780449E+00    0.4272521030E-01    0.2635571619E-01    0.2369526226E+00
    0.1000000000E+03    0.1634033687E+00    0.1223111201E+00    0.2976039802E-01    0.1148130817E-01    0.1091199188E+00
    0.3000000000E+03    0.3026781538E+00    0.1723295689E+00    0.4146010541E-01    0.2127813200E-01    0.1960255119E+00
    0.5000000000E+03    0.3777708337E+00    0.1797667950E+00    0.4272029459E-01    0.2656675314E-01    0.2386256065E+00
    0.7000000000E+03    0.4268794109E+00    0.1790950634E+00    0.4206396288E-01    0.3002902939E-01    0.2662468292E+00
    0.9000000000E+03    0.4615384042E+00    0.1763555689E+00    0.4098031438E-01    0.3247507134E-01    0.2865525326E+00
    0.1100000000E+04    0.4871556312E+00    0.1731289862E+00    0.3984772626E-01    0.3428484563E-01    0.3025675540E+00
    0.1300000000E+04    0.5067380550E+00    0.1699009248E+00    0.3877305461E-01    0.3566971790E-01    0.3157731216E+00
    0.1500000000E+04    0.5221110070E+00    0.1668247571E+00    0.3778275870E-01    0.3675804697E-01    0.3269992136E+00
    0.1700000000E+04    0.5344464726E+00    0.1639411010E+00    0.3687761289E-01    0.3763228049E-01    0.3367559885E+00
    0.1900000000E+04    0.5445286812E+00    0.1612505677E+00    0.3605046742E-01    0.3834760914E-01    0.3453789188E+00
    0.2100000000E+04    0.5528999885E+00    0.1587400694E+00    0.3529237860E-01    0.3894221603E-01    0.3531002328E+00
    0.2300000000E+04    0.5599459479E+00    0.1563927849E+00    0.3459472007E-01    0.3944325511E-01    0.3600873070E+00
    0.2500000000E+04    0.5659471925E+00    0.1541919461E+00    0.3394983064E-01    0.3987049826E-01    0.3664647613E+00
    0.2700000000E+04    0.5711122343E+00    0.1521221801E+00    0.3335112299E-01    0.4023864153E-01    0.3723278920E+00
    0.2900000000E+04    0.5755988366E+00    0.1501698698E+00    0.3279300340E-01    0.4055880827E-01    0.3777512172E+00
    0.3100000000E+04    0.5795283078E+00    0.1483231255E+00    0.3227073744E-01    0.4083955467E-01    0.3827941197E+00
    0.3300000000E+04    0.5829952825E+00    0.1465716183E+00    0.3178031285E-01    0.4108755804E-01    0.3875046953E+00
    0.3500000000E+04    0.5860745547E+00    0.1449063784E+00    0.3131831700E-01    0.4130809771E-01    0.3919224506E+00
    0.3700000000E+04    0.5888259373E+00    0.1433195989E+00    0.3088183333E-01    0.4150539717E-01    0.3960802381E+00
    0.3900000000E+04    0.5912977782E+00    0.1418044614E+00    0.3046835590E-01    0.4168287161E-01    0.4000056758E+00
    0.4100000000E+04    0.5935295417E+00    0.1403549865E+00    0.3007571972E-01    0.4184330979E-01    0.4037222057E+00
    0.4300000000E+04    0.5955537306E+00    0.1389659074E+00    0.2970204407E-01    0.4198900937E-01    0.4072498981E+00
    0.4500000000E+04    0.5973973356E+00    0.1376325642E+00    0.2934568648E-01    0.4212187912E-01    0.4106060698E+00
    0.4700000000E+04    0.5990829406E+00    0.1363508165E+00    0.2900520519E-01    0.4224351677E-01    0.4138057672E+00
    0.4900000000E+04    0.6006295756E+00    0.1351169693E+00    0.2867932848E-01    0.4235526912E-01    0.4168621475E+00
    0.1000000000E+04    0.4752524868E+00    0.1747605327E+00    0.4041044989E-01    0.3344369565E-01    0.2949824304E+00
    0.3000000000E+04    0.5776267654E+00    0.1492339817E+00    0.3252765488E-01    0.4070365409E-01    0.3803169868E+00
    0.5000000000E+04    0.6013559208E+00    0.1345169604E+00    0.2852150960E-01    0.4240780233E-01    0.4183402649E+00
    0.7000000000E+04    0.6114578907E+00    0.1243832323E+00    0.2591543519E-01    0.4314290720E-01    0.4425766175E+00
    0.9000000000E+04    0.6169807713E+00    0.1167116887E+00    0.2400854056E-01    0.4355023077E-01    0.4601381133E+00
    0.1100000000E+05    0.6204435330E+00    0.1105804928E+00    0.2251970085E-01    0.4380909478E-01    0.4737698947E+00
    0.1300000000E+05    0.6228107621E+00    0.1055029763E+00    0.2130804421E-01    0.4398847383E-01    0.4848225567E+00
    0.1500000000E+05    0.6245283396E+00    0.1011901955E+00    0.2029295706E-01    0.4412039533E-01    0.4940594805E+00
    0.1700000000E+05    0.6258299235E+00    0.9745651034E-01    0.1942405572E-01    0.4422171908E-01    0.5019533890E+00
    0.1900000000E+05    0.6268494842E+00    0.9417564295E-01    0.1866779932E-01    0.4430215600E-01    0.5088167126E+00
    0.2100000000E+05    0.6276692224E+00    0.9125788133E-01    0.1800077209E-01    0.4436769184E-01    0.5148663109E+00
    0.2300000000E+05    0.6283423187E+00    0.8863726856E-01    0.1740600697E-01    0.4442221696E-01    0.5202585837E+00
    0.2500000000E+05    0.6289046748E+00    0.8626394567E-01    0.1687083544E-01    0.4446836982E-01    0.5251098568E+00
    0.2700000000E+05    0.6293813900E+00    0.8409934447E-01    0.1638556195E-01    0.4450800350E-01    0.5295088723E+00
    0.2900000000E+05    0.6297905322E+00    0.8211304556E-01    0.1594261077E-01    0.4454245814E-01    0.5335247834E+00
    0.3100000000E+05    0.6301454343E+00    0.8028065484E-01    0.1553595706E-01    0.4457272724E-01    0.5372124619E+00
    0.3300000000E+05    0.6304561473E+00    0.7858232671E-01    0.1516073583E-01    0.4459956318E-01    0.5406161311E+00
    0.3500000000E+05    0.6307303899E+00    0.7700171169E-01    0.1481296611E-01    0.4462354644E-01    0.5437719195E+00
    0.3700000000E+05    0.6309741866E+00    0.7552519024E-01    0.1448935203E-01    0.4464513217E-01    0.5467096965E+00
    0.3900000000E+05    0.6311923076E+00    0.7414130443E-01    0.1418713643E-01    0.4466468241E-01    0.5494544193E+00
    0.4100000000E+05    0.6313885789E+00    0.7284032941E-01    0.1390399137E-01    0.4468248887E-01    0.5520271386E+00
    0.4300000000E+05    0.6315661039E+00    0.7161394528E-01    0.1363793486E-01    0.4469878926E-01    0.5544457612E+00
    0.4500000000E+05    0.6317274266E+00    0.7045498272E-01    0.1338726668E-01    0.4471377932E-01    0.5567256365E+00
    0.4700000000E+05    0.6318746518E+00    0.6935722323E-01    0.1315051830E-01    0.4472762174E-01    0.5588800137E+00
    0.4900000000E+05    0.6320095358E+00    0.6831524060E-01    0.1292641339E-01    0.4474045289E-01    0.5609204019E+00
    0.1000000000E+05    0.6188911156E+00    0.1134902910E+00    0.2322263032E-01    0.4369260977E-01    0.4673415774E+00
    0.3000000000E+05    0.6299740712E+00    0.8117894463E-01    0.1573507429E-01    0.4455806415E-01    0.5354066723E+00
    0.5000000000E+05    0.6320728208E+00    0.6781365478E-01    0.1281874803E-01    0.4474652594E-01    0.5619010427E+00
    0.7000000000E+05    0.6329503368E+00    0.5981104399E-01    0.1111985060E-01    0.4483532038E-01    0.5774153771E+00
    0.9000000000E+05    0.6334292710E+00    0.5427801185E-01    0.9966291482E-02    0.4488929306E-01    0.5880048433E+00
    0.1100000000E+06    0.6337295249E+00    0.5013723477E-01    0.9114599590E-02    0.4492664246E-01    0.5958606152E+00
    0.1300000000E+06    0.6339345936E+00    0.4687755523E-01    0.8451343646E-02    0.4495459671E-01    0.6020047052E+00
    0.1500000000E+06    0.6340830667E+00    0.4421935343E-01    0.7915317919E-02    0.4497664216E-01    0.6069895907E+00
    0.1700000000E+06    0.6341952132E+00    0.4199441624E-01    0.7470105066E-02    0.4499468640E-01    0.6111446787E+00
    0.1900000000E+06    0.6342826885E+00    0.4009438326E-01    0.7092460056E-02    0.4500987032E-01    0.6146806775E+00
    0.2100000000E+06    0.6343526637E+00    0.3844573913E-01    0.6766736539E-02    0.4502292308E-01    0.6177397160E+00
    0.2300000000E+06    0.6344097900E+00    0.3699653874E-01    0.6481955092E-02    0.4503433527E-01    0.6204217349E+00
    0.2500000000E+06    0.6344572138E+00    0.3570885408E-01    0.6230148142E-02    0.4504445080E-01    0.6227994040E+00
    0.2700000000E+06    0.6344971381E+00    0.3455423232E-01    0.6005371554E-02    0.4505351898E-01    0.6249270417E+00
    0.2900000000E+06    0.6345311510E+00    0.3351083844E-01    0.5803086635E-02    0.4506172564E-01    0.6268461998E+00
    0.3100000000E+06    0.6345604253E+00    0.3256158882E-01    0.5619758669E-02    0.4506921260E-01    0.6285892959E+00
    0.3300000000E+06    0.6345858457E+00    0.3169289255E-01    0.5452587557E-02    0.4507609030E-01    0.6301820539E+00
    0.3500000000E+06    0.6346080915E+00    0.3089377912E-01    0.5299321993E-02    0.4508244623E-01    0.6316451899E+00
    0.3700000000E+06    0.6346276932E+00    0.3015527936E-01    0.5158128146E-02    0.4508835082E-01    0.6329956049E+00
    0.3900000000E+06    0.6346450705E+00    0.2946997679E-01    0.5027494888E-02    0.4509386146E-01    0.6342472471E+00
    0.4100000000E+06    0.6346605600E+00    0.2883167659E-01    0.4906164101E-02    0.4509902554E-01    0.6354117461E+00
    0.4300000000E+06    0.6346744345E+00    0.2823515712E-01    0.4793078571E-02    0.4510388257E-01    0.6364988883E+00
    0.4500000000E+06    0.6346869174E+00    0.2767598088E-01    0.4687342450E-02    0.4510846582E-01    0.6375169777E+00
    0.4700000000E+06    0.6346981934E+00    0.2715034853E-01    0.4588190843E-02    0.4511280355E-01    0.6384731136E+00
    0.4900000000E+06    0.6347084163E+00    0.2665498499E-01    0.4494966130E-02    0.4511691994E-01    0.6393734077E+00
    0.1000000000E+06    0.6335949304E+00    0.5207320191E-01    0.9511539632E-02    0.4490946343E-01    0.5921949430E+00
    0.3000000000E+06    0.6345463196E+00    0.3302536517E-01    0.5709242757E-02    0.4506555156E-01    0.6277380137E+00
    0.5000000000E+06    0.6347131742E+00    0.2641775139E-01    0.4450395518E-02    0.4511890176E-01    0.6398042965E+00
    0.7000000000E+06    0.6347757119E+00    0.2273600529E-01    0.3765209872E-02    0.4515074868E-01    0.6464689353E+00
    0.9000000000E+06    0.6348055857E+00    0.2029761323E-01    0.3318621419E-02    0.4517336835E-01    0.6508591912E+00
    0.1100000000E+07    0.6348215234E+00    0.1852612978E-01    0.2998113384E-02    0.4519088277E-01    0.6540365399E+00
    0.1300000000E+07    0.6348304376E+00    0.1716212035E-01    0.2753755037E-02    0.4520516325E-01    0.6564758845E+00
    0.1500000000E+07    0.6348354231E+00    0.1606894831E-01    0.2559536347E-02    0.4521721410E-01    0.6584262682E+00
    0.1700000000E+07    0.6348380501E+00    0.1516677741E-01    0.2400396297E-02    0.4522763572E-01    0.6600327194E+00
    0.1900000000E+07    0.6348391886E+00    0.1440536742E-01    0.2266929615E-02    0.4523681524E-01    0.6613862544E+00
    0.2100000000E+07    0.6348393532E+00    0.1375128695E-01    0.2152919463E-02    0.4524501672E-01    0.6625472998E+00
    0.2300000000E+07    0.6348388636E+00    0.1318129761E-01    0.2054070004E-02    0.4525242821E-01    0.6635577763E+00
    0.2500000000E+07    0.6348379270E+00    0.1267866949E-01    0.1967304979E-02    0.4525918836E-01    0.6644478118E+00
    0.2700000000E+07    0.6348366815E+00    0.1223100599E-01    0.1890355915E-02    0.4526540232E-01    0.6652396967E+00
    0.2900000000E+07    0.6348352219E+00    0.1182889697E-01    0.1821508438E-02    0.4527115169E-01    0.6659503287E+00
    0.3100000000E+07    0.6348336144E+00    0.1146505130E-01    0.1759439630E-02    0.4527650107E-01    0.6665927841E+00
    0.3300000000E+07    0.6348319063E+00    0.1113371910E-01    0.1703110166E-02    0.4528150249E-01    0.6671773636E+00
    0.3500000000E+07    0.6348301316E+00    0.1083029581E-01    0.1651690681E-02    0.4528619844E-01    0.6677123075E+00
    0.3700000000E+07    0.6348283153E+00    0.1055104407E-01    0.1604510229E-02    0.4529062407E-01    0.6682042982E+00
    0.3900000000E+07    0.6348264756E+00    0.1029289398E-01    0.1561019405E-02    0.4529480883E-01    0.6686588194E+00
    0.4100000000E+07    0.6348246263E+00    0.1005329698E-01    0.1520763445E-02    0.4529877757E-01    0.6690804202E+00
    0.4300000000E+07    0.6348227774E+00    0.9830117041E-02    0.1483362256E-02    0.4530255151E-01    0.6694729102E+00
    0.4500000000E+07    0.6348209365E+00    0.9621548432E-02    0.1448495368E-02    0.4530614889E-01    0.6698395077E+00
    0.4700000000E+07    0.6348191091E+00    0.9426052697E-02    0.1415890432E-02    0.4530958548E-01    0.6701829529E+00
    0.4900000000E+07    0.6348172995E+00    0.9242309750E-02    0.1385314319E-02    0.4531287506E-01    0.6705055952E+00
    0.1000000000E+07    0.6348147289E+00    0.1934885259E-01    0.3146535835E-02    0.4518261763E-01    0.6525621879E+00
    0.3000000000E+07    0.6348344333E+00    0.1164258137E-01    0.1789697311E-02    0.4527387288E-01    0.6662793793E+00
    0.5000000000E+07    0.6348164023E+00    0.9154483139E-02    0.1370723195E-02    0.4531446855E-01    0.6706597601E+00
    0.7000000000E+07    0.6347997815E+00    0.7805305163E-02    0.1148617138E-02    0.4534090077E-01    0.6730235001E+00
    0.9000000000E+07    0.6347856695E+00    0.6925764041E-02    0.1006058424E-02    0.4536053755E-01    0.6745596260E+00
    0.1100000000E+08    0.6347735989E+00    0.6293592310E-02    0.9048068432E-03    0.4537616931E-01    0.6756611876E+00
    0.1300000000E+08    0.6347631073E+00    0.5810663791E-02    0.8282025690E-03    0.4538915711E-01    0.6765011753E+00
    0.1500000000E+08    0.6347538494E+00    0.5425997340E-02    0.7676795596E-03    0.4540026788E-01    0.6771692587E+00
    0.1700000000E+08    0.6347455743E+00    0.5110111816E-02    0.7183266524E-03    0.4540997670E-01    0.6777171965E+00
    0.1900000000E+08    0.6347380977E+00    0.4844607369E-02    0.6771010810E-03    0.4541859835E-01    0.6781772431E+00
    0.2100000000E+08    0.6347312815E+00    0.4617322934E-02    0.6420046273E-03    0.4542635219E-01    0.6785706886E+00
    0.2300000000E+08    0.6347250197E+00    0.4419853390E-02    0.6116640635E-03    0.4543339721E-01    0.6789122310E+00
    0.2500000000E+08    0.6347192299E+00    0.4246177262E-02    0.5851006296E-03    0.4543985236E-01    0.6792123895E+00
    0.2700000000E+08    0.6347138463E+00    0.4091851707E-02    0.5615955220E-03    0.4544580893E-01    0.6794789184E+00
