  Pressure (Pa) 22mC5-400 (mol/kg) 2mC6-400 (mol/kg) 33mC5-400 (mol/kg) 23mC5-400 (mol/kg) C7-400 (mol/kg)
    0.1000000000E+01    0.2644748182E-02    0.2389307587E-02    0.4539038397E-03    0.3715114920E-03    0.1718765640E-02
    0.3000000000E+01    0.7822304793E-02    0.7040119222E-02    0.1337353840E-02    0.1098821721E-02    0.5096038070E-02
    0.5000000000E+01    0.1285679122E-01    0.1152748152E-01    0.2189649320E-02    0.1806049341E-02    0.8395477999E-02
    0.7000000000E+01    0.1775519211E-01    0.1585927529E-01    0.3012288753E-02    0.2494174624E-02    0.1161996790E-01
    0.9000000000E+01    0.2252403211E-01    0.2004288683E-01    0.3806676745E-02    0.3164113290E-02    0.1477224713E-01
    0.1100000000E+02    0.2716941315E-01    0.2408524628E-01    0.4574131296E-02    0.3816721733E-02    0.1785492075E-01
    0.1300000000E+02    0.3169704811E-01    0.2799286235E-01    0.5315890395E-02    0.4452801754E-02    0.2087046772E-01
    0.1500000000E+02    0.3611229143E-01    0.3177185396E-01    0.6033118021E-02    0.5073104850E-02    0.2382124848E-01
    0.1700000000E+02    0.4042016677E-01    0.3542797908E-01    0.6726909605E-02    0.5678336103E-02    0.2670951200E-01
    0.1900000000E+02    0.4462539230E-01    0.3896666096E-01    0.7398297017E-02    0.6269157712E-02    0.2953740231E-01
    0.2100000000E+02    0.4873240353E-01    0.4239301218E-01    0.8048253120E-02    0.6846192221E-02    0.3230696461E-01
    0.2300000000E+02    0.5274537429E-01    0.4571185659E-01    0.8677695935E-02    0.7410025441E-02    0.3502015093E-01
    0.2500000000E+02    0.5666823579E-01    0.4892774945E-01    0.9287492462E-02    0.7961209138E-02    0.3767882541E-01
    0.2700000000E+02    0.6050469406E-01    0.5204499585E-01    0.9878462176E-02    0.8500263473E-02    0.4028476925E-01
    0.2900000000E+02    0.6425824587E-01    0.5506766770E-01    0.1045138025E-01    0.9027679243E-02    0.4283968525E-01
    0.3100000000E+02    0.6793219344E-01    0.5799961927E-01    0.1100698049E-01    0.9543919937E-02    0.4534520218E-01
    0.3300000000E+02    0.7152965776E-01    0.6084450156E-01    0.1154595811E-01    0.1004942361E-01    0.4780287872E-01
    0.3500000000E+02    0.7505359098E-01    0.6360577552E-01    0.1206897218E-01    0.1054460463E-01    0.5021420728E-01
    0.3700000000E+02    0.7850678771E-01    0.6628672425E-01    0.1257664796E-01    0.1102985525E-01    0.5258061746E-01
    0.3900000000E+02    0.8189189547E-01    0.6889046424E-01    0.1306957907E-01    0.1150554706E-01    0.5490347937E-01
    0.4100000000E+02    0.8521142429E-01    0.7141995586E-01    0.1354832943E-01    0.1197203239E-01    0.5718410673E-01
    0.4300000000E+02    0.8846775560E-01    0.7387801292E-01    0.1401343512E-01    0.1242964549E-01    0.5942375974E-01
    0.4500000000E+02    0.9166315039E-01    0.7626731167E-01    0.1446540605E-01    0.1287870373E-01    0.6162364780E-01
    0.4700000000E+02    0.9479975684E-01    0.7859039908E-01    0.1490472755E-01    0.1331950863E-01    0.6378493208E-01
    0.4900000000E+02    0.9787961727E-01    0.8084970051E-01    0.1533186184E-01    0.1375234685E-01    0.6590872792E-01
    0.1000000000E+02    0.2486178920E-01    0.2208130678E-01    0.4193691524E-02    0.3492532450E-02    0.1632212684E-01
    0.3000000000E+02    0.6610497103E-01    0.5654475073E-01    0.1073130077E-01    0.9287168521E-02    0.4409851958E-01
    0.5000000000E+02    0.9939887863E-01    0.8195615793E-01    0.1554099723E-01    0.1396586422E-01    0.6695690424E-01
    0.7000000000E+02    0.1272303557E+00    0.1012440177E+00    0.1918062052E-01    0.1787767538E-01    0.8619196336E-01
    0.9000000000E+02    0.1511086590E+00    0.1162132231E+00    0.2199434703E-01    0.2123445355E-01    0.1026734741E+00
    0.1100000000E+03    0.1720058481E+00    0.1280355581E+00    0.2420585854E-01    0.2417265086E-01    0.1170083660E+00
    0.1300000000E+03    0.1905786395E+00    0.1375037750E+00    0.2596663841E-01    0.2678445682E-01    0.1296336814E+00
    0.1500000000E+03    0.2072885261E+00    0.1451724517E+00    0.2738276488E-01    0.2913465771E-01    0.1408725739E+00
    0.1700000000E+03    0.2224707248E+00    0.1514404576E+00    0.2853060781E-01    0.3127031400E-01    0.1509694513E+00
    0.1900000000E+03    0.2363757071E+00    0.1566014502E+00    0.2946644650E-01    0.3322658986E-01    0.1601128117E+00
    0.2100000000E+03    0.2491952547E+00    0.1608759784E+00    0.3023258827E-01    0.3503041055E-01    0.1684505334E+00
    0.2300000000E+03    0.2610793817E+00    0.1644325569E+00    0.3086138755E-01    0.3670283779E-01    0.1761003834E+00
    0.2500000000E+03    0.2721476596E+00    0.1674018860E+00    0.3137795953E-01    0.3826065968E-01    0.1831574066E+00
    0.2700000000E+03    0.2824969993E+00    0.1698866803E+00    0.3180205701E-01    0.3971748292E-01    0.1896992275E+00
    0.2900000000E+03    0.2922071212E+00    0.1719686063E+00    0.3214939620E-01    0.4108450095E-01    0.1957899251E+00
    0.3100000000E+03    0.3013444830E+00    0.1737132728E+00    0.3243261084E-01    0.4237104517E-01    0.2014829101E+00
    0.3300000000E+03    0.3099651503E+00    0.1751738795E+00    0.3266195061E-01    0.4358498805E-01    0.2068230930E+00
    0.3500000000E+03    0.3181169318E+00    0.1763939269E+00    0.3284579983E-01    0.4473304282E-01    0.2118485403E+00
    0.3700000000E+03    0.3258409904E+00    0.1774092538E+00    0.3299106819E-01    0.4582098970E-01    0.2165917546E+00
    0.3900000000E+03    0.3331730772E+00    0.1782495905E+00    0.3310348850E-01    0.4685384908E-01    0.2210806754E+00
    0.4100000000E+03    0.3401444874E+00    0.1789397547E+00    0.3318784632E-01    0.4783601580E-01    0.2253394687E+00
    0.4300000000E+03    0.3467828112E+00    0.1795005822E+00    0.3324815875E-01    0.4877136451E-01    0.2293891576E+00
    0.4500000000E+03    0.3531125288E+00    0.1799496576E+00    0.3328781496E-01    0.4966333323E-01    0.2332481282E+00
    0.4700000000E+03    0.3591554879E+00    0.1803018939E+00    0.3330968770E-01    0.5051499038E-01    0.2369325403E+00
    0.4900000000E+03    0.3649312897E+00    0.1805699946E+00    0.3331622233E-01    0.5132908896E-01    0.2404566627E+00
    0.1000000000E+03    0.1618831974E+00    0.1224613456E+00    0.2316460524E-01    0.2274931980E-01    0.1100787369E+00
    0.3000000000E+03    0.2968436775E+00    0.1728795167E+00    0.3229832942E-01    0.4173731000E-01    0.1986831471E+00
    0.5000000000E+03    0.3677245964E+00    0.1806759529E+00    0.3331440312E-01    0.5172283890E-01    0.2421626261E+00
    0.7000000000E+03    0.4130751256E+00    0.1803235211E+00    0.3284587553E-01    0.5811907700E-01    0.2702967449E+00
    0.9000000000E+03    0.4445327565E+00    0.1778466103E+00    0.3204367822E-01    0.6256085078E-01    0.2909320020E+00
    0.1100000000E+04    0.4674757943E+00    0.1748246042E+00    0.3119811739E-01    0.6580404538E-01    0.3071725876E+00
    0.1300000000E+04    0.4848357433E+00    0.1717505816E+00    0.3039127501E-01    0.6826085155E-01    0.3205391879E+00
    0.1500000000E+04    0.4983574416E+00    0.1687875083E+00    0.2964408261E-01    0.7017671387E-01    0.3318835712E+00
    0.1700000000E+04    0.5091418468E+00    0.1659848738E+00    0.2895796923E-01    0.7170656868E-01    0.3417289125E+00
    0.1900000000E+04    0.5179148381E+00    0.1633506196E+00    0.2832827063E-01    0.7295261040E-01    0.3504189441E+00
    0.2100000000E+04    0.5251722371E+00    0.1608774310E+00    0.2774884323E-01    0.7398467287E-01    0.3581913903E+00
    0.2300000000E+04    0.5312628949E+00    0.1585529381E+00    0.2721366275E-01    0.7485190981E-01    0.3652174280E+00
    0.2500000000E+04    0.5364385499E+00    0.1563637768E+00    0.2671732895E-01    0.7558980591E-01    0.3716243883E+00
    0.2700000000E+04    0.5408848991E+00    0.1542971735E+00    0.2625516631E-01    0.7622454735E-01    0.3775095540E+00
    0.2900000000E+04    0.5447415926E+00    0.1523414994E+00    0.2582318086E-01    0.7677583494E-01    0.3829489306E+00
    0.3100000000E+04    0.5481154608E+00    0.1504863912E+00    0.2541797373E-01    0.7725874566E-01    0.3880030365E+00
    0.3300000000E+04    0.5510894817E+00    0.1487226974E+00    0.2503664963E-01    0.7768499498E-01    0.3927208485E+00
    0.3500000000E+04    0.5537289929E+00    0.1470423603E+00    0.2467673381E-01    0.7806381154E-01    0.3971425667E+00
    0.3700000000E+04    0.5560860794E+00    0.1454382831E+00    0.2433610128E-01    0.7840255515E-01    0.4013015964E+00
    0.3900000000E+04    0.5582027272E+00    0.1439042025E+00    0.2401291797E-01    0.7870716111E-01    0.4052260011E+00
    0.4100000000E+04    0.5601131275E+00    0.1424345749E+00    0.2370559249E-01    0.7898246475E-01    0.4089395857E+00
    0.4300000000E+04    0.5618453825E+00    0.1410244764E+00    0.2341273671E-01    0.7923244207E-01    0.4124627179E+00
    0.4500000000E+04    0.5634227879E+00    0.1396695182E+00    0.2313313360E-01    0.7946039032E-01    0.4158129614E+00
    0.4700000000E+04    0.5648648057E+00    0.1383657739E+00    0.2286571087E-01    0.7966906540E-01    0.4190055679E+00
    0.4900000000E+04    0.5661878137E+00    0.1371097183E+00    0.2260951932E-01    0.7986078741E-01    0.4220538672E+00
    0.1000000000E+04    0.4568481462E+00    0.1763607516E+00    0.3161889527E-01    0.6430127725E-01    0.2994846397E+00
    0.3000000000E+04    0.5464832182E+00    0.1514019736E+00    0.2561742174E-01    0.7702503817E-01    0.3855208478E+00
    0.5000000000E+04    0.5668091094E+00    0.1364985689E+00    0.2248536783E-01    0.7995091746E-01    0.4235276191E+00
    0.7000000000E+04    0.5754511496E+00    0.1261515174E+00    0.2042895300E-01    0.8121298984E-01    0.4476502380E+00
    0.9000000000E+04    0.5801801931E+00    0.1183001052E+00    0.1891890927E-01    0.8191378081E-01    0.4650803006E+00
    0.1100000000E+05    0.5831483368E+00    0.1120217179E+00    0.1773821594E-01    0.8236012975E-01    0.4785820921E+00
    0.1300000000E+05    0.5851791241E+00    0.1068228826E+00    0.1677681778E-01    0.8267003126E-01    0.4895116079E+00
    0.1500000000E+05    0.5866534490E+00    0.1024087051E+00    0.1597129986E-01    0.8289832765E-01    0.4986335257E+00
    0.1700000000E+05    0.5877710944E+00    0.9858906243E-01    0.1528186033E-01    0.8307392676E-01    0.5064204868E+00
    0.1900000000E+05    0.5886467186E+00    0.9523437735E-01    0.1468193182E-01    0.8321350169E-01    0.5131843767E+00
    0.2100000000E+05    0.5893507381E+00    0.9225249586E-01    0.1415293464E-01    0.8332734310E-01    0.5191413837E+00
    0.2300000000E+05    0.5899287478E+00    0.8957562786E-01    0.1368139051E-01    0.8342214750E-01    0.5244472387E+00
    0.2500000000E+05    0.5904115515E+00    0.8715251608E-01    0.1325722829E-01    0.8350246165E-01    0.5292176484E+00
    0.2700000000E+05    0.5908206992E+00    0.8494350868E-01    0.1287273649E-01    0.8357148225E-01    0.5335407988E+00
    0.2900000000E+05    0.5911717124E+00    0.8291733407E-01    0.1252188786E-01    0.8363152330E-01    0.5374853516E+00
    0.3100000000E+05    0.5914760512E+00    0.8104891873E-01    0.1219988823E-01    0.8368430180E-01    0.5411057457E+00
    0.3300000000E+05    0.5917423584E+00    0.7931786873E-01    0.1190286608E-01    0.8373111912E-01    0.5444458246E+00
    0.3500000000E+05    0.5919772738E+00    0.7770738704E-01    0.1162765337E-01    0.8377297998E-01    0.5475413827E+00
    0.3700000000E+05    0.5921859815E+00    0.7620348506E-01    0.1137162738E-01    0.8381067276E-01    0.5504219952E+00
    0.3900000000E+05    0.5923725876E+00    0.7479439776E-01    0.1113259426E-01    0.8384482497E-01    0.5531123596E+00
    0.4100000000E+05    0.5925403858E+00    0.7347014251E-01    0.1090870190E-01    0.8387594248E-01    0.5556332963E+00
    0.4300000000E+05    0.5926920487E+00    0.7222218140E-01    0.1069837362E-01    0.8390443777E-01    0.5580025075E+00
    0.4500000000E+05    0.5928297672E+00    0.7104315939E-01    0.1050025711E-01    0.8393065067E-01    0.5602351601E+00
    0.4700000000E+05    0.5929553544E+00    0.6992669875E-01    0.1031318451E-01    0.8395486376E-01    0.5623443401E+00
    0.4900000000E+05    0.5930703232E+00    0.6886723590E-01    0.1013614097E-01    0.8397731399E-01    0.5643414100E+00
    0.1000000000E+05    0.5818173173E+00    0.1150014495E+00    0.1829578457E-01    0.8215916460E-01    0.4722180998E+00
    0.3000000000E+05    0.5913291211E+00    0.8196477638E-01    0.1235754259E-01    0.8365873092E-01    0.5393331139E+00
    0.5000000000E+05    0.5931242314E+00    0.6835732996E-01    0.1005109851E-01    0.8398794186E-01    0.5653010544E+00
    0.7000000000E+05    0.5938686956E+00    0.6023039220E-01    0.8710382835E-02    0.8414348200E-01    0.5804681060E+00
    0.9000000000E+05    0.5942711132E+00    0.5462080546E-01    0.7801387960E-02    0.8423815938E-01    0.5908045209E+00
    0.1100000000E+06    0.5945207643E+00    0.5042783276E-01    0.7131002953E-02    0.8430373228E-01    0.5984644180E+00
    0.1300000000E+06    0.5946893856E+00    0.4713014835E-01    0.6609389141E-02    0.8435283773E-01    0.6044506037E+00
    0.1500000000E+06    0.5948100531E+00    0.4444296920E-01    0.6188127998E-02    0.8439157851E-01    0.6093044158E+00
    0.1700000000E+06    0.5949000928E+00    0.4219516951E-01    0.5838438597E-02    0.8442329672E-01    0.6133482705E+00
    0.1900000000E+06    0.5949694384E+00    0.4027661597E-01    0.5541965290E-02    0.8444999261E-01    0.6167882244E+00
    0.2100000000E+06    0.5950241831E+00    0.3861264983E-01    0.5286361508E-02    0.8447294517E-01    0.6197631683E+00
    0.2300000000E+06    0.5950682662E+00    0.3715055429E-01    0.5062968688E-02    0.8449301536E-01    0.6223707063E+00
    0.2500000000E+06    0.5951043433E+00    0.3585186103E-01    0.4865506859E-02    0.8451080690E-01    0.6246817720E+00
    0.2700000000E+06    0.5951342681E+00    0.3468772722E-01    0.4689293169E-02    0.8452675756E-01    0.6267493615E+00
    0.2900000000E+06    0.5951593716E+00    0.3363602908E-01    0.4530753528E-02    0.8454119375E-01    0.6286139990E+00
    0.3100000000E+06    0.5951806335E+00    0.3267946449E-01    0.4387105542E-02    0.8455436459E-01    0.6303072889E+00
    0.3300000000E+06    0.5951987902E+00    0.3180427406E-01    0.4256145863E-02    0.8456646414E-01    0.6318543017E+00
    0.3500000000E+06    0.5952144049E+00    0.3099935523E-01    0.4136103555E-02    0.8457764618E-01    0.6332752216E+00
    0.3700000000E+06    0.5952279158E+00    0.3025563378E-01    0.4025536512E-02    0.8458803445E-01    0.6345865112E+00
    0.3900000000E+06    0.5952396685E+00    0.2956560869E-01    0.3923256730E-02    0.8459772988E-01    0.6358017536E+00
    0.4100000000E+06    0.5952499387E+00    0.2892301622E-01    0.3828275364E-02    0.8460681574E-01    0.6369322717E+00
    0.4300000000E+06    0.5952589493E+00    0.2832257804E-01    0.3739761677E-02    0.8461536151E-01    0.6379875916E+00
    0.4500000000E+06    0.5952668819E+00    0.2775980951E-01    0.3657011886E-02    0.8462342569E-01    0.6389757950E+00
    0.4700000000E+06    0.5952738862E+00    0.2723087184E-01    0.3579425211E-02    0.8463105796E-01    0.6399037903E+00
    0.4900000000E+06    0.5952800862E+00    0.2673245663E-01    0.3506485234E-02    0.8463830086E-01    0.6407775232E+00
    0.1000000000E+06    0.5944091866E+00    0.5238765833E-01    0.7443363190E-02    0.8427356632E-01    0.5948909959E+00
    0.3000000000E+06    0.5951704320E+00    0.3314678619E-01    0.4457217386E-02    0.8454792412E-01    0.6294803645E+00
    0.5000000000E+06    0.5952829178E+00    0.2649378329E-01    0.3471615769E-02    0.8464178796E-01    0.6411956780E+00
    0.7000000000E+06    0.5953153958E+00    0.2279148929E-01    0.2935814839E-02    0.8469782506E-01    0.6476616745E+00
    0.9000000000E+06    0.5953248498E+00    0.2034133336E-01    0.2586844718E-02    0.8473762640E-01    0.6519195190E+00
    0.1100000000E+07    0.5953254344E+00    0.1856221631E-01    0.2336519284E-02    0.8476844415E-01    0.6550003894E+00
    0.1300000000E+07    0.5953220896E+00    0.1719284837E-01    0.2145738616E-02    0.8479357106E-01    0.6573653560E+00
    0.1500000000E+07    0.5953168912E+00    0.1609570563E-01    0.1994147268E-02    0.8481477445E-01    0.6592561117E+00
    0.1700000000E+07    0.5953108179E+00    0.1519047350E-01    0.1869964061E-02    0.8483311085E-01    0.6608133643E+00
    0.1900000000E+07    0.5953043676E+00    0.1442663087E-01    0.1765834689E-02    0.8484926155E-01    0.6621254000E+00
    0.2100000000E+07    0.5952978060E+00    0.1377057048E-01    0.1676899511E-02    0.8486369119E-01    0.6632508230E+00
    0.2300000000E+07    0.5952912787E+00    0.1319893815E-01    0.1599801394E-02    0.8487673074E-01    0.6642302845E+00
    0.2500000000E+07    0.5952848660E+00    0.1269492462E-01    0.1532136833E-02    0.8488862418E-01    0.6650929970E+00
    0.2700000000E+07    0.5952786114E+00    0.1224607706E-01    0.1472133799E-02    0.8489955654E-01    0.6658605718E+00
    0.2900000000E+07    0.5952725368E+00    0.1184294437E-01    0.1418453335E-02    0.8490967141E-01    0.6665493905E+00
    0.3100000000E+07    0.5952666512E+00    0.1147820487E-01    0.1370062378E-02    0.8491908248E-01    0.6671721295E+00
    0.3300000000E+07    0.5952609563E+00    0.1114608544E-01    0.1326149434E-02    0.8492788129E-01    0.6677387738E+00
    0.3500000000E+07    0.5952554493E+00    0.1084196352E-01    0.1286067025E-02    0.8493614261E-01    0.6682573109E+00
    0.3700000000E+07    0.5952501247E+00    0.1056208758E-01    0.1249291410E-02    0.8494392833E-01    0.6687342179E+00
    0.3900000000E+07    0.5952449756E+00    0.1030337642E-01    0.1215393769E-02    0.8495129022E-01    0.6691748100E+00
    0.4100000000E+07    0.5952399943E+00    0.1006327237E-01    0.1184019181E-02    0.8495827204E-01    0.6695834962E+00
    0.4300000000E+07    0.5952351729E+00    0.9839631956E-02    0.1154871034E-02    0.8496491111E-01    0.6699639690E+00
    0.4500000000E+07    0.5952305036E+00    0.9630643312E-02    0.1127699260E-02    0.8497123953E-01    0.6703193474E+00
    0.4700000000E+07    0.5952259788E+00    0.9434762878E-02    0.1102291361E-02    0.8497728507E-01    0.6706522871E+00
    0.4900000000E+07    0.5952215909E+00    0.9250666292E-02    0.1078465448E-02    0.8498307194E-01    0.6709650653E+00
    0.1000000000E+07    0.5953258389E+00    0.1938838928E-01    0.2452428333E-02    0.8475390118E-01    0.6535708665E+00
    0.3000000000E+07    0.5952695701E+00    0.1165616722E-01    0.1393651802E-02    0.8491445875E-01    0.6668683422E+00
    0.5000000000E+07    0.5952194462E+00    0.9162673357E-02    0.1067095904E-02    0.8498587512E-01    0.6711145188E+00
    0.7000000000E+07    0.5951822440E+00    0.7811159341E-02    0.8940558747E-03    0.8503237206E-01    0.6734061984E+00
    0.9000000000E+07    0.5951529571E+00    0.6930314707E-02    0.7830170517E-03    0.8506691377E-01    0.6748957297E+00
    0.1100000000E+08    0.5951288625E+00    0.6297311668E-02    0.7041650923E-03    0.8509440976E-01    0.6759640317E+00
    0.1300000000E+08    0.5951084119E+00    0.5813807003E-02    0.6445148444E-03    0.8511725458E-01    0.6767787628E+00
    0.1500000000E+08    0.5950906538E+00    0.5428717839E-02    0.5973910692E-03    0.8513679749E-01    0.6774268339E+00
    0.1700000000E+08    0.5950749640E+00    0.5112509022E-02    0.5589672548E-03    0.8515387424E-01    0.6779584146E+00
    0.1900000000E+08    0.5950609122E+00    0.4846749368E-02    0.5268729358E-03    0.8516903861E-01    0.6784047709E+00
    0.2100000000E+08    0.5950481893E+00    0.4619258387E-02    0.4995515589E-03    0.8518267648E-01    0.6787865421E+00
    0.2300000000E+08    0.5950365659E+00    0.4421618277E-02    0.4759335105E-03    0.8519506755E-01    0.6791179774E+00
    0.2500000000E+08    0.5950258672E+00    0.4247798931E-02    0.4552564850E-03    0.8520642104E-01    0.6794092758E+00
    0.2700000000E+08    0.5950159571E+00    0.4093351432E-02    0.4369606788E-03    0.8521689755E-01    0.6796679558E+00
