  Pressure (Pa) 22mC5-400 (mol/kg) 2mC6-400 (mol/kg) 33mC5-400 (mol/kg) 23mC5-400 (mol/kg) C7-400 (mol/kg)
    0.1000000000E+01    0.2650009583E-02    0.7857407466E-03    0.1279718524E-03    0.2791876495E-03    0.1519962280E-01
    0.3000000000E+01    0.7868165364E-02    0.2256351799E-02    0.3676220599E-03    0.8289454932E-03    0.4357585448E-01
    0.5000000000E+01    0.1298022253E-01    0.3606333756E-02    0.5877940448E-03    0.1367534660E-02    0.6954328010E-01
    0.7000000000E+01    0.1798969975E-01    0.4849932667E-02    0.7907947740E-03    0.1895325467E-02    0.9339833483E-01
    0.9000000000E+01    0.2289995883E-01    0.5999151654E-02    0.9785667873E-03    0.2412671730E-02    0.1153906389E+00
    0.1100000000E+02    0.2771421341E-01    0.7064180889E-02    0.1152758197E-02    0.2919911667E-02    0.1357318932E+00
    0.1300000000E+02    0.3243553691E-01    0.8053732188E-02    0.1314777145E-02    0.3417368742E-02    0.1546028206E+00
    0.1500000000E+02    0.3706687012E-01    0.8975302002E-02    0.1465834586E-02    0.3905352464E-02    0.1721586360E+00
    0.1700000000E+02    0.4161102824E-01    0.9835380032E-02    0.1606978222E-02    0.4384159124E-02    0.1885333966E+00
    0.1900000000E+02    0.4607070750E-01    0.1063961615E-01    0.1739119639E-02    0.4854072493E-02    0.2038434909E+00
    0.2100000000E+02    0.5044849134E-01    0.1139295501E-01    0.1863056183E-02    0.5315364472E-02    0.2181904597E+00
    0.2300000000E+02    0.5474685624E-01    0.1209974544E-01    0.1979488734E-02    0.5768295710E-02    0.2316632924E+00
    0.2500000000E+02    0.5896817722E-01    0.1276382993E-01    0.2089036237E-02    0.6213116171E-02    0.2443403102E+00
    0.2700000000E+02    0.6311473292E-01    0.1338861834E-01    0.2192247671E-02    0.6650065685E-02    0.2562907203E+00
    0.2900000000E+02    0.6718871046E-01    0.1397714898E-01    0.2289611954E-02    0.7079374445E-02    0.2675759050E+00
    0.3100000000E+02    0.7119221001E-01    0.1453213950E-01    0.2381566204E-02    0.7501263496E-02    0.2782504993E+00
    0.3300000000E+02    0.7512724901E-01    0.1505602959E-01    0.2468502657E-02    0.7915945176E-02    0.2883632935E+00
    0.3500000000E+02    0.7899576625E-01    0.1555101688E-01    0.2550774485E-02    0.8323623545E-02    0.2979579964E+00
    0.3700000000E+02    0.8279962565E-01    0.1601908738E-01    0.2628700731E-02    0.8724494787E-02    0.3070738801E+00
    0.3900000000E+02    0.8654061985E-01    0.1646204134E-01    0.2702570493E-02    0.9118747579E-02    0.3157463303E+00
    0.4100000000E+02    0.9022047355E-01    0.1688151538E-01    0.2772646502E-02    0.9506563454E-02    0.3240073163E+00
    0.4300000000E+02    0.9384084677E-01    0.1727900142E-01    0.2839168194E-02    0.9888117135E-02    0.3318857936E+00
    0.4500000000E+02    0.9740333781E-01    0.1765586305E-01    0.2902354342E-02    0.1026357685E-01    0.3394080523E+00
    0.4700000000E+02    0.1009094861E+00    0.1801334961E-01    0.2962405348E-02    0.1063310463E-01    0.3465980167E+00
    0.4900000000E+02    0.1043607749E+00    0.1835260846E-01    0.3019505213E-02    0.1099685660E-01    0.3534775064E+00
    0.1000000000E+02    0.2531889140E-01    0.6541614237E-02    0.1067266985E-02    0.2667534436E-02    0.1257556963E+00
    0.3000000000E+02    0.6919914200E-01    0.1425867821E-01    0.2336239839E-02    0.7291232964E-02    0.2729863491E+00
    0.5000000000E+02    0.1060662958E+00    0.1851573582E-01    0.3047001914E-02    0.1117661389E-01    0.3568071228E+00
    0.7000000000E+02    0.1376183930E+00    0.2103821404E-01    0.3476768542E-02    0.1450240147E-01    0.4111328399E+00
    0.9000000000E+02    0.1650317673E+00    0.2255492807E-01    0.3742386222E-02    0.1739241443E-01    0.4493107015E+00
    0.1100000000E+03    0.1891478539E+00    0.2343897512E-01    0.3903723560E-02    0.1993522462E-01    0.4776703928E+00
    0.1300000000E+03    0.2105852891E+00    0.2390502356E-01    0.3995340516E-02    0.2219595410E-01    0.4996053007E+00
    0.1500000000E+03    0.2298098658E+00    0.2408632797E-01    0.4038800934E-02    0.2422363755E-01    0.5171006939E+00
    0.1700000000E+03    0.2471796849E+00    0.2407001809E-01    0.4048298435E-02    0.2605597418E-01    0.5313967622E+00
    0.1900000000E+03    0.2629751635E+00    0.2391521741E-01    0.4033540625E-02    0.2772248617E-01    0.5433088996E+00
    0.2100000000E+03    0.2774195003E+00    0.2366315593E-01    0.4001358503E-02    0.2924667265E-01    0.5533956658E+00
    0.2300000000E+03    0.2906929553E+00    0.2334318127E-01    0.3956663908E-02    0.3064751274E-01    0.5620527906E+00
    0.2500000000E+03    0.3029430204E+00    0.2297650958E-01    0.3903048039E-02    0.3194053611E-01    0.5695686462E+00
    0.2700000000E+03    0.3142917980E+00    0.2257865774E-01    0.3843170585E-02    0.3313859959E-01    0.5761584513E+00
    0.2900000000E+03    0.3248414442E+00    0.2216106995E-01    0.3779020834E-02    0.3425246024E-01    0.5819861596E+00
    0.3100000000E+03    0.3346782469E+00    0.2173223357E-01    0.3712097528E-02    0.3529120450E-01    0.5871789176E+00
    0.3300000000E+03    0.3438757231E+00    0.2129846088E-01    0.3643535448E-02    0.3626257436E-01    0.5918368811E+00
    0.3500000000E+03    0.3524970027E+00    0.2086444677E-01    0.3574196186E-02    0.3717321819E-01    0.5960400430E+00
    0.3700000000E+03    0.3605966847E+00    0.2043367254E-01    0.3504734262E-02    0.3802888623E-01    0.5998530828E+00
    0.3900000000E+03    0.3682222985E+00    0.2000870225E-01    0.3435645938E-02    0.3883458437E-01    0.6033288787E+00
    0.4100000000E+03    0.3754154662E+00    0.1959140260E-01    0.3367305700E-02    0.3959469652E-01    0.6065110923E+00
    0.4300000000E+03    0.3822128362E+00    0.1918310782E-01    0.3299993801E-02    0.4031308293E-01    0.6094361009E+00
    0.4500000000E+03    0.3886468395E+00    0.1878474420E-01    0.3233917244E-02    0.4099315971E-01    0.6121344627E+00
    0.4700000000E+03    0.3947463068E+00    0.1839692502E-01    0.3169225903E-02    0.4163796396E-01    0.6146320403E+00
    0.4900000000E+03    0.4005369779E+00    0.1802002325E-01    0.3106024991E-02    0.4225020724E-01    0.6169508733E+00
    0.1000000000E+03    0.1774590573E+00    0.2306010866E-01    0.3833529370E-02    0.1870270247E-01    0.4644611300E+00
    0.3000000000E+03    0.3298440878E+00    0.2194761976E-01    0.3745827628E-02    0.3478070979E-01    0.5846551067E+00
    0.5000000000E+03    0.4033238184E+00    0.1783573131E-01    0.3075006547E-02    0.4254488795E-01    0.6180492741E+00
    0.7000000000E+03    0.4473650309E+00    0.1471157933E-01    0.2538476356E-02    0.4720488242E-01    0.6340620553E+00
    0.9000000000E+03    0.4766926324E+00    0.1246932841E-01    0.2141791609E-02    0.5031224547E-01    0.6435605061E+00
    0.1100000000E+04    0.4975588045E+00    0.1083073705E-01    0.1846141713E-02    0.5252609742E-01    0.6498888771E+00
    0.1300000000E+04    0.5131173923E+00    0.9598456318E-02    0.1620802136E-02    0.5417908854E-01    0.6544275890E+00
    0.1500000000E+04    0.5251364335E+00    0.8645455601E-02    0.1444949437E-02    0.5545779177E-01    0.6578531885E+00
    0.1700000000E+04    0.5346830221E+00    0.7889850127E-02    0.1304701749E-02    0.5647486612E-01    0.6605373966E+00
    0.1900000000E+04    0.5424381112E+00    0.7277648213E-02    0.1190677072E-02    0.5730223731E-01    0.6627019151E+00
    0.2100000000E+04    0.5488558328E+00    0.6772276048E-02    0.1096396933E-02    0.5798789547E-01    0.6644874242E+00
    0.2300000000E+04    0.5542501512E+00    0.6348293118E-02    0.1017285091E-02    0.5856503401E-01    0.6659876319E+00
    0.2500000000E+04    0.5588447463E+00    0.5987562859E-02    0.9500379152E-03    0.5905731218E-01    0.6672674464E+00
    0.2700000000E+04    0.5628030941E+00    0.5676863997E-02    0.8922220156E-03    0.5948202930E-01    0.6683732984E+00
    0.2900000000E+04    0.5662473219E+00    0.5406362744E-02    0.8420118280E-03    0.5985211513E-01    0.6693393089E+00
    0.3100000000E+04    0.5692704261E+00    0.5168611452E-02    0.7980148105E-03    0.6017741995E-01    0.6701911347E+00
    0.3300000000E+04    0.5719444193E+00    0.4957877062E-02    0.7591525984E-03    0.6046557491E-01    0.6709484532E+00
    0.3500000000E+04    0.5743258985E+00    0.4769681070E-02    0.7245786258E-03    0.6072258046E-01    0.6716266172E+00
    0.3700000000E+04    0.5764599388E+00    0.4600478171E-02    0.6936199889E-03    0.6095321769E-01    0.6722377879E+00
    0.3900000000E+04    0.5783828676E+00    0.4447427710E-02    0.6657357307E-03    0.6116134168E-01    0.6727917280E+00
    0.4100000000E+04    0.5801242777E+00    0.4308228457E-02    0.6404864441E-03    0.6135009430E-01    0.6732963685E+00
    0.4300000000E+04    0.5817085114E+00    0.4180997338E-02    0.6175118071E-03    0.6152206120E-01    0.6737582219E+00
    0.4500000000E+04    0.5831557697E+00    0.4064179180E-02    0.5965137620E-03    0.6167938918E-01    0.6741826874E+00
    0.4700000000E+04    0.5844829534E+00    0.3956478683E-02    0.5772437669E-03    0.6182387515E-01    0.6745742809E+00
    0.4900000000E+04    0.5857043074E+00    0.3856808532E-02    0.5594930245E-03    0.6195703437E-01    0.6749368097E+00
    0.1000000000E+04    0.4879415012E+00    0.1158888842E-01    0.1983520492E-02    0.5150535006E-01    0.6470104101E+00
    0.3000000000E+04    0.5678065970E+00    0.5283785645E-02    0.8193103265E-03    0.6001984415E-01    0.6697781475E+00
    0.5000000000E+04    0.5862791489E+00    0.3809691880E-02    0.5511310939E-03    0.6201977624E-01    0.6751082046E+00
    0.7000000000E+04    0.5943748148E+00    0.3125923447E-02    0.4323453507E-03    0.6290949547E-01    0.6775880786E+00
    0.9000000000E+04    0.5989030349E+00    0.2716422267E-02    0.3641103643E-03    0.6341457014E-01    0.6790507679E+00
    0.1100000000E+05    0.6017915479E+00    0.2436980735E-02    0.3191268656E-03    0.6374150091E-01    0.6800275766E+00
    0.1300000000E+05    0.6037927028E+00    0.2230742621E-02    0.2868565344E-03    0.6397129722E-01    0.6807320522E+00
    0.1500000000E+05    0.6052601164E+00    0.2070408276E-02    0.2623534339E-03    0.6414222950E-01    0.6812674565E+00
    0.1700000000E+05    0.6063817329E+00    0.1941075463E-02    0.2429766838E-03    0.6427474117E-01    0.6816901376E+00
    0.1900000000E+05    0.6072666097E+00    0.1833841176E-02    0.2271807151E-03    0.6438075464E-01    0.6820335970E+00
    0.2100000000E+05    0.6079823507E+00    0.1743018393E-02    0.2139967516E-03    0.6446769749E-01    0.6823190741E+00
    0.2300000000E+05    0.6085730810E+00    0.1664782083E-02    0.2027843539E-03    0.6454044192E-01    0.6825607250E+00
    0.2500000000E+05    0.6090688196E+00    0.1596452000E-02    0.1931017622E-03    0.6460231900E-01    0.6827683697E+00
    0.2700000000E+05    0.6094906957E+00    0.1536086465E-02    0.1846335069E-03    0.6465568494E-01    0.6829490483E+00
    0.2900000000E+05    0.6098540112E+00    0.1482239476E-02    0.1771477143E-03    0.6470225450E-01    0.6831079478E+00
    0.3100000000E+05    0.6101701185E+00    0.1433808845E-02    0.1704697545E-03    0.6474330612E-01    0.6832489799E+00
    0.3300000000E+05    0.6104476173E+00    0.1389937607E-02    0.1644653435E-03    0.6477981294E-01    0.6833751540E+00
    0.3500000000E+05    0.6106931403E+00    0.1349947945E-02    0.1590293461E-03    0.6481252917E-01    0.6834888258E+00
    0.3700000000E+05    0.6109118851E+00    0.1313295666E-02    0.1540781452E-03    0.6484204872E-01    0.6835918675E+00
    0.3900000000E+05    0.6111079822E+00    0.1279538075E-02    0.1495443112E-03    0.6486884582E-01    0.6836857871E+00
    0.4100000000E+05    0.6112847553E+00    0.1248310815E-02    0.1453727966E-03    0.6489330390E-01    0.6837718139E+00
    0.4300000000E+05    0.6114449089E+00    0.1219310872E-02    0.1415181676E-03    0.6491573646E-01    0.6838509609E+00
    0.4500000000E+05    0.6115906661E+00    0.1192283877E-02    0.1379425539E-03    0.6493640243E-01    0.6839240707E+00
    0.4700000000E+05    0.6117238711E+00    0.1167014486E-02    0.1346141078E-03    0.6495551760E-01    0.6839918503E+00
    0.4900000000E+05    0.6118460665E+00    0.1143318991E-02    0.1315058296E-03    0.6497326335E-01    0.6840548980E+00
    0.1000000000E+05    0.6004912691E+00    0.2565030769E-02    0.3395674194E-03    0.6359374564E-01    0.6795827294E+00
    0.3000000000E+05    0.6100173746E+00    0.1457405527E-02    0.1737169410E-03    0.6472340326E-01    0.6831804914E+00
    0.5000000000E+05    0.6119034500E+00    0.1132011254E-02    0.1300269141E-03    0.6498167162E-01    0.6840848096E+00
    0.7000000000E+05    0.6127025765E+00    0.9597029835E-03    0.1078426242E-03    0.6510528021E-01    0.6845262524E+00
    0.9000000000E+05    0.6131413663E+00    0.8486612493E-03    0.9389864250E-04    0.6518102038E-01    0.6847960315E+00
    0.1100000000E+06    0.6134172601E+00    0.7694081780E-03    0.8411868126E-04    0.6523368707E-01    0.6849813078E+00
    0.1300000000E+06    0.6136059225E+00    0.7091558221E-03    0.7678172912E-04    0.6527323062E-01    0.6851180382E+00
    0.1500000000E+06    0.6137425369E+00    0.6613330873E-03    0.7102035441E-04    0.6530448390E-01    0.6852239944E+00
    0.1700000000E+06    0.6138456633E+00    0.6221692291E-03    0.6634411214E-04    0.6533010467E-01    0.6853090591E+00
    0.1900000000E+06    0.6139260081E+00    0.5893243253E-03    0.6245226834E-04    0.6535168870E-01    0.6853792060E+00
    0.2100000000E+06    0.6139901749E+00    0.5612587653E-03    0.5914890477E-04    0.6537025896E-01    0.6854382791E+00
    0.2300000000E+06    0.6140424547E+00    0.5369122917E-03    0.5630024232E-04    0.6538650546E-01    0.6854888745E+00
    0.2500000000E+06    0.6140857543E+00    0.5155276024E-03    0.5381143129E-04    0.6540091292E-01    0.6855328151E+00
    0.2700000000E+06    0.6141221117E+00    0.4965473476E-03    0.5161311996E-04    0.6541383330E-01    0.6855714224E+00
    0.2900000000E+06    0.6141529971E+00    0.4795509506E-03    0.4965328059E-04    0.6542552934E-01    0.6856056800E+00
    0.3100000000E+06    0.6141794971E+00    0.4642142432E-03    0.4789202307E-04    0.6543620180E-01    0.6856363368E+00
    0.3300000000E+06    0.6142024316E+00    0.4502827730E-03    0.4629818666E-04    0.6544600719E-01    0.6856639739E+00
    0.3500000000E+06    0.6142224308E+00    0.4375536257E-03    0.4484703182E-04    0.6545506963E-01    0.6856890502E+00
    0.3700000000E+06    0.6142399865E+00    0.4258627268E-03    0.4351863602E-04    0.6546348910E-01    0.6857119330E+00
    0.3900000000E+06    0.6142554881E+00    0.4150757701E-03    0.4229675322E-04    0.6547134714E-01    0.6857329205E+00
    0.4100000000E+06    0.6142692478E+00    0.4050816105E-03    0.4116798660E-04    0.6547871110E-01    0.6857522573E+00
    0.4300000000E+06    0.6142815188E+00    0.3957873656E-03    0.4012117782E-04    0.6548563720E-01    0.6857701464E+00
    0.4500000000E+06    0.6142925081E+00    0.3871147271E-03    0.3914694876E-04    0.6549217277E-01    0.6857867577E+00
    0.4700000000E+06    0.6143023870E+00    0.3789971441E-03    0.3823735293E-04    0.6549835805E-01    0.6858022344E+00
    0.4900000000E+06    0.6143112983E+00    0.3713776458E-03    0.3738560670E-04    0.6550422748E-01    0.6858166987E+00
    0.1000000000E+06    0.6132935217E+00    0.8060717473E-03    0.8862497101E-04    0.6520943807E-01    0.6848963580E+00
    0.3000000000E+06    0.6141667388E+00    0.4716924274E-03    0.4874995000E-04    0.6543098286E-01    0.6856214188E+00
    0.5000000000E+06    0.6143154293E+00    0.3677390670E-03    0.3697957271E-04    0.6550705321E-01    0.6858235844E+00
    0.7000000000E+06    0.6143682357E+00    0.3121202899E-03    0.3083239175E-04    0.6555244675E-01    0.6859271004E+00
    0.9000000000E+06    0.6143914691E+00    0.2761373905E-03    0.2691935436E-04    0.6558466331E-01    0.6859923192E+00
    0.1100000000E+07    0.6144023410E+00    0.2504065797E-03    0.2415528812E-04    0.6560958963E-01    0.6860381026E+00
    0.1300000000E+07    0.6144071407E+00    0.2308237880E-03    0.2207233053E-04    0.6562989953E-01    0.6860724649E+00
    0.1500000000E+07    0.6144086496E+00    0.2152706776E-03    0.2043163460E-04    0.6564702804E-01    0.6860994568E+00
    0.1700000000E+07    0.6144082583E+00    0.2025283011E-03    0.1909699015E-04    0.6566183289E-01    0.6861213714E+00
    0.1900000000E+07    0.6144067246E+00    0.1918388540E-03    0.1798435842E-04    0.6567486702E-01    0.6861396158E+00
    0.2100000000E+07    0.6144044879E+00    0.1827030785E-03    0.1703873714E-04    0.6568650744E-01    0.6861551067E+00
    0.2300000000E+07    0.6144018157E+00    0.1747768379E-03    0.1622243408E-04    0.6569702258E-01    0.6861684702E+00
    0.2500000000E+07    0.6143988766E+00    0.1678141563E-03    0.1550864891E-04    0.6570661028E-01    0.6861801500E+00
    0.2700000000E+07    0.6143957797E+00    0.1616339062E-03    0.1487774032E-04    0.6571542052E-01    0.6861904707E+00
    0.2900000000E+07    0.6143925976E+00    0.1560993516E-03    0.1431494499E-04    0.6572356967E-01    0.6861996757E+00
    0.3100000000E+07    0.6143893789E+00    0.1511050656E-03    0.1380892549E-04    0.6573114984E-01    0.6862079516E+00
    0.3300000000E+07    0.6143861566E+00    0.1465682720E-03    0.1335081322E-04    0.6573823517E-01    0.6862154440E+00
    0.3500000000E+07    0.6143829533E+00    0.1424229467E-03    0.1293355880E-04    0.6574488619E-01    0.6862222688E+00
    0.3700000000E+07    0.6143797842E+00    0.1386156934E-03    0.1255147961E-04    0.6575115300E-01    0.6862285191E+00
    0.3900000000E+07    0.6143766597E+00    0.1351027974E-03    0.1219993753E-04    0.6575707752E-01    0.6862342708E+00
    0.4100000000E+07    0.6143735867E+00    0.1318480783E-03    0.1187510487E-04    0.6576269514E-01    0.6862395866E+00
    0.4300000000E+07    0.6143705694E+00    0.1288212974E-03    0.1157379126E-04    0.6576803606E-01    0.6862445187E+00
    0.4500000000E+07    0.6143676103E+00    0.1259969585E-03    0.1129331363E-04    0.6577312624E-01    0.6862491109E+00
    0.4700000000E+07    0.6143647109E+00    0.1233533921E-03    0.1103139727E-04    0.6577798813E-01    0.6862534004E+00
    0.4900000000E+07    0.6143618713E+00    0.1208720469E-03    0.1078609932E-04    0.6578264132E-01    0.6862574189E+00
    0.1000000000E+07    0.6143979323E+00    0.2623143317E-03    0.2543074102E-04    0.6559782903E-01    0.6860170038E+00
    0.3000000000E+07    0.6143909905E+00    0.1535402998E-03    0.1405544163E-04    0.6572742589E-01    0.6862039199E+00
    0.5000000000E+07    0.6143604740E+00    0.1196871234E-03    0.1066915091E-04    0.6578489510E-01    0.6862593352E+00
    0.7000000000E+07    0.6143354329E+00    0.1015753498E-03    0.8897678592E-05    0.6582225683E-01    0.6862884078E+00
    0.9000000000E+07    0.6143149157E+00    0.8985898952E-04    0.7769269248E-05    0.6584998607E-01    0.6863069904E+00
    0.1100000000E+08    0.6142976576E+00    0.8148155475E-04    0.6971910206E-05    0.6587204410E-01    0.6863201648E+00
    0.1300000000E+08    0.6142827983E+00    0.7510627509E-04    0.6370907750E-05    0.6589036107E-01    0.6863301254E+00
    0.1500000000E+08    0.6142697637E+00    0.7004320252E-04    0.5897449326E-05    0.6590602378E-01    0.6863379943E+00
    0.1700000000E+08    0.6142581592E+00    0.6589534563E-04    0.5512273888E-05    0.6591970499E-01    0.6863444126E+00
    0.1900000000E+08    0.6142477039E+00    0.6241591398E-04    0.5191150361E-05    0.6593185027E-01    0.6863497764E+00
    0.2100000000E+08    0.6142381915E+00    0.5944232552E-04    0.4918216115E-05    0.6594276995E-01    0.6863543455E+00
    0.2300000000E+08    0.6142294663E+00    0.5686251856E-04    0.4682598825E-05    0.6595268892E-01    0.6863582981E+00
    0.2500000000E+08    0.6142214080E+00    0.5459639929E-04    0.4476566890E-05    0.6596177531E-01    0.6863617611E+00
    0.2700000000E+08    0.6142139219E+00    0.5258499212E-04    0.4294453404E-05    0.6597015817E-01    0.6863648276E+00
