  Pressure (Pa) 22mC5-400 (mol/kg) 2mC6-400 (mol/kg) 33mC5-400 (mol/kg) 23mC5-400 (mol/kg) C7-400 (mol/kg)
    0.1000000000E+01    0.2650035191E-02    0.7872577292E-03    0.2564316192E-03    0.1861268867E-03    0.1354202699E-01
    0.3000000000E+01    0.7868405511E-02    0.2268802525E-02    0.7392457548E-03    0.5526470927E-03    0.3899209516E-01
    0.5000000000E+01    0.1298091496E-01    0.3637994041E-02    0.1185756240E-02    0.9117381231E-03    0.6247606581E-01
    0.7000000000E+01    0.1799110379E-01    0.4906937795E-02    0.1599884446E-02    0.1263648377E-02    0.8421539205E-01
    0.9000000000E+01    0.2290235295E-01    0.6085997814E-02    0.1984985828E-02    0.1608615075E-02    0.1043993934E+00
    0.1100000000E+02    0.2771789288E-01    0.7184103372E-02    0.2343949797E-02    0.1946864882E-02    0.1231908839E+00
    0.1300000000E+02    0.3244081180E-01    0.8208992918E-02    0.2679279115E-02    0.2278614482E-02    0.1407306577E+00
    0.1500000000E+02    0.3707406340E-01    0.9167409692E-02    0.2993153555E-02    0.2604071122E-02    0.1571410925E+00
    0.1700000000E+02    0.4162047405E-01    0.1006525984E-01    0.3287481333E-02    0.2923433118E-02    0.1725290685E+00
    0.1900000000E+02    0.4608274959E-01    0.1090774114E-01    0.3563940973E-02    0.3236890328E-02    0.1869883485E+00
    0.2100000000E+02    0.5046348169E-01    0.1169944856E-01    0.3824015617E-02    0.3544624600E-02    0.2006015326E+00
    0.2300000000E+02    0.5476515374E-01    0.1244446128E-01    0.4069021325E-02    0.3846810187E-02    0.2134416731E+00
    0.2500000000E+02    0.5899014649E-01    0.1314641505E-01    0.4300130554E-02    0.4143614139E-02    0.2255736173E+00
    0.2700000000E+02    0.6314074326E-01    0.1380856245E-01    0.4518391757E-02    0.4435196671E-02    0.2370551288E+00
    0.2900000000E+02    0.6721913488E-01    0.1443382358E-01    0.4724745825E-02    0.4721711510E-02    0.2479378313E+00
    0.3100000000E+02    0.7122742431E-01    0.1502482879E-01    0.4920039953E-02    0.5003306218E-02    0.2582680034E+00
    0.3300000000E+02    0.7516763105E-01    0.1558395487E-01    0.5105039387E-02    0.5280122498E-02    0.2680872549E+00
    0.3500000000E+02    0.7904169515E-01    0.1611335591E-01    0.5280437428E-02    0.5552296484E-02    0.2774331014E+00
    0.3700000000E+02    0.8285148117E-01    0.1661498968E-01    0.5446863982E-02    0.5819959009E-02    0.2863394568E+00
    0.3900000000E+02    0.8659878176E-01    0.1709064027E-01    0.5604892903E-02    0.6083235864E-02    0.2948370561E+00
    0.4100000000E+02    0.9028532114E-01    0.1754193764E-01    0.5755048318E-02    0.6342248038E-02    0.3029538203E+00
    0.4300000000E+02    0.9391275831E-01    0.1797037454E-01    0.5897810104E-02    0.6597111942E-02    0.3107151713E+00
    0.4500000000E+02    0.9748269012E-01    0.1837732115E-01    0.6033618638E-02    0.6847939629E-02    0.3181443065E+00
    0.4700000000E+02    0.1009966542E+00    0.1876403793E-01    0.6162878941E-02    0.7094838994E-02    0.3252624369E+00
    0.4900000000E+02    0.1044561315E+00    0.1913168679E-01    0.6285964296E-02    0.7337913966E-02    0.3320889960E+00
    0.1000000000E+02    0.2532189031E-01    0.6644660836E-02    0.2167570317E-02    0.1778565820E-02    0.1139599328E+00
    0.3000000000E+02    0.6923191424E-01    0.1473345407E-01    0.4823725758E-02    0.4863114890E-02    0.2531692808E+00
    0.5000000000E+02    0.1061658857E+00    0.1930869934E-01    0.6345300131E-02    0.7458048742E-02    0.3353985688E+00
    0.7000000000E+02    0.1378214534E+00    0.2206965436E-01    0.7279051232E-02    0.9682491414E-02    0.3899202313E+00
    0.9000000000E+02    0.1653713372E+00    0.2376442315E-01    0.7865237801E-02    0.1161873643E-01    0.4288437763E+00
    0.1100000000E+03    0.1896524286E+00    0.2478346804E-01    0.8229321666E-02    0.1332551367E-01    0.4580976893E+00
    0.1300000000E+03    0.2112788257E+00    0.2535351402E-01    0.8444334767E-02    0.1484591989E-01    0.4809321278E+00
    0.1500000000E+03    0.2307121461E+00    0.2561592954E-01    0.8556001398E-02    0.1621235220E-01    0.4992806012E+00
    0.1700000000E+03    0.2483067902E+00    0.2566338114E-01    0.8594456851E-02    0.1744968391E-01    0.5143668283E+00
    0.1900000000E+03    0.2643399550E+00    0.2555886951E-01    0.8580324194E-02    0.1857737057E-01    0.5270038920E+00
    0.2100000000E+03    0.2790320648E+00    0.2534641776E-01    0.8528124460E-02    0.1961088358E-01    0.5377536486E+00
    0.2300000000E+03    0.2925610019E+00    0.2505744140E-01    0.8448309857E-02    0.2056270882E-01    0.5470171104E+00
    0.2500000000E+03    0.3050722269E+00    0.2471472642E-01    0.8348535026E-02    0.2144305677E-01    0.5550883586E+00
    0.2700000000E+03    0.3166861109E+00    0.2433500825E-01    0.8234482787E-02    0.2226037709E-01    0.5621880904E+00
    0.2900000000E+03    0.3275033370E+00    0.2393069553E-01    0.8110417485E-02    0.2302173766E-01    0.5684852563E+00
    0.3100000000E+03    0.3376089420E+00    0.2351105176E-01    0.7979565527E-02    0.2373310822E-01    0.5741114497E+00
    0.3300000000E+03    0.3470753829E+00    0.2308302279E-01    0.7844382861E-02    0.2439957559E-01    0.5791707366E+00
    0.3500000000E+03    0.3559648936E+00    0.2265182692E-01    0.7706746531E-02    0.2502550904E-01    0.5837465283E+00
    0.3700000000E+03    0.3643313186E+00    0.2222138225E-01    0.7568094080E-02    0.2561468899E-01    0.5879064881E+00
    0.3900000000E+03    0.3722215543E+00    0.2179462049E-01    0.7429526435E-02    0.2617040818E-01    0.5917060981E+00
    0.4100000000E+03    0.3796766947E+00    0.2137371998E-01    0.7291884770E-02    0.2669555206E-01    0.5951912963E+00
    0.4300000000E+03    0.3867329506E+00    0.2096028065E-01    0.7155808562E-02    0.2719266329E-01    0.5984004545E+00
    0.4500000000E+03    0.3934223929E+00    0.2055545653E-01    0.7021779854E-02    0.2766399395E-01    0.6013658827E+00
    0.4700000000E+03    0.3997735599E+00    0.2016005682E-01    0.6890157294E-02    0.2811154815E-01    0.6041149872E+00
    0.4900000000E+03    0.4058119566E+00    0.1977462369E-01    0.6761202503E-02    0.2853711701E-01    0.6066711719E+00
    0.1000000000E+03    0.1778778573E+00    0.2434161988E-01    0.8069639538E-02    0.1249781721E-01    0.4444349350E+00
    0.3000000000E+03    0.3326402993E+00    0.2372230945E-01    0.8045670830E-02    0.2338333522E-01    0.5713751674E+00
    0.5000000000E+03    0.4087211101E+00    0.1958575609E-01    0.6697785904E-02    0.2874216570E-01    0.6078833162E+00
    0.7000000000E+03    0.4549751333E+00    0.1634681098E-01    0.5588935993E-02    0.3200437321E-01    0.6256580089E+00
    0.9000000000E+03    0.4860832524E+00    0.1398110027E-01    0.4755700439E-02    0.3420118110E-01    0.6363057845E+00
    0.1100000000E+04    0.5083693034E+00    0.1223039306E-01    0.4127405980E-02    0.3577700551E-01    0.6434515994E+00
    0.1300000000E+04    0.5250671854E+00    0.1090092287E-01    0.3644192984E-02    0.3695922036E-01    0.6486061501E+00
    0.1500000000E+04    0.5380107250E+00    0.9864660511E-02    0.3264347784E-02    0.3787682057E-01    0.6525151178E+00
    0.1700000000E+04    0.5483170003E+00    0.9037668779E-02    0.2959576249E-02    0.3860841911E-01    0.6555905338E+00
    0.1900000000E+04    0.5567041317E+00    0.8363911316E-02    0.2710515708E-02    0.3920457539E-01    0.6580792993E+00
    0.2100000000E+04    0.5636538584E+00    0.7805059067E-02    0.2503666088E-02    0.3969922133E-01    0.6601387145E+00
    0.2300000000E+04    0.5695007993E+00    0.7334239341E-02    0.2329416671E-02    0.4011593669E-01    0.6618739263E+00
    0.2500000000E+04    0.5744842532E+00    0.6932167737E-02    0.2180784340E-02    0.4047159163E-01    0.6633579926E+00
    0.2700000000E+04    0.5787796472E+00    0.6584706784E-02    0.2052597140E-02    0.4077855896E-01    0.6646433197E+00
    0.2900000000E+04    0.5825183643E+00    0.6281289656E-02    0.1940956541E-02    0.4104610912E-01    0.6657685176E+00
    0.3100000000E+04    0.5858006533E+00    0.6013878963E-02    0.1842876354E-02    0.4128131885E-01    0.6667626859E+00
    0.3300000000E+04    0.5887042727E+00    0.5776263867E-02    0.1756035580E-02    0.4148967970E-01    0.6676481900E+00
    0.3500000000E+04    0.5912904204E+00    0.5563575836E-02    0.1678606098E-02    0.4167551557E-01    0.6684425146E+00
    0.3700000000E+04    0.5936078910E+00    0.5371948693E-02    0.1609130460E-02    0.4184227554E-01    0.6691595351E+00
    0.3900000000E+04    0.5956960471E+00    0.5198275785E-02    0.1546433812E-02    0.4199274323E-01    0.6698104095E+00
    0.4100000000E+04    0.5975869788E+00    0.5040033739E-02    0.1489559462E-02    0.4212918900E-01    0.6704042171E+00
    0.4300000000E+04    0.5993071000E+00    0.4895152643E-02    0.1437721095E-02    0.4225348243E-01    0.6709484245E+00
    0.4500000000E+04    0.6008783425E+00    0.4761919131E-02    0.1390266882E-02    0.4236717659E-01    0.6714492314E+00
    0.4700000000E+04    0.6023190630E+00    0.4638903107E-02    0.1346652193E-02    0.4247157196E-01    0.6719118300E+00
    0.4900000000E+04    0.6036447393E+00    0.4524901703E-02    0.1306418639E-02    0.4256776555E-01    0.6723406033E+00
    0.1000000000E+04    0.4980818928E+00    0.1304278008E-01    0.4420139885E-02    0.3504934203E-01    0.6401957173E+00
    0.3000000000E+04    0.5842112552E+00    0.6143507968E-02    0.1890379736E-02    0.4116738179E-01    0.6662804500E+00
    0.5000000000E+04    0.6042686210E+00    0.4470956855E-02    0.1287446039E-02    0.4261308343E-01    0.6725434924E+00
    0.7000000000E+04    0.6130492806E+00    0.3684085575E-02    0.1016454078E-02    0.4325511730E-01    0.6754929631E+00
    0.9000000000E+04    0.6179542097E+00    0.3209103852E-02    0.8593788543E-03    0.4361888961E-01    0.6772468290E+00
    0.1100000000E+05    0.6210797973E+00    0.2883343659E-02    0.7551808745E-03    0.4385397978E-01    0.6784252757E+00
    0.1300000000E+05    0.6232435528E+00    0.2642084875E-02    0.6800872817E-03    0.4401900622E-01    0.6792793388E+00
    0.1500000000E+05    0.6248293352E+00    0.2454050156E-02    0.6228668326E-03    0.4414162760E-01    0.6799310716E+00
    0.1700000000E+05    0.6260409675E+00    0.2302082234E-02    0.5774911666E-03    0.4423660155E-01    0.6804473745E+00
    0.1900000000E+05    0.6269966211E+00    0.2175891525E-02    0.5404170530E-03    0.4431252555E-01    0.6808681735E+00
    0.2100000000E+05    0.6277694949E+00    0.2068885006E-02    0.5094155747E-03    0.4437475075E-01    0.6812188648E+00
    0.2300000000E+05    0.6284073354E+00    0.1976617044E-02    0.4830087218E-03    0.4442678434E-01    0.6815164236E+00
    0.2500000000E+05    0.6289426068E+00    0.1895965945E-02    0.4601743031E-03    0.4447102237E-01    0.6817726568E+00
    0.2700000000E+05    0.6293981487E+00    0.1824666184E-02    0.4401806674E-03    0.4450915855E-01    0.6819960483E+00
    0.2900000000E+05    0.6297904945E+00    0.1761028005E-02    0.4224889510E-03    0.4454242473E-01    0.6821928625E+00
    0.3100000000E+05    0.6301319058E+00    0.1703761713E-02    0.4066925924E-03    0.4457173882E-01    0.6823678331E+00
    0.3300000000E+05    0.6304316679E+00    0.1651863401E-02    0.3924784580E-03    0.4459779917E-01    0.6825246082E+00
    0.3500000000E+05    0.6306969404E+00    0.1604538220E-02    0.3796010322E-03    0.4462114680E-01    0.6826660485E+00
    0.3700000000E+05    0.6309333326E+00    0.1561147442E-02    0.3678647947E-03    0.4464220753E-01    0.6827944312E+00
    0.3900000000E+05    0.6311453008E+00    0.1521171050E-02    0.3571118900E-03    0.4466132125E-01    0.6829115932E+00
    0.4100000000E+05    0.6313364306E+00    0.1484180743E-02    0.3472133111E-03    0.4467876270E-01    0.6830190339E+00
    0.4300000000E+05    0.6315096390E+00    0.1449820097E-02    0.3380624762E-03    0.4469475640E-01    0.6831179905E+00
    0.4500000000E+05    0.6316673233E+00    0.1417789729E-02    0.3295704662E-03    0.4470948775E-01    0.6832094934E+00
    0.4700000000E+05    0.6318114722E+00    0.1387836053E-02    0.3216624409E-03    0.4472311122E-01    0.6832944084E+00
    0.4900000000E+05    0.6319437487E+00    0.1359742632E-02    0.3142749039E-03    0.4473575660E-01    0.6833734687E+00
    0.1000000000E+05    0.6196731362E+00    0.3032782198E-02    0.8025958393E-03    0.4374777316E-01    0.6778878180E+00
    0.3000000000E+05    0.6299669285E+00    0.1731666774E-02    0.4143752610E-03    0.4455752784E-01    0.6822828288E+00
    0.5000000000E+05    0.6320058817E+00    0.1346334350E-02    0.3107590473E-03    0.4474174752E-01    0.6834110024E+00
    0.7000000000E+05    0.6328726016E+00    0.1141882096E-02    0.2579549499E-03    0.4482976651E-01    0.6839669490E+00
    0.9000000000E+05    0.6333504322E+00    0.1010003135E-02    0.2247066357E-03    0.4488365173E-01    0.6843087468E+00
    0.1100000000E+06    0.6336522110E+00    0.9158265158E-03    0.2013628732E-03    0.4492110129E-01    0.6845444948E+00
    0.1300000000E+06    0.6338595493E+00    0.8442024157E-03    0.1838382524E-03    0.4494920956E-01    0.6847190473E+00
    0.1500000000E+06    0.6340104294E+00    0.7873389772E-03    0.1700701985E-03    0.4497141961E-01    0.6848546713E+00
    0.1700000000E+06    0.6341249088E+00    0.7407621258E-03    0.1588911799E-03    0.4498962383E-01    0.6849637924E+00
    0.1900000000E+06    0.6342145715E+00    0.7016942096E-03    0.1495846677E-03    0.4500495795E-01    0.6850539436E+00
    0.2100000000E+06    0.6342865715E+00    0.6683069552E-03    0.1416835581E-03    0.4501814980E-01    0.6851299838E+00
    0.2300000000E+06    0.6343455635E+00    0.6393409620E-03    0.1348687297E-03    0.4502969014E-01    0.6851952019E+00
    0.2500000000E+06    0.6343947054E+00    0.6138964804E-03    0.1289138278E-03    0.4503992366E-01    0.6852519115E+00
    0.2700000000E+06    0.6344362141E+00    0.5913111972E-03    0.1236532883E-03    0.4504910060E-01    0.6853017925E+00
    0.2900000000E+06    0.6344716913E+00    0.5710852491E-03    0.1189628672E-03    0.4505740771E-01    0.6853460974E+00
    0.3100000000E+06    0.6345023225E+00    0.5528333023E-03    0.1147472812E-03    0.4506498769E-01    0.6853857807E+00
    0.3300000000E+06    0.6345290038E+00    0.5362528564E-03    0.1109320815E-03    0.4507195177E-01    0.6854215844E+00
    0.3500000000E+06    0.6345524247E+00    0.5211026554E-03    0.1074581491E-03    0.4507838815E-01    0.6854540947E+00
    0.3700000000E+06    0.6345731244E+00    0.5071876033E-03    0.1042778680E-03    0.4508436784E-01    0.6854837816E+00
    0.3900000000E+06    0.6345915305E+00    0.4943479875E-03    0.1013524030E-03    0.4508994880E-01    0.6855110270E+00
    0.4100000000E+06    0.6346079863E+00    0.4824516277E-03    0.9864972563E-04    0.4509517887E-01    0.6855361443E+00
    0.4300000000E+06    0.6346227705E+00    0.4713880549E-03    0.9614315542E-04    0.4510009798E-01    0.6855593938E+00
    0.4500000000E+06    0.6346361118E+00    0.4610641279E-03    0.9381026628E-04    0.4510473975E-01    0.6855809937E+00
    0.4700000000E+06    0.6346481994E+00    0.4514006859E-03    0.9163205356E-04    0.4510913277E-01    0.6856011281E+00
    0.4900000000E+06    0.6346591914E+00    0.4423299589E-03    0.8959229217E-04    0.4511330150E-01    0.6856199538E+00
    0.1000000000E+06    0.6335166924E+00    0.9593989562E-03    0.2121212852E-03    0.4490386056E-01    0.6844362958E+00
    0.3000000000E+06    0.6344875510E+00    0.5617330816E-03    0.1168007867E-03    0.4506128102E-01    0.6853664661E+00
    0.5000000000E+06    0.6346643188E+00    0.4379982925E-03    0.8861989486E-04    0.4511530847E-01    0.6856289187E+00
    0.7000000000E+06    0.6347326950E+00    0.3717792319E-03    0.7389614852E-04    0.4514755082E-01    0.6857639219E+00
    0.9000000000E+06    0.6347665288E+00    0.3289328199E-03    0.6452173352E-04    0.4517043637E-01    0.6858492068E+00
    0.1100000000E+07    0.6347853849E+00    0.2982914657E-03    0.5789907558E-04    0.4518814508E-01    0.6859091849E+00
    0.1300000000E+07    0.6347965691E+00    0.2749700630E-03    0.5290792061E-04    0.4520257544E-01    0.6859542607E+00
    0.1500000000E+07    0.6348033883E+00    0.2564468379E-03    0.4897626280E-04    0.4521474640E-01    0.6859897044E+00
    0.1700000000E+07    0.6348075385E+00    0.2412705702E-03    0.4577785385E-04    0.4522526700E-01    0.6860185047E+00
    0.1900000000E+07    0.6348099698E+00    0.2285389949E-03    0.4311138536E-04    0.4523452988E-01    0.6860424977E+00
    0.2100000000E+07    0.6348112503E+00    0.2176576490E-03    0.4084509332E-04    0.4524280276E-01    0.6860628813E+00
    0.2300000000E+07    0.6348117375E+00    0.2082167532E-03    0.3888867611E-04    0.4525027629E-01    0.6860804740E+00
    0.2500000000E+07    0.6348116657E+00    0.1999234022E-03    0.3717792313E-04    0.4525709097E-01    0.6860958567E+00
    0.2700000000E+07    0.6348111932E+00    0.1925619048E-03    0.3566577394E-04    0.4526335331E-01    0.6861094545E+00
    0.2900000000E+07    0.6348104304E+00    0.1859694279E-03    0.3431685440E-04    0.4526914597E-01    0.6861215862E+00
    0.3100000000E+07    0.6348094553E+00    0.1800204197E-03    0.3310399816E-04    0.4527453437E-01    0.6861324966E+00
    0.3300000000E+07    0.6348083249E+00    0.1746163013E-03    0.3200595403E-04    0.4527957117E-01    0.6861423768E+00
    0.3500000000E+07    0.6348070806E+00    0.1696784422E-03    0.3100582960E-04    0.4528429938E-01    0.6861513787E+00
    0.3700000000E+07    0.6348057538E+00    0.1651432499E-03    0.3009000736E-04    0.4528875458E-01    0.6861596245E+00
    0.3900000000E+07    0.6348043678E+00    0.1609586615E-03    0.2924737252E-04    0.4529296655E-01    0.6861672142E+00
    0.4100000000E+07    0.6348029406E+00    0.1570815863E-03    0.2846875225E-04    0.4529696043E-01    0.6861742299E+00
    0.4300000000E+07    0.6348014857E+00    0.1534760098E-03    0.2774650085E-04    0.4530075768E-01    0.6861807403E+00
    0.4500000000E+07    0.6348000138E+00    0.1501115658E-03    0.2707418838E-04    0.4530437674E-01    0.6861868030E+00
    0.4700000000E+07    0.6347985330E+00    0.1469624450E-03    0.2644636329E-04    0.4530783356E-01    0.6861924669E+00
    0.4900000000E+07    0.6347970499E+00    0.1440065520E-03    0.2585836939E-04    0.4531114206E-01    0.6861977736E+00
    0.1000000000E+07    0.6347772308E+00    0.3124719866E-03    0.6095512133E-04    0.4517978963E-01    0.6858815335E+00
    0.3000000000E+07    0.6348099654E+00    0.1829211887E-03    0.3369486416E-04    0.4527188715E-01    0.6861271811E+00
    0.5000000000E+07    0.6347963090E+00    0.1425950109E-03    0.2557803572E-04    0.4531274456E-01    0.6862003045E+00
    0.7000000000E+07    0.6347821087E+00    0.1210188968E-03    0.2133158816E-04    0.4533931191E-01    0.6862387203E+00
    0.9000000000E+07    0.6347695972E+00    0.1070610417E-03    0.1862654768E-04    0.4535903222E-01    0.6862632935E+00
    0.1100000000E+08    0.6347586898E+00    0.9708068433E-04    0.1671506147E-04    0.4537472072E-01    0.6862807237E+00
    0.1300000000E+08    0.6347490948E+00    0.8948545562E-04    0.1527427130E-04    0.4538774935E-01    0.6862939066E+00
    0.1500000000E+08    0.6347405565E+00    0.8345346277E-04    0.1413922955E-04    0.4539889067E-01    0.6863043240E+00
    0.1700000000E+08    0.6347328762E+00    0.7851178452E-04    0.1321582306E-04    0.4540862294E-01    0.6863128229E+00
    0.1900000000E+08    0.6347259024E+00    0.7436642377E-04    0.1244596614E-04    0.4541726296E-01    0.6863199269E+00
    0.2100000000E+08    0.6347195187E+00    0.7082369685E-04    0.1179163303E-04    0.4542503137E-01    0.6863259792E+00
    0.2300000000E+08    0.6347136345E+00    0.6775010343E-04    0.1122676037E-04    0.4543208808E-01    0.6863312155E+00
    0.2500000000E+08    0.6347081780E+00    0.6505022598E-04    0.1073281362E-04    0.4543855264E-01    0.6863358039E+00
    0.2700000000E+08    0.6347030918E+00    0.6265380502E-04    0.1029620771E-04    0.4544451682E-01    0.6863398674E+00
