  Pressure (Pa) 22mC5-400 (mol/kg) 2mC6-400 (mol/kg) 33mC5-400 (mol/kg) 23mC5-400 (mol/kg) C7-400 (mol/kg)
    0.1000000000E+01    0.2638397549E-02    0.5519117539E-02    0.1925935288E-03    0.9265493843E-04    0.6800094208E-02
    0.3000000000E+01    0.7767650727E-02    0.1594860738E-01    0.5565929588E-03    0.2727868144E-03    0.1974058051E-01
    0.5000000000E+01    0.1271148452E-01    0.2563312470E-01    0.8946631916E-03    0.4464113242E-03    0.3187436495E-01
    0.7000000000E+01    0.1748236177E-01    0.3464384712E-01    0.1209281272E-02    0.6139657999E-03    0.4327897727E-01
    0.9000000000E+01    0.2209161632E-01    0.4304323846E-01    0.1502620820E-02    0.7758479589E-03    0.5402219184E-01
    0.1100000000E+02    0.2654957890E-01    0.5088634598E-01    0.1776597226E-02    0.9324203221E-03    0.6416352179E-01
    0.1300000000E+02    0.3086568657E-01    0.5822187153E-01    0.2032904976E-02    0.1084014053E-02    0.7375544615E-01
    0.1500000000E+02    0.3504857808E-01    0.6509306135E-01    0.2273048643E-02    0.1230932302E-02    0.8284442418E-01
    0.1700000000E+02    0.3910617724E-01    0.7153844972E-01    0.2498368791E-02    0.1373453134E-02    0.9147173881E-01
    0.1900000000E+02    0.4304576602E-01    0.7759248367E-01    0.2710063732E-02    0.1511832093E-02    0.9967420182E-01
    0.2100000000E+02    0.4687404888E-01    0.8328605058E-01    0.2909207900E-02    0.1646304457E-02    0.1074847465E+00
    0.2300000000E+02    0.5059720944E-01    0.8864692581E-01    0.3096767436E-02    0.1777087229E-02    0.1149329283E+00
    0.2500000000E+02    0.5422096061E-01    0.9370015432E-01    0.3273613480E-02    0.1904380894E-02    0.1220453497E+00
    0.2700000000E+02    0.5775058901E-01    0.9846837733E-01    0.3440533535E-02    0.2028370979E-02    0.1288460224E+00
    0.2900000000E+02    0.6119099446E-01    0.1029721130E+00    0.3598241246E-02    0.2149229438E-02    0.1353566772E+00
    0.3100000000E+02    0.6454672511E-01    0.1072299989E+00    0.3747384833E-02    0.2267115884E-02    0.1415970305E+00
    0.3300000000E+02    0.6782200878E-01    0.1112590015E+00    0.3888554388E-02    0.2382178689E-02    0.1475850140E+00
    0.3500000000E+02    0.7102078107E-01    0.1150745986E+00    0.4022288223E-02    0.2494555972E-02    0.1533369737E+00
    0.3700000000E+02    0.7414671047E-01    0.1186909382E+00    0.4149078396E-02    0.2604376478E-02    0.1588678426E+00
    0.3900000000E+02    0.7720322091E-01    0.1221209777E+00    0.4269375554E-02    0.2711760369E-02    0.1641912916E+00
    0.4100000000E+02    0.8019351214E-01    0.1253766055E+00    0.4383593166E-02    0.2816819943E-02    0.1693198610E+00
    0.4300000000E+02    0.8312057801E-01    0.1284687483E+00    0.4492111262E-02    0.2919660268E-02    0.1742650760E+00
    0.4500000000E+02    0.8598722300E-01    0.1314074660E+00    0.4595279720E-02    0.3020379771E-02    0.1790375483E+00
    0.4700000000E+02    0.8879607717E-01    0.1342020348E+00    0.4693421177E-02    0.3119070755E-02    0.1836470657E+00
    0.4900000000E+02    0.9154960977E-01    0.1368610221E+00    0.4786833609E-02    0.3215819883E-02    0.1881026710E+00
    0.1000000000E+02    0.2433889952E-01    0.4703114633E-01    0.1641918724E-02    0.8547764737E-03    0.5916466041E-01
    0.3000000000E+02    0.6287917273E-01    0.1051306899E+00    0.3673845391E-02    0.2208534638E-02    0.1385094815E+00
    0.5000000000E+02    0.9290636118E-01    0.1381421723E+00    0.4831853384E-02    0.3263491895E-02    0.1902753964E+00
    0.7000000000E+02    0.1176326942E+00    0.1582856634E+00    0.5540969865E-02    0.4132381612E-02    0.2273831139E+00
    0.9000000000E+02    0.1387751640E+00    0.1710678855E+00    0.5992763846E-02    0.4875465247E-02    0.2556781915E+00
    0.1100000000E+03    0.1573422498E+00    0.1793156215E+00    0.6285631905E-02    0.5528139191E-02    0.2782115162E+00
    0.1300000000E+03    0.1739695389E+00    0.1846175594E+00    0.6474925552E-02    0.6112712664E-02    0.2967414639E+00
    0.1500000000E+03    0.1890801955E+00    0.1879284052E+00    0.6593949511E-02    0.6644039265E-02    0.3123584126E+00
    0.1700000000E+03    0.2029686387E+00    0.1898522570E+00    0.6663810943E-02    0.7132453740E-02    0.3257776714E+00
    0.1900000000E+03    0.2158472676E+00    0.1907873361E+00    0.6698450334E-02    0.7585411912E-02    0.3374899452E+00
    0.2100000000E+03    0.2278740402E+00    0.1910050135E+00    0.6707389009E-02    0.8008458641E-02    0.3478443221E+00
    0.2300000000E+03    0.2391695141E+00    0.1906953511E+00    0.6697312956E-02    0.8405825958E-02    0.3570967430E+00
    0.2500000000E+03    0.2498277904E+00    0.1899945422E+00    0.6673027549E-02    0.8780817201E-02    0.3654396835E+00
    0.2700000000E+03    0.2599237776E+00    0.1890020769E+00    0.6638055085E-02    0.9136061981E-02    0.3730210635E+00
    0.2900000000E+03    0.2695181513E+00    0.1877918289E+00    0.6595020966E-02    0.9473690273E-02    0.3799567103E+00
    0.3100000000E+03    0.2786608251E+00    0.1864194168E+00    0.6545910300E-02    0.9795454273E-02    0.3863388136E+00
    0.3300000000E+03    0.2873934342E+00    0.1849272113E+00    0.6492242576E-02    0.1010281557E-01    0.3922418105E+00
    0.3500000000E+03    0.2957511465E+00    0.1833478131E+00    0.6435193142E-02    0.1039700871E-01    0.3977265729E+00
    0.3700000000E+03    0.3037640058E+00    0.1817065159E+00    0.6375679292E-02    0.1067908839E-01    0.4028434475E+00
    0.3900000000E+03    0.3114579449E+00    0.1800230786E+00    0.6314422315E-02    0.1094996495E-01    0.4076345010E+00
    0.4100000000E+03    0.3188555586E+00    0.1783130215E+00    0.6251992912E-02    0.1121043160E-01    0.4121352058E+00
    0.4300000000E+03    0.3259767029E+00    0.1765885855E+00    0.6188844887E-02    0.1146118538E-01    0.4163757233E+00
    0.4500000000E+03    0.3328389640E+00    0.1748594519E+00    0.6125340458E-02    0.1170284366E-01    0.4203818939E+00
    0.4700000000E+03    0.3394580289E+00    0.1731332885E+00    0.6061769489E-02    0.1193595714E-01    0.4241760093E+00
    0.4900000000E+03    0.3458479823E+00    0.1714161678E+00    0.5998364260E-02    0.1216102029E-01    0.4277774220E+00
    0.1000000000E+03    0.1483345676E+00    0.1756395985E+00    0.6154920109E-02    0.5211486654E-02    0.2675345487E+00
    0.3000000000E+03    0.2741431783E+00    0.1871229814E+00    0.6571120952E-02    0.9636457989E-02    0.3832119422E+00
    0.5000000000E+03    0.3489610654E+00    0.1705625409E+00    0.5966783509E-02    0.1227067423E-01    0.4295112305E+00
    0.7000000000E+03    0.4017446112E+00    0.1546889968E+00    0.5372867775E-02    0.1413064394E-01    0.4572372874E+00
    0.9000000000E+03    0.4411015885E+00    0.1415318935E+00    0.4872095837E-02    0.1551858600E-01    0.4765586615E+00
    0.1100000000E+04    0.4713701680E+00    0.1308091309E+00    0.4459206611E-02    0.1658686007E-01    0.4911549856E+00
    0.1300000000E+04    0.4951819685E+00    0.1220122131E+00    0.4117934691E-02    0.1742792456E-01    0.5027520583E+00
    0.1500000000E+04    0.5142660336E+00    0.1147048329E+00    0.3833230241E-02    0.1810254971E-01    0.5122907070E+00
    0.1700000000E+04    0.5298083927E+00    0.1085521549E+00    0.3593070298E-02    0.1865243539E-01    0.5203373027E+00
    0.1900000000E+04    0.5426463766E+00    0.1033037317E+00    0.3388209919E-02    0.1910703150E-01    0.5272577376E+00
    0.2100000000E+04    0.5533845399E+00    0.9877243796E-01    0.3211596119E-02    0.1948760789E-01    0.5333012401E+00
    0.2300000000E+04    0.5624677457E+00    0.9481736936E-01    0.3057830486E-02    0.1980982100E-01    0.5386447194E+00
    0.2500000000E+04    0.5702288962E+00    0.9133123722E-01    0.2922748410E-02    0.2008539055E-01    0.5434179713E+00
    0.2700000000E+04    0.5769209198E+00    0.8823134078E-01    0.2803105677E-02    0.2032322355E-01    0.5477188431E+00
    0.2900000000E+04    0.5827386614E+00    0.8545313877E-01    0.2696348767E-02    0.2053018363E-01    0.5516227880E+00
    0.3100000000E+04    0.5878341385E+00    0.8294565350E-01    0.2600446891E-02    0.2071162741E-01    0.5551891203E+00
    0.3300000000E+04    0.5923273471E+00    0.8066815770E-01    0.2513768673E-02    0.2087178442E-01    0.5584652439E+00
    0.3500000000E+04    0.5963140326E+00    0.7858776145E-01    0.2434990950E-02    0.2101403047E-01    0.5614895924E+00
    0.3700000000E+04    0.5998713540E+00    0.7667763521E-01    0.2363030753E-02    0.2114108684E-01    0.5642937215E+00
    0.3900000000E+04    0.6030620671E+00    0.7491568659E-01    0.2296994087E-02    0.2125516755E-01    0.5669038303E+00
    0.4100000000E+04    0.6059376511E+00    0.7328356407E-01    0.2236137016E-02    0.2135808928E-01    0.5693418878E+00
    0.4300000000E+04    0.6085406703E+00    0.7176589890E-01    0.2179835797E-02    0.2145135461E-01    0.5716264806E+00
    0.4500000000E+04    0.6109065792E+00    0.7034972234E-01    0.2127563769E-02    0.2153621551E-01    0.5737734608E+00
    0.4700000000E+04    0.6130651136E+00    0.6902401330E-01    0.2078873301E-02    0.2161372233E-01    0.5757964468E+00
    0.4900000000E+04    0.6150413734E+00    0.6777934401E-01    0.2033381574E-02    0.2168476197E-01    0.5777072164E+00
    0.1000000000E+04    0.4571802495E+00    0.1358985870E+00    0.4655658326E-02    0.1608594796E-01    0.4843135009E+00
    0.3000000000E+04    0.5853685360E+00    0.8416831032E-01    0.2647151071E-02    0.2062380793E-01    0.5534449533E+00
    0.5000000000E+04    0.6159679397E+00    0.6718481859E-01    0.2011730504E-02    0.2171809655E-01    0.5786237752E+00
    0.7000000000E+04    0.6287241411E+00    0.5806711036E-01    0.1686653273E-02    0.2217945083E-01    0.5929720979E+00
    0.9000000000E+04    0.6355600142E+00    0.5210557395E-01    0.1481918024E-02    0.2242963826E-01    0.6026040859E+00
    0.1100000000E+05    0.6397779268E+00    0.4778809756E-01    0.1337815581E-02    0.2258590770E-01    0.6096664000E+00
    0.1300000000E+05    0.6426251321E+00    0.4446077397E-01    0.1229208543E-02    0.2269270972E-01    0.6151411243E+00
    0.1500000000E+05    0.6446701713E+00    0.4178718645E-01    0.1143488845E-02    0.2277038527E-01    0.6195517266E+00
    0.1700000000E+05    0.6462072435E+00    0.3957344942E-01    0.1073552511E-02    0.2282950199E-01    0.6232069075E+00
    0.1900000000E+05    0.6474031706E+00    0.3769851628E-01    0.1015051232E-02    0.2287607641E-01    0.6263023730E+00
    0.2100000000E+05    0.6483593231E+00    0.3608218911E-01    0.9651534415E-03    0.2291377960E-01    0.6289691478E+00
    0.2300000000E+05    0.6491407294E+00    0.3466883851E-01    0.9219245625E-03    0.2294497630E-01    0.6312987760E+00
    0.2500000000E+05    0.6497909630E+00    0.3341844110E-01    0.8839912338E-03    0.2297125772E-01    0.6333574517E+00
    0.2700000000E+05    0.6503402861E+00    0.3230133079E-01    0.8503475226E-03    0.2299373365E-01    0.6351944106E+00
    0.2900000000E+05    0.6508103558E+00    0.3129496716E-01    0.8202372015E-03    0.2301320165E-01    0.6368471514E+00
    0.3100000000E+05    0.6512170698E+00    0.3038186177E-01    0.7930791281E-03    0.2303024972E-01    0.6383448147E+00
    0.3300000000E+05    0.6515723564E+00    0.2954820063E-01    0.7684182264E-03    0.2304532091E-01    0.6397104417E+00
    0.3500000000E+05    0.6518853368E+00    0.2878290154E-01    0.7458922865E-03    0.2305875546E-01    0.6409625276E+00
    0.3700000000E+05    0.6521631030E+00    0.2807695235E-01    0.7252088791E-03    0.2307081907E-01    0.6421161170E+00
    0.3900000000E+05    0.6524112508E+00    0.2742293600E-01    0.7061289291E-03    0.2308172226E-01    0.6431835913E+00
    0.4100000000E+05    0.6526342538E+00    0.2681468286E-01    0.6884547890E-03    0.2309163406E-01    0.6441752479E+00
    0.4300000000E+05    0.6528357305E+00    0.2624701180E-01    0.6720214218E-03    0.2310069180E-01    0.6450997315E+00
    0.4500000000E+05    0.6530186388E+00    0.2571553429E-01    0.6566897788E-03    0.2310900821E-01    0.6459643613E+00
    0.4700000000E+05    0.6531854200E+00    0.2521650421E-01    0.6423417519E-03    0.2311667671E-01    0.6467753815E+00
    0.4900000000E+05    0.6533381065E+00    0.2474670108E-01    0.6288762777E-03    0.2312377543E-01    0.6475381575E+00
    0.1000000000E+05    0.6378942666E+00    0.4979301195E-01    0.1404288835E-02    0.2251588299E-01    0.6063797237E+00
    0.3000000000E+05    0.6510208096E+00    0.3082769397E-01    0.8063200815E-03    0.2302199767E-01    0.6376138056E+00
    0.5000000000E+05    0.6534097082E+00    0.2452187401E-01    0.6224468131E-03    0.2312713211E-01    0.6479029285E+00
    0.7000000000E+05    0.6544007343E+00    0.2104561674E-01    0.5242438587E-03    0.2317598241E-01    0.6535203975E+00
    0.9000000000E+05    0.6549412145E+00    0.1875567915E-01    0.4608235487E-03    0.2320547819E-01    0.6571961293E+00
    0.1100000000E+06    0.6552807658E+00    0.1709768577E-01    0.4155611874E-03    0.2322581077E-01    0.6598444505E+00
    0.1300000000E+06    0.6555135031E+00    0.1582411884E-01    0.3811837206E-03    0.2324099087E-01    0.6618710330E+00
    0.1500000000E+06    0.6556827591E+00    0.1480528017E-01    0.3539362294E-03    0.2325294165E-01    0.6634873594E+00
    0.1700000000E+06    0.6558112469E+00    0.1396566125E-01    0.3316579654E-03    0.2326271104E-01    0.6648160313E+00
    0.1900000000E+06    0.6559120143E+00    0.1325787546E-01    0.3130058337E-03    0.2327092394E-01    0.6659337166E+00
    0.2100000000E+06    0.6559930871E+00    0.1265045893E-01    0.2970952534E-03    0.2327797878E-01    0.6668911667E+00
    0.2300000000E+06    0.6560596715E+00    0.1212157983E-01    0.2833167491E-03    0.2328414316E-01    0.6677235040E+00
    0.2500000000E+06    0.6561152914E+00    0.1165554447E-01    0.2712349174E-03    0.2328960440E-01    0.6684559178E+00
    0.2700000000E+06    0.6561624165E+00    0.1124073893E-01    0.2605293318E-03    0.2329449812E-01    0.6691070110E+00
    0.2900000000E+06    0.6562028287E+00    0.1086835703E-01    0.2509582506E-03    0.2329892533E-01    0.6696908632E+00
    0.3100000000E+06    0.6562378455E+00    0.1053158228E-01    0.2423354096E-03    0.2330296302E-01    0.6702183551E+00
    0.3300000000E+06    0.6562684621E+00    0.1022504381E-01    0.2345146653E-03    0.2330667112E-01    0.6706980467E+00
    0.3500000000E+06    0.6562954441E+00    0.9944443927E-02    0.2273795329E-03    0.2331009708E-01    0.6711367785E+00
    0.3700000000E+06    0.6563193898E+00    0.9686296812E-02    0.2208358755E-03    0.2331327907E-01    0.6715400916E+00
    0.3900000000E+06    0.6563407737E+00    0.9447741037E-02    0.2148066811E-03    0.2331624818E-01    0.6719125294E+00
    0.4100000000E+06    0.6563599767E+00    0.9226402502E-02    0.2092282574E-03    0.2331903008E-01    0.6722578575E+00
    0.4300000000E+06    0.6563773084E+00    0.9020292484E-02    0.2040474117E-03    0.2332164614E-01    0.6725792270E+00
    0.4500000000E+06    0.6563930224E+00    0.8827730619E-02    0.1992193266E-03    0.2332411437E-01    0.6728792980E+00
    0.4700000000E+06    0.6564073290E+00    0.8647285929E-02    0.1947059394E-03    0.2332645006E-01    0.6731603339E+00
    0.4900000000E+06    0.6564204037E+00    0.8477731085E-02    0.1904746878E-03    0.2332866628E-01    0.6734242743E+00
    0.1000000000E+06    0.6551284291E+00    0.1786713128E-01    0.4364965011E-03    0.2321646622E-01    0.6586168029E+00
    0.3000000000E+06    0.6562209430E+00    0.1069588330E-01    0.2465382331E-03    0.2330098878E-01    0.6699610729E+00
    0.5000000000E+06    0.6564265262E+00    0.8396700510E-02    0.1884559456E-03    0.2332973318E-01    0.6735503657E+00
    0.7000000000E+06    0.6565102889E+00    0.7153079931E-02    0.1577611580E-03    0.2334686949E-01    0.6754817878E+00
    0.9000000000E+06    0.6565544981E+00    0.6343515320E-02    0.1380931523E-03    0.2335903199E-01    0.6767352589E+00
    0.1100000000E+07    0.6565811622E+00    0.5762201822E-02    0.1241395720E-03    0.2336844475E-01    0.6776334365E+00
    0.1300000000E+07    0.6565986046E+00    0.5318440308E-02    0.1135911065E-03    0.2337611662E-01    0.6783180134E+00
    0.1500000000E+07    0.6566106475E+00    0.4965166255E-02    0.1052621397E-03    0.2338258871E-01    0.6788623293E+00
    0.1700000000E+07    0.6566192828E+00    0.4675188727E-02    0.9847367162E-04    0.2338818439E-01    0.6793086728E+00
    0.1900000000E+07    0.6566256452E+00    0.4431549779E-02    0.9280538147E-04    0.2339311210E-01    0.6796833767E+00
    0.2100000000E+07    0.6566304263E+00    0.4223048140E-02    0.8798143156E-04    0.2339751394E-01    0.6800038122E+00
    0.2300000000E+07    0.6566340698E+00    0.4041945994E-02    0.8381236832E-04    0.2340149113E-01    0.6802819662E+00
    0.2500000000E+07    0.6566368723E+00    0.3882702349E-02    0.8016322593E-04    0.2340511826E-01    0.6805264144E+00
    0.2700000000E+07    0.6566390392E+00    0.3741230431E-02    0.7693492701E-04    0.2340845189E-01    0.6807434765E+00
    0.2900000000E+07    0.6566407168E+00    0.3614440685E-02    0.7405289216E-04    0.2341153590E-01    0.6809379269E+00
    0.3100000000E+07    0.6566420117E+00    0.3499947974E-02    0.7145977451E-04    0.2341440504E-01    0.6811134488E+00
    0.3300000000E+07    0.6566430032E+00    0.3395877494E-02    0.6911066341E-04    0.2341708726E-01    0.6812729356E+00
    0.3500000000E+07    0.6566437513E+00    0.3300732322E-02    0.6696982361E-04    0.2341960543E-01    0.6814186965E+00
    0.3700000000E+07    0.6566443025E+00    0.3213300719E-02    0.6500842121E-04    0.2342197843E-01    0.6815525997E+00
    0.3900000000E+07    0.6566446927E+00    0.3132589811E-02    0.6320290197E-04    0.2342422208E-01    0.6816761752E+00
    0.4100000000E+07    0.6566449504E+00    0.3057777200E-02    0.6153381190E-04    0.2342634976E-01    0.6817906900E+00
    0.4300000000E+07    0.6566450984E+00    0.2988175054E-02    0.5998492439E-04    0.2342837285E-01    0.6818972032E+00
    0.4500000000E+07    0.6566451550E+00    0.2923203033E-02    0.5854258397E-04    0.2343030115E-01    0.6819966082E+00
    0.4700000000E+07    0.6566451351E+00    0.2862367589E-02    0.5719520602E-04    0.2343214315E-01    0.6820896644E+00
    0.4900000000E+07    0.6566450509E+00    0.2805245947E-02    0.5593289035E-04    0.2343390624E-01    0.6821770221E+00
    0.1000000000E+07    0.6565693442E+00    0.6031472592E-02    0.1305845697E-03    0.2336400332E-01    0.6772175879E+00
    0.3000000000E+07    0.6566414066E+00    0.3555784548E-02    0.7272327300E-04    0.2341299544E-01    0.6810278573E+00
    0.5000000000E+07    0.6566449879E+00    0.2777961891E-02    0.5533092201E-04    0.2343476026E-01    0.6822187423E+00
    0.7000000000E+07    0.6566420607E+00    0.2360388449E-02    0.4620104582E-04    0.2344892271E-01    0.6828567608E+00
    0.9000000000E+07    0.6566379646E+00    0.2089731708E-02    0.4037399122E-04    0.2345943992E-01    0.6832697936E+00
    0.1100000000E+08    0.6566337845E+00    0.1895950309E-02    0.3625104560E-04    0.2346780960E-01    0.6835652571E+00
    0.1300000000E+08    0.6566297988E+00    0.1748338166E-02    0.3314041743E-04    0.2347476202E-01    0.6837901782E+00
    0.1500000000E+08    0.6566260737E+00    0.1631020371E-02    0.3068809691E-04    0.2348070850E-01    0.6839688458E+00
    0.1700000000E+08    0.6566226102E+00    0.1534851031E-02    0.2869185086E-04    0.2348590381E-01    0.6841152427E+00
    0.1900000000E+08    0.6566193895E+00    0.1454138863E-02    0.2702674168E-04    0.2349051670E-01    0.6842380645E+00
    0.2100000000E+08    0.6566163880E+00    0.1385131440E-02    0.2561091395E-04    0.2349466476E-01    0.6843430418E+00
    0.2300000000E+08    0.6566135822E+00    0.1325240561E-02    0.2438822539E-04    0.2349843320E-01    0.6844341254E+00
    0.2500000000E+08    0.6566109509E+00    0.1272615266E-02    0.2331872848E-04    0.2350188575E-01    0.6845141396E+00
    0.2700000000E+08    0.6566084754E+00    0.1225891931E-02    0.2237312878E-04    0.2350507134E-01    0.6845851644E+00
