  Pressure (Pa) 22mC5-400 (mol/kg) 2mC6-400 (mol/kg) 33mC5-400 (mol/kg) 23mC5-400 (mol/kg) C7-400 (mol/kg)
    0.1000000000E+01    0.2645965618E-02    0.2366005917E-02    0.2568776027E-03    0.1858411903E-03    0.1018752891E-01
    0.3000000000E+01    0.7832907031E-02    0.6840992129E-02    0.7428809893E-03    0.5501549698E-03    0.2950342396E-01
    0.5000000000E+01    0.1288530502E-01    0.1100146722E-01    0.1194929018E-02    0.9050258992E-03    0.4752846753E-01
    0.7000000000E+01    0.1780933163E-01    0.1487741469E-01    0.1616261799E-02    0.1250887091E-02    0.6439125162E-01
    0.9000000000E+01    0.2261077664E-01    0.1849505718E-01    0.2009712199E-02    0.1588144836E-02    0.8020372848E-01
    0.1100000000E+02    0.2729507668E-01    0.2187743827E-01    0.2377768940E-02    0.1917180645E-02    0.9506382280E-01
    0.1300000000E+02    0.3186734178E-01    0.2504489845E-01    0.2722628209E-02    0.2238353113E-02    0.1090575665E+00
    0.1500000000E+02    0.3633237957E-01    0.2801546720E-01    0.3046236159E-02    0.2551999614E-02    0.1222608552E+00
    0.1700000000E+02    0.4069471732E-01    0.3080518795E-01    0.3350324134E-02    0.2858437853E-02    0.1347409013E+00
    0.1900000000E+02    0.4495862215E-01    0.3342838917E-01    0.3636438038E-02    0.3157967279E-02    0.1465574449E+00
    0.2100000000E+02    0.4912811945E-01    0.3589791161E-01    0.3905962950E-02    0.3450870379E-02    0.1577637670E+00
    0.2300000000E+02    0.5320700986E-01    0.3822530000E-01    0.4160143888E-02    0.3737413869E-02    0.1684075412E+00
    0.2500000000E+02    0.5719888470E-01    0.4042096534E-01    0.4400103383E-02    0.4017849780E-02    0.1785315556E+00
    0.2700000000E+02    0.6110714031E-01    0.4249432325E-01    0.4626856448E-02    0.4292416456E-02    0.1881743244E+00
    0.2900000000E+02    0.6493499110E-01    0.4445391211E-01    0.4841323370E-02    0.4561339479E-02    0.1973706104E+00
    0.3100000000E+02    0.6868548164E-01    0.4630749465E-01    0.5044340698E-02    0.4824832513E-02    0.2061518725E+00
    0.3300000000E+02    0.7236149777E-01    0.4806214548E-01    0.5236670713E-02    0.5083098081E-02    0.2145466507E+00
    0.3500000000E+02    0.7596577687E-01    0.4972432691E-01    0.5419009624E-02    0.5336328290E-02    0.2225808979E+00
    0.3700000000E+02    0.7950091731E-01    0.5129995478E-01    0.5591994688E-02    0.5584705494E-02    0.2302782681E+00
    0.3900000000E+02    0.8296938726E-01    0.5279445588E-01    0.5756210417E-02    0.5828402907E-02    0.2376603662E+00
    0.4100000000E+02    0.8637353273E-01    0.5421281816E-01    0.5912194001E-02    0.6067585174E-02    0.2447469663E+00
    0.4300000000E+02    0.8971558513E-01    0.5555963481E-01    0.6060440074E-02    0.6302408896E-02    0.2515562021E+00
    0.4500000000E+02    0.9299766823E-01    0.5683914304E-01    0.6201404898E-02    0.6533023120E-02    0.2581047351E+00
    0.4700000000E+02    0.9622180457E-01    0.5805525832E-01    0.6335510065E-02    0.6759569793E-02    0.2644079009E+00
    0.4900000000E+02    0.9938992154E-01    0.5921160468E-01    0.6463145767E-02    0.6982184180E-02    0.2704798396E+00
    0.1000000000E+02    0.2496724304E-01    0.2021432573E-01    0.2196771197E-02    0.1753667554E-02    0.8774718994E-01
    0.3000000000E+02    0.6681972244E-01    0.4539349682E-01    0.4944213952E-02    0.4693751835E-02    0.2018112714E+00
    0.5000000000E+02    0.1009535504E+00    0.5976842401E-01    0.6524651638E-02    0.7092057307E-02    0.2734332192E+00
    0.7000000000E+02    0.1296893770E+00    0.6846516527E-01    0.7490293405E-02    0.9111447350E-02    0.3230559985E+00
    0.9000000000E+02    0.1544684047E+00    0.7384336807E-01    0.8095210111E-02    0.1085307055E-01    0.3597331586E+00
    0.1100000000E+03    0.1762354001E+00    0.7714559718E-01    0.8473282054E-02    0.1238323666E-01    0.3881088936E+00
    0.1300000000E+03    0.1956374939E+00    0.7908731104E-01    0.8701723840E-02    0.1374736708E-01    0.4108199531E+00
    0.1500000000E+03    0.2131344062E+00    0.8010754054E-01    0.8828036672E-02    0.1497773011E-01    0.4294792626E+00
    0.1700000000E+03    0.2290629468E+00    0.8048883175E-01    0.8882892349E-02    0.1609796748E-01    0.4451315774E+00
    0.1900000000E+03    0.2436764943E+00    0.8041985238E-01    0.8886855344E-02    0.1712586506E-01    0.4584850224E+00
    0.2100000000E+03    0.2571700968E+00    0.8003032196E-01    0.8854133193E-02    0.1807511457E-01    0.4700375677E+00
    0.2300000000E+03    0.2696969609E+00    0.7941155633E-01    0.8794783160E-02    0.1895647083E-01    0.4801502504E+00
    0.2500000000E+03    0.2813795960E+00    0.7862908064E-01    0.8716067981E-02    0.1977853394E-01    0.4890916432E+00
    0.2700000000E+03    0.2923175342E+00    0.7773065369E-01    0.8623319329E-02    0.2054829115E-01    0.4970659674E+00
    0.2900000000E+03    0.3025927984E+00    0.7675152887E-01    0.8520504717E-02    0.2127150070E-01    0.5042314814E+00
    0.3100000000E+03    0.3122738523E+00    0.7571799329E-01    0.8410609542E-02    0.2195296900E-01    0.5107128688E+00
    0.3300000000E+03    0.3214185033E+00    0.7464980232E-01    0.8295900429E-02    0.2259675447E-01    0.5166097994E+00
    0.3500000000E+03    0.3300760720E+00    0.7356188719E-01    0.8178110402E-02    0.2320631977E-01    0.5220029806E+00
    0.3700000000E+03    0.3382890358E+00    0.7246557342E-01    0.8058571366E-02    0.2378464720E-01    0.5269585210E+00
    0.3900000000E+03    0.3460942917E+00    0.7136946357E-01    0.7938310389E-02    0.2433432733E-01    0.5315311328E+00
    0.4100000000E+03    0.3535241386E+00    0.7028008543E-01    0.7818120657E-02    0.2485762797E-01    0.5357665204E+00
    0.4300000000E+03    0.3606070495E+00    0.6920237378E-01    0.7698614399E-02    0.2535654834E-01    0.5397031878E+00
    0.4500000000E+03    0.3673682855E+00    0.6814003233E-01    0.7580262828E-02    0.2583286219E-01    0.5433738233E+00
    0.4700000000E+03    0.3738303884E+00    0.6709580832E-01    0.7463426583E-02    0.2628815241E-01    0.5468063744E+00
    0.4900000000E+03    0.3800135803E+00    0.6607170264E-01    0.7348379137E-02    0.2672383901E-01    0.5500248904E+00
    0.1000000000E+03    0.1656825712E+00    0.7570076648E-01    0.8306862526E-02    0.1164136865E-01    0.3747621409E+00
    0.3000000000E+03    0.3075037673E+00    0.7624019749E-01    0.8466286167E-02    0.2161718332E-01    0.5075509561E+00
    0.5000000000E+03    0.3830063513E+00    0.6556765604E-01    0.7291592393E-02    0.2693473592E-01    0.5515605019E+00
    0.7000000000E+03    0.4318406997E+00    0.5669367464E-01    0.6275961255E-02    0.3037783799E-01    0.5748746464E+00
    0.9000000000E+03    0.4660244926E+00    0.4991833113E-01    0.5482535117E-02    0.3279054684E-01    0.5897214504E+00
    0.1100000000E+04    0.4911398558E+00    0.4472219458E-01    0.4864944088E-02    0.3456508725E-01    0.6001742233E+00
    0.1300000000E+04    0.5102555525E+00    0.4065860842E-01    0.4377343141E-02    0.3591717669E-01    0.6080162651E+00
    0.1500000000E+04    0.5252150907E+00    0.3741197808E-01    0.3985526640E-02    0.3697645789E-01    0.6141640626E+00
    0.1700000000E+04    0.5371917345E+00    0.3476552410E-01    0.3665189896E-02    0.3782547269E-01    0.6191416788E+00
    0.1900000000E+04    0.5469649015E+00    0.3256924360E-01    0.3399101354E-02    0.3851907652E-01    0.6232726395E+00
    0.2100000000E+04    0.5550704503E+00    0.3071752760E-01    0.3174902199E-02    0.3909499772E-01    0.6267685599E+00
    0.2300000000E+04    0.5618874937E+00    0.2913453653E-01    0.2983587013E-02    0.3957993882E-01    0.6297742664E+00
    0.2500000000E+04    0.5676909021E+00    0.2776472715E-01    0.2818483122E-02    0.3999326748E-01    0.6323925554E+00
    0.2700000000E+04    0.5726842565E+00    0.2656665733E-01    0.2674564942E-02    0.4034933371E-01    0.6346986132E+00
    0.2900000000E+04    0.5770211884E+00    0.2550886902E-01    0.2547988626E-02    0.4065897077E-01    0.6367488314E+00
    0.3100000000E+04    0.5808195766E+00    0.2456710260E-01    0.2435771779E-02    0.4093049405E-01    0.6385864189E+00
    0.3300000000E+04    0.5841712194E+00    0.2372237756E-01    0.2335569604E-02    0.4117038162E-01    0.6402450986E+00
    0.3500000000E+04    0.5871485644E+00    0.2295964654E-01    0.2245516041E-02    0.4138374799E-01    0.6417516145E+00
    0.3700000000E+04    0.5898094797E+00    0.2226683567E-01    0.2164109322E-02    0.4157467999E-01    0.6431274765E+00
    0.3900000000E+04    0.5922006960E+00    0.2163414954E-01    0.2090128364E-02    0.4174647918E-01    0.6443902016E+00
    0.4100000000E+04    0.5943603274E+00    0.2105356050E-01    0.2022570857E-02    0.4190183941E-01    0.6455542142E+00
    0.4300000000E+04    0.5963197446E+00    0.2051842823E-01    0.1960606848E-02    0.4204297878E-01    0.6466315109E+00
    0.4500000000E+04    0.5981049850E+00    0.2002321282E-01    0.1903543532E-02    0.4217173904E-01    0.6476321594E+00
    0.4700000000E+04    0.5997378259E+00    0.1956325579E-01    0.1850798246E-02    0.4228966121E-01    0.6485646776E+00
    0.4900000000E+04    0.6012366119E+00    0.1913461117E-01    0.1801877548E-02    0.4239804391E-01    0.6494363261E+00
    0.1000000000E+04    0.4794855943E+00    0.4715408442E-01    0.5154890012E-02    0.3374141299E-01    0.5953562490E+00
    0.3000000000E+04    0.5789814421E+00    0.2502477506E-01    0.2490244643E-02    0.4079905505E-01    0.6376919079E+00
    0.5000000000E+04    0.6019406896E+00    0.1893095971E-01    0.1778717514E-02    0.4244900887E-01    0.6498513064E+00
    0.7000000000E+04    0.6117507747E+00    0.1589656670E-01    0.1440812364E-02    0.4316354984E-01    0.6560887643E+00
    0.9000000000E+04    0.6171340732E+00    0.1400245879E-01    0.1237858810E-02    0.4356103245E-01    0.6600119387E+00
    0.1100000000E+05    0.6205200896E+00    0.1267431518E-01    0.1099785357E-02    0.4381448201E-01    0.6627594039E+00
    0.1300000000E+05    0.6228410902E+00    0.1167512652E-01    0.9983806825E-03    0.4399059736E-01    0.6648164539E+00
    0.1500000000E+05    0.6245289958E+00    0.1088720735E-01    0.9199690311E-03    0.4412042253E-01    0.6664285585E+00
    0.1700000000E+05    0.6258106372E+00    0.1024462999E-01    0.8570549516E-03    0.4422033622E-01    0.6677346430E+00
    0.1900000000E+05    0.6268163271E+00    0.9707186715E-02    0.8051555675E-03    0.4429979153E-01    0.6688198744E+00
    0.2100000000E+05    0.6276261654E+00    0.9248758670E-02    0.7614089403E-03    0.4436462607E-01    0.6697396892E+00
    0.2300000000E+05    0.6282920575E+00    0.8851531916E-02    0.7238930736E-03    0.4441864026E-01    0.6705318978E+00
    0.2500000000E+05    0.6288490960E+00    0.8502876494E-02    0.6912639798E-03    0.4446441546E-01    0.6712232731E+00
    0.2700000000E+05    0.6293218477E+00    0.8193550516E-02    0.6625503278E-03    0.4450376720E-01    0.6718333650E+00
    0.2900000000E+05    0.6297280186E+00    0.7916611541E-02    0.6370305832E-03    0.4453801006E-01    0.6723768200E+00
    0.3100000000E+05    0.6300806898E+00    0.7666727718E-02    0.6141562003E-03    0.4456811974E-01    0.6728648533E+00
    0.3300000000E+05    0.6303897327E+00    0.7439725872E-02    0.5935017944E-03    0.4459483597E-01    0.6733062146E+00
    0.3500000000E+05    0.6306627353E+00    0.7232285755E-02    0.5747317788E-03    0.4461872998E-01    0.6737078424E+00
    0.3700000000E+05    0.6309056258E+00    0.7041727643E-02    0.5575774093E-03    0.4464025011E-01    0.6740753179E+00
    0.3900000000E+05    0.6311231020E+00    0.6865861312E-02    0.5418206076E-03    0.4465975328E-01    0.6744131873E+00
    0.4100000000E+05    0.6313189346E+00    0.6702876449E-02    0.5272823217E-03    0.4467752730E-01    0.6747251957E+00
    0.4300000000E+05    0.6314961849E+00    0.6551261695E-02    0.5138139921E-03    0.4469380689E-01    0.6750144595E+00
    0.4500000000E+05    0.6316573638E+00    0.6409743855E-02    0.5012911921E-03    0.4470878546E-01    0.6752835954E+00
    0.4700000000E+05    0.6318045503E+00    0.6277241591E-02    0.4896088159E-03    0.4472262386E-01    0.6755348188E+00
    0.4900000000E+05    0.6319394801E+00    0.6152829688E-02    0.4786773886E-03    0.4473545700E-01    0.6757700194E+00
    0.1000000000E+05    0.6190008672E+00    0.1328657286E-01    0.1162980398E-02    0.4370033939E-01    0.6614941091E+00
    0.3000000000E+05    0.6299103621E+00    0.7788571576E-02    0.6252917415E-03    0.4455353071E-01    0.6726271686E+00
    0.5000000000E+05    0.6320028145E+00    0.6093404187E-02    0.4734688759E-03    0.4474153295E-01    0.6758821273E+00
    0.7000000000E+05    0.6328831431E+00    0.5183651348E-02    0.3947835978E-03    0.4483051596E-01    0.6775787699E+00
    0.9000000000E+05    0.6333657383E+00    0.4593404546E-02    0.3448135654E-03    0.4488473954E-01    0.6786590492E+00
    0.1100000000E+06    0.6336693748E+00    0.4170363193E-02    0.3095436681E-03    0.4492232160E-01    0.6794229566E+00
    0.1300000000E+06    0.6338774014E+00    0.3847809326E-02    0.2829696307E-03    0.4495047943E-01    0.6799994555E+00
    0.1500000000E+06    0.6340284411E+00    0.3591242952E-02    0.2620362176E-03    0.4497270149E-01    0.6804542746E+00
    0.1700000000E+06    0.6341428249E+00    0.3380777616E-02    0.2450042698E-03    0.4499089956E-01    0.6808248643E+00
    0.1900000000E+06    0.6342322655E+00    0.3204030924E-02    0.2308019105E-03    0.4500621850E-01    0.6811343205E+00
    0.2100000000E+06    0.6343039820E+00    0.3052833758E-02    0.2187280521E-03    0.4501939074E-01    0.6813977573E+00
    0.2300000000E+06    0.6343626633E+00    0.2921548194E-02    0.2083024232E-03    0.4503090951E-01    0.6816255330E+00
    0.2500000000E+06    0.6344114861E+00    0.2806139978E-02    0.1991836005E-03    0.4504112082E-01    0.6818250145E+00
    0.2700000000E+06    0.6344526775E+00    0.2703635468E-02    0.1911213821E-03    0.4505027564E-01    0.6820016027E+00
    0.2900000000E+06    0.6344878450E+00    0.2611787779E-02    0.1839277049E-03    0.4505856115E-01    0.6821593589E+00
    0.3100000000E+06    0.6345181770E+00    0.2528863078E-02    0.1774581390E-03    0.4506612024E-01    0.6823014035E+00
    0.3300000000E+06    0.6345445709E+00    0.2453499023E-02    0.1715996958E-03    0.4507306425E-01    0.6824301785E+00
    0.3500000000E+06    0.6345677169E+00    0.2384608221E-02    0.1662625538E-03    0.4507948142E-01    0.6825476263E+00
    0.3700000000E+06    0.6345881542E+00    0.2321310700E-02    0.1613742976E-03    0.4508544278E-01    0.6826553135E+00
    0.3900000000E+06    0.6346063100E+00    0.2262885613E-02    0.1568758138E-03    0.4509100624E-01    0.6827545195E+00
    0.4100000000E+06    0.6346225270E+00    0.2208736025E-02    0.1527183108E-03    0.4509621962E-01    0.6828463009E+00
    0.4300000000E+06    0.6346370836E+00    0.2158362777E-02    0.1488611149E-03    0.4510112281E-01    0.6829315387E+00
    0.4500000000E+06    0.6346502076E+00    0.2111344797E-02    0.1452700152E-03    0.4510574940E-01    0.6830109746E+00
    0.4700000000E+06    0.6346620879E+00    0.2067324051E-02    0.1419160026E-03    0.4511012791E-01    0.6830852375E+00
    0.4900000000E+06    0.6346728816E+00    0.2025993892E-02    0.1387742965E-03    0.4511428278E-01    0.6831548651E+00
    0.1000000000E+06    0.6335331407E+00    0.4366245328E-02    0.3258169916E-03    0.4490502975E-01    0.6790703336E+00
    0.3000000000E+06    0.6345035537E+00    0.2569302605E-02    0.1806100949E-03    0.4506242391E-01    0.6822321790E+00
    0.5000000000E+06    0.6346779132E+00    0.2006253723E-02    0.1372762805E-03    0.4511628305E-01    0.6831880877E+00
    0.7000000000E+06    0.6347447361E+00    0.1704225096E-02    0.1145706018E-03    0.4514841686E-01    0.6836937228E+00
    0.9000000000E+06    0.6347774836E+00    0.1508547230E-02    0.1000920455E-03    0.4517122659E-01    0.6840185991E+00
    0.1100000000E+07    0.6347955271E+00    0.1368489431E-02    0.8985339714E-04    0.4518887867E-01    0.6842498001E+00
    0.1300000000E+07    0.6348060738E+00    0.1261823907E-02    0.8213161797E-04    0.4520326466E-01    0.6844251232E+00
    0.1500000000E+07    0.6348123750E+00    0.1177063375E-02    0.7604572668E-04    0.4521539962E-01    0.6845639702E+00
    0.1700000000E+07    0.6348160933E+00    0.1107591626E-02    0.7109275016E-04    0.4522589024E-01    0.6846774576E+00
    0.1900000000E+07    0.6348181568E+00    0.1049292461E-02    0.6696209576E-04    0.4523512765E-01    0.6847724727E+00
    0.2100000000E+07    0.6348191191E+00    0.9994524424E-03    0.6345034359E-04    0.4524337853E-01    0.6848535395E+00
    0.2300000000E+07    0.6348193273E+00    0.9562002873E-03    0.6041801331E-04    0.4525083278E-01    0.6849237692E+00
    0.2500000000E+07    0.6348190081E+00    0.9181979148E-03    0.5776588232E-04    0.4525763040E-01    0.6849853805E+00
    0.2700000000E+07    0.6348183142E+00    0.8844596567E-03    0.5542120274E-04    0.4526387749E-01    0.6850400041E+00
    0.2900000000E+07    0.6348173515E+00    0.8542411806E-03    0.5332927436E-04    0.4526965641E-01    0.6850888691E+00
    0.3100000000E+07    0.6348161950E+00    0.8269684255E-03    0.5144807699E-04    0.4527503234E-01    0.6851329218E+00
    0.3300000000E+07    0.6348148985E+00    0.8021905555E-03    0.4974473160E-04    0.4528005776E-01    0.6851729039E+00
    0.3500000000E+07    0.6348135018E+00    0.7795478904E-03    0.4819309704E-04    0.4528477553E-01    0.6852094067E+00
    0.3700000000E+07    0.6348120341E+00    0.7587494848E-03    0.4677209571E-04    0.4528922110E-01    0.6852429074E+00
    0.3900000000E+07    0.6348105175E+00    0.7395571015E-03    0.4546452070E-04    0.4529342415E-01    0.6852737967E+00
    0.4100000000E+07    0.6348089687E+00    0.7217735290E-03    0.4425616898E-04    0.4529740974E-01    0.6853023973E+00
    0.4300000000E+07    0.6348074002E+00    0.7052339177E-03    0.4313520031E-04    0.4530119926E-01    0.6853289788E+00
    0.4500000000E+07    0.6348058219E+00    0.6897992522E-03    0.4209165570E-04    0.4530481107E-01    0.6853537683E+00
    0.4700000000E+07    0.6348042411E+00    0.6753513652E-03    0.4111709047E-04    0.4530826110E-01    0.6853769588E+00
    0.4900000000E+07    0.6348026637E+00    0.6617890798E-03    0.4020429105E-04    0.4531156321E-01    0.6853987153E+00
    0.1000000000E+07    0.6347877527E+00    0.1433319169E-02    0.9457908208E-04    0.4518054967E-01    0.6841429214E+00
    0.3000000000E+07    0.6348167937E+00    0.8402672202E-03    0.5236457098E-04    0.4527239121E-01    0.6851114465E+00
    0.5000000000E+07    0.6348018776E+00    0.6553123091E-03    0.3976908049E-04    0.4531316265E-01    0.6854091009E+00
    0.7000000000E+07    0.6347869770E+00    0.5562866762E-03    0.3317487222E-04    0.4533968284E-01    0.6855675371E+00
    0.9000000000E+07    0.6347740009E+00    0.4922008975E-03    0.2897260287E-04    0.4535937224E-01    0.6856697069E+00
    0.1100000000E+08    0.6347627550E+00    0.4463653706E-03    0.2600232830E-04    0.4537503849E-01    0.6857425977E+00
    0.1300000000E+08    0.6347528985E+00    0.4114770660E-03    0.2376303926E-04    0.4538805013E-01    0.6857979731E+00
    0.1500000000E+08    0.6347441498E+00    0.3837653151E-03    0.2199868415E-04    0.4539917792E-01    0.6858418901E+00
    0.1700000000E+08    0.6347362953E+00    0.3610599133E-03    0.2056313192E-04    0.4540889912E-01    0.6858778271E+00
    0.1900000000E+08    0.6347291741E+00    0.3420114599E-03    0.1936617389E-04    0.4541752985E-01    0.6859079432E+00
    0.2100000000E+08    0.6347226633E+00    0.3257308329E-03    0.1834874531E-04    0.4542529035E-01    0.6859336590E+00
    0.2300000000E+08    0.6347166680E+00    0.3116051037E-03    0.1747035688E-04    0.4543234020E-01    0.6859559524E+00
    0.2500000000E+08    0.6347111133E+00    0.2991961389E-03    0.1670221190E-04    0.4543879877E-01    0.6859755217E+00
    0.2700000000E+08    0.6347059392E+00    0.2881812921E-03    0.1602320141E-04    0.4544475764E-01    0.6859928808E+00
