  Pressure (Pa) 22mC5-400 (mol/kg) 2mC6-400 (mol/kg) 33mC5-400 (mol/kg) 23mC5-400 (mol/kg) C7-400 (mol/kg)
    0.1000000000E+01    0.2646945310E-02    0.1588276758E-02    0.3879581077E-03    0.3718199817E-03    0.5135918666E-02
    0.3000000000E+01    0.7841390518E-02    0.4653368008E-02    0.1136699476E-02    0.1101501494E-02    0.1511041797E-01
    0.5000000000E+01    0.1290798891E-01    0.7577214280E-02    0.1851002984E-02    0.1813237932E-02    0.2470792337E-01
    0.7000000000E+01    0.1785214859E-01    0.1036807708E-01    0.2532880606E-02    0.2507788263E-02    0.3395019626E-01
    0.9000000000E+01    0.2267896918E-01    0.1303360562E-01    0.3184195135E-02    0.3185868169E-02    0.4285734042E-01
    0.1100000000E+02    0.2739326351E-01    0.1558089221E-01    0.3806673675E-02    0.3848153082E-02    0.5144795729E-01
    0.1300000000E+02    0.3199957737E-01    0.1801652166E-01    0.4401919701E-02    0.4495280968E-02    0.5973928407E-01
    0.1500000000E+02    0.3650220786E-01    0.2034661555E-01    0.4971423847E-02    0.5127854892E-02    0.6774731696E-01
    0.1700000000E+02    0.4090522008E-01    0.2257687194E-01    0.5516573589E-02    0.5746445362E-02    0.7548692111E-01
    0.1900000000E+02    0.4521246259E-01    0.2471260105E-01    0.6038661942E-02    0.6351592502E-02    0.8297192920E-01
    0.2100000000E+02    0.4942758166E-01    0.2675875743E-01    0.6538895298E-02    0.6943808047E-02    0.9021522981E-01
    0.2300000000E+02    0.5355403434E-01    0.2871996888E-01    0.7018400487E-02    0.7523577181E-02    0.9722884689E-01
    0.2500000000E+02    0.5759510064E-01    0.3060056275E-01    0.7478231169E-02    0.8091360242E-02    0.1040240113E+00
    0.2700000000E+02    0.6155389471E-01    0.3240458960E-01    0.7919373616E-02    0.8647594292E-02    0.1106112253E+00
    0.2900000000E+02    0.6543337521E-01    0.3413584475E-01    0.8342751952E-02    0.9192694571E-02    0.1170003210E+00
    0.3100000000E+02    0.6923635489E-01    0.3579788780E-01    0.8749232918E-02    0.9727055850E-02    0.1232005133E+00
    0.3300000000E+02    0.7296550953E-01    0.3739406046E-01    0.9139630202E-02    0.1025105367E-01    0.1292204473E+00
    0.3500000000E+02    0.7662338620E-01    0.3892750269E-01    0.9514708386E-02    0.1076504552E-01    0.1350682423E+00
    0.3700000000E+02    0.8021241091E-01    0.4040116752E-01    0.9875186549E-02    0.1126937189E-01    0.1407515311E+00
    0.3900000000E+02    0.8373489573E-01    0.4181783453E-01    0.1022174155E-01    0.1176435728E-01    0.1462774964E+00
    0.4100000000E+02    0.8719304549E-01    0.4318012222E-01    0.1055501104E-01    0.1225031114E-01    0.1516529029E+00
    0.4300000000E+02    0.9058896390E-01    0.4449049932E-01    0.1087559622E-01    0.1272752874E-01    0.1568841282E+00
    0.4500000000E+02    0.9392465931E-01    0.4575129518E-01    0.1118406438E-01    0.1319629197E-01    0.1619771899E+00
    0.4700000000E+02    0.9720205013E-01    0.4696470931E-01    0.1148095117E-01    0.1365687007E-01    0.1669377705E+00
    0.4900000000E+02    0.1004229698E+00    0.4813282010E-01    0.1176676283E-01    0.1410952038E-01    0.1717712409E+00
    0.1000000000E+02    0.2504989198E-01    0.1432160626E-01    0.3498935921E-02    0.3518944279E-02    0.4719110698E-01
    0.3000000000E+02    0.6734425730E-01    0.3497530402E-01    0.8548052555E-02    0.9461193678E-02    0.1201234770E+00
    0.5000000000E+02    0.1020128038E+00    0.4870050514E-01    0.1190566609E-01    0.1433294993E-01    0.1741419083E+00
    0.7000000000E+02    0.1312327079E+00    0.5810048618E-01    0.1420574356E-01    0.1843978503E-01    0.2159810452E+00
    0.9000000000E+02    0.1563957615E+00    0.6465991092E-01    0.1581001515E-01    0.2197704992E-01    0.2494921583E+00
    0.1100000000E+03    0.1784351208E+00    0.6928093664E-01    0.1693847222E-01    0.2507572736E-01    0.2770413670E+00
    0.1300000000E+03    0.1980015654E+00    0.7253925660E-01    0.1773166174E-01    0.2782716779E-01    0.3001652017E+00
    0.1500000000E+03    0.2155642434E+00    0.7481682006E-01    0.1828296713E-01    0.3029722820E-01    0.3199065366E+00
    0.1700000000E+03    0.2314710843E+00    0.7637518721E-01    0.1865644798E-01    0.3253475104E-01    0.3369991830E+00
    0.1900000000E+03    0.2459865245E+00    0.7739822986E-01    0.1889722543E-01    0.3457685910E-01    0.3519752101E+00
    0.2100000000E+03    0.2593158954E+00    0.7801807618E-01    0.1903779374E-01    0.3645237861E-01    0.3652303178E+00
    0.2300000000E+03    0.2716216712E+00    0.7833145354E-01    0.1910199759E-01    0.3818411979E-01    0.3770652506E+00
    0.2500000000E+03    0.2830345815E+00    0.7841030509E-01    0.1910761724E-01    0.3979043671E-01    0.3877129231E+00
    0.2700000000E+03    0.2936613914E+00    0.7830887243E-01    0.1906809447E-01    0.4128631931E-01    0.3973567105E+00
    0.2900000000E+03    0.3035904627E+00    0.7806853192E-01    0.1899371208E-01    0.4268417408E-01    0.4061430938E+00
    0.3100000000E+03    0.3128958037E+00    0.7772116518E-01    0.1889241685E-01    0.4399439251E-01    0.4141905997E+00
    0.3300000000E+03    0.3216400687E+00    0.7729155098E-01    0.1877040416E-01    0.4522577221E-01    0.4215962469E+00
    0.3500000000E+03    0.3298768153E+00    0.7679909045E-01    0.1863254031E-01    0.4638583367E-01    0.4284402751E+00
    0.3700000000E+03    0.3376522249E+00    0.7625906942E-01    0.1848267195E-01    0.4748106192E-01    0.4347896714E+00
    0.3900000000E+03    0.3450064339E+00    0.7568359420E-01    0.1832385591E-01    0.4851709326E-01    0.4407008369E+00
    0.4100000000E+03    0.3519745741E+00    0.7508229358E-01    0.1815853181E-01    0.4949886143E-01    0.4462216290E+00
    0.4300000000E+03    0.3585875959E+00    0.7446285104E-01    0.1798865329E-01    0.5043071310E-01    0.4513929457E+00
    0.4500000000E+03    0.3648729263E+00    0.7383141215E-01    0.1781578862E-01    0.5131650029E-01    0.4562499661E+00
    0.4700000000E+03    0.3708550002E+00    0.7319289920E-01    0.1764119857E-01    0.5215965491E-01    0.4608231331E+00
    0.4900000000E+03    0.3765556921E+00    0.7255125624E-01    0.1746589721E-01    0.5296324942E-01    0.4651389380E+00
    0.1000000000E+03    0.1677600484E+00    0.6717103811E-01    0.1642354787E-01    0.2357477551E-01    0.2639014637E+00
    0.3000000000E+03    0.3083169470E+00    0.7790653457E-01    0.1894600591E-01    0.4334965476E-01    0.4102527010E+00
    0.5000000000E+03    0.3793067444E+00    0.7223027417E-01    0.1737824121E-01    0.5335108595E-01    0.4672076859E+00
    0.7000000000E+03    0.4234378893E+00    0.6613739366E-01    0.1571542683E-01    0.5957633050E-01    0.4994173664E+00
    0.9000000000E+03    0.4534887300E+00    0.6103563185E-01    0.1432282132E-01    0.6382058790E-01    0.5207826678E+00
    0.1100000000E+04    0.4751503615E+00    0.5687908456E-01    0.1318981637E-01    0.6688377232E-01    0.5362765570E+00
    0.1300000000E+04    0.4914206047E+00    0.5346473952E-01    0.1226240026E-01    0.6918744355E-01    0.5481725955E+00
    0.1500000000E+04    0.5040364843E+00    0.5061609948E-01    0.1149258331E-01    0.7097597782E-01    0.5576762558E+00
    0.1700000000E+04    0.5140720253E+00    0.4820095042E-01    0.1084390127E-01    0.7240054382E-01    0.5654939670E+00
    0.1900000000E+04    0.5222246891E+00    0.4612295496E-01    0.1028951817E-01    0.7355935219E-01    0.5720707816E+00
    0.2100000000E+04    0.5289655114E+00    0.4431167259E-01    0.9809675703E-02    0.7451875910E-01    0.5777029005E+00
    0.2300000000E+04    0.5346230976E+00    0.4271490663E-01    0.9389665604E-02    0.7532507620E-01    0.5825961370E+00
    0.2500000000E+04    0.5394330684E+00    0.4129334523E-01    0.9018379770E-02    0.7601152479E-01    0.5868985555E+00
    0.2700000000E+04    0.5435684031E+00    0.4001688603E-01    0.8687301161E-02    0.7660250463E-01    0.5907197691E+00
    0.2900000000E+04    0.5471587249E+00    0.3886211028E-01    0.8389802614E-02    0.7711630777E-01    0.5941428967E+00
    0.3100000000E+04    0.5503029342E+00    0.3781052785E-01    0.8120655531E-02    0.7756689683E-01    0.5972322671E+00
    0.3300000000E+04    0.5530777035E+00    0.3684734042E-01    0.7875681366E-02    0.7796510107E-01    0.6000385506E+00
    0.3500000000E+04    0.5555433249E+00    0.3596055649E-01    0.7651500966E-02    0.7831943993E-01    0.6026022745E+00
    0.3700000000E+04    0.5577478187E+00    0.3514034839E-01    0.7445351781E-02    0.7863670177E-01    0.6049562925E+00
    0.3900000000E+04    0.5597298735E+00    0.3437857824E-01    0.7254952709E-02    0.7892235825E-01    0.6071275568E+00
    0.4100000000E+04    0.5615209869E+00    0.3366844362E-01    0.7078402881E-02    0.7918086599E-01    0.6091384143E+00
    0.4300000000E+04    0.5631470465E+00    0.3300420922E-01    0.6914104898E-02    0.7941588951E-01    0.6110075709E+00
    0.4500000000E+04    0.5646295149E+00    0.3238100111E-01    0.6760705951E-02    0.7963046829E-01    0.6127508198E+00
    0.4700000000E+04    0.5659863281E+00    0.3179464725E-01    0.6617052167E-02    0.7982714355E-01    0.6143816000E+00
    0.4900000000E+04    0.5672325854E+00    0.3124155248E-01    0.6482152835E-02    0.8000805558E-01    0.6159114285E+00
    0.1000000000E+04    0.4651407493E+00    0.5885185895E-01    0.1372719817E-01    0.6546783445E-01    0.5290856898E+00
    0.3000000000E+04    0.5487813594E+00    0.3832441954E-01    0.8251967580E-02    0.7734876489E-01    0.5957258619E+00
    0.5000000000E+04    0.5678183327E+00    0.3097648675E-01    0.6417714024E-02    0.8009317852E-01    0.6166416443E+00
    0.7000000000E+04    0.5760045868E+00    0.2684431776E-01    0.5431250501E-02    0.8129103371E-01    0.6277687651E+00
    0.9000000000E+04    0.5805223467E+00    0.2408353614E-01    0.4791585219E-02    0.8196203952E-01    0.6349196359E+00
    0.1100000000E+05    0.5833757730E+00    0.2206279702E-01    0.4333401019E-02    0.8239220867E-01    0.6400012664E+00
    0.1300000000E+05    0.5853375127E+00    0.2049715730E-01    0.3984251140E-02    0.8269236740E-01    0.6438470054E+00
    0.1500000000E+05    0.5867671605E+00    0.1923585826E-01    0.3706691206E-02    0.8291435706E-01    0.6468860201E+00
    0.1700000000E+05    0.5878543091E+00    0.1819036797E-01    0.3479144765E-02    0.8308564936E-01    0.6493645768E+00
    0.1900000000E+05    0.5887082428E+00    0.1730469782E-01    0.3288178811E-02    0.8322215978E-01    0.6514353231E+00
    0.2100000000E+05    0.5893963254E+00    0.1654141744E-01    0.3124930939E-02    0.8333374860E-01    0.6531985280E+00
    0.2300000000E+05    0.5899623137E+00    0.1587439652E-01    0.2983284153E-02    0.8342685304E-01    0.6547231054E+00
    0.2500000000E+05    0.5904358509E+00    0.1528474894E-01    0.2858860819E-02    0.8350585617E-01    0.6560581741E+00
    0.2700000000E+05    0.5908377251E+00    0.1475842980E-01    0.2748433744E-02    0.8357384718E-01    0.6572398057E+00
    0.2900000000E+05    0.5911829409E+00    0.1428474256E-01    0.2649564153E-02    0.8363306714E-01    0.6582951609E+00
    0.3100000000E+05    0.5914825980E+00    0.1385537429E-01    0.2560369936E-02    0.8368518215E-01    0.6592451299E+00
    0.3300000000E+05    0.5917450815E+00    0.1346375112E-01    0.2479372125E-02    0.8373145723E-01    0.6601060759E+00
    0.3500000000E+05    0.5919768432E+00    0.1310459517E-01    0.2405390177E-02    0.8377287056E-01    0.6608910215E+00
    0.3700000000E+05    0.5921829276E+00    0.1277361246E-01    0.2337468715E-02    0.8381019079E-01    0.6616104756E+00
    0.3900000000E+05    0.5923673352E+00    0.1246726822E-01    0.2274825127E-02    0.8384403052E-01    0.6622730244E+00
    0.4100000000E+05    0.5925332788E+00    0.1218262197E-01    0.2216811346E-02    0.8387488420E-01    0.6628857602E+00
    0.4300000000E+05    0.5926833683E+00    0.1191720460E-01    0.2162885489E-02    0.8390315545E-01    0.6634545994E+00
    0.4500000000E+05    0.5928197453E+00    0.1166892512E-01    0.2112590476E-02    0.8392917711E-01    0.6639845216E+00
    0.4700000000E+05    0.5929441836E+00    0.1143599910E-01    0.2065537697E-02    0.8395322622E-01    0.6644797514E+00
    0.4900000000E+05    0.5930581646E+00    0.1121689306E-01    0.2021394354E-02    0.8397553531E-01    0.6649438999E+00
    0.1000000000E+05    0.5820942954E+00    0.2300298035E-01    0.4545522720E-02    0.8219823183E-01    0.6376533109E+00
    0.3000000000E+05    0.5913378873E+00    0.1406496422E-01    0.2603858093E-02    0.8365992586E-01    0.6587822059E+00
    0.5000000000E+05    0.5931116313E+00    0.1111210096E-01    0.2000322503E-02    0.8398610001E-01    0.6651653067E+00
    0.7000000000E+05    0.5938515365E+00    0.9497308177E-02    0.1679039724E-02    0.8414098264E-01    0.6685294735E+00
    0.9000000000E+05    0.5942528800E+00    0.8439698352E-02    0.1472277995E-02    0.8423549771E-01    0.6706843919E+00
    0.1100000000E+06    0.5945024914E+00    0.7677243015E-02    0.1325154692E-02    0.8430105621E-01    0.6722141205E+00
    0.1300000000E+06    0.5946714275E+00    0.7093539831E-02    0.1213691418E-02    0.8435019857E-01    0.6733717172E+00
    0.1500000000E+06    0.5947925311E+00    0.6627853289E-02    0.1125532360E-02    0.8438899425E-01    0.6742868513E+00
    0.1700000000E+06    0.5948830381E+00    0.6244950385E-02    0.1053581412E-02    0.8442077244E-01    0.6750336975E+00
    0.1900000000E+06    0.5949528454E+00    0.5922787427E-02    0.9934359596E-03    0.8444752801E-01    0.6756581409E+00
    0.2100000000E+06    0.5950080313E+00    0.5646766299E-02    0.9422013882E-03    0.8447053778E-01    0.6761902830E+00
    0.2300000000E+06    0.5950525294E+00    0.5406781123E-02    0.8978864751E-03    0.8449066183E-01    0.6766507962E+00
    0.2500000000E+06    0.5950889946E+00    0.5195582100E-02    0.8590707779E-03    0.8450850370E-01    0.6770544076E+00
    0.2700000000E+06    0.5951192811E+00    0.5007813846E-02    0.8247103436E-03    0.8452450123E-01    0.6774119301E+00
    0.2900000000E+06    0.5951447217E+00    0.4839422294E-02    0.7940185420E-03    0.8453898103E-01    0.6777315051E+00
    0.3100000000E+06    0.5951662981E+00    0.4687273996E-02    0.7663899523E-03    0.8455219247E-01    0.6780193945E+00
    0.3300000000E+06    0.5951847485E+00    0.4548903354E-02    0.7413500582E-03    0.8456432987E-01    0.6782805043E+00
    0.3500000000E+06    0.5952006382E+00    0.4422339875E-02    0.7185210106E-03    0.8457554724E-01    0.6785187396E+00
    0.3700000000E+06    0.5952144070E+00    0.4305987117E-02    0.6975977287E-03    0.8458596858E-01    0.6787372527E+00
    0.3900000000E+06    0.5952264019E+00    0.4198535977E-02    0.6783308413E-03    0.8459569499E-01    0.6789386199E+00
    0.4100000000E+06    0.5952369002E+00    0.4098901363E-02    0.6605142719E-03    0.8460480995E-01    0.6791249700E+00
    0.4300000000E+06    0.5952461260E+00    0.4006175146E-02    0.6439760428E-03    0.8461338310E-01    0.6792980795E+00
    0.4500000000E+06    0.5952542621E+00    0.3919590661E-02    0.6285713573E-03    0.8462147309E-01    0.6794594441E+00
    0.4700000000E+06    0.5952614590E+00    0.3838495543E-02    0.6141773227E-03    0.8462912975E-01    0.6796103334E+00
    0.4900000000E+06    0.5952678418E+00    0.3762330686E-02    0.6006888717E-03    0.8463639571E-01    0.6797518328E+00
    0.1000000000E+06    0.5943908638E+00    0.8030730974E-02    0.1393154496E-02    0.8427088742E-01    0.6715073923E+00
    0.3000000000E+06    0.5951559421E+00    0.4761485160E-02    0.7798536084E-03    0.8454573206E-01    0.6778790769E+00
    0.5000000000E+06    0.5952707613E+00    0.3725943754E-02    0.5942554819E-03    0.8463989388E-01    0.6798193584E+00
    0.7000000000E+06    0.5953046338E+00    0.3168504383E-02    0.4965977239E-03    0.8469610418E-01    0.6808477905E+00
    0.9000000000E+06    0.5953150373E+00    0.2806652944E-02    0.4341859946E-03    0.8473602012E-01    0.6815092124E+00
    0.1100000000E+07    0.5953163225E+00    0.2547326683E-02    0.3899876825E-03    0.8476692005E-01    0.6819801765E+00
    0.1300000000E+07    0.5953135228E+00    0.2349647786E-02    0.3566202959E-03    0.8479210912E-01    0.6823374353E+00
    0.1500000000E+07    0.5953087644E+00    0.2192454623E-02    0.3303016800E-03    0.8481336130E-01    0.6826204270E+00
    0.1700000000E+07    0.5953030565E+00    0.2063543542E-02    0.3088693763E-03    0.8483173708E-01    0.6828517646E+00
    0.1900000000E+07    0.5952969160E+00    0.1955314684E-02    0.2909865424E-03    0.8484792025E-01    0.6830454650E+00
    0.2100000000E+07    0.5952906216E+00    0.1862754145E-02    0.2757768396E-03    0.8486237713E-01    0.6832107401E+00
    0.2300000000E+07    0.5952843281E+00    0.1782401860E-02    0.2626389385E-03    0.8487543982E-01    0.6833539258E+00
    0.2500000000E+07    0.5952781222E+00    0.1711782278E-02    0.2511448030E-03    0.8488735316E-01    0.6834795424E+00
    0.2700000000E+07    0.5952720523E+00    0.1649070948E-02    0.2409804386E-03    0.8489830278E-01    0.6835909128E+00
    0.2900000000E+07    0.5952661439E+00    0.1592889544E-02    0.2319096387E-03    0.8490843275E-01    0.6836905418E+00
    0.3100000000E+07    0.5952604092E+00    0.1542174639E-02    0.2237508774E-03    0.8491785711E-01    0.6837803580E+00
    0.3300000000E+07    0.5952548520E+00    0.1496090796E-02    0.2163620669E-03    0.8492666768E-01    0.6838618738E+00
    0.3500000000E+07    0.5952494713E+00    0.1453971296E-02    0.2096302007E-03    0.8493493948E-01    0.6839362942E+00
    0.3700000000E+07    0.5952442631E+00    0.1415276684E-02    0.2034641351E-03    0.8494273455E-01    0.6840045925E+00
    0.3900000000E+07    0.5952392218E+00    0.1379565121E-02    0.1977894439E-03    0.8495010483E-01    0.6840675650E+00
    0.4100000000E+07    0.5952343408E+00    0.1346470773E-02    0.1925446790E-03    0.8495709420E-01    0.6841258701E+00
    0.4300000000E+07    0.5952296129E+00    0.1315687772E-02    0.1876786034E-03    0.8496374009E-01    0.6841800574E+00
    0.4500000000E+07    0.5952250312E+00    0.1286958137E-02    0.1831481119E-03    0.8497007467E-01    0.6842305901E+00
    0.4700000000E+07    0.5952205885E+00    0.1260062533E-02    0.1789166466E-03    0.8497612579E-01    0.6842778617E+00
    0.4900000000E+07    0.5952162779E+00    0.1234813133E-02    0.1749529739E-03    0.8498191773E-01    0.6843222086E+00
    0.1000000000E+07    0.5953164006E+00    0.2667396929E-02    0.4103939974E-03    0.8475233908E-01    0.6817624368E+00
    0.3000000000E+07    0.5952632545E+00    0.1566905537E-02    0.2277259180E-03    0.8491322694E-01    0.6837365737E+00
    0.5000000000E+07    0.5952141702E+00    0.1222754276E-02    0.1730630156E-03    0.8498472327E-01    0.6843433775E+00
    0.7000000000E+07    0.5951775388E+00    0.1038316641E-02    0.1444163909E-03    0.8503125024E-01    0.6846662617E+00
    0.9000000000E+07    0.5951486271E+00    0.9188902416E-03    0.1261506776E-03    0.8506580330E-01    0.6848744082E+00
    0.1100000000E+08    0.5951248034E+00    0.8334428156E-03    0.1132352223E-03    0.8509330177E-01    0.6850228600E+00
    0.1300000000E+08    0.5951045605E+00    0.7683861263E-03    0.1034956539E-03    0.8511614428E-01    0.6851356083E+00
    0.1500000000E+08    0.5950869681E+00    0.7167010625E-03    0.9582018213E-04    0.8513568209E-01    0.6852250042E+00
    0.1700000000E+08    0.5950714148E+00    0.6743463567E-03    0.8957407121E-04    0.8515275205E-01    0.6852981398E+00
    0.1900000000E+08    0.5950574777E+00    0.6388085089E-03    0.8436538010E-04    0.8516790856E-01    0.6853594166E+00
    0.2100000000E+08    0.5950448531E+00    0.6084309936E-03    0.7993742418E-04    0.8518153789E-01    0.6854117300E+00
    0.2300000000E+08    0.5950333151E+00    0.5820716445E-03    0.7611421066E-04    0.8519392001E-01    0.6854570734E+00
    0.2500000000E+08    0.5950226915E+00    0.5589138857E-03    0.7277055014E-04    0.8520526429E-01    0.6854968697E+00
    0.2700000000E+08    0.5950128481E+00    0.5383562964E-03    0.6981466158E-04    0.8521573145E-01    0.6855321658E+00
