  Pressure (Pa) 22mC5-400 (mol/kg) 2mC6-400 (mol/kg) 33mC5-400 (mol/kg) 23mC5-400 (mol/kg) C7-400 (mol/kg)
    0.1000000000E+01    0.2647689770E-02    0.1585151794E-02    0.5162752332E-03    0.9298111045E-04    0.6829824752E-02
    0.3000000000E+01    0.7847926086E-02    0.4626624749E-02    0.1507026564E-02    0.2756046365E-03    0.1999179280E-01
    0.5000000000E+01    0.1292570457E-01    0.7506497384E-02    0.2445346855E-02    0.4539309377E-03    0.3253075009E-01
    0.7000000000E+01    0.1788604567E-01    0.1023599198E-01    0.3334876966E-02    0.6281361591E-03    0.4449127774E-01
    0.9000000000E+01    0.2273369189E-01    0.1282531935E-01    0.4178929149E-02    0.7983866948E-03    0.5591377109E-01
    0.1100000000E+02    0.2747312676E-01    0.1528379159E-01    0.4980523711E-02    0.9648398535E-03    0.6683492077E-01
    0.1300000000E+02    0.3210859226E-01    0.1761991983E-01    0.5742420830E-02    0.1127644470E-02    0.7728812880E-01
    0.1500000000E+02    0.3664410483E-01    0.1984149943E-01    0.6467148252E-02    0.1286941466E-02    0.8730386991E-01
    0.1700000000E+02    0.4108347022E-01    0.2195568441E-01    0.7157025485E-02    0.1442864373E-02    0.9691000613E-01
    0.1900000000E+02    0.4543029709E-01    0.2396905261E-01    0.7814185010E-02    0.1595539807E-02    0.1061320617E+00
    0.2100000000E+02    0.4968800963E-01    0.2588766309E-01    0.8440590912E-02    0.1745087911E-02    0.1149934637E+00
    0.2300000000E+02    0.5385985922E-01    0.2771710660E-01    0.9038055312E-02    0.1891622768E-02    0.1235157542E+00
    0.2500000000E+02    0.5794893517E-01    0.2946255037E-01    0.9608252895E-02    0.2035252774E-02    0.1317187761E+00
    0.2700000000E+02    0.6195817476E-01    0.3112877765E-01    0.1015273378E-01    0.2176080990E-02    0.1396208385E+00
    0.2900000000E+02    0.6589037248E-01    0.3272022295E-01    0.1067293496E-01    0.2314205467E-02    0.1472388621E+00
    0.3100000000E+02    0.6974818861E-01    0.3424100341E-01    0.1117019049E-01    0.2449719551E-02    0.1545885092E+00
    0.3300000000E+02    0.7353415723E-01    0.3569494680E-01    0.1164574058E-01    0.2582712157E-02    0.1616842987E+00
    0.3500000000E+02    0.7725069362E-01    0.3708561660E-01    0.1210073976E-01    0.2713268033E-02    0.1685397092E+00
    0.3700000000E+02    0.8090010118E-01    0.3841633448E-01    0.1253626414E-01    0.2841468001E-02    0.1751672706E+00
    0.3900000000E+02    0.8448457786E-01    0.3969020048E-01    0.1295331800E-01    0.2967389184E-02    0.1815786467E+00
    0.4100000000E+02    0.8800622212E-01    0.4091011127E-01    0.1335283971E-01    0.3091105216E-02    0.1877847089E+00
    0.4300000000E+02    0.9146703858E-01    0.4207877650E-01    0.1373570700E-01    0.3212686435E-02    0.1937956028E+00
    0.4500000000E+02    0.9486894320E-01    0.4319873370E-01    0.1410274185E-01    0.3332200072E-02    0.1996208079E+00
    0.4700000000E+02    0.9821376815E-01    0.4427236168E-01    0.1445471480E-01    0.3449710415E-02    0.2052691917E+00
    0.4900000000E+02    0.1015032664E+00    0.4530189274E-01    0.1479234892E-01    0.3565278976E-02    0.2107490586E+00
    0.1000000000E+02    0.2511666516E-01    0.1407036270E-01    0.4584855368E-02    0.8820784523E-03    0.6143485367E-01
    0.3000000000E+02    0.6782841700E-01    0.3348920058E-01    0.1092435131E-01    0.2382283151E-02    0.1509462997E+00
    0.5000000000E+02    0.1031277952E+00    0.4580078221E-01    0.1495600279E-01    0.3622353586E-02    0.2134282503E+00
    0.7000000000E+02    0.1330858920E+00    0.5391062235E-01    0.1762112737E-01    0.4674961728E-02    0.2598190807E+00
    0.9000000000E+02    0.1590411326E+00    0.5936296975E-01    0.1941997821E-01    0.5587073376E-02    0.2958164315E+00
    0.1100000000E+03    0.1818986386E+00    0.6305204312E-01    0.2064237505E-01    0.6390450855E-02    0.3246879329E+00
    0.1300000000E+03    0.2022939480E+00    0.6552895749E-01    0.2146711672E-01    0.7107397137E-02    0.3484462788E+00
    0.1500000000E+03    0.2206876772E+00    0.6714987116E-01    0.2200992373E-01    0.7754077186E-02    0.3684015191E+00
    0.1700000000E+03    0.2374228470E+00    0.6815370116E-01    0.2234857313E-01    0.8342529397E-02    0.3854446906E+00
    0.1900000000E+03    0.2527609840E+00    0.6870560803E-01    0.2253695750E-01    0.8881932375E-02    0.4002039798E+00
    0.2100000000E+03    0.2669056334E+00    0.6892261566E-01    0.2261336715E-01    0.9379429968E-02    0.4131356798E+00
    0.2300000000E+03    0.2800181228E+00    0.6888935756E-01    0.2260558108E-01    0.9840684456E-02    0.4245796916E+00
    0.2500000000E+03    0.2922284057E+00    0.6866810307E-01    0.2253410971E-01    0.1027025706E-01    0.4347947388E+00
    0.2700000000E+03    0.3036426899E+00    0.6830533600E-01    0.2241432368E-01    0.1067187565E-01    0.4439814706E+00
    0.2900000000E+03    0.3143489129E+00    0.6783618402E-01    0.2225788835E-01    0.1104862688E-01    0.4522980597E+00
    0.3100000000E+03    0.3244207445E+00    0.6728746888E-01    0.2207375253E-01    0.1140309667E-01    0.4598710027E+00
    0.3300000000E+03    0.3339205597E+00    0.6667984863E-01    0.2186884378E-01    0.1173747452E-01    0.4668027655E+00
    0.3500000000E+03    0.3429016805E+00    0.6602934862E-01    0.2164856598E-01    0.1205363223E-01    0.4731773018E+00
    0.3700000000E+03    0.3514100902E+00    0.6534847283E-01    0.2141716103E-01    0.1235318399E-01    0.4790641081E+00
    0.3900000000E+03    0.3594857590E+00    0.6464702172E-01    0.2117797569E-01    0.1263753298E-01    0.4845212497E+00
    0.4100000000E+03    0.3671636829E+00    0.6393270183E-01    0.2093366066E-01    0.1290790777E-01    0.4895976516E+00
    0.4300000000E+03    0.3744747054E+00    0.6321158516E-01    0.2068632110E-01    0.1316539121E-01    0.4943348555E+00
    0.4500000000E+03    0.3814461745E+00    0.6248845893E-01    0.2043763146E-01    0.1341094343E-01    0.4987683831E+00
    0.4700000000E+03    0.3881024721E+00    0.6176709439E-01    0.2018892397E-01    0.1364542049E-01    0.5029288055E+00
    0.4900000000E+03    0.3944654461E+00    0.6105045505E-01    0.1994125737E-01    0.1386958947E-01    0.5068425906E+00
    0.1000000000E+03    0.1708124089E+00    0.6138764168E-01    0.2009017244E-01    0.6000785474E-02    0.3109960123E+00
    0.3000000000E+03    0.3194599938E+00    0.6757035662E-01    0.2216880927E-01    0.1122850184E-01    0.4561705927E+00
    0.5000000000E+03    0.3975431596E+00    0.6069465335E-01    0.1981808398E-01    0.1397802693E-01    0.5087143129E+00
    0.7000000000E+03    0.4475921309E+00    0.5416637553E-01    0.1753604007E-01    0.1574234619E-01    0.5374882801E+00
    0.9000000000E+03    0.4824790027E+00    0.4891614173E-01    0.1567513844E-01    0.1697349331E-01    0.5561774091E+00
    0.1100000000E+04    0.5080737471E+00    0.4475256115E-01    0.1418720889E-01    0.1787769265E-01    0.5695185667E+00
    0.1300000000E+04    0.5275554621E+00    0.4141002213E-01    0.1298766906E-01    0.1856667985E-01    0.5796332077E+00
    0.1500000000E+04    0.5428148409E+00    0.3867916810E-01    0.1200636736E-01    0.1910693452E-01    0.5876291924E+00
    0.1700000000E+04    0.5550475713E+00    0.3640864648E-01    0.1119111766E-01    0.1954051568E-01    0.5941478710E+00
    0.1900000000E+04    0.5650449399E+00    0.3449035253E-01    0.1050390468E-01    0.1989526823E-01    0.5995891573E+00
    0.2100000000E+04    0.5733498016E+00    0.3284639763E-01    0.9916937099E-02    0.2019030230E-01    0.6042168388E+00
    0.2300000000E+04    0.5803458259E+00    0.3141980002E-01    0.9409657014E-02    0.2043912935E-01    0.6082127571E+00
    0.2500000000E+04    0.5863111089E+00    0.3016815828E-01    0.8966636234E-02    0.2065154667E-01    0.6117067996E+00
    0.2700000000E+04    0.5914516659E+00    0.2905938375E-01    0.8576122757E-02    0.2083481490E-01    0.6147945007E+00
    0.2900000000E+04    0.5959230513E+00    0.2806880036E-01    0.8229034762E-02    0.2099441836E-01    0.6175478736E+00
    0.3100000000E+04    0.5998447123E+00    0.2717714760E-01    0.7918257797E-02    0.2113456994E-01    0.6200223467E+00
    0.3300000000E+04    0.6033097542E+00    0.2636918427E-01    0.7638147575E-02    0.2125855473E-01    0.6222613582E+00
    0.3500000000E+04    0.6063917303E+00    0.2563269691E-01    0.7384173423E-02    0.2136896892E-01    0.6242994865E+00
    0.3700000000E+04    0.6091494548E+00    0.2495778480E-01    0.7152659078E-02    0.2146788928E-01    0.6261646387E+00
    0.3900000000E+04    0.6116304742E+00    0.2433633669E-01    0.6940591713E-02    0.2155699536E-01    0.6278796141E+00
    0.4100000000E+04    0.6138736109E+00    0.2376164265E-01    0.6745479454E-02    0.2163765904E-01    0.6294632422E+00
    0.4300000000E+04    0.6159108536E+00    0.2322810232E-01    0.6565243767E-02    0.2171101119E-01    0.6309312266E+00
    0.4500000000E+04    0.6177687815E+00    0.2273100292E-01    0.6398137270E-02    0.2177799179E-01    0.6322967795E+00
    0.4700000000E+04    0.6194696487E+00    0.2226634853E-01    0.6242680287E-02    0.2183938818E-01    0.6335711064E+00
    0.4900000000E+04    0.6210322210E+00    0.2183072727E-01    0.6097611388E-02    0.2189586455E-01    0.6347637799E+00
    0.1000000000E+04    0.4961986318E+00    0.4671609549E-01    0.1489000682E-01    0.1745805327E-01    0.5633497602E+00
    0.3000000000E+04    0.5979462520E+00    0.2761164120E-01    0.8069489885E-02    0.2106670178E-01    0.6188170190E+00
    0.5000000000E+04    0.6217667202E+00    0.2162287141E-01    0.6028628194E-02    0.2192243737E-01    0.6353321150E+00
    0.7000000000E+04    0.6320339588E+00    0.1845561574E-01    0.4997918032E-02    0.2229614447E-01    0.6439148888E+00
    0.9000000000E+04    0.6376980800E+00    0.1641003618E-01    0.4354556275E-02    0.2250504982E-01    0.6493514697E+00
    0.1100000000E+05    0.6412734909E+00    0.1494431013E-01    0.3905248037E-02    0.2263867488E-01    0.6531758537E+00
    0.1300000000E+05    0.6437306997E+00    0.1382511104E-01    0.3568966909E-02    0.2273172767E-01    0.6560480291E+00
    0.1500000000E+05    0.6455212444E+00    0.1293297832E-01    0.3305203067E-02    0.2280042878E-01    0.6583039913E+00
    0.1700000000E+05    0.6468830143E+00    0.1219943297E-01    0.3091205360E-02    0.2285336228E-01    0.6601348093E+00
    0.1900000000E+05    0.6479530166E+00    0.1158195943E-01    0.2913095223E-02    0.2289549424E-01    0.6616580488E+00
    0.2100000000E+05    0.6488156355E+00    0.1105254455E-01    0.2761866606E-02    0.2292989709E-01    0.6629504607E+00
    0.2300000000E+05    0.6495256436E+00    0.1059186029E-01    0.2631387937E-02    0.2295857410E-01    0.6640645187E+00
    0.2500000000E+05    0.6501201234E+00    0.1018607143E-01    0.2517321409E-02    0.2298288764E-01    0.6650374536E+00
    0.2700000000E+05    0.6506250657E+00    0.9824972295E-02    0.2416500433E-02    0.2300379689E-01    0.6658964972E+00
    0.2900000000E+05    0.6510592224E+00    0.9500843704E-02    0.2326552212E-02    0.2302199697E-01    0.6666620810E+00
    0.3100000000E+05    0.6514364594E+00    0.9207722127E-02    0.2245659017E-02    0.2303800423E-01    0.6673498696E+00
    0.3300000000E+05    0.6517672491E+00    0.8940915912E-02    0.2172401707E-02    0.2305221034E-01    0.6679720975E+00
    0.3500000000E+05    0.6520596470E+00    0.8696675416E-02    0.2105653985E-02    0.2306491798E-01    0.6685384757E+00
    0.3700000000E+05    0.6523199506E+00    0.8471962244E-02    0.2044509038E-02    0.2307636480E-01    0.6690568223E+00
    0.3900000000E+05    0.6525531534E+00    0.8264284166E-02    0.1988227446E-02    0.2308674006E-01    0.6695335106E+00
    0.4100000000E+05    0.6527632654E+00    0.8071574669E-02    0.1936199453E-02    0.2309619647E-01    0.6699737941E+00
    0.4300000000E+05    0.6529535439E+00    0.7892103536E-02    0.1887917128E-02    0.2310485858E-01    0.6703820473E+00
    0.4500000000E+05    0.6531266619E+00    0.7724409396E-02    0.1842953505E-02    0.2311282906E-01    0.6707619452E+00
    0.4700000000E+05    0.6532848333E+00    0.7567248148E-02    0.1800946714E-02    0.2312019333E-01    0.6711166008E+00
    0.4900000000E+05    0.6534299073E+00    0.7419553003E-02    0.1761587760E-02    0.2312702304E-01    0.6714486706E+00
    0.1000000000E+05    0.6396679842E+00    0.1562315600E-01    0.4112101495E-02    0.2257845434E-01    0.6514128963E+00
    0.3000000000E+05    0.6512542352E+00    0.9350725623E-02    0.2285070343E-02    0.2303024779E-01    0.6670148670E+00
    0.5000000000E+05    0.6534980292E+00    0.7348962485E-02    0.1742816728E-02    0.2313025674E-01    0.6716069618E+00
    0.7000000000E+05    0.6544470445E+00    0.6264931044E-02    0.1457914245E-02    0.2317762194E-01    0.6740031390E+00
    0.9000000000E+05    0.6549697455E+00    0.5558497105E-02    0.1275771949E-02    0.2320648888E-01    0.6755290145E+00
    0.1100000000E+06    0.6553001238E+00    0.5050818383E-02    0.1146694809E-02    0.2322649688E-01    0.6766078391E+00
    0.1300000000E+06    0.6555275097E+00    0.4663020127E-02    0.1049178413E-02    0.2324148756E-01    0.6774217714E+00
    0.1500000000E+06    0.6556933700E+00    0.4354141309E-02    0.9722103427E-03    0.2325331811E-01    0.6780637056E+00
    0.1700000000E+06    0.6558195674E+00    0.4100500342E-02    0.9094938393E-03    0.2326300639E-01    0.6785865853E+00
    0.1900000000E+06    0.6559187162E+00    0.3887318747E-02    0.8571351795E-03    0.2327116195E-01    0.6790230659E+00
    0.2100000000E+06    0.6559986025E+00    0.3704829589E-02    0.8125810060E-03    0.2327817475E-01    0.6793945181E+00
    0.2300000000E+06    0.6560642910E+00    0.3546282726E-02    0.7740785591E-03    0.2328430738E-01    0.6797155876E+00
    0.2500000000E+06    0.6561192178E+00    0.3406842436E-02    0.7403796956E-03    0.2328974406E-01    0.6799966902E+00
    0.2700000000E+06    0.6561657954E+00    0.3282940829E-02    0.7105684535E-03    0.2329461837E-01    0.6802454609E+00
    0.2900000000E+06    0.6562057676E+00    0.3171879750E-02    0.6839555235E-03    0.2329902998E-01    0.6804676408E+00
    0.3100000000E+06    0.6562404254E+00    0.3071575622E-02    0.6600109744E-03    0.2330305494E-01    0.6806676399E+00
    0.3300000000E+06    0.6562707453E+00    0.2980390256E-02    0.6383198611E-03    0.2330675251E-01    0.6808489097E+00
    0.3500000000E+06    0.6562974791E+00    0.2897015343E-02    0.6185520561E-03    0.2331016967E-01    0.6810141946E+00
    0.3700000000E+06    0.6563212152E+00    0.2820391602E-02    0.6004412154E-03    0.2331334423E-01    0.6811657079E+00
    0.3900000000E+06    0.6563424204E+00    0.2749650908E-02    0.5837697829E-03    0.2331630700E-01    0.6813052571E+00
    0.4100000000E+06    0.6563614699E+00    0.2684074067E-02    0.5683580873E-03    0.2331908345E-01    0.6814343344E+00
    0.4300000000E+06    0.6563786686E+00    0.2623059466E-02    0.5540562731E-03    0.2332169479E-01    0.6815541842E+00
    0.4500000000E+06    0.6563942667E+00    0.2566099430E-02    0.5407382362E-03    0.2332415891E-01    0.6816658535E+00
    0.4700000000E+06    0.6564084717E+00    0.2512762152E-02    0.5282970008E-03    0.2332649099E-01    0.6817702305E+00
    0.4900000000E+06    0.6564214568E+00    0.2462677692E-02    0.5166411488E-03    0.2332870403E-01    0.6818680741E+00
    0.1000000000E+06    0.6551517058E+00    0.5286025828E-02    0.1206301214E-02    0.2321729101E-01    0.6761098814E+00
    0.3000000000E+06    0.6562236936E+00    0.3120494334E-02    0.6716779225E-03    0.2330108675E-01    0.6805701782E+00
    0.5000000000E+06    0.6564275383E+00    0.2438753834E-02    0.5110827286E-03    0.2332976947E-01    0.6819147535E+00
    0.7000000000E+06    0.6565108118E+00    0.2072520929E-02    0.4267772842E-03    0.2334688840E-01    0.6826246335E+00
    0.9000000000E+06    0.6565548173E+00    0.1835058955E-02    0.3729666034E-03    0.2335904365E-01    0.6830801042E+00
    0.1100000000E+07    0.6565813773E+00    0.1665006749E-02    0.3348905051E-03    0.2336845271E-01    0.6834038861E+00
    0.1300000000E+07    0.6565987595E+00    0.1535450534E-02    0.3061619259E-03    0.2337612243E-01    0.6836491904E+00
    0.1500000000E+07    0.6566107645E+00    0.1432471485E-02    0.2835123044E-03    0.2338259317E-01    0.6838433076E+00
    0.1700000000E+07    0.6566193742E+00    0.1348048756E-02    0.2650743529E-03    0.2338818794E-01    0.6840018629E+00
    0.1900000000E+07    0.6566257188E+00    0.1277190261E-02    0.2496944359E-03    0.2339311500E-01    0.6841345302E+00
    0.2100000000E+07    0.6566304868E+00    0.1216604099E-02    0.2366166981E-03    0.2339751638E-01    0.6842476610E+00
    0.2300000000E+07    0.6566341204E+00    0.1164019451E-02    0.2253227027E-03    0.2340149322E-01    0.6843456204E+00
    0.2500000000E+07    0.6566369153E+00    0.1117812172E-02    0.2154435503E-03    0.2340512007E-01    0.6844315200E+00
    0.2700000000E+07    0.6566390763E+00    0.1076785639E-02    0.2067087106E-03    0.2340845348E-01    0.6845076459E+00
    0.2900000000E+07    0.6566407491E+00    0.1040036063E-02    0.1989147281E-03    0.2341153732E-01    0.6845757205E+00
    0.3100000000E+07    0.6566420400E+00    0.1006866297E-02    0.1919052834E-03    0.2341440631E-01    0.6846370692E+00
    0.3300000000E+07    0.6566430283E+00    0.9767287682E-03    0.1855580448E-03    0.2341708842E-01    0.6846927307E+00
    0.3500000000E+07    0.6566437738E+00    0.9491865664E-03    0.1797757368E-03    0.2341960649E-01    0.6847435325E+00
    0.3700000000E+07    0.6566443226E+00    0.9238862363E-03    0.1744799165E-03    0.2342197941E-01    0.6847901426E+00
    0.3900000000E+07    0.6566447109E+00    0.9005383269E-03    0.1696065394E-03    0.2342422299E-01    0.6848331073E+00
    0.4100000000E+07    0.6566449670E+00    0.8789032104E-03    0.1651027360E-03    0.2342635061E-01    0.6848728782E+00
    0.4300000000E+07    0.6566451135E+00    0.8587805648E-03    0.1609244284E-03    0.2342837365E-01    0.6849098322E+00
    0.4500000000E+07    0.6566451689E+00    0.8400014483E-03    0.1570345385E-03    0.2343030190E-01    0.6849442868E+00
    0.4700000000E+07    0.6566451479E+00    0.8224222454E-03    0.1534016240E-03    0.2343214387E-01    0.6849765115E+00
    0.4900000000E+07    0.6566450628E+00    0.8059199815E-03    0.1499988242E-03    0.2343390692E-01    0.6850067369E+00
    0.1000000000E+07    0.6565696036E+00    0.1743729143E-02    0.3524670191E-03    0.2336401286E-01    0.6832542492E+00
    0.3000000000E+07    0.6566414368E+00    0.1023040907E-02    0.1953202601E-03    0.2341299679E-01    0.6846071650E+00
    0.5000000000E+07    0.6566449993E+00    0.7980389974E-03    0.1483763701E-03    0.2343476091E-01    0.6850211630E+00
    0.7000000000E+07    0.6566420669E+00    0.6775275040E-03    0.1237898246E-03    0.2344892317E-01    0.6852410425E+00
    0.9000000000E+07    0.6566379686E+00    0.5995206965E-03    0.1081182435E-03    0.2345944029E-01    0.6853826218E+00
    0.1100000000E+08    0.6566337874E+00    0.5437208753E-03    0.9703958140E-04    0.2346780993E-01    0.6854835130E+00
    0.1300000000E+08    0.6566298011E+00    0.5012438752E-03    0.8868652455E-04    0.2347476231E-01    0.6855600897E+00
    0.1500000000E+08    0.6566260755E+00    0.4675018373E-03    0.8210456254E-04    0.2348070878E-01    0.6856207740E+00
    0.1700000000E+08    0.6566226117E+00    0.4398538690E-03    0.7674887138E-04    0.2348590407E-01    0.6856703987E+00
    0.1900000000E+08    0.6566193909E+00    0.4166577286E-03    0.7228308710E-04    0.2349051695E-01    0.6857119613E+00
    0.2100000000E+08    0.6566163892E+00    0.3968312475E-03    0.6848695369E-04    0.2349466500E-01    0.6857474328E+00
    0.2300000000E+08    0.6566135833E+00    0.3796283640E-03    0.6520947296E-04    0.2349843344E-01    0.6857781693E+00
    0.2500000000E+08    0.6566109519E+00    0.3645157459E-03    0.6234324572E-04    0.2350188599E-01    0.6858051387E+00
    0.2700000000E+08    0.6566084763E+00    0.3511006202E-03    0.5980954042E-04    0.2350507157E-01    0.6858290528E+00
