  Pressure (Pa) 22mC5-400 (mol/kg) 2mC6-400 (mol/kg) 33mC5-400 (mol/kg) 23mC5-400 (mol/kg) C7-400 (mol/kg)
    0.1000000000E+01    0.2649198492E-02    0.7949677450E-03    0.5825471090E-03    0.1860681494E-03    0.5139641115E-02
    0.3000000000E+01    0.7861080476E-02    0.2333850199E-02    0.1710320445E-02    0.5521328617E-03    0.1514257514E-01
    0.5000000000E+01    0.1296111631E-01    0.3807730677E-02    0.2790573670E-02    0.9103482100E-03    0.2479372949E-01
    0.7000000000E+01    0.1795333376E-01    0.5220069720E-02    0.3825833836E-02    0.1260996808E-02    0.3411187061E-01
    0.9000000000E+01    0.2284156515E-01    0.6574093533E-02    0.4818456729E-02    0.1604347555E-02    0.4311444426E-01
    0.1100000000E+02    0.2762945901E-01    0.7872813464E-02    0.5770641124E-02    0.1940656460E-02    0.5181769003E-01
    0.1300000000E+02    0.3232049098E-01    0.9119043571E-02    0.6684441638E-02    0.2270167398E-02    0.6023674389E-01
    0.1500000000E+02    0.3691797386E-01    0.1031541647E-01    0.7561780323E-02    0.2593112821E-02    0.6838573069E-01
    0.1700000000E+02    0.4142506703E-01    0.1146439770E-01    0.8404457162E-02    0.2909714419E-02    0.7627784731E-01
    0.1900000000E+02    0.4584478524E-01    0.1256829866E-01    0.9214159576E-02    0.3220183729E-02    0.8392543784E-01
    0.2100000000E+02    0.5018000674E-01    0.1362928850E-01    0.9992471045E-02    0.3524722719E-02    0.9134006152E-01
    0.2300000000E+02    0.5443348094E-01    0.1464940474E-01    0.1074087895E-01    0.3823524310E-02    0.9853255433E-01
    0.2500000000E+02    0.5860783552E-01    0.1563056313E-01    0.1146078174E-01    0.4116772887E-02    0.1055130848E+00
    0.2700000000E+02    0.6270558310E-01    0.1657456648E-01    0.1215349538E-01    0.4404644760E-02    0.1122912047E+00
    0.2900000000E+02    0.6672912747E-01    0.1748311283E-01    0.1282025936E-01    0.4687308605E-02    0.1188758953E+00
    0.3100000000E+02    0.7068076940E-01    0.1835780290E-01    0.1346224211E-01    0.4964925868E-02    0.1252756096E+00
    0.3300000000E+02    0.7456271215E-01    0.1920014688E-01    0.1408054596E-01    0.5237651155E-02    0.1314983104E+00
    0.3500000000E+02    0.7837706653E-01    0.2001157066E-01    0.1467621174E-01    0.5505632584E-02    0.1375515057E+00
    0.3700000000E+02    0.8212585577E-01    0.2079342161E-01    0.1525022294E-01    0.5769012129E-02    0.1434422806E+00
    0.3900000000E+02    0.8581101996E-01    0.2154697383E-01    0.1580350957E-01    0.6027925930E-02    0.1491773269E+00
    0.4100000000E+02    0.8943442033E-01    0.2227343298E-01    0.1633695173E-01    0.6282504595E-02    0.1547629702E+00
    0.4300000000E+02    0.9299784324E-01    0.2297394082E-01    0.1685138283E-01    0.6532873477E-02    0.1602051945E+00
    0.4500000000E+02    0.9650300386E-01    0.2364957925E-01    0.1734759266E-01    0.6779152936E-02    0.1655096650E+00
    0.4700000000E+02    0.9995154976E-01    0.2430137419E-01    0.1782633014E-01    0.7021458587E-02    0.1706817494E+00
    0.4900000000E+02    0.1033450642E+00    0.2493029908E-01    0.1828830588E-01    0.7259901531E-02    0.1757265370E+00
    0.1000000000E+02    0.2524783311E-01    0.7230186174E-02    0.5299472088E-02    0.1773366720E-02    0.4750251240E-01
    0.3000000000E+02    0.6871379631E-01    0.1792459347E-01    0.1314427800E-01    0.4826738241E-02    0.1220983658E+00
    0.5000000000E+02    0.1050216625E+00    0.2523647591E-01    0.1851322029E-01    0.7377708029E-02    0.1782027132E+00
    0.7000000000E+02    0.1360051586E+00    0.3036073740E-01    0.2227856395E-01    0.9554953232E-02    0.2220944638E+00
    0.9000000000E+02    0.1629017990E+00    0.3400754724E-01    0.2495889746E-01    0.1144531732E-01    0.2574807660E+00
    0.1100000000E+03    0.1865780430E+00    0.3662300933E-01    0.2688021912E-01    0.1310960727E-01    0.2866943392E+00
    0.1300000000E+03    0.2076597420E+00    0.3849966942E-01    0.2825654501E-01    0.1459174626E-01    0.3112782530E+00
    0.1500000000E+03    0.2266112010E+00    0.3983608986E-01    0.2923334139E-01    0.1592432105E-01    0.3322951860E+00
    0.1700000000E+03    0.2437849656E+00    0.4077088860E-01    0.2991233191E-01    0.1713207558E-01    0.3505016715E+00
    0.1900000000E+03    0.2594542250E+00    0.4140312638E-01    0.3036635368E-01    0.1823418467E-01    0.3664514846E+00
    0.2100000000E+03    0.2738345137E+00    0.4180500362E-01    0.3064861012E-01    0.1924577695E-01    0.3805596869E+00
    0.2300000000E+03    0.2870986179E+00    0.4203003297E-01    0.3079862818E-01    0.2017898087E-01    0.3931437732E+00
    0.2500000000E+03    0.2993870455E+00    0.4211845002E-01    0.3084620431E-01    0.2104365946E-01    0.4044509480E+00
    0.2700000000E+03    0.3108155288E+00    0.4210088413E-01    0.3081408320E-01    0.2184793693E-01    0.4146767051E+00
    0.2900000000E+03    0.3214804996E+00    0.4200090268E-01    0.3071981598E-01    0.2259858282E-01    0.4239777871E+00
    0.3100000000E+03    0.3314631490E+00    0.4183680785E-01    0.3057707381E-01    0.2330129696E-01    0.4324814181E+00
    0.3300000000E+03    0.3408324839E+00    0.4162292709E-01    0.3039659246E-01    0.2396092401E-01    0.4402920050E+00
    0.3500000000E+03    0.3496476597E+00    0.4137055380E-01    0.3018686175E-01    0.2458161712E-01    0.4474960832E+00
    0.3700000000E+03    0.3579597827E+00    0.4108864231E-01    0.2995463569E-01    0.2516696449E-01    0.4541660239E+00
    0.3900000000E+03    0.3658133194E+00    0.4078432760E-01    0.2970531459E-01    0.2572008824E-01    0.4603628491E+00
    0.4100000000E+03    0.3732472101E+00    0.4046331824E-01    0.2944323451E-01    0.2624372259E-01    0.4661383977E+00
    0.4300000000E+03    0.3802957580E+00    0.4013019640E-01    0.2917188868E-01    0.2674027625E-01    0.4715370109E+00
    0.4500000000E+03    0.3869893452E+00    0.3978864905E-01    0.2889409844E-01    0.2721188267E-01    0.4765968568E+00
    0.4700000000E+03    0.3933550146E+00    0.3944164759E-01    0.2861214644E-01    0.2766044095E-01    0.4813509819E+00
    0.4900000000E+03    0.3994169474E+00    0.3909158846E-01    0.2832788105E-01    0.2808764922E-01    0.4858281539E+00
    0.1000000000E+03    0.1750988242E+00    0.3542317784E-01    0.2599906432E-01    0.1230265844E-01    0.2727487034E+00
    0.3000000000E+03    0.3265525463E+00    0.4192589324E-01    0.3065377358E-01    0.2295561066E-01    0.4283222888E+00
    0.5000000000E+03    0.4023408849E+00    0.3891603171E-01    0.2818536039E-01    0.2829372975E-01    0.4879708723E+00
    0.7000000000E+03    0.4491441637E+00    0.3554938244E-01    0.2545156249E-01    0.3159442229E-01    0.5210053763E+00
    0.9000000000E+03    0.4809647780E+00    0.3270532104E-01    0.2313842211E-01    0.3384123427E-01    0.5425061641E+00
    0.1100000000E+04    0.5039274950E+00    0.3038281695E-01    0.2124983320E-01    0.3546457737E-01    0.5578428929E+00
    0.1300000000E+04    0.5212156634E+00    0.2847528198E-01    0.1970241489E-01    0.3668826081E-01    0.5694499691E+00
    0.1500000000E+04    0.5346594613E+00    0.2688582717E-01    0.1841827358E-01    0.3764101500E-01    0.5786061833E+00
    0.1700000000E+04    0.5453860657E+00    0.2554074349E-01    0.1733719736E-01    0.3840215762E-01    0.5860539710E+00
    0.1900000000E+04    0.5541263619E+00    0.2438591175E-01    0.1641449010E-01    0.3902314202E-01    0.5922568714E+00
    0.2100000000E+04    0.5613739627E+00    0.2338159042E-01    0.1561707711E-01    0.3953873271E-01    0.5975207550E+00
    0.2300000000E+04    0.5674735423E+00    0.2249825700E-01    0.1492025875E-01    0.3997321490E-01    0.6020564373E+00
    0.2500000000E+04    0.5726726066E+00    0.2171364536E-01    0.1430534269E-01    0.4034403483E-01    0.6060144268E+00
    0.2700000000E+04    0.5771531858E+00    0.2101069421E-01    0.1375797798E-01    0.4066402889E-01    0.6095053459E+00
    0.2900000000E+04    0.5810519529E+00    0.2037612836E-01    0.1326698933E-01    0.4094283906E-01    0.6126125110E+00
    0.3100000000E+04    0.5844733999E+00    0.1979946889E-01    0.1282355642E-01    0.4118784011E-01    0.6153999912E+00
    0.3300000000E+04    0.5874987013E+00    0.1927233341E-01    0.1242062964E-01    0.4140476358E-01    0.6179179470E+00
    0.3500000000E+04    0.5901918195E+00    0.1878793433E-01    0.1205250883E-01    0.4159812761E-01    0.6202062681E+00
    0.3700000000E+04    0.5926037998E+00    0.1834071376E-01    0.1171453542E-01    0.4177153946E-01    0.6222971156E+00
    0.3900000000E+04    0.5947758482E+00    0.1792607406E-01    0.1140286450E-01    0.4192791230E-01    0.6242167368E+00
    0.4100000000E+04    0.5967415742E+00    0.1754017622E-01    0.1111429389E-01    0.4206962329E-01    0.6259867874E+00
    0.4300000000E+04    0.5985286517E+00    0.1717978723E-01    0.1084613440E-01    0.4219863060E-01    0.6276253093E+00
    0.4500000000E+04    0.6001600636E+00    0.1684216290E-01    0.1059611027E-01    0.4231656119E-01    0.6291474672E+00
    0.4700000000E+04    0.6016550487E+00    0.1652495710E-01    0.1036228192E-01    0.4242477754E-01    0.6305661097E+00
    0.4900000000E+04    0.6030298287E+00    0.1622615064E-01    0.1014298543E-01    0.4252442899E-01    0.6318922026E+00
    0.1000000000E+04    0.4933111519E+00    0.3148532217E-01    0.2214602422E-01    0.3471381198E-01    0.5507541183E+00
    0.3000000000E+04    0.5828168037E+00    0.2008112670E-01    0.1303980492E-01    0.4106917478E-01    0.6140427998E+00
    0.5000000000E+04    0.6036765278E+00    0.1608309147E-01    0.1003833003E-01    0.4257135376E-01    0.6325235399E+00
    0.7000000000E+04    0.6127543602E+00    0.1386499948E-01    0.8444638478E-02    0.4323432248E-01    0.6420084352E+00
    0.9000000000E+04    0.6178001986E+00    0.1239594880E-01    0.7420300115E-02    0.4360802788E-01    0.6479620123E+00
    0.1100000000E+05    0.6210029473E+00    0.1132727581E-01    0.6691270209E-02    0.4384856053E-01    0.6521203297E+00
    0.1300000000E+05    0.6232130759E+00    0.1050308738E-01    0.6138438303E-02    0.4401685969E-01    0.6552251132E+00
    0.1500000000E+05    0.6248285804E+00    0.9841502696E-02    0.5700657986E-02    0.4414157985E-01    0.6576517878E+00
    0.1700000000E+05    0.6260601692E+00    0.9294716964E-02    0.5342892496E-02    0.4423796384E-01    0.6596127885E+00
    0.1900000000E+05    0.6270296931E+00    0.8832641455E-02    0.5043431359E-02    0.4431486847E-01    0.6612382626E+00
    0.2100000000E+05    0.6278124607E+00    0.8435240601E-02    0.4788008488E-02    0.4437779363E-01    0.6626128485E+00
    0.2300000000E+05    0.6284574970E+00    0.8088574690E-02    0.4566811165E-02    0.4443033672E-01    0.6637942131E+00
    0.2500000000E+05    0.6289980774E+00    0.7782597894E-02    0.4372838063E-02    0.4447495098E-01    0.6648231434E+00
    0.2700000000E+05    0.6294575745E+00    0.7509858538E-02    0.4200941499E-02    0.4451336773E-01    0.6657293872E+00
    0.2900000000E+05    0.6298528837E+00    0.7264694223E-02    0.4047240570E-02    0.4454684439E-01    0.6665352051E+00
    0.3100000000E+05    0.6301965187E+00    0.7042713181E-02    0.3908746541E-02    0.4457631666E-01    0.6672576221E+00
    0.3300000000E+05    0.6304979443E+00    0.6840448657E-02    0.3783115335E-02    0.4460249557E-01    0.6679099053E+00
    0.3500000000E+05    0.6307644507E+00    0.6655121898E-02    0.3668479102E-02    0.4462593135E-01    0.6685025628E+00
    0.3700000000E+05    0.6310017435E+00    0.6484475515E-02    0.3563328632E-02    0.4464705665E-01    0.6690440376E+00
    0.3900000000E+05    0.6312143516E+00    0.6326653765E-02    0.3466429427E-02    0.4466621647E-01    0.6695411997E+00
    0.4100000000E+05    0.6314059153E+00    0.6180114859E-02    0.3376760584E-02    0.4468368942E-01    0.6699997020E+00
    0.4300000000E+05    0.6315793941E+00    0.6043565644E-02    0.3293469529E-02    0.4469970303E-01    0.6704242435E+00
    0.4500000000E+05    0.6317372183E+00    0.5915912181E-02    0.3215837939E-02    0.4471444502E-01    0.6708187658E+00
    0.4700000000E+05    0.6318814022E+00    0.5796221855E-02    0.3143255741E-02    0.4472807170E-01    0.6711866025E+00
    0.4900000000E+05    0.6320136295E+00    0.5683693944E-02    0.3075201011E-02    0.4474071429E-01    0.6715305944E+00
    0.1000000000E+05    0.6195629383E+00    0.1182380308E-01    0.7028286121E-02    0.4374000137E-01    0.6502067135E+00
    0.3000000000E+05    0.6300305094E+00    0.7151040951E-02    0.3976252031E-02    0.4456203224E-01    0.6669059350E+00
    0.5000000000E+05    0.6320757115E+00    0.5629895943E-02    0.3042728507E-02    0.4474670194E-01    0.6716944240E+00
    0.7000000000E+05    0.6329395941E+00    0.4802592498E-02    0.2548695422E-02    0.4483452586E-01    0.6741624786E+00
    0.9000000000E+05    0.6334137476E+00    0.4262463250E-02    0.2231825591E-02    0.4488815506E-01    0.6757215861E+00
    0.1100000000E+06    0.6337121314E+00    0.3873906075E-02    0.2006861139E-02    0.4492536764E-01    0.6768174609E+00
    0.1300000000E+06    0.6339165017E+00    0.3576913443E-02    0.1836704909E-02    0.4495326853E-01    0.6776404757E+00
    0.1500000000E+06    0.6340648067E+00    0.3340259994E-02    0.1702295835E-02    0.4497529858E-01    0.6782871518E+00
    0.1700000000E+06    0.6341770414E+00    0.3145869006E-02    0.1592710533E-02    0.4499334589E-01    0.6788122435E+00
    0.1900000000E+06    0.6342647320E+00    0.2982449210E-02    0.1501183427E-02    0.4500854216E-01    0.6792493913E+00
    0.2100000000E+06    0.6343349847E+00    0.2842533190E-02    0.1423272531E-02    0.4502161188E-01    0.6796205371E+00
    0.2300000000E+06    0.6343924162E+00    0.2720957312E-02    0.1355925762E-02    0.4503304317E-01    0.6799406746E+00
    0.2500000000E+06    0.6344401540E+00    0.2614020869E-02    0.1296968097E-02    0.4504317859E-01    0.6802204391E+00
    0.2700000000E+06    0.6344803908E+00    0.2518992482E-02    0.1244802395E-02    0.4505226669E-01    0.6804676092E+00
    0.2900000000E+06    0.6345147090E+00    0.2433806019E-02    0.1198226116E-02    0.4506049287E-01    0.6806880214E+00
    0.3100000000E+06    0.6345442784E+00    0.2356865598E-02    0.1156314368E-02    0.4506799873E-01    0.6808861507E+00
    0.3300000000E+06    0.6345699822E+00    0.2286916227E-02    0.1118342681E-02    0.4507489459E-01    0.6810654933E+00
    0.3500000000E+06    0.6345924992E+00    0.2222955463E-02    0.1083734493E-02    0.4508126791E-01    0.6812288248E+00
    0.3700000000E+06    0.6346123598E+00    0.2164171554E-02    0.1052024511E-02    0.4508718908E-01    0.6813783803E+00
    0.3900000000E+06    0.6346299841E+00    0.2109899151E-02    0.1022832580E-02    0.4509271553E-01    0.6815159824E+00
    0.4100000000E+06    0.6346457091E+00    0.2059586990E-02    0.9958446819E-03    0.4509789467E-01    0.6816431342E+00
    0.4300000000E+06    0.6346598082E+00    0.2012773886E-02    0.9707988565E-03    0.4510276604E-01    0.6817610874E+00
    0.4500000000E+06    0.6346725054E+00    0.1969070631E-02    0.9474746278E-03    0.4510736295E-01    0.6818708941E+00
    0.4700000000E+06    0.6346839860E+00    0.1928146158E-02    0.9256849343E-03    0.4511171369E-01    0.6819734457E+00
    0.4900000000E+06    0.6346944044E+00    0.1889716812E-02    0.9052698980E-03    0.4511584250E-01    0.6820695031E+00
    0.1000000000E+06    0.6335782581E+00    0.4053961492E-02    0.2110786389E-02    0.4490824181E-01    0.6763123241E+00
    0.3000000000E+06    0.6345300266E+00    0.2394390288E-02    0.1176736442E-02    0.4506432833E-01    0.6807896334E+00
    0.5000000000E+06    0.6346992567E+00    0.1871360031E-02    0.8955341272E-03    0.4511783032E-01    0.6821153045E+00
    0.7000000000E+06    0.6347633251E+00    0.1590334180E-02    0.7478497165E-03    0.4514977340E-01    0.6828096992E+00
    0.9000000000E+06    0.6347942677E+00    0.1408108305E-02    0.6535686122E-03    0.4517245877E-01    0.6832530033E+00
    0.1100000000E+07    0.6348110037E+00    0.1277608827E-02    0.5868499200E-03    0.4519002117E-01    0.6835669911E+00
    0.1300000000E+07    0.6348205433E+00    0.1178185423E-02    0.5365078222E-03    0.4520433840E-01    0.6838042019E+00
    0.1500000000E+07    0.6348260362E+00    0.1099157599E-02    0.4968168699E-03    0.4521641840E-01    0.6839914818E+00
    0.1700000000E+07    0.6348290858E+00    0.1034370320E-02    0.4645057727E-03    0.4522686375E-01    0.6841441561E+00
    0.1900000000E+07    0.6348305835E+00    0.9799926394E-03    0.4375533074E-03    0.4523606299E-01    0.6842716900E+00
    0.2100000000E+07    0.6348310584E+00    0.9334982903E-03    0.4146350989E-03    0.4524428113E-01    0.6843802851E+00
    0.2300000000E+07    0.6348308407E+00    0.8931445799E-03    0.3948427250E-03    0.4525170689E-01    0.6844741954E+00
    0.2500000000E+07    0.6348301449E+00    0.8576850831E-03    0.3775297648E-03    0.4525847940E-01    0.6845564491E+00
    0.2700000000E+07    0.6348291147E+00    0.8262014644E-03    0.3622221569E-03    0.4526470415E-01    0.6846292675E+00
    0.2900000000E+07    0.6348278491E+00    0.7980001177E-03    0.3485633704E-03    0.4527046303E-01    0.6846943219E+00
    0.3100000000E+07    0.6348264177E+00    0.7725460233E-03    0.3362794703E-03    0.4527582084E-01    0.6847528971E+00
    0.3300000000E+07    0.6348248704E+00    0.7494189500E-03    0.3251560786E-03    0.4528082978E-01    0.6848059991E+00
    0.3500000000E+07    0.6348232434E+00    0.7282835942E-03    0.3150227248E-03    0.4528553247E-01    0.6848544282E+00
    0.3700000000E+07    0.6348215633E+00    0.7088686998E-03    0.3057419409E-03    0.4528996418E-01    0.6848988300E+00
    0.3900000000E+07    0.6348198499E+00    0.6909521303E-03    0.2972014902E-03    0.4529415443E-01    0.6849397321E+00
    0.4100000000E+07    0.6348181179E+00    0.6743499861E-03    0.2893087198E-03    0.4529812816E-01    0.6849775702E+00
    0.4300000000E+07    0.6348163785E+00    0.6589085324E-03    0.2819863831E-03    0.4530190664E-01    0.6850127076E+00
    0.4500000000E+07    0.6348146401E+00    0.6444981176E-03    0.2751695010E-03    0.4530550816E-01    0.6850454503E+00
    0.4700000000E+07    0.6348129090E+00    0.6310085260E-03    0.2688029704E-03    0.4530894854E-01    0.6850760578E+00
    0.4900000000E+07    0.6348111901E+00    0.6183453833E-03    0.2628397179E-03    0.4531224160E-01    0.6851047520E+00
    0.1000000000E+07    0.6348038364E+00    0.1338021274E-02    0.6176488294E-03    0.4518173376E-01    0.6834220031E+00
    0.3000000000E+07    0.6348271506E+00    0.7849582155E-03    0.3422641425E-03    0.4527318855E-01    0.6847243510E+00
    0.5000000000E+07    0.6348103363E+00    0.6122978645E-03    0.2599964447E-03    0.4531383672E-01    0.6851184423E+00
    0.7000000000E+07    0.6347943859E+00    0.5198241200E-03    0.2169101020E-03    0.4534029099E-01    0.6853266931E+00
    0.9000000000E+07    0.6347807151E+00    0.4599676733E-03    0.1894471559E-03    0.4535993814E-01    0.6854603446E+00
    0.1100000000E+08    0.6347689639E+00    0.4171520208E-03    0.1700331527E-03    0.4537557456E-01    0.6855553553E+00
    0.1300000000E+08    0.6347587175E+00    0.3845595889E-03    0.1553956237E-03    0.4538856386E-01    0.6856273306E+00
    0.1500000000E+08    0.6347496556E+00    0.3586697911E-03    0.1438618057E-03    0.4539967423E-01    0.6856842782E+00
    0.1700000000E+08    0.6347415419E+00    0.3374561167E-03    0.1344769134E-03    0.4540938142E-01    0.6857307848E+00
    0.1900000000E+08    0.6347342013E+00    0.3196583951E-03    0.1266514861E-03    0.4541800064E-01    0.6857696904E+00
    0.2100000000E+08    0.6347275016E+00    0.3044462365E-03    0.1199995395E-03    0.4542575150E-01    0.6858028600E+00
    0.2300000000E+08    0.6347213413E+00    0.2912471646E-03    0.1142564613E-03    0.4543279318E-01    0.6858315755E+00
    0.2500000000E+08    0.6347156407E+00    0.2796519408E-03    0.1092340442E-03    0.4543924473E-01    0.6858567506E+00
    0.2700000000E+08    0.6347103365E+00    0.2693591835E-03    0.1047943192E-03    0.4544519752E-01    0.6858790568E+00
