  Pressure (Pa) 22mC5-400 (mol/kg) 2mC6-400 (mol/kg) 33mC5-400 (mol/kg) 23mC5-400 (mol/kg) C7-400 (mol/kg)
    0.1000000000E+01    0.2648401476E-02    0.7934208527E-03    0.1938079917E-03    0.6510428791E-03    0.6838947813E-02
    0.3000000000E+01    0.7854029924E-02    0.2320478450E-02    0.5668711198E-03    0.1930734305E-02    0.2006982163E-01
    0.5000000000E+01    0.1294186164E-01    0.3772026164E-02    0.9215528123E-03    0.3181492226E-02    0.3273697036E-01
    0.7000000000E+01    0.1791622234E-01    0.5152748221E-02    0.1258992563E-02    0.4404378903E-02    0.4487626812E-01
    0.9000000000E+01    0.2278122462E-01    0.6466956227E-02    0.1580239081E-02    0.5600404262E-02    0.5652059578E-01
    0.1100000000E+02    0.2754078084E-01    0.7718625830E-02    0.1886259242E-02    0.6770529062E-02    0.6770014722E-01
    0.1300000000E+02    0.3219861509E-01    0.8911429090E-02    0.2177945984E-02    0.7915667843E-02    0.7844269857E-01
    0.1500000000E+02    0.3675827440E-01    0.1004876313E-01    0.2456125296E-02    0.9036691657E-02    0.8877384579E-01
    0.1700000000E+02    0.4122313905E-01    0.1113377556E-01    0.2721562425E-02    0.1013443062E-01    0.9871721477E-01
    0.1900000000E+02    0.4559643225E-01    0.1216938713E-01    0.2974967389E-02    0.1120967628E-01    0.1082946475E+00
    0.2100000000E+02    0.4988122914E-01    0.1315831185E-01    0.3216999900E-02    0.1226318382E-01    0.1175263677E+00
    0.2300000000E+02    0.5408046516E-01    0.1410307508E-01    0.3448273761E-02    0.1329567414E-01    0.1264311279E+00
    0.2500000000E+02    0.5819694393E-01    0.1500602969E-01    0.3669360808E-02    0.1430783573E-01    0.1350263415E+00
    0.2700000000E+02    0.6223334447E-01    0.1586937054E-01    0.3880794440E-02    0.1530032653E-01    0.1433282000E+00
    0.2900000000E+02    0.6619222814E-01    0.1669514755E-01    0.4083072810E-02    0.1627377556E-01    0.1513517787E+00
    0.3100000000E+02    0.7007604495E-01    0.1748527748E-01    0.4276661681E-02    0.1722878452E-01    0.1591111314E+00
    0.3300000000E+02    0.7388713959E-01    0.1824155454E-01    0.4461997027E-02    0.1816592922E-01    0.1666193758E+00
    0.3500000000E+02    0.7762775701E-01    0.1896566003E-01    0.4639487367E-02    0.1908576099E-01    0.1738887700E+00
    0.3700000000E+02    0.8130004769E-01    0.1965917103E-01    0.4809515890E-02    0.1998880799E-01    0.1809307821E+00
    0.3900000000E+02    0.8490607255E-01    0.2032356836E-01    0.4972442386E-02    0.2087557633E-01    0.1877561530E+00
    0.4100000000E+02    0.8844780758E-01    0.2096024372E-01    0.5128604995E-02    0.2174655132E-01    0.1943749532E+00
    0.4300000000E+02    0.9192714818E-01    0.2157050632E-01    0.5278321806E-02    0.2260219846E-01    0.2007966345E+00
    0.4500000000E+02    0.9534591324E-01    0.2215558878E-01    0.5421892310E-02    0.2344296444E-01    0.2070300768E+00
    0.4700000000E+02    0.9870584898E-01    0.2271665268E-01    0.5559598733E-02    0.2426927814E-01    0.2130836307E+00
    0.4900000000E+02    0.1020086325E+00    0.2325479352E-01    0.5691707252E-02    0.2508155146E-01    0.2189651569E+00
    0.1000000000E+02    0.2517394646E-01    0.7100372063E-02    0.1735095001E-02    0.6188646023E-02    0.6216667878E-01
    0.3000000000E+02    0.6814337096E-01    0.1709455351E-01    0.4180925515E-02    0.1675354847E-01    0.1552636424E+00
    0.5000000000E+02    0.1036390983E+00    0.2351559320E-01    0.5755741366E-02    0.2548254726E-01    0.2218437408E+00
    0.7000000000E+02    0.1336082133E+00    0.2775074511E-01    0.6796631475E-02    0.3285383067E-01    0.2719731264E+00
    0.9000000000E+02    0.1593577976E+00    0.3057559037E-01    0.7492105900E-02    0.3918842416E-01    0.3111757701E+00
    0.1100000000E+03    0.1817990812E+00    0.3245505740E-01    0.7955280836E-02    0.4471014102E-01    0.3427393146E+00
    0.1300000000E+03    0.2015879610E+00    0.3368259005E-01    0.8257667419E-02    0.4958008802E-01    0.3687448901E+00
    0.1500000000E+03    0.2192096641E+00    0.3445087629E-01    0.8446326438E-02    0.5391745585E-01    0.3905753816E+00
    0.1700000000E+03    0.2350317791E+00    0.3489046318E-01    0.8553228000E-02    0.5781254269E-01    0.4091864420E+00
    0.1900000000E+03    0.2493386092E+00    0.3509205626E-01    0.8600655149E-02    0.6133519060E-01    0.4252602012E+00
    0.2100000000E+03    0.2623540841E+00    0.3511999300E-01    0.8604469175E-02    0.6454041276E-01    0.4392969612E+00
    0.2300000000E+03    0.2742574430E+00    0.3502069270E-01    0.8576158474E-02    0.6747224505E-01    0.4516722524E+00
    0.2500000000E+03    0.2851942175E+00    0.3482812392E-01    0.8524165426E-02    0.7016644360E-01    0.4626736284E+00
    0.2700000000E+03    0.2952840835E+00    0.3456743750E-01    0.8454769150E-02    0.7265241339E-01    0.4725251341E+00
    0.2900000000E+03    0.3046265809E+00    0.3425743648E-01    0.8372686578E-02    0.7495461294E-01    0.4814040168E+00
    0.3100000000E+03    0.3133053495E+00    0.3391228892E-01    0.8281490078E-02    0.7709359493E-01    0.4894524091E+00
    0.3300000000E+03    0.3213913166E+00    0.3354273663E-01    0.8183902805E-02    0.7908678899E-01    0.4967856675E+00
    0.3500000000E+03    0.3289451279E+00    0.3315696132E-01    0.8082010855E-02    0.8094909891E-01    0.5034984353E+00
    0.3700000000E+03    0.3360190270E+00    0.3276121375E-01    0.7977417806E-02    0.8269336435E-01    0.5096691229E+00
    0.3900000000E+03    0.3426583256E+00    0.3236027631E-01    0.7871358673E-02    0.8433072186E-01    0.5153632698E+00
    0.4100000000E+03    0.3489025660E+00    0.3195780692E-01    0.7764784885E-02    0.8587089052E-01    0.5206361003E+00
    0.4300000000E+03    0.3547864498E+00    0.3155659700E-01    0.7658428283E-02    0.8732240009E-01    0.5255344918E+00
    0.4500000000E+03    0.3603405875E+00    0.3115876691E-01    0.7552849741E-02    0.8869277508E-01    0.5300985066E+00
    0.4700000000E+03    0.3655921079E+00    0.3076591497E-01    0.7448476415E-02    0.8998868454E-01    0.5343625966E+00
    0.4900000000E+03    0.3705651586E+00    0.3037923208E-01    0.7345630481E-02    0.9121606494E-01    0.5383565606E+00
    0.1000000000E+03    0.1709461885E+00    0.3161217889E-01    0.7747539065E-02    0.4203964539E-01    0.3277616301E+00
    0.3000000000E+03    0.3090442320E+00    0.3408851587E-01    0.8328040287E-02    0.7604335135E-01    0.4855242671E+00
    0.5000000000E+03    0.3729540919E+00    0.3018848698E-01    0.7294857858E-02    0.9180573694E-01    0.5402604770E+00
    0.7000000000E+03    0.4103137886E+00    0.2680415435E-01    0.6390130489E-02    0.1010342747E+00    0.5689658584E+00
    0.9000000000E+03    0.4347653633E+00    0.2419883634E-01    0.5690337545E-02    0.1070835833E+00    0.5869453788E+00
    0.1100000000E+04    0.4519475425E+00    0.2218107236E-01    0.5148284812E-02    0.1113410361E+00    0.5993951157E+00
    0.1300000000E+04    0.4646422182E+00    0.2058086767E-01    0.4719674978E-02    0.1144914803E+00    0.6085924645E+00
    0.1500000000E+04    0.4743809466E+00    0.1928048870E-01    0.4373074912E-02    0.1169121596E+00    0.6157021601E+00
    0.1700000000E+04    0.4820747034E+00    0.1820063016E-01    0.4086990369E-02    0.1188275798E+00    0.6213854857E+00
    0.1900000000E+04    0.4882980059E+00    0.1728714088E-01    0.3846598334E-02    0.1203794032E+00    0.6260474467E+00
    0.2100000000E+04    0.4934303489E+00    0.1650216642E-01    0.3641469235E-02    0.1216612538E+00    0.6299508064E+00
    0.2300000000E+04    0.4977320402E+00    0.1581857836E-01    0.3464098505E-02    0.1227373848E+00    0.6332739566E+00
    0.2500000000E+04    0.5013873271E+00    0.1521647083E-01    0.3308967477E-02    0.1236532994E+00    0.6361425347E+00
    0.2700000000E+04    0.5045301327E+00    0.1468091929E-01    0.3171935221E-02    0.1244420895E+00    0.6386477452E+00
    0.2900000000E+04    0.5072600456E+00    0.1420051464E-01    0.3049837097E-02    0.1251283764E+00    0.6408575040E+00
    0.3100000000E+04    0.5096526019E+00    0.1376638217E-01    0.2940214203E-02    0.1257308447E+00    0.6428234927E+00
    0.3300000000E+04    0.5117660959E+00    0.1337151029E-01    0.2841127271E-02    0.1262639216E+00    0.6445857827E+00
    0.3500000000E+04    0.5136462091E+00    0.1301028146E-01    0.2751026120E-02    0.1267389191E+00    0.6461759533E+00
    0.3700000000E+04    0.5153292302E+00    0.1267813822E-01    0.2668656430E-02    0.1271648279E+00    0.6476192512E+00
    0.3900000000E+04    0.5168443398E+00    0.1237134104E-01    0.2592992020E-02    0.1275488818E+00    0.6489361182E+00
    0.4100000000E+04    0.5182152620E+00    0.1208678994E-01    0.2523184899E-02    0.1278969646E+00    0.6501432944E+00
    0.4300000000E+04    0.5194614771E+00    0.1182189106E-01    0.2458527891E-02    0.1282139108E+00    0.6512546290E+00
    0.4500000000E+04    0.5205991259E+00    0.1157445560E-01    0.2398426306E-02    0.1285037280E+00    0.6522816854E+00
    0.4700000000E+04    0.5216416934E+00    0.1134262221E-01    0.2342376195E-02    0.1287697661E+00    0.6532341990E+00
    0.4900000000E+04    0.5226005310E+00    0.1112479667E-01    0.2289947486E-02    0.1290148467E+00    0.6541204293E+00
    0.1000000000E+04    0.4440505485E+00    0.2312845974E-01    0.5402675901E-02    0.1093834748E+00    0.5936814361E+00
    0.3000000000E+04    0.5084945084E+00    0.1397813998E-01    0.2993597881E-02    0.1254391018E+00    0.6418682353E+00
    0.5000000000E+04    0.5230516163E+00    0.1102069986E-01    0.2264973647E-02    0.1291302903E+00    0.6545409340E+00
    0.7000000000E+04    0.5293897587E+00    0.9422222963E-02    0.1888352433E-02    0.1307651617E+00    0.6607447476E+00
    0.9000000000E+04    0.5329209140E+00    0.8379143277E-02    0.1649859420E-02    0.1316915217E+00    0.6645249092E+00
    0.1100000000E+05    0.5351662468E+00    0.7627886008E-02    0.1481795315E-02    0.1322905037E+00    0.6671099487E+00
    0.1300000000E+05    0.5367173543E+00    0.7052718742E-02    0.1355266792E-02    0.1327112091E+00    0.6690091460E+00
    0.1500000000E+05    0.5378516747E+00    0.6593626105E-02    0.1255625899E-02    0.1330239678E+00    0.6704745319E+00
    0.1700000000E+05    0.5387164161E+00    0.6215908901E-02    0.1174558118E-02    0.1332663125E+00    0.6716461993E+00
    0.1900000000E+05    0.5393968799E+00    0.5897896468E-02    0.1106949696E-02    0.1334601164E+00    0.6726087273E+00
    0.2100000000E+05    0.5399458794E+00    0.5625250860E-02    0.1049460859E-02    0.1336189996E+00    0.6734164449E+00
    0.2300000000E+05    0.5403978475E+00    0.5388050160E-02    0.9998061793E-03    0.1337518924E+00    0.6741059765E+00
    0.2500000000E+05    0.5407761847E+00    0.5179177005E-02    0.9563621760E-03    0.1338648984E+00    0.6747029866E+00
    0.2700000000E+05    0.5410973457E+00    0.4993373130E-02    0.9179397502E-03    0.1339623336E+00    0.6752260400E+00
    0.2900000000E+05    0.5413732351E+00    0.4826656957E-02    0.8836454326E-03    0.1340473382E+00    0.6756889272E+00
    0.3100000000E+05    0.5416126770E+00    0.4675950031E-02    0.8527932013E-03    0.1341222527E+00    0.6761021255E+00
    0.3300000000E+05    0.5418223493E+00    0.4538829104E-02    0.8248464419E-03    0.1341888584E+00    0.6764737506E+00
    0.3500000000E+05    0.5420073980E+00    0.4413356742E-02    0.7993785884E-03    0.1342485356E+00    0.6768101952E+00
    0.3700000000E+05    0.5421718520E+00    0.4297962631E-02    0.7760457319E-03    0.1343023710E+00    0.6771165697E+00
    0.3900000000E+05    0.5423189104E+00    0.4191358551E-02    0.7545671235E-03    0.1343512321E+00    0.6773970129E+00
    0.4100000000E+05    0.5424511447E+00    0.4092476278E-02    0.7347110153E-03    0.1343958203E+00    0.6776549158E+00
    0.4300000000E+05    0.5425706461E+00    0.4000421433E-02    0.7162841962E-03    0.1344367088E+00    0.6778930857E+00
    0.4500000000E+05    0.5426791315E+00    0.3914438656E-02    0.6991241338E-03    0.1344743712E+00    0.6781138687E+00
    0.4700000000E+05    0.5427780243E+00    0.3833884955E-02    0.6830929885E-03    0.1345092020E+00    0.6783192417E+00
    0.4900000000E+05    0.5428685140E+00    0.3758209049E-02    0.6680729960E-03    0.1345415327E+00    0.6785108842E+00
    0.1000000000E+05    0.5341563211E+00    0.7976158107E-02    0.1559316311E-02    0.1320198591E+00    0.6659261295E+00
    0.3000000000E+05    0.5414970527E+00    0.4749466862E-02    0.8678255639E-03    0.1340859344E+00    0.6759011836E+00
    0.5000000000E+05    0.5429109269E+00    0.3722049015E-02    0.6609099662E-03    0.1345568499E+00    0.6786020135E+00
    0.7000000000E+05    0.5434945325E+00    0.3167545607E-02    0.5522323625E-03    0.1347818954E+00    0.6799636246E+00
    0.9000000000E+05    0.5438065608E+00    0.2807064889E-02    0.4828191417E-03    0.1349196596E+00    0.6808127683E+00
    0.1100000000E+06    0.5439974128E+00    0.2548470897E-02    0.4336744538E-03    0.1350153940E+00    0.6814044483E+00
    0.1300000000E+06    0.5441242159E+00    0.2351215487E-02    0.3965767696E-03    0.1350872419E+00    0.6818459842E+00
    0.1500000000E+06    0.5442133032E+00    0.2194279134E-02    0.3673172020E-03    0.1351440092E+00    0.6821912165E+00
    0.1700000000E+06    0.5442784456E+00    0.2065527754E-02    0.3434903251E-03    0.1351905354E+00    0.6824704415E+00
    0.1900000000E+06    0.5443275179E+00    0.1957398778E-02    0.3236094769E-03    0.1352297250E+00    0.6827021529E+00
    0.2100000000E+06    0.5443653351E+00    0.1864899700E-02    0.3067002679E-03    0.1352634389E+00    0.6828983489E+00
    0.2300000000E+06    0.5443949985E+00    0.1784583403E-02    0.2920941587E-03    0.1352929321E+00    0.6830671916E+00
    0.2500000000E+06    0.5444185902E+00    0.1713982502E-02    0.2793153053E-03    0.1353190856E+00    0.6832144482E+00
    0.2700000000E+06    0.5444375571E+00    0.1651277880E-02    0.2680146589E-03    0.1353425391E+00    0.6833443228E+00
    0.2900000000E+06    0.5444529334E+00    0.1595094791E-02    0.2579296503E-03    0.1353637701E+00    0.6834599604E+00
    0.3100000000E+06    0.5444654764E+00    0.1544372270E-02    0.2488584976E-03    0.1353831432E+00    0.6835637660E+00
    0.3300000000E+06    0.5444757523E+00    0.1498276606E-02    0.2406432590E-03    0.1354009426E+00    0.6836576144E+00
    0.3500000000E+06    0.5444841920E+00    0.1456142309E-02    0.2331583196E-03    0.1354173939E+00    0.6837429905E+00
    0.3700000000E+06    0.5444911289E+00    0.1417430809E-02    0.2263023661E-03    0.1354326784E+00    0.6838210880E+00
    0.3900000000E+06    0.5444968241E+00    0.1381700919E-02    0.2199926682E-03    0.1354469442E+00    0.6838928785E+00
    0.4100000000E+06    0.5445014849E+00    0.1348587280E-02    0.2141609211E-03    0.1354603137E+00    0.6839591620E+00
    0.4300000000E+06    0.5445052779E+00    0.1317784381E-02    0.2087501700E-03    0.1354728887E+00    0.6840206036E+00
    0.4500000000E+06    0.5445083377E+00    0.1289034504E-02    0.2037124990E-03    0.1354847552E+00    0.6840777617E+00
    0.4700000000E+06    0.5445107748E+00    0.1262118513E-02    0.1990072701E-03    0.1354959862E+00    0.6841311088E+00
    0.4900000000E+06    0.5445126800E+00    0.1236848729E-02    0.1945997629E-03    0.1355066443E+00    0.6841810478E+00
    0.1000000000E+06    0.5439124773E+00    0.2668227479E-02    0.4563635850E-03    0.1349713218E+00    0.6811322496E+00
    0.3000000000E+06    0.5444595199E+00    0.1569107596E-02    0.2532780851E-03    0.1353736695E+00    0.6835132145E+00
    0.5000000000E+06    0.5445134573E+00    0.1224779716E-02    0.1924981571E-03    0.1355117756E+00    0.6842048493E+00
    0.7000000000E+06    0.5445140450E+00    0.1040154529E-02    0.1606420065E-03    0.1355942273E+00    0.6845649302E+00
    0.9000000000E+06    0.5445019909E+00    0.9205767513E-03    0.1403282623E-03    0.1356527732E+00    0.6847940948E+00
    0.1100000000E+07    0.5444864679E+00    0.8350080188E-03    0.1259639042E-03    0.1356980901E+00    0.6849561082E+00
    0.1300000000E+07    0.5444702913E+00    0.7698522843E-03    0.1151312908E-03    0.1357350277E+00    0.6850783572E+00
    0.1500000000E+07    0.5444544476E+00    0.7180846888E-03    0.1065941645E-03    0.1357661891E+00    0.6851747934E+00
    0.1700000000E+07    0.5444392875E+00    0.6756599592E-03    0.9964669346E-04    0.1357931305E+00    0.6852533636E+00
    0.1900000000E+07    0.5444249150E+00    0.6400617803E-03    0.9385301798E-04    0.1358168553E+00    0.6853189679E+00
    0.2100000000E+07    0.5444113335E+00    0.6096316050E-03    0.8892768098E-04    0.1358380478E+00    0.6853748125E+00
    0.2300000000E+07    0.5443985054E+00    0.5832257809E-03    0.8467495663E-04    0.1358571953E+00    0.6854230944E+00
    0.2500000000E+07    0.5443863782E+00    0.5600266157E-03    0.8095561529E-04    0.1358746571E+00    0.6854653762E+00
    0.2700000000E+07    0.5443748957E+00    0.5394318328E-03    0.7766758034E-04    0.1358907053E+00    0.6855028034E+00
    0.2900000000E+07    0.5443640038E+00    0.5209866598E-03    0.7473410152E-04    0.1359055515E+00    0.6855362374E+00
    0.3100000000E+07    0.5443536520E+00    0.5043403844E-03    0.7209622208E-04    0.1359193629E+00    0.6855663398E+00
    0.3300000000E+07    0.5443437943E+00    0.4892175964E-03    0.6970781243E-04    0.1359322743E+00    0.6855936286E+00
    0.3500000000E+07    0.5443343892E+00    0.4753985863E-03    0.6753219749E-04    0.1359443956E+00    0.6856185158E+00
    0.3700000000E+07    0.5443253997E+00    0.4627056419E-03    0.6553980713E-04    0.1359558179E+00    0.6856413334E+00
    0.3900000000E+07    0.5443167925E+00    0.4509932536E-03    0.6370650221E-04    0.1359666173E+00    0.6856623528E+00
    0.4100000000E+07    0.5443085380E+00    0.4401409760E-03    0.6201235826E-04    0.1359768583E+00    0.6856817981E+00
    0.4300000000E+07    0.5443006093E+00    0.4300481333E-03    0.6044076588E-04    0.1359865956E+00    0.6856998562E+00
    0.4500000000E+07    0.5442929827E+00    0.4206298307E-03    0.5897775508E-04    0.1359958766E+00    0.6857166842E+00
    0.4700000000E+07    0.5442856367E+00    0.4118139086E-03    0.5761148035E-04    0.1360047420E+00    0.6857324155E+00
    0.4900000000E+07    0.5442785518E+00    0.4035385849E-03    0.5633182337E-04    0.1360132275E+00    0.6857471642E+00
    0.1000000000E+07    0.5444944194E+00    0.8746137912E-03    0.1325937175E-03    0.1356767067E+00    0.6848813256E+00
    0.3000000000E+07    0.5443587634E+00    0.5124573732E-03    0.7338135001E-04    0.1359125775E+00    0.6855516698E+00
    0.5000000000E+07    0.5442751017E+00    0.3995867159E-03    0.5572170906E-04    0.1360173377E+00    0.6857542012E+00
    0.7000000000E+07    0.5442163427E+00    0.3391711872E-03    0.4647814070E-04    0.1360854929E+00    0.6858612770E+00
    0.9000000000E+07    0.5441711321E+00    0.3000785321E-03    0.4058828461E-04    0.1361360992E+00    0.6859300429E+00
    0.1100000000E+08    0.5441344007E+00    0.2721215964E-03    0.3642555935E-04    0.1361763682E+00    0.6859789605E+00
    0.1300000000E+08    0.5441034707E+00    0.2508434912E-03    0.3328749880E-04    0.1362098156E+00    0.6860160412E+00
    0.1500000000E+08    0.5440767588E+00    0.2339433516E-03    0.3081512907E-04    0.1362384216E+00    0.6860453968E+00
    0.1700000000E+08    0.5440532519E+00    0.2200970483E-03    0.2880359687E-04    0.1362634127E+00    0.6860693829E+00
    0.1900000000E+08    0.5440322626E+00    0.2084813230E-03    0.2712645183E-04    0.1362856010E+00    0.6860894585E+00
    0.2100000000E+08    0.5440133033E+00    0.1985537653E-03    0.2570090429E-04    0.1363055526E+00    0.6861065820E+00
    0.2300000000E+08    0.5439960157E+00    0.1899404779E-03    0.2447020402E-04    0.1363236776E+00    0.6861214122E+00
    0.2500000000E+08    0.5439801285E+00    0.1823742043E-03    0.2339399095E-04    0.1363402827E+00    0.6861344190E+00
    0.2700000000E+08    0.5439654316E+00    0.1756581420E-03    0.2244268085E-04    0.1363556034E+00    0.6861459477E+00
