  Pressure (Pa) 22mC5-400 (mol/kg) 2mC6-400 (mol/kg) 33mC5-400 (mol/kg) 23mC5-400 (mol/kg) C7-400 (mol/kg)
    0.1000000000E+01    0.2643788013E-02    0.2389354420E-02    0.1296883707E-03    0.8355977734E-03    0.1719428213E-02
    0.3000000000E+01    0.7813897815E-02    0.7040567045E-02    0.3821165463E-03    0.2469695146E-02    0.5101851580E-02
    0.5000000000E+01    0.1283405986E-01    0.1152879040E-01    0.6256605061E-03    0.4056435668E-02    0.8411226433E-02
    0.7000000000E+01    0.1771180114E-01    0.1586195343E-01    0.8607509983E-03    0.5598196124E-02    0.1165007926E-01
    0.9000000000E+01    0.2245413993E-01    0.2004747858E-01    0.1087791320E-02    0.7097192682E-02    0.1482081939E-01
    0.1100000000E+02    0.2706762803E-01    0.2409232201E-01    0.1307159495E-02    0.8555494216E-02    0.1792574577E-01
    0.1300000000E+02    0.3155838878E-01    0.2800300996E-01    0.1519210239E-02    0.9975034332E-02    0.2096705322E-01
    0.1500000000E+02    0.3593215156E-01    0.3178567181E-01    0.1724276753E-02    0.1135762224E-01    0.2394683830E-01
    0.1700000000E+02    0.4019428294E-01    0.3544607003E-01    0.1922672340E-02    0.1270495258E-01    0.2686710482E-01
    0.1900000000E+02    0.4434981496E-01    0.3898962746E-01    0.2114691890E-02    0.1401861440E-01    0.2972976892E-01
    0.2100000000E+02    0.4840347081E-01    0.4242145223E-01    0.2300613218E-02    0.1530009919E-01    0.3253666381E-01
    0.2300000000E+02    0.5235968821E-01    0.4574636037E-01    0.2480698301E-02    0.1655080833E-01    0.3528954431E-01
    0.2500000000E+02    0.5622264068E-01    0.4896889664E-01    0.2655194395E-02    0.1777205977E-01    0.3799009095E-01
    0.2700000000E+02    0.5999625696E-01    0.5209335345E-01    0.2824335067E-02    0.1896509417E-01    0.4063991393E-01
    0.2900000000E+02    0.6368423874E-01    0.5512378831E-01    0.2988341136E-02    0.2013108048E-01    0.4324055680E-01
    0.3100000000E+02    0.6729007687E-01    0.5806403975E-01    0.3147421539E-02    0.2127112110E-01    0.4579349982E-01
    0.3300000000E+02    0.7081706625E-01    0.6091774202E-01    0.3301774123E-02    0.2238625655E-01    0.4830016330E-01
    0.3500000000E+02    0.7426831941E-01    0.6368833858E-01    0.3451586381E-02    0.2347746976E-01    0.5076191053E-01
    0.3700000000E+02    0.7764677901E-01    0.6637909453E-01    0.3597036121E-02    0.2454569001E-01    0.5318005070E-01
    0.3900000000E+02    0.8095522937E-01    0.6899310809E-01    0.3738292090E-02    0.2559179661E-01    0.5555584153E-01
    0.4100000000E+02    0.8419630700E-01    0.7153332117E-01    0.3875514548E-02    0.2661662218E-01    0.5789049184E-01
    0.4300000000E+02    0.8737251037E-01    0.7400252916E-01    0.4008855795E-02    0.2762095573E-01    0.6018516387E-01
    0.4500000000E+02    0.9048620888E-01    0.7640338997E-01    0.4138460666E-02    0.2860554555E-01    0.6244097556E-01
    0.4700000000E+02    0.9353965113E-01    0.7873843242E-01    0.4264466983E-02    0.2957110176E-01    0.6465900264E-01
    0.4900000000E+02    0.9653497261E-01    0.8101006405E-01    0.4387005976E-02    0.3051829878E-01    0.6684028061E-01
    0.1000000000E+02    0.2477659799E-01    0.2208706795E-01    0.1198411732E-02    0.7831306439E-02    0.1638136976E-01
    0.3000000000E+02    0.6549721540E-01    0.5660495519E-01    0.3068484429E-02    0.2070427757E-01    0.4452290065E-01
    0.5000000000E+02    0.9801147623E-01    0.8212282176E-01    0.4447014530E-02    0.3098521414E-01    0.6791745175E-01
    0.7000000000E+02    0.1249335676E+00    0.1015523588E+00    0.5492607316E-02    0.3949968328E-01    0.8775556420E-01
    0.9000000000E+02    0.1478328462E+00    0.1166838534E+00    0.6302936723E-02    0.4674331872E-01    0.1048543750E+00
    0.1100000000E+03    0.1677117626E+00    0.1286791291E+00    0.6941484728E-02    0.5303272874E-01    0.1197941408E+00
    0.1300000000E+03    0.1852434394E+00    0.1383246883E+00    0.7451287369E-02    0.5858051709E-01    0.1329988025E+00
    0.1500000000E+03    0.2008988661E+00    0.1461713504E+00    0.7862525254E-02    0.6353544982E-01    0.1447856726E+00
    0.1700000000E+03    0.2150192040E+00    0.1526157941E+00    0.8196960705E-02    0.6800528931E-01    0.1553972425E+00
    0.1900000000E+03    0.2278589773E+00    0.1579504408E+00    0.8470654944E-02    0.7207043439E-01    0.1650222033E+00
    0.2100000000E+03    0.2396129701E+00    0.1623951714E+00    0.8695697561E-02    0.7579241525E-01    0.1738097284E+00
    0.2300000000E+03    0.2504335857E+00    0.1661181641E+00    0.8881343877E-02    0.7921937594E-01    0.1818794150E+00
    0.2500000000E+03    0.2604424010E+00    0.1692499711E+00    0.9034784123E-02    0.8238972374E-01    0.1893283533E+00
    0.2700000000E+03    0.2697380687E+00    0.1718932625E+00    0.9161676392E-02    0.8533462496E-01    0.1962362495E+00
    0.2900000000E+03    0.2784018525E+00    0.1741297145E+00    0.9266523828E-02    0.8807975330E-01    0.2026692023E+00
    0.3100000000E+03    0.2865015885E+00    0.1760249716E+00    0.9352946608E-02    0.9064654106E-01    0.2086825302E+00
    0.3300000000E+03    0.2940945757E+00    0.1776322804E+00    0.9423881357E-02    0.9305309217E-01    0.2143229163E+00
    0.3500000000E+03    0.3012297229E+00    0.1789951907E+00    0.9481729540E-02    0.9531486020E-01    0.2196300575E+00
    0.3700000000E+03    0.3079491679E+00    0.1801495908E+00    0.9528469370E-02    0.9744515994E-01    0.2246379470E+00
    0.3900000000E+03    0.3142895184E+00    0.1811252583E+00    0.9565741232E-02    0.9945555917E-01    0.2293758811E+00
    0.4100000000E+03    0.3202828141E+00    0.1819470571E+00    0.9594913609E-02    0.1013561828E+00    0.2338692594E+00
    0.4300000000E+03    0.3259572843E+00    0.1826358678E+00    0.9617134460E-02    0.1031559520E+00    0.2381402238E+00
    0.4500000000E+03    0.3313379493E+00    0.1832093201E+00    0.9633371646E-02    0.1048627741E+00    0.2422081762E+00
    0.4700000000E+03    0.3364471045E+00    0.1836823723E+00    0.9644444993E-02    0.1064836958E+00    0.2460901981E+00
    0.4900000000E+03    0.3413047133E+00    0.1840677748E+00    0.9651051920E-02    0.1080250269E+00    0.2498013957E+00
    0.1000000000E+03    0.1581019095E+00    0.1230175771E+00    0.6640623748E-02    0.4999216035E-01    0.1125646714E+00
    0.3000000000E+03    0.2825184265E+00    0.1751164094E+00    0.9311840686E-02    0.8938423914E-01    0.2057252207E+00
    0.5000000000E+03    0.3436448693E+00    0.1842310813E+00    0.9652870114E-02    0.1087676418E+00    0.2515971868E+00
    0.7000000000E+03    0.3807846517E+00    0.1848543396E+00    0.9561039084E-02    0.1205614041E+00    0.2811265921E+00
    0.9000000000E+03    0.4055793579E+00    0.1830705905E+00    0.9364662026E-02    0.1284460229E+00    0.3026537984E+00
    0.1100000000E+04    0.4231643936E+00    0.1805255217E+00    0.9147529633E-02    0.1340459644E+00    0.3195001942E+00
    0.1300000000E+04    0.4362005774E+00    0.1777698811E+00    0.8934628675E-02    0.1382033679E+00    0.3332951681E+00
    0.1500000000E+04    0.4462021220E+00    0.1750109757E+00    0.8733470556E-02    0.1413977236E+00    0.3449506792E+00
    0.1700000000E+04    0.4540895328E+00    0.1723306457E+00    0.8545744938E-02    0.1439206661E+00    0.3550258828E+00
    0.1900000000E+04    0.4604516153E+00    0.1697599803E+00    0.8371119374E-02    0.1459588333E+00    0.3638873286E+00
    0.2100000000E+04    0.4656808242E+00    0.1673081607E+00    0.8208596676E-02    0.1476366865E+00    0.3717879032E+00
    0.2300000000E+04    0.4700478450E+00    0.1649746119E+00    0.8057023854E-02    0.1490401119E+00    0.3789092461E+00
    0.2500000000E+04    0.4737448655E+00    0.1627544587E+00    0.7915282905E-02    0.1502301195E+00    0.3853861362E+00
    0.2700000000E+04    0.4769117790E+00    0.1606410849E+00    0.7782356376E-02    0.1512511405E+00    0.3913212971E+00
    0.2900000000E+04    0.4796526384E+00    0.1586273633E+00    0.7657342746E-02    0.1521362396E+00    0.3967947970E+00
    0.3100000000E+04    0.4820463189E+00    0.1567062469E+00    0.7539452134E-02    0.1529104933E+00    0.4018702457E+00
    0.3300000000E+04    0.4841536194E+00    0.1548710427E+00    0.7427995110E-02    0.1535932412E+00    0.4065990113E+00
    0.3500000000E+04    0.4860221080E+00    0.1531155260E+00    0.7322369906E-02    0.1541996219E+00    0.4110231690E+00
    0.3700000000E+04    0.4876895004E+00    0.1514339728E+00    0.7222050216E-02    0.1547416448E+00    0.4151776139E+00
    0.3900000000E+04    0.4891860618E+00    0.1498211505E+00    0.7126574308E-02    0.1552289517E+00    0.4190916056E+00
    0.4100000000E+04    0.4905363430E+00    0.1482722904E+00    0.7035535640E-02    0.1556693681E+00    0.4227899188E+00
    0.4300000000E+04    0.4917604572E+00    0.1467830512E+00    0.6948574887E-02    0.1560693085E+00    0.4262937148E+00
    0.4500000000E+04    0.4928750305E+00    0.1453494802E+00    0.6865373223E-02    0.1564340779E+00    0.4296212111E+00
    0.4700000000E+04    0.4938939203E+00    0.1439679759E+00    0.6785646673E-02    0.1567681004E+00    0.4327882025E+00
    0.4900000000E+04    0.4948287642E+00    0.1426352530E+00    0.6709141359E-02    0.1570750932E+00    0.4358084721E+00
    0.1000000000E+04    0.4150701337E+00    0.1818463209E+00    0.9256478743E-02    0.1314673549E+00    0.3115367402E+00
    0.3000000000E+04    0.4808887179E+00    0.1576556580E+00    0.7597552357E-02    0.1525358997E+00    0.3993788198E+00
    0.5000000000E+04    0.4952678051E+00    0.1419862362E+00    0.6672024561E-02    0.1572194557E+00    0.4372674254E+00
    0.7000000000E+04    0.5013803163E+00    0.1309606155E+00    0.6054144096E-02    0.1592456082E+00    0.4610336842E+00
    0.9000000000E+04    0.5047334281E+00    0.1225748554E+00    0.5598151459E-02    0.1603767769E+00    0.4780748580E+00
    0.1100000000E+05    0.5068423326E+00    0.1158731151E+00    0.5241164442E-02    0.1611008001E+00    0.4912014213E+00
    0.1300000000E+05    0.5082871693E+00    0.1103319544E+00    0.4950535810E-02    0.1616055809E+00    0.5017807301E+00
    0.1500000000E+05    0.5093368240E+00    0.1056353084E+00    0.4707221771E-02    0.1619787293E+00    0.5105789860E+00
    0.1700000000E+05    0.5101326620E+00    0.1015784195E+00    0.4499187715E-02    0.1622665806E+00    0.5180673376E+00
    0.1900000000E+05    0.5107559947E+00    0.9802143673E-01    0.4318369108E-02    0.1624959448E+00    0.5245553452E+00
    0.2100000000E+05    0.5112568567E+00    0.9486482564E-01    0.4159113433E-02    0.1626834177E+00    0.5302567918E+00
    0.2300000000E+05    0.5116677010E+00    0.9203536971E-01    0.4017315189E-02    0.1628398276E+00    0.5353251786E+00
    0.2500000000E+05    0.5120104847E+00    0.8947773529E-01    0.3889904920E-02    0.1629725441E+00    0.5398742296E+00
    0.2700000000E+05    0.5123005875E+00    0.8714914879E-01    0.3774531979E-02    0.1630867599E+00    0.5439903986E+00
    0.2900000000E+05    0.5125490982E+00    0.8501590648E-01    0.3669359337E-02    0.1631862412E+00    0.5477408432E+00
    0.3100000000E+05    0.5127642113E+00    0.8305101090E-01    0.3572926238E-02    0.1632737876E+00    0.5511786984E+00
    0.3300000000E+05    0.5129521109E+00    0.8123252534E-01    0.3484053561E-02    0.1633515242E+00    0.5543466751E+00
    0.3500000000E+05    0.5131175507E+00    0.7954240043E-01    0.3401776937E-02    0.1634210944E+00    0.5572795819E+00
    0.3700000000E+05    0.5132642442E+00    0.7796561993E-01    0.3325298444E-02    0.1634837894E+00    0.5600061322E+00
    0.3900000000E+05    0.5133951333E+00    0.7648956711E-01    0.3253951048E-02    0.1635406382E+00    0.5625502677E+00
    0.4100000000E+05    0.5135125787E+00    0.7510354713E-01    0.3187171966E-02    0.1635924713E+00    0.5649321430E+00
    0.4300000000E+05    0.5136184962E+00    0.7379842171E-01    0.3124482416E-02    0.1636399666E+00    0.5671688716E+00
    0.4500000000E+05    0.5137144566E+00    0.7256632589E-01    0.3065472003E-02    0.1636836832E+00    0.5692750979E+00
    0.4700000000E+05    0.5138017595E+00    0.7140044589E-01    0.3009786546E-02    0.1637240864E+00    0.5712634422E+00
    0.4900000000E+05    0.5138814897E+00    0.7029484296E-01    0.2957118454E-02    0.1637615668E+00    0.5731448508E+00
    0.1000000000E+05    0.5058961892E+00    0.1190527442E+00    0.5409760143E-02    0.1607744121E+00    0.4850222534E+00
    0.3000000000E+05    0.5126604038E+00    0.8401388939E-01    0.3620129748E-02    0.1632313603E+00    0.5494959644E+00
    0.5000000000E+05    0.5139188058E+00    0.6976299349E-01    0.2931830621E-02    0.1637793162E+00    0.5740484868E+00
    0.7000000000E+05    0.5144279080E+00    0.6130953701E-01    0.2534143635E-02    0.1640395408E+00    0.5882938194E+00
    0.9000000000E+05    0.5146952197E+00    0.5550020685E-01    0.2265599367E-02    0.1641983501E+00    0.5979637409E+00
    0.1100000000E+06    0.5148557672E+00    0.5117164426E-01    0.2068127994E-02    0.1643085093E+00    0.6051104444E+00
    0.1300000000E+06    0.5149604078E+00    0.4777555230E-01    0.1914826872E-02    0.1643910864E+00    0.6106845350E+00
    0.1500000000E+06    0.5150324184E+00    0.4501352944E-01    0.1791244161E-02    0.1644562788E+00    0.6151973220E+00
    0.1700000000E+06    0.5150838938E+00    0.4270679978E-01    0.1688812162E-02    0.1645096802E+00    0.6189524903E+00
    0.1900000000E+06    0.5151217084E+00    0.4074058866E-01    0.1602078712E-02    0.1645546423E+00    0.6221436929E+00
    0.2100000000E+06    0.5151500410E+00    0.3903725214E-01    0.1527383409E-02    0.1645933106E+00    0.6249012199E+00
    0.2300000000E+06    0.5151715671E+00    0.3754206322E-01    0.1462163414E-02    0.1646271302E+00    0.6273164895E+00
    0.2500000000E+06    0.5151880730E+00    0.3621514876E-01    0.1404562574E-02    0.1646571152E+00    0.6294558513E+00
    0.2700000000E+06    0.5152007928E+00    0.3502665370E-01    0.1353198541E-02    0.1646840013E+00    0.6313688194E+00
    0.2900000000E+06    0.5152106031E+00    0.3395370586E-01    0.1307017460E-02    0.1647083373E+00    0.6330932170E+00
    0.3100000000E+06    0.5152181424E+00    0.3297843754E-01    0.1265199750E-02    0.1647305422E+00    0.6346585153E+00
    0.3300000000E+06    0.5152238850E+00    0.3208665375E-01    0.1227096999E-02    0.1647509424E+00    0.6360880741E+00
    0.3500000000E+06    0.5152281897E+00    0.3126691089E-01    0.1192188483E-02    0.1647697967E+00    0.6374006864E+00
    0.3700000000E+06    0.5152313321E+00    0.3050986382E-01    0.1160050500E-02    0.1647873136E+00    0.6386116704E+00
    0.3900000000E+06    0.5152335270E+00    0.2980779347E-01    0.1130334255E-02    0.1648036627E+00    0.6397336572E+00
    0.4100000000E+06    0.5152349437E+00    0.2915425865E-01    0.1102749618E-02    0.1648189845E+00    0.6407771702E+00
    0.4300000000E+06    0.5152357171E+00    0.2854383507E-01    0.1077052999E-02    0.1648333960E+00    0.6417510589E+00
    0.4500000000E+06    0.5152359557E+00    0.2797191691E-01    0.1053038153E-02    0.1648469956E+00    0.6426628270E+00
    0.4700000000E+06    0.5152357478E+00    0.2743456395E-01    0.1030529116E-02    0.1648598670E+00    0.6435188863E+00
    0.4900000000E+06    0.5152351655E+00    0.2692838218E-01    0.1009374709E-02    0.1648720820E+00    0.6443247530E+00
    0.1000000000E+06    0.5147846856E+00    0.5319338588E-01    0.2160076048E-02    0.1642578157E+00    0.6017784350E+00
    0.3000000000E+06    0.5152146238E+00    0.3345482265E-01    0.1285607136E-02    0.1647196839E+00    0.6338941711E+00
    0.5000000000E+06    0.5152347528E+00    0.2668604568E-01    0.9992639423E-03    0.1648779630E+00    0.6447103821E+00
    0.7000000000E+06    0.5152168947E+00    0.2293154511E-01    0.8440860045E-03    0.1649724721E+00    0.6506699018E+00
    0.9000000000E+06    0.5151924704E+00    0.2045156764E-01    0.7432033505E-03    0.1650395989E+00    0.6545910603E+00
    0.1100000000E+07    0.5151677485E+00    0.1865312870E-01    0.6709281279E-03    0.1650915728E+00    0.6574270656E+00
    0.1300000000E+07    0.5151442948E+00    0.1727021257E-01    0.6158959082E-03    0.1651339474E+00    0.6596035146E+00
    0.1500000000E+07    0.5151224536E+00    0.1616303920E-01    0.5721996403E-03    0.1651697039E+00    0.6613432969E+00
    0.1700000000E+07    0.5151022047E+00    0.1525007929E-01    0.5364245819E-03    0.1652006245E+00    0.6627760880E+00
    0.1900000000E+07    0.5150834197E+00    0.1448009923E-01    0.5064411487E-03    0.1652278584E+00    0.6639832129E+00
    0.2100000000E+07    0.5150659478E+00    0.1381904603E-01    0.4808432455E-03    0.1652521894E+00    0.6650186353E+00
    0.2300000000E+07    0.5150496437E+00    0.1324327227E-01    0.4586601614E-03    0.1652741760E+00    0.6659197768E+00
    0.2500000000E+07    0.5150343768E+00    0.1273576784E-01    0.4391973229E-03    0.1652942295E+00    0.6667135230E+00
    0.2700000000E+07    0.5150200333E+00    0.1228393768E-01    0.4219428973E-03    0.1653126621E+00    0.6674197603E+00
    0.2900000000E+07    0.5150065144E+00    0.1187822715E-01    0.4065103101E-03    0.1653297160E+00    0.6680535606E+00
    0.3100000000E+07    0.5149937349E+00    0.1151123736E-01    0.3926014188E-03    0.1653455830E+00    0.6686265853E+00
    0.3300000000E+07    0.5149816213E+00    0.1117713648E-01    0.3799821080E-03    0.1653604174E+00    0.6691480193E+00
    0.3500000000E+07    0.5149701100E+00    0.1087125648E-01    0.3684656401E-03    0.1653743455E+00    0.6696252094E+00
    0.3700000000E+07    0.5149591454E+00    0.1058981006E-01    0.3579010076E-03    0.1653874715E+00    0.6700641128E+00
    0.3900000000E+07    0.5149486793E+00    0.1032968753E-01    0.3481646037E-03    0.1653998828E+00    0.6704696178E+00
    0.4100000000E+07    0.5149386692E+00    0.1008830819E-01    0.3391541484E-03    0.1654116531E+00    0.6708457791E+00
    0.4300000000E+07    0.5149290778E+00    0.9863509804E-02    0.3307841831E-03    0.1654228456E+00    0.6711959923E+00
    0.4500000000E+07    0.5149198720E+00    0.9653465033E-02    0.3229826754E-03    0.1654335142E+00    0.6715231258E+00
    0.4700000000E+07    0.5149110224E+00    0.9456617452E-02    0.3156884257E-03    0.1654437058E+00    0.6718296216E+00
    0.4900000000E+07    0.5149025028E+00    0.9271631912E-02    0.3088490606E-03    0.1654534612E+00    0.6721175738E+00
    0.1000000000E+07    0.5151800018E+00    0.1948803156E-01    0.7043845530E-03    0.1650670465E+00    0.6561112736E+00
    0.3000000000E+07    0.5150000370E+00    0.1169028794E-01    0.3993813105E-03    0.1653377874E+00    0.6683470464E+00
    0.5000000000E+07    0.5148983594E+00    0.9183220920E-02    0.3055856128E-03    0.1654581867E+00    0.6722551706E+00
    0.7000000000E+07    0.5148282349E+00    0.7825837898E-02    0.2559367663E-03    0.1655365669E+00    0.6743656107E+00
    0.9000000000E+07    0.5147747277E+00    0.6941720713E-02    0.2240967275E-03    0.1655947906E+00    0.6757380525E+00
    0.1100000000E+08    0.5147314675E+00    0.6306631623E-02    0.2014953667E-03    0.1656411362E+00    0.6767228233E+00
    0.1300000000E+08    0.5146951579E+00    0.5821681705E-02    0.1844028752E-03    0.1656796409E+00    0.6774741494E+00
    0.1500000000E+08    0.5146638731E+00    0.5435532459E-02    0.1709028777E-03    0.1657125796E+00    0.6780719973E+00
    0.1700000000E+08    0.5146363905E+00    0.5118513059E-02    0.1598972630E-03    0.1657413613E+00    0.6785625384E+00
    0.1900000000E+08    0.5146118855E+00    0.4852113647E-02    0.1507059787E-03    0.1657669194E+00    0.6789745536E+00
    0.2100000000E+08    0.5145897755E+00    0.4624104970E-02    0.1428825857E-03    0.1657899046E+00    0.6793270456E+00
    0.2300000000E+08    0.5145696338E+00    0.4426037399E-02    0.1361203701E-03    0.1658107882E+00    0.6796331366E+00
    0.2500000000E+08    0.5145511383E+00    0.4251859172E-02    0.1302007794E-03    0.1658299231E+00    0.6799022204E+00
    0.2700000000E+08    0.5145340402E+00    0.4097106128E-02    0.1249633430E-03    0.1658475798E+00    0.6801412233E+00
