  Pressure (Pa) 22mC5-400 (mol/kg) 2mC6-400 (mol/kg) 33mC5-400 (mol/kg) 23mC5-400 (mol/kg) C7-400 (mol/kg)
    0.1000000000E+01    0.2635863800E-02    0.6338093807E-02    0.2580140855E-03    0.1851320113E-03    0.1710964848E-02
    0.3000000000E+01    0.7745992554E-02    0.1848617068E-01    0.7524989866E-03    0.5440532416E-03    0.5028320577E-02
    0.5000000000E+01    0.1265426705E-01    0.2997536371E-01    0.1220104995E-02    0.8888059893E-03    0.8213915005E-02
    0.7000000000E+01    0.1737556511E-01    0.4085526058E-01    0.1662853939E-02    0.1220434421E-02    0.1127624454E-01
    0.9000000000E+01    0.2192328867E-01    0.5117063412E-01    0.2082571408E-02    0.1539879130E-02    0.1422307498E-01
    0.1100000000E+02    0.2630954384E-01    0.6096201205E-01    0.2480909959E-02    0.1847989773E-02    0.1706151905E-01
    0.1300000000E+02    0.3054529515E-01    0.7026616764E-01    0.2859369118E-02    0.2145535891E-02    0.1979810415E-01
    0.1500000000E+02    0.3464049819E-01    0.7911654388E-01    0.3219312658E-02    0.2433216222E-02    0.2243883184E-01
    0.1700000000E+02    0.3860421417E-01    0.8754362134E-01    0.3561983591E-02    0.2711666735E-02    0.2498923026E-01
    0.1900000000E+02    0.4244470914E-01    0.9557523833E-01    0.3888517217E-02    0.2981467594E-02    0.2745440021E-01
    0.2100000000E+02    0.4616954021E-01    0.1032368705E+00    0.4199952513E-02    0.3243149211E-02    0.2983905613E-01
    0.2300000000E+02    0.4978563082E-01    0.1105518755E+00    0.4497242114E-02    0.3497197526E-02    0.3214756225E-01
    0.2500000000E+02    0.5329933650E-01    0.1175417081E+00    0.4781261071E-02    0.3744058622E-02    0.3438396489E-01
    0.2700000000E+02    0.5671650264E-01    0.1242261096E+00    0.5052814569E-02    0.3984142779E-02    0.3655202110E-01
    0.2900000000E+02    0.6004251528E-01    0.1306232744E+00    0.5312644739E-02    0.4217828040E-02    0.3865522437E-01
    0.3100000000E+02    0.6328234592E-01    0.1367499991E+00    0.5561436697E-02    0.4445463353E-02    0.4069682751E-01
    0.3300000000E+02    0.6644059119E-01    0.1426218126E+00    0.5799823888E-02    0.4667371357E-02    0.4267986329E-01
    0.3500000000E+02    0.6952150800E-01    0.1482530941E+00    0.6028392857E-02    0.4883850847E-02    0.4460716291E-01
    0.3700000000E+02    0.7252904477E-01    0.1536571761E+00    0.6247687488E-02    0.5095178968E-02    0.4648137266E-01
    0.3900000000E+02    0.7546686934E-01    0.1588464383E+00    0.6458212799E-02    0.5301613172E-02    0.4830496889E-01
    0.4100000000E+02    0.7833839376E-01    0.1638323907E+00    0.6660438342E-02    0.5503392959E-02    0.5008027167E-01
    0.4300000000E+02    0.8114679660E-01    0.1686257481E+00    0.6854801241E-02    0.5700741439E-02    0.5180945699E-01
    0.4500000000E+02    0.8389504287E-01    0.1732364973E+00    0.7041708938E-02    0.5893866737E-02    0.5349456794E-01
    0.4700000000E+02    0.8658590196E-01    0.1776739579E+00    0.7221541657E-02    0.6082963246E-02    0.5513752483E-01
    0.4900000000E+02    0.8922196380E-01    0.1819468364E+00    0.7394654624E-02    0.6268212763E-02    0.5674013434E-01
    0.1000000000E+02    0.2413588942E-01    0.5612944148E-01    0.2284315955E-02    0.1695301352E-02    0.1565542437E-01
    0.3000000000E+02    0.6167290771E-01    0.1337194429E+00    0.5438379752E-02    0.4332381189E-02    0.3968353147E-01
    0.5000000000E+02    0.9052020964E-01    0.1840241229E+00    0.7478795874E-02    0.6359448520E-02    0.5752684444E-01
    0.7000000000E+02    0.1141224036E+00    0.2186506733E+00    0.8879071381E-02    0.8018286250E-02    0.7150769604E-01
    0.9000000000E+02    0.1342485589E+00    0.2434968574E+00    0.9879867396E-02    0.9433076061E-02    0.8289442017E-01
    0.1100000000E+03    0.1519096033E+00    0.2618676036E+00    0.1061607925E-01    0.1067478464E-01    0.9244224364E-01
    0.1300000000E+03    0.1677302262E+00    0.2757533540E+00    0.1116897283E-01    0.1178726668E-01    0.1006310727E+00
    0.1500000000E+03    0.1821203025E+00    0.2864212358E+00    0.1159029901E-01    0.1279929731E-01    0.1077817438E+00
    0.1700000000E+03    0.1953618652E+00    0.2947142153E+00    0.1191449793E-01    0.1373067706E-01    0.1141176769E+00
    0.1900000000E+03    0.2076566523E+00    0.3012135269E+00    0.1216532629E-01    0.1459556951E-01    0.1197997535E+00
    0.2100000000E+03    0.2191537025E+00    0.3063320154E+00    0.1235966614E-01    0.1540443849E-01    0.1249471128E+00
    0.2300000000E+03    0.2299661795E+00    0.3103703432E+00    0.1250981862E-01    0.1616522916E-01    0.1296501035E+00
    0.2500000000E+03    0.2401820572E+00    0.3135521918E+00    0.1262494065E-01    0.1688411816E-01    0.1339786556E+00
    0.2700000000E+03    0.2498711472E+00    0.3160470579E+00    0.1271197539E-01    0.1756600697E-01    0.1379878633E+00
    0.2900000000E+03    0.2590898615E+00    0.3179854477E+00    0.1277627245E-01    0.1821485628E-01    0.1417218125E+00
    0.3100000000E+03    0.2678845238E+00    0.3194692622E+00    0.1282201198E-01    0.1883391849E-01    0.1452162681E+00
    0.3300000000E+03    0.2762937255E+00    0.3205790551E+00    0.1285250093E-01    0.1942590311E-01    0.1485006017E+00
    0.3500000000E+03    0.2843500363E+00    0.3213792051E+00    0.1287038436E-01    0.1999309685E-01    0.1515991996E+00
    0.3700000000E+03    0.2920812677E+00    0.3219216673E+00    0.1287779864E-01    0.2053745235E-01    0.1545325094E+00
    0.3900000000E+03    0.2995114217E+00    0.3222487369E+00    0.1287648439E-01    0.2106065480E-01    0.1573178296E+00
    0.4100000000E+03    0.3066614140E+00    0.3223951155E+00    0.1286787090E-01    0.2156417270E-01    0.1599699142E+00
    0.4300000000E+03    0.3135496320E+00    0.3223894741E+00    0.1285314006E-01    0.2204929702E-01    0.1625014396E+00
    0.4500000000E+03    0.3201923700E+00    0.3222556519E+00    0.1283327535E-01    0.2251717179E-01    0.1649233720E+00
    0.4700000000E+03    0.3266041741E+00    0.3220135832E+00    0.1280909980E-01    0.2296881832E-01    0.1672452570E+00
    0.4900000000E+03    0.3327981160E+00    0.3216800231E+00    0.1278130566E-01    0.2340515440E-01    0.1694754515E+00
    0.1000000000E+03    0.1433417132E+00    0.2533453788E+00    0.1027507451E-01    0.1007237086E-01    0.8786347757E-01
    0.3000000000E+03    0.2635376286E+00    0.3187787108E+00    0.1280123757E-01    0.1852793029E-01    0.1434970100E+00
    0.5000000000E+03    0.3358171258E+00    0.3214834439E+00    0.1276623806E-01    0.2361784341E-01    0.1705584981E+00
    0.7000000000E+03    0.3871348656E+00    0.3152250735E+00    0.1237736836E-01    0.2723460814E-01    0.1888028108E+00
    0.9000000000E+03    0.4255317927E+00    0.3076197610E+00    0.1194931623E-01    0.2994285623E-01    0.2027395920E+00
    0.1100000000E+04    0.4551167431E+00    0.3003542901E+00    0.1155086455E-01    0.3203119740E-01    0.2141024214E+00
    0.1300000000E+04    0.4784111042E+00    0.2937965298E+00    0.1119549023E-01    0.3367680382E-01    0.2237416178E+00
    0.1500000000E+04    0.4970852733E+00    0.2879604292E+00    0.1088183359E-01    0.3499709492E-01    0.2321390772E+00
    0.1700000000E+04    0.5122916668E+00    0.2827663746E+00    0.1060477363E-01    0.3607310825E-01    0.2395954147E+00
    0.1900000000E+04    0.5248471195E+00    0.2781193888E+00    0.1035877955E-01    0.3696230308E-01    0.2463114402E+00
    0.2100000000E+04    0.5353429931E+00    0.2739324213E+00    0.1013889590E-01    0.3770629175E-01    0.2524283442E+00
    0.2300000000E+04    0.5442152438E+00    0.2701318501E+00    0.9940951889E-02    0.3833576096E-01    0.2580494232E+00
    0.2500000000E+04    0.5517905046E+00    0.2666572390E+00    0.9761519609E-02    0.3887370935E-01    0.2632526860E+00
    0.2700000000E+04    0.5583171294E+00    0.2634594678E+00    0.9597803652E-02    0.3933762922E-01    0.2680985891E+00
    0.2900000000E+04    0.5639865221E+00    0.2604986483E+00    0.9447524998E-02    0.3974100579E-01    0.2726350050E+00
    0.3100000000E+04    0.5689480431E+00    0.2577422715E+00    0.9308819066E-02    0.4009436533E-01    0.2769005364E+00
    0.3300000000E+04    0.5733195924E+00    0.2551636853E+00    0.9180151987E-02    0.4040601940E-01    0.2809267985E+00
    0.3500000000E+04    0.5771952305E+00    0.2527408859E+00    0.9060253833E-02    0.4068260100E-01    0.2847400335E+00
    0.3700000000E+04    0.5806507417E+00    0.2504555710E+00    0.8948066008E-02    0.4092945591E-01    0.2883622810E+00
    0.3900000000E+04    0.5837477447E+00    0.2482924012E+00    0.8842699971E-02    0.4115093200E-01    0.2918122430E+00
    0.4100000000E+04    0.5865367676E+00    0.2462384248E+00    0.8743404832E-02    0.4135059569E-01    0.2951059355E+00
    0.4300000000E+04    0.5890595717E+00    0.2442826266E+00    0.8649541824E-02    0.4153139551E-01    0.2982571869E+00
    0.4500000000E+04    0.5913509274E+00    0.2424155735E+00    0.8560564106E-02    0.4169578716E-01    0.3012780249E+00
    0.4700000000E+04    0.5934399832E+00    0.2406291344E+00    0.8476000698E-02    0.4184582996E-01    0.3041789808E+00
    0.4900000000E+04    0.5953513322E+00    0.2389162564E+00    0.8395443617E-02    0.4198326189E-01    0.3069693316E+00
    0.1000000000E+04    0.4412426655E+00    0.3039077828E+00    0.1174496841E-01    0.3105165074E-01    0.2086775058E+00
    0.3000000000E+04    0.5665477616E+00    0.2590966920E+00    0.9376828201E-02    0.3992337342E-01    0.2747995131E+00
    0.5000000000E+04    0.5962470158E+00    0.2380854488E+00    0.8356554589E-02    0.4204771883E-01    0.3083256347E+00
    0.7000000000E+04    0.6085435448E+00    0.2241788464E+00    0.7722885990E-02    0.4293739057E-01    0.3312256234E+00
    0.9000000000E+04    0.6150992502E+00    0.2136683767E+00    0.7263979887E-02    0.4341749251E-01    0.3486468094E+00
    0.1100000000E+05    0.6191280471E+00    0.2051896724E+00    0.6904770164E-02    0.4371625704E-01    0.3626916547E+00
    0.1300000000E+05    0.6218386902E+00    0.1980788852E+00    0.6610224949E-02    0.4391985104E-01    0.3744383908E+00
    0.1500000000E+05    0.6237802686E+00    0.1919578732E+00    0.6361116526E-02    0.4406757141E-01    0.3845171729E+00
    0.1700000000E+05    0.6252360933E+00    0.1865887046E+00    0.6145720039E-02    0.4417977620E-01    0.3933294120E+00
    0.1900000000E+05    0.6263664144E+00    0.1818110820E+00    0.5956341089E-02    0.4426802834E-01    0.4011470191E+00
    0.2100000000E+05    0.6272683999E+00    0.1775114864E+00    0.5787649937E-02    0.4433936854E-01    0.4081629007E+00
    0.2300000000E+05    0.6280042640E+00    0.1736064026E+00    0.5635798716E-02    0.4439832399E-01    0.4145189495E+00
    0.2500000000E+05    0.6286156242E+00    0.1700325091E+00    0.5497916914E-02    0.4444793619E-01    0.4203226116E+00
    0.2700000000E+05    0.6291313400E+00    0.1667406050E+00    0.5371805453E-02    0.4449032341E-01    0.4256572172E+00
    0.2900000000E+05    0.6295720362E+00    0.1636916771E+00    0.5255742151E-02    0.4452700611E-01    0.4305886994E+00
    0.3100000000E+05    0.6299528336E+00    0.1608542553E+00    0.5148353072E-02    0.4455910390E-01    0.4351701220E+00
    0.3300000000E+05    0.6302850640E+00    0.1582025783E+00    0.5048524610E-02    0.4458745953E-01    0.4394448219E+00
    0.3500000000E+05    0.6305773834E+00    0.1557152884E+00    0.4955341722E-02    0.4461271962E-01    0.4434486466E+00
    0.3700000000E+05    0.6308365151E+00    0.1533744798E+00    0.4868043474E-02    0.4463538860E-01    0.4472115825E+00
    0.3900000000E+05    0.6310677590E+00    0.1511649926E+00    0.4785990382E-02    0.4465586592E-01    0.4507589639E+00
    0.4100000000E+05    0.6312753483E+00    0.1490738779E+00    0.4708639968E-02    0.4467447203E-01    0.4541123848E+00
    0.4300000000E+05    0.6314627042E+00    0.1470899890E+00    0.4635528177E-02    0.4469146704E-01    0.4572903985E+00
    0.4500000000E+05    0.6316326212E+00    0.1452036616E+00    0.4566255026E-02    0.4470706439E-01    0.4603090602E+00
    0.4700000000E+05    0.6317874039E+00    0.1434064627E+00    0.4500473404E-02    0.4472144087E-01    0.4631823547E+00
    0.4900000000E+05    0.6319289694E+00    0.1416909909E+00    0.4437880202E-02    0.4473474421E-01    0.4659225358E+00
    0.1000000000E+05    0.6173306156E+00    0.2092259580E+00    0.7074629641E-02    0.4358249910E-01    0.3560093940E+00
    0.3000000000E+05    0.6297691405E+00    0.1622482545E+00    0.5201038210E-02    0.4454357007E-01    0.4329202614E+00
    0.5000000000E+05    0.6319953085E+00    0.1408618314E+00    0.4407694796E-02    0.4474103312E-01    0.4672461331E+00
    0.7000000000E+05    0.6329096866E+00    0.1273227091E+00    0.3920988021E-02    0.4483243344E-01    0.4887843572E+00
    0.9000000000E+05    0.6334042148E+00    0.1175971047E+00    0.3578385625E-02    0.4488750899E-01    0.5041755387E+00
    0.1100000000E+06    0.6337125123E+00    0.1101071650E+00    0.3318457076E-02    0.4492542745E-01    0.5159869876E+00
    0.1300000000E+06    0.6339222729E+00    0.1040757641E+00    0.3111610668E-02    0.4495371371E-01    0.5254737687E+00
    0.1500000000E+06    0.6340737229E+00    0.9906491255E-01    0.2941439896E-02    0.4497596986E-01    0.5333395262E+00
    0.1700000000E+06    0.6341878773E+00    0.9480453373E-01    0.2797958757E-02    0.4499415624E-01    0.5400164296E+00
    0.1900000000E+06    0.6342767714E+00    0.9111695800E-01    0.2674668281E-02    0.4500944062E-01    0.5457878937E+00
    0.2100000000E+06    0.6343477868E+00    0.8787943791E-01    0.2567119471E-02    0.4502256703E-01    0.5508492251E+00
    0.2300000000E+06    0.6344056986E+00    0.8500384550E-01    0.2472143509E-02    0.4503403485E-01    0.5553403487E+00
    0.2500000000E+06    0.6344537301E+00    0.8242491342E-01    0.2387410092E-02    0.4504419343E-01    0.5593647055E+00
    0.2700000000E+06    0.6344941345E+00    0.8009305100E-01    0.2311159805E-02    0.4505329562E-01    0.5630007679E+00
    0.2900000000E+06    0.6345285333E+00    0.7796975986E-01    0.2242034577E-02    0.4506152962E-01    0.5663093727E+00
    0.3100000000E+06    0.6345581225E+00    0.7602460012E-01    0.2178966218E-02    0.4506903889E-01    0.5693385639E+00
    0.3300000000E+06    0.6345838032E+00    0.7423312021E-01    0.2121100800E-02    0.4507593504E-01    0.5721268924E+00
    0.3500000000E+06    0.6346062668E+00    0.7257540632E-01    0.2067745959E-02    0.4508230640E-01    0.5747057240E+00
    0.3700000000E+06    0.6346260524E+00    0.7103504245E-01    0.2018333308E-02    0.4508822403E-01    0.5771008925E+00
    0.3900000000E+06    0.6346435866E+00    0.6959834981E-01    0.1972391065E-02    0.4509374580E-01    0.5793339067E+00
    0.4100000000E+06    0.6346592110E+00    0.6825382051E-01    0.1929523764E-02    0.4509891944E-01    0.5814228485E+00
    0.4300000000E+06    0.6346732023E+00    0.6699168912E-01    0.1889396968E-02    0.4510378476E-01    0.5833830513E+00
    0.4500000000E+06    0.6346857870E+00    0.6580360403E-01    0.1851725583E-02    0.4510837523E-01    0.5852276206E+00
    0.4700000000E+06    0.6346971523E+00    0.6468237203E-01    0.1816264813E-02    0.4511271930E-01    0.5869678372E+00
    0.4900000000E+06    0.6347074540E+00    0.6362175747E-01    0.1782803068E-02    0.4511684128E-01    0.5886134749E+00
    0.1000000000E+06    0.6335744818E+00    0.1136323444E+00    0.3440371017E-02    0.4490800531E-01    0.5104322015E+00
    0.3000000000E+06    0.6345438671E+00    0.7697656273E-01    0.2209800975E-02    0.4506536724E-01    0.5678562940E+00
    0.5000000000E+06    0.6347122478E+00    0.6311245500E-01    0.1766763382E-02    0.4511882566E-01    0.5894035321E+00
    0.7000000000E+06    0.6347752164E+00    0.5509242860E-01    0.1516690980E-02    0.4515070322E-01    0.6018302184E+00
    0.9000000000E+06    0.6348052706E+00    0.4965703532E-01    0.1350012150E-02    0.4517333577E-01    0.6102370188E+00
    0.1100000000E+07    0.6348213009E+00    0.4564384867E-01    0.1228495045E-02    0.4519085686E-01    0.6164364405E+00
    0.1300000000E+07    0.6348302691E+00    0.4251576694E-01    0.1134741853E-02    0.4520514126E-01    0.6212640990E+00
    0.1500000000E+07    0.6348352889E+00    0.3998439774E-01    0.1059520623E-02    0.4521719463E-01    0.6251679676E+00
    0.1700000000E+07    0.6348379392E+00    0.3787867259E-01    0.9974078342E-03    0.4522761797E-01    0.6284134567E+00
    0.1900000000E+07    0.6348390942E+00    0.3608961085E-01    0.9449765755E-03    0.4523679874E-01    0.6311694867E+00
    0.2100000000E+07    0.6348392709E+00    0.3454394584E-01    0.8999392965E-03    0.4524500115E-01    0.6335495315E+00
    0.2300000000E+07    0.6348387907E+00    0.3319030118E-01    0.8607019655E-03    0.4525241336E-01    0.6356331087E+00
    0.2500000000E+07    0.6348378613E+00    0.3199140752E-01    0.8261147371E-03    0.4525917410E-01    0.6374778682E+00
    0.2700000000E+07    0.6348366216E+00    0.3091946342E-01    0.7953242399E-03    0.4526538852E-01    0.6391267931E+00
    0.2900000000E+07    0.6348351667E+00    0.2995323925E-01    0.7676818565E-03    0.4527113828E-01    0.6406126913E+00
    0.3100000000E+07    0.6348335631E+00    0.2907619783E-01    0.7426845018E-03    0.4527648799E-01    0.6419611085E+00
    0.3300000000E+07    0.6348318582E+00    0.2827523468E-01    0.7199351000E-03    0.4528148969E-01    0.6431922809E+00
    0.3500000000E+07    0.6348300863E+00    0.2753980936E-01    0.6991154507E-03    0.4528618588E-01    0.6443224796E+00
    0.3700000000E+07    0.6348282723E+00    0.2686133204E-01    0.6799671363E-03    0.4529061173E-01    0.6453649606E+00
    0.3900000000E+07    0.6348264347E+00    0.2623272079E-01    0.6622777972E-03    0.4529479667E-01    0.6463306501E+00
    0.4100000000E+07    0.6348245872E+00    0.2564807617E-01    0.6458710744E-03    0.4529876558E-01    0.6472286472E+00
    0.4300000000E+07    0.6348227399E+00    0.2510243789E-01    0.6305991157E-03    0.4530253968E-01    0.6480666009E+00
    0.4500000000E+07    0.6348209003E+00    0.2459160025E-01    0.6163369059E-03    0.4530613719E-01    0.6488509952E+00
    0.4700000000E+07    0.6348190742E+00    0.2411197009E-01    0.6029779181E-03    0.4530957391E-01    0.6495873684E+00
    0.4900000000E+07    0.6348172657E+00    0.2366045627E-01    0.5904307374E-03    0.4531286360E-01    0.6502804843E+00
    0.1000000000E+07    0.6348144669E+00    0.4751453399E-01    0.1284969455E-02    0.4518258887E-01    0.6135474824E+00
    0.3000000000E+07    0.6348343801E+00    0.2950445849E-01    0.7548794868E-03    0.4527385964E-01    0.6413027139E+00
    0.5000000000E+07    0.6348163690E+00    0.2344439245E-01    0.5844364752E-03    0.4531445714E-01    0.6506121312E+00
    0.7000000000E+07    0.6347997549E+00    0.2010504404E-01    0.4926517458E-03    0.4534089014E-01    0.6557352480E+00
    0.9000000000E+07    0.6347856462E+00    0.1790739011E-01    0.4331930263E-03    0.4536052739E-01    0.6591040590E+00
    0.1100000000E+08    0.6347735777E+00    0.1631756477E-01    0.3906951861E-03    0.4537615949E-01    0.6615396970E+00
    0.1300000000E+08    0.6347630876E+00    0.1509721923E-01    0.3583914105E-03    0.4538914755E-01    0.6634084426E+00
    0.1500000000E+08    0.6347538308E+00    0.1412152422E-01    0.3327754129E-03    0.4540025854E-01    0.6649020034E+00
    0.1700000000E+08    0.6347455565E+00    0.1331784993E-01    0.3118250151E-03    0.4540996754E-01    0.6661318652E+00
    0.1900000000E+08    0.6347380807E+00    0.1264064323E-01    0.2942814087E-03    0.4541858934E-01    0.6671679228E+00
    0.2100000000E+08    0.6347312651E+00    0.1205967421E-01    0.2793146813E-03    0.4542634332E-01    0.6680565438E+00
    0.2300000000E+08    0.6347250038E+00    0.1155397768E-01    0.2663526070E-03    0.4543338847E-01    0.6688298756E+00
    0.2500000000E+08    0.6347192145E+00    0.1110848965E-01    0.2549861732E-03    0.4543984373E-01    0.6695110108E+00
    0.2700000000E+08    0.6347138313E+00    0.1071206677E-01    0.2449142527E-03    0.4544580040E-01    0.6701170280E+00
