  Pressure (Pa) 22mC5-400 (mol/kg) 2mC6-400 (mol/kg) 33mC5-400 (mol/kg) 23mC5-400 (mol/kg) C7-400 (mol/kg)
    0.1000000000E+01    0.2649172901E-02    0.7934116921E-03    0.4522161695E-03    0.2790995453E-03    0.6836853026E-02
    0.3000000000E+01    0.7860840809E-02    0.2320444229E-02    0.1322704356E-02    0.8281741970E-03    0.2005186983E-01
    0.5000000000E+01    0.1296042621E-01    0.3772051428E-02    0.2150372272E-02    0.1365450034E-02    0.3268943808E-01
    0.7000000000E+01    0.1795193633E-01    0.5153009598E-02    0.2937930924E-02    0.1891348808E-02    0.4478737542E-01
    0.9000000000E+01    0.2283918556E-01    0.6467702890E-02    0.3687868360E-02    0.2406271975E-02    0.5638025113E-01
    0.1100000000E+02    0.2762580682E-01    0.7720163257E-02    0.4402472419E-02    0.2910601896E-02    0.6749972803E-01
    0.1300000000E+02    0.3231526222E-01    0.8914105566E-02    0.5083850724E-02    0.3404702958E-02    0.7817486217E-01
    0.1500000000E+02    0.3691085294E-01    0.1005295853E-01    0.5733948301E-02    0.3888922609E-02    0.8843236601E-01
    0.1700000000E+02    0.4141572848E-01    0.1113989207E-01    0.6354563131E-02    0.4363592336E-02    0.9829684051E-01
    0.1900000000E+02    0.4583289520E-01    0.1217784150E-01    0.6947359949E-02    0.4829028562E-02    0.1077909800E+00
    0.2100000000E+02    0.5016522440E-01    0.1316952909E-01    0.7513882478E-02    0.5285533496E-02    0.1169357539E+00
    0.2300000000E+02    0.5441545976E-01    0.1411748321E-01    0.8055564343E-02    0.5733395917E-02    0.1257505676E+00
    0.2500000000E+02    0.5858622440E-01    0.1502405545E-01    0.8573738795E-02    0.6172891915E-02    0.1342534061E+00
    0.2700000000E+02    0.6268002735E-01    0.1589143589E-01    0.9069647419E-02    0.6604285577E-02    0.1424609618E+00
    0.2900000000E+02    0.6669926977E-01    0.1672166688E-01    0.9544447937E-02    0.7027829631E-02    0.1503887488E+00
    0.3100000000E+02    0.7064625061E-01    0.1751665532E-01    0.9999221218E-02    0.7443766055E-02    0.1580512054E+00
    0.3300000000E+02    0.7452317205E-01    0.1827818380E-01    0.1043497759E-01    0.7852326638E-02    0.1654617861E+00
    0.3500000000E+02    0.7833214451E-01    0.1900792058E-01    0.1085266255E-01    0.8253733513E-02    0.1726330438E+00
    0.3700000000E+02    0.8207519139E-01    0.1970742867E-01    0.1125316185E-01    0.8648199657E-02    0.1795767047E+00
    0.3900000000E+02    0.8575425354E-01    0.2037817402E-01    0.1163730624E-01    0.9035929356E-02    0.1863037350E+00
    0.4100000000E+02    0.8937119340E-01    0.2102153294E-01    0.1200587561E-01    0.9417118646E-02    0.1928244021E+00
    0.4300000000E+02    0.9292779896E-01    0.2163879887E-01    0.1235960289E-01    0.9791955726E-02    0.1991483292E+00
    0.4500000000E+02    0.9642578743E-01    0.2223118852E-01    0.1269917750E-01    0.1016062135E-01    0.2052845455E+00
    0.4700000000E+02    0.9986680875E-01    0.2279984745E-01    0.1302524853E-01    0.1052328918E-01    0.2112415310E+00
    0.4900000000E+02    0.1032524488E+00    0.2334585525E-01    0.1333842768E-01    0.1088012616E-01    0.2170272584E+00
    0.1000000000E+02    0.2524485442E-01    0.7101472959E-02    0.4049451328E-02    0.2659737908E-02    0.6199729058E-01
    0.3000000000E+02    0.6868165304E-01    0.1712345222E-01    0.9774273253E-02    0.7236734078E-02    0.1542522804E+00
    0.5000000000E+02    0.1049249798E+00    0.2361068544E-01    0.1349036438E-01    0.1105640848E-01    0.2198582621E+00
    0.7000000000E+02    0.1358096057E+00    0.2793704045E-01    0.1597632764E-01    0.1431188383E-01    0.2690932786E+00
    0.9000000000E+02    0.1625768217E+00    0.3086462150E-01    0.1766403417E-01    0.1713382099E-01    0.3075272560E+00
    0.1100000000E+03    0.1860974750E+00    0.3284895418E-01    0.1881177745E-01    0.1961389117E-01    0.3384454676E+00
    0.1300000000E+03    0.2070016343E+00    0.3417765246E-01    0.1958283870E-01    0.2181842226E-01    0.3639136935E+00
    0.1500000000E+03    0.2257573929E+00    0.3504008090E-01    0.2008491148E-01    0.2379669277E-01    0.3852976752E+00
    0.1700000000E+03    0.2427206045E+00    0.3556509951E-01    0.2039144556E-01    0.2558616657E-01    0.4035375384E+00
    0.1900000000E+03    0.2581673111E+00    0.3584275803E-01    0.2055390855E-01    0.2721590605E-01    0.4193022938E+00
    0.2100000000E+03    0.2723154942E+00    0.3593736989E-01    0.2060917398E-01    0.2870886169E-01    0.4330814574E+00
    0.2300000000E+03    0.2853400357E+00    0.3589570378E-01    0.2058415103E-01    0.3008344680E-01    0.4452417817E+00
    0.2500000000E+03    0.2973832375E+00    0.3575228583E-01    0.2049878256E-01    0.3135464488E-01    0.4560636935E+00
    0.2700000000E+03    0.3085623686E+00    0.3553292789E-01    0.2036804161E-01    0.3253480406E-01    0.4657654414E+00
    0.2900000000E+03    0.3189751769E+00    0.3525713164E-01    0.2020329321E-01    0.3363421732E-01    0.4745195411E+00
    0.3100000000E+03    0.3287039806E+00    0.3493976112E-01    0.2001324301E-01    0.3466155321E-01    0.4824642450E+00
    0.3300000000E+03    0.3378187517E+00    0.3459222733E-01    0.1980461024E-01    0.3562418043E-01    0.4897117110E+00
    0.3500000000E+03    0.3463794708E+00    0.3422334091E-01    0.1958261303E-01    0.3652841573E-01    0.4963539315E+00
    0.3700000000E+03    0.3544379488E+00    0.3383993456E-01    0.1935132340E-01    0.3737971571E-01    0.5024671090E+00
    0.3900000000E+03    0.3620392519E+00    0.3344732323E-01    0.1911393037E-01    0.3818282683E-01    0.5081149343E+00
    0.4100000000E+03    0.3692228296E+00    0.3304964823E-01    0.1887293715E-01    0.3894190415E-01    0.5133510763E+00
    0.4300000000E+03    0.3760234150E+00    0.3265013712E-01    0.1863031064E-01    0.3966060613E-01    0.5182210977E+00
    0.4500000000E+03    0.3824717517E+00    0.3225130194E-01    0.1838759560E-01    0.4034217116E-01    0.5227639447E+00
    0.4700000000E+03    0.3885951843E+00    0.3185509147E-01    0.1814600282E-01    0.4098947971E-01    0.5270131176E+00
    0.4900000000E+03    0.3944181434E+00    0.3146300928E-01    0.1790647761E-01    0.4160510540E-01    0.5309976007E+00
    0.1000000000E+03    0.1746990503E+00    0.3195381183E-01    0.1829355195E-01    0.1841196619E-01    0.3237758780E+00
    0.3000000000E+03    0.3239204473E+00    0.3510286037E-01    0.2011097077E-01    0.3415640715E-01    0.4785855245E+00
    0.5000000000E+03    0.3972238831E+00    0.3126888747E-01    0.1778772661E-01    0.4190176805E-01    0.5328985926E+00
    0.7000000000E+03    0.4418652969E+00    0.2776235276E-01    0.1562628447E-01    0.4662487010E-01    0.5617047687E+00
    0.9000000000E+03    0.4719146979E+00    0.2500540673E-01    0.1390931326E-01    0.4980822973E-01    0.5799184542E+00
    0.1100000000E+04    0.4934457272E+00    0.2285023075E-01    0.1256045529E-01    0.5209212248E-01    0.5926302749E+00
    0.1300000000E+04    0.5095735694E+00    0.2113541307E-01    0.1148590240E-01    0.5380510477E-01    0.6020844317E+00
    0.1500000000E+04    0.5220687761E+00    0.1974188768E-01    0.1061385699E-01    0.5513400282E-01    0.6094350852E+00
    0.1700000000E+04    0.5320115522E+00    0.1858676070E-01    0.9893223748E-02    0.5619285058E-01    0.6153408990E+00
    0.1900000000E+04    0.5400969897E+00    0.1761229570E-01    0.9287872925E-02    0.5705505998E-01    0.6202071864E+00
    0.2100000000E+04    0.5467916389E+00    0.1677762643E-01    0.8771952550E-02    0.5776992768E-01    0.6242980537E+00
    0.2300000000E+04    0.5524196526E+00    0.1605323734E-01    0.8326643340E-02    0.5837171956E-01    0.6277935217E+00
    0.2500000000E+04    0.5572128561E+00    0.1541736981E-01    0.7937993155E-02    0.5888495259E-01    0.6308208424E+00
    0.2700000000E+04    0.5613411807E+00    0.1485366935E-01    0.7595473676E-02    0.5932760604E-01    0.6334727081E+00
    0.2900000000E+04    0.5649318669E+00    0.1434962142E-01    0.7291007748E-02    0.5971314839E-01    0.6358183613E+00
    0.3100000000E+04    0.5680819750E+00    0.1389549238E-01    0.7018303659E-02    0.6005185813E-01    0.6379106494E+00
    0.3300000000E+04    0.5708667651E+00    0.1348359863E-01    0.6772391769E-02    0.6035170869E-01    0.6397906608E+00
    0.3500000000E+04    0.5733454465E+00    0.1310779298E-01    0.6549296537E-02    0.6061897584E-01    0.6414908609E+00
    0.3700000000E+04    0.5755652093E+00    0.1276309717E-01    0.6345800609E-02    0.6085866367E-01    0.6430372677E+00
    0.3900000000E+04    0.5775641058E+00    0.1244543480E-01    0.6159272534E-02    0.6107480910E-01    0.6444509965E+00
    0.4100000000E+04    0.5793731449E+00    0.1215143416E-01    0.5987539124E-02    0.6127070332E-01    0.6457493768E+00
    0.4300000000E+04    0.5810178391E+00    0.1187828065E-01    0.5828789658E-02    0.6144905540E-01    0.6469467749E+00
    0.4500000000E+04    0.5825193629E+00    0.1162360487E-01    0.5681503066E-02    0.6161211478E-01    0.6480552094E+00
    0.4700000000E+04    0.5838954313E+00    0.1138539675E-01    0.5544391956E-02    0.6176176428E-01    0.6490848183E+00
    0.4900000000E+04    0.5851609746E+00    0.1116193887E-01    0.5416359131E-02    0.6189959145E-01    0.6500442178E+00
    0.1000000000E+04    0.4835071195E+00    0.2386361934E-01    0.1319516812E-01    0.5103752285E-01    0.5867849653E+00
    0.3000000000E+04    0.5665568560E+00    0.1411683844E-01    0.7151022683E-02    0.5988781316E-01    0.6368933748E+00
    0.5000000000E+04    0.5857563349E+00    0.1105527150E-01    0.5355447656E-02    0.6196450095E-01    0.6504999354E+00
    0.7000000000E+04    0.5941182823E+00    0.9426690904E-02    0.4442944564E-02    0.6288235968E-01    0.6572630036E+00
    0.9000000000E+04    0.5987720260E+00    0.8372514831E-02    0.3871062004E-02    0.6340070784E-01    0.6614244800E+00
    0.1100000000E+05    0.6017289838E+00    0.7616725468E-02    0.3470739348E-02    0.6373488053E-01    0.6642905154E+00
    0.1300000000E+05    0.6037711222E+00    0.7039711907E-02    0.3170722542E-02    0.6396901563E-01    0.6664077122E+00
    0.1500000000E+05    0.6052647106E+00    0.6579990792E-02    0.2935229686E-02    0.6414272050E-01    0.6680485204E+00
    0.1700000000E+05    0.6064038374E+00    0.6202231300E-02    0.2744097221E-02    0.6427708808E-01    0.6693652568E+00
    0.1900000000E+05    0.6073008364E+00    0.5884465751E-02    0.2584993906E-02    0.6438438717E-01    0.6704503215E+00
    0.2100000000E+05    0.6080251862E+00    0.5612207523E-02    0.2449902522E-02    0.6447224367E-01    0.6713633092E+00
    0.2300000000E+05    0.6086221465E+00    0.5375457035E-02    0.2333356855E-02    0.6454564980E-01    0.6721445363E+00
    0.2500000000E+05    0.6091224545E+00    0.5167055286E-02    0.2231485582E-02    0.6460801264E-01    0.6728223421E+00
    0.2700000000E+05    0.6095477113E+00    0.4981721491E-02    0.2141460305E-02    0.6466173836E-01    0.6734172833E+00
    0.2900000000E+05    0.6099135384E+00    0.4815462039E-02    0.2061160308E-02    0.6470857555E-01    0.6739446681E+00
    0.3100000000E+05    0.6102315107E+00    0.4665192336E-02    0.1988960203E-02    0.6474982621E-01    0.6744161529E+00
    0.3300000000E+05    0.6105103858E+00    0.4528486350E-02    0.1923590570E-02    0.6478648022E-01    0.6748407852E+00
    0.3500000000E+05    0.6107569114E+00    0.4403405791E-02    0.1864043677E-02    0.6481930398E-01    0.6752257056E+00
    0.3700000000E+05    0.6109763699E+00    0.4288380576E-02    0.1809508024E-02    0.6484890037E-01    0.6755766318E+00
    0.3900000000E+05    0.6111729552E+00    0.4182123322E-02    0.1759321830E-02    0.6487575033E-01    0.6758982022E+00
    0.4100000000E+05    0.6113500390E+00    0.4083566949E-02    0.1712939323E-02    0.6490024242E-01    0.6761942227E+00
    0.4300000000E+05    0.6115103630E+00    0.3991818363E-02    0.1669905855E-02    0.6492269406E-01    0.6764678486E+00
    0.4500000000E+05    0.6116561790E+00    0.3906123527E-02    0.1629839250E-02    0.6494336722E-01    0.6767217202E+00
    0.4700000000E+05    0.6117893536E+00    0.3825840746E-02    0.1592415607E-02    0.6496248010E-01    0.6769580652E+00
    0.4900000000E+05    0.6119114472E+00    0.3750419983E-02    0.1557358361E-02    0.6498021594E-01    0.6771787780E+00
    0.1000000000E+05    0.6003991561E+00    0.7966775071E-02    0.3655125588E-02    0.6358399828E-01    0.6629758485E+00
    0.3000000000E+05    0.6100779040E+00    0.4738493224E-02    0.2024134174E-02    0.6472983122E-01    0.6741867809E+00
    0.5000000000E+05    0.6119687577E+00    0.3714381972E-02    0.1540641515E-02    0.6498861688E-01    0.6772837885E+00
    0.7000000000E+05    0.6127649341E+00    0.3161730373E-02    0.1287146868E-02    0.6511191953E-01    0.6788573355E+00
    0.9000000000E+05    0.6132001735E+00    0.2802396340E-02    0.1125340689E-02    0.6518728803E-01    0.6798430731E+00
    0.1100000000E+06    0.6134728454E+00    0.2544576758E-02    0.1010813769E-02    0.6523961669E-01    0.6805319953E+00
    0.1300000000E+06    0.6136587123E+00    0.2347878002E-02    0.9243728345E-03    0.6527886672E-01    0.6810472114E+00
    0.1500000000E+06    0.6137929117E+00    0.2191360544E-02    0.8561997830E-03    0.6530986629E-01    0.6814507157E+00
    0.1700000000E+06    0.6138939386E+00    0.2062935572E-02    0.8006860809E-03    0.6533526648E-01    0.6817774928E+00
    0.1900000000E+06    0.6139724423E+00    0.1955067982E-02    0.7543664388E-03    0.6535665706E-01    0.6820489472E+00
    0.2100000000E+06    0.6140349801E+00    0.1862782869E-02    0.7149700875E-03    0.6537505617E-01    0.6822789918E+00
    0.2300000000E+06    0.6140858063E+00    0.1782644904E-02    0.6809392414E-03    0.6539114998E-01    0.6824771059E+00
    0.2500000000E+06    0.6141277992E+00    0.1712194891E-02    0.6511652269E-03    0.6540542018E-01    0.6826499967E+00
    0.2700000000E+06    0.6141629738E+00    0.1649619578E-02    0.6248348460E-03    0.6541821632E-01    0.6828025590E+00
    0.2900000000E+06    0.6141927818E+00    0.1593548524E-02    0.6013364054E-03    0.6542979923E-01    0.6829384582E+00
    0.3100000000E+06    0.6142182952E+00    0.1542923998E-02    0.5801998403E-03    0.6544036811E-01    0.6830605003E+00
    0.3300000000E+06    0.6142403218E+00    0.1496914765E-02    0.5610572222E-03    0.6545007820E-01    0.6831708736E+00
    0.3500000000E+06    0.6142594817E+00    0.1454857263E-02    0.5436159323E-03    0.6545905257E-01    0.6832713133E+00
    0.3700000000E+06    0.6142762585E+00    0.1416214444E-02    0.5276399646E-03    0.6546739031E-01    0.6833632148E+00
    0.3900000000E+06    0.6142910345E+00    0.1380546336E-02    0.5129366018E-03    0.6547517224E-01    0.6834477147E+00
    0.4100000000E+06    0.6143041162E+00    0.1347488569E-02    0.4993467301E-03    0.6548246510E-01    0.6835257492E+00
    0.4300000000E+06    0.6143157515E+00    0.1316736439E-02    0.4867376749E-03    0.6548932455E-01    0.6835980973E+00
    0.4500000000E+06    0.6143261434E+00    0.1288032893E-02    0.4749978169E-03    0.6549579749E-01    0.6836654131E+00
    0.4700000000E+06    0.6143354593E+00    0.1261159351E-02    0.4640324896E-03    0.6550192377E-01    0.6837282504E+00
    0.4900000000E+06    0.6143438388E+00    0.1235928602E-02    0.4537608116E-03    0.6550773749E-01    0.6837870814E+00
    0.1000000000E+06    0.6133506643E+00    0.2663980527E-02    0.1063685974E-02    0.6521553113E-01    0.6802148489E+00
    0.3000000000E+06    0.6142060197E+00    0.1567611911E-02    0.5904979151E-03    0.6543519985E-01    0.6830010624E+00
    0.5000000000E+06    0.6143477147E+00    0.1223877952E-02    0.4488629650E-03    0.6551053649E-01    0.6838151236E+00
    0.7000000000E+06    0.6143965284E+00    0.1039510831E-02    0.3746160450E-03    0.6555551229E-01    0.6842395486E+00
    0.9000000000E+06    0.6144170836E+00    0.9200770620E-03    0.3272651335E-03    0.6558744931E-01    0.6845098026E+00
    0.1100000000E+07    0.6144259919E+00    0.8346001020E-03    0.2937790697E-03    0.6561217120E-01    0.6847008976E+00
    0.1300000000E+07    0.6144292687E+00    0.7695079114E-03    0.2685243921E-03    0.6563232292E-01    0.6848450920E+00
    0.1500000000E+07    0.6144295495E+00    0.7177868927E-03    0.2486201792E-03    0.6564932416E-01    0.6849588314E+00
    0.1700000000E+07    0.6144281391E+00    0.6753977528E-03    0.2324214673E-03    0.6566402365E-01    0.6850514883E+00
    0.1900000000E+07    0.6144257410E+00    0.6398276443E-03    0.2189124063E-03    0.6567696862E-01    0.6851288433E+00
    0.2100000000E+07    0.6144227586E+00    0.6094201692E-03    0.2074276502E-03    0.6568853227E-01    0.6851946799E+00
    0.2300000000E+07    0.6144194337E+00    0.5830330773E-03    0.1975109777E-03    0.6569898038E-01    0.6852515912E+00
    0.2500000000E+07    0.6144159168E+00    0.5598496303E-03    0.1888378418E-03    0.6570850887E-01    0.6853014215E+00
    0.2700000000E+07    0.6144123036E+00    0.5392682225E-03    0.1811702909E-03    0.6571726629E-01    0.6853455230E+00
    0.2900000000E+07    0.6144086560E+00    0.5208345676E-03    0.1743294060E-03    0.6572536794E-01    0.6853849123E+00
    0.3100000000E+07    0.6144050148E+00    0.5041983136E-03    0.1681777438E-03    0.6573290508E-01    0.6854203708E+00
    0.3300000000E+07    0.6144014065E+00    0.4890843234E-03    0.1626077615E-03    0.6573995117E-01    0.6854525096E+00
    0.3500000000E+07    0.6143978487E+00    0.4752730979E-03    0.1575339553E-03    0.6574656623E-01    0.6854818151E+00
    0.3700000000E+07    0.6143943525E+00    0.4625870897E-03    0.1528873847E-03    0.6575279993E-01    0.6855086795E+00
    0.3900000000E+07    0.6143909248E+00    0.4508809204E-03    0.1486117694E-03    0.6575869380E-01    0.6855334229E+00
    0.4100000000E+07    0.6143875697E+00    0.4400342501E-03    0.1446606551E-03    0.6576428297E-01    0.6855563098E+00
    0.4300000000E+07    0.6143842889E+00    0.4299464884E-03    0.1409953157E-03    0.6576959738E-01    0.6855775607E+00
    0.4500000000E+07    0.6143810831E+00    0.4205328113E-03    0.1375831785E-03    0.6577466276E-01    0.6855973612E+00
    0.4700000000E+07    0.6143779518E+00    0.4117211174E-03    0.1343966239E-03    0.6577950140E-01    0.6856158686E+00
    0.4900000000E+07    0.6143748939E+00    0.4034496735E-03    0.1314120593E-03    0.6578413273E-01    0.6856332177E+00
    0.1000000000E+07    0.6144224971E+00    0.8741645703E-03    0.3092347588E-03    0.6560050568E-01    0.6846126898E+00
    0.3000000000E+07    0.6144068327E+00    0.5123104600E-03    0.1711747380E-03    0.6572920212E-01    0.6854030913E+00
    0.5000000000E+07    0.6143733920E+00    0.3994996270E-03    0.1299890702E-03    0.6578637606E-01    0.6856414945E+00
    0.7000000000E+07    0.6143467300E+00    0.3391095251E-03    0.1084292320E-03    0.6582357718E-01    0.6857673600E+00
    0.9000000000E+07    0.6143251388E+00    0.3000309058E-03    0.9469088043E-04    0.6585120186E-01    0.6858481043E+00
    0.1100000000E+08    0.6143070989E+00    0.2720828557E-03    0.8498077453E-04    0.6587318502E-01    0.6859054911E+00
    0.1300000000E+08    0.6142916358E+00    0.2508108751E-03    0.7766063285E-04    0.6589144511E-01    0.6859489586E+00
    0.1500000000E+08    0.6142781158E+00    0.2339152098E-03    0.7189322267E-04    0.6590706280E-01    0.6859833479E+00
    0.1700000000E+08    0.6142661095E+00    0.2200723166E-03    0.6720074896E-04    0.6592070731E-01    0.6860114306E+00
    0.1900000000E+08    0.6142553141E+00    0.2084592755E-03    0.6328827344E-04    0.6593282198E-01    0.6860349229E+00
    0.2100000000E+08    0.6142455086E+00    0.1985338847E-03    0.5996268954E-04    0.6594371569E-01    0.6860549514E+00
    0.2300000000E+08    0.6142365272E+00    0.1899223829E-03    0.5709162497E-04    0.6595361228E-01    0.6860722904E+00
    0.2500000000E+08    0.6142282425E+00    0.1823576057E-03    0.5458093662E-04    0.6596267918E-01    0.6860874916E+00
    0.2700000000E+08    0.6142205541E+00    0.1756428155E-03    0.5236161585E-04    0.6597104489E-01    0.6861009606E+00
