  Pressure (Pa) 22mC5-400 (mol/kg) 2mC6-400 (mol/kg) 33mC5-400 (mol/kg) 23mC5-400 (mol/kg) C7-400 (mol/kg)
    0.1000000000E+01    0.2635483231E-02    0.6338141040E-02    0.1290076139E-03    0.3702106320E-03    0.1711227081E-02
    0.3000000000E+01    0.7742718751E-02    0.1848657713E-01    0.3762542977E-03    0.1087647198E-02    0.5030574490E-02
    0.5000000000E+01    0.1264556320E-01    0.2997644053E-01    0.6100649012E-03    0.1776390911E-02    0.8219900616E-02
    0.7000000000E+01    0.1735921639E-01    0.4085726914E-01    0.8314494399E-03    0.2438575280E-02    0.1128747205E-01
    0.9000000000E+01    0.2189735790E-01    0.5117378771E-01    0.1041319840E-02    0.3076120444E-02    0.1424085438E-01
    0.1100000000E+02    0.2627233386E-01    0.6096647848E-01    0.1240501564E-02    0.3690759390E-02    0.1708698554E-01
    0.1300000000E+02    0.3049531684E-01    0.7027207234E-01    0.1429743616E-02    0.4284060393E-02    0.1983224009E-01
    0.1500000000E+02    0.3457644323E-01    0.7912397333E-01    0.1609727192E-02    0.4857446290E-02    0.2248248572E-01
    0.1700000000E+02    0.3852493169E-01    0.8755262652E-01    0.1781073171E-02    0.5412211107E-02    0.2504313308E-01
    0.1900000000E+02    0.4234918562E-01    0.9558583821E-01    0.1944348646E-02    0.5949534449E-02    0.2751917983E-01
    0.2100000000E+02    0.4605688228E-01    0.1032490554E+00    0.2100072612E-02    0.6470493992E-02    0.2991524962E-01
    0.2300000000E+02    0.4965505031E-01    0.1105656102E+00    0.2248720953E-02    0.6976076376E-02    0.3223562677E-01
    0.2500000000E+02    0.5315013757E-01    0.1175569349E+00    0.2390730821E-02    0.7467186720E-02    0.3448428714E-01
    0.2700000000E+02    0.5654807054E-01    0.1242427511E+00    0.2526504484E-02    0.7944656962E-02    0.3666492562E-01
    0.2900000000E+02    0.5985430663E-01    0.1306412362E+00    0.2656412737E-02    0.8409253199E-02    0.3878098082E-01
    0.3100000000E+02    0.6307388023E-01    0.1367691718E+00    0.2780797908E-02    0.8861682149E-02    0.4083565706E-01
    0.3300000000E+02    0.6621144340E-01    0.1426420744E+00    0.2899976532E-02    0.9302596867E-02    0.4283194425E-01
    0.3500000000E+02    0.6927130200E-01    0.1482743123E+00    0.3014241731E-02    0.9732601811E-02    0.4477263569E-01
    0.3700000000E+02    0.7225744773E-01    0.1536792093E+00    0.3123865328E-02    0.1015225734E-01    0.4666034414E-01
    0.3900000000E+02    0.7517358664E-01    0.1588691378E+00    0.3229099745E-02    0.1056208372E-01    0.4849751634E-01
    0.4100000000E+02    0.7802316464E-01    0.1638556018E+00    0.3330179694E-02    0.1096256470E-01    0.5028644610E-01
    0.4300000000E+02    0.8080939024E-01    0.1686493114E+00    0.3427323701E-02    0.1135415070E-01    0.5202928626E-01
    0.4500000000E+02    0.8353525497E-01    0.1732602501E+00    0.3520735468E-02    0.1173726169E-01    0.5372805942E-01
    0.4700000000E+02    0.8620355172E-01    0.1776977349E+00    0.3610605108E-02    0.1211228975E-01    0.5538466780E-01
    0.4900000000E+02    0.8881689121E-01    0.1819704710E+00    0.3697110251E-02    0.1247960139E-01    0.5700090213E-01
    0.1000000000E+02    0.2410451749E-01    0.5613323324E-01    0.1142198289E-02    0.3386201557E-02    0.1567691544E-01
    0.3000000000E+02    0.6147462697E-01    0.1337380247E+00    0.2719275349E-02    0.8636946573E-02    0.3981579963E-01
    0.5000000000E+02    0.9010372170E-01    0.1840476234E+00    0.3739153482E-02    0.1266047161E-01    0.5779441017E-01
    0.7000000000E+02    0.1134726644E+00    0.2186628989E+00    0.4438514375E-02    0.1594542811E-01    0.7190722225E-01
    0.9000000000E+02    0.1333610058E+00    0.2434833212E+00    0.4937760533E-02    0.1874164904E-01    0.8341490924E-01
    0.1100000000E+03    0.1507822940E+00    0.2618175015E+00    0.5304439872E-02    0.2119143455E-01    0.9307139452E-01
    0.1300000000E+03    0.1663613212E+00    0.2756595054E+00    0.5579276992E-02    0.2338250771E-01    0.1013573141E+00
    0.1500000000E+03    0.1805073289E+00    0.2862794723E+00    0.5788221772E-02    0.2537232933E-01    0.1085947981E+00
    0.1700000000E+03    0.1935016056E+00    0.2945227126E+00    0.5948551937E-02    0.2720039548E-01    0.1150086109E+00
    0.1900000000E+03    0.2055452467E+00    0.3009722247E+00    0.6072189424E-02    0.2889494276E-01    0.1207608584E+00
    0.2100000000E+03    0.2167868122E+00    0.3060421500E+00    0.6167607710E-02    0.3047683133E-01    0.1259717405E+00
    0.2300000000E+03    0.2273391526E+00    0.3100340852E+00    0.6240981209E-02    0.3196190730E-01    0.1307325067E+00
    0.2500000000E+03    0.2372900777E+00    0.3131723674E+00    0.6296905612E-02    0.3336250072E-01    0.1351138457E+00
    0.2700000000E+03    0.2467093605E+00    0.3156269374E+00    0.6338864659E-02    0.3468840899E-01    0.1391714895E+00
    0.2900000000E+03    0.2556534768E+00    0.3175285840E+00    0.6369541456E-02    0.3594756235E-01    0.1429500615E+00
    0.3100000000E+03    0.2641688961E+00    0.3189793694E+00    0.6391031376E-02    0.3714648597E-01    0.1464857810E+00
    0.3300000000E+03    0.2722944198E+00    0.3200599162E+00    0.6404990931E-02    0.3829062828E-01    0.1498084053E+00
    0.3500000000E+03    0.2800628761E+00    0.3208346025E+00    0.6412743915E-02    0.3938459901E-01    0.1529426498E+00
    0.3700000000E+03    0.2875023717E+00    0.3213553311E+00    0.6415358436E-02    0.4043234484E-01    0.1559092443E+00
    0.3900000000E+03    0.2946372298E+00    0.3216643067E+00    0.6413703697E-02    0.4143728128E-01    0.1587257306E+00
    0.4100000000E+03    0.3014887048E+00    0.3217961122E+00    0.6408492457E-02    0.4240239286E-01    0.1614070727E+00
    0.4300000000E+03    0.3080755329E+00    0.3217792804E+00    0.6400313193E-02    0.4333031057E-01    0.1639661304E+00
    0.4500000000E+03    0.3144143623E+00    0.3216374983E+00    0.6389654745E-02    0.4422337222E-01    0.1664140298E+00
    0.4700000000E+03    0.3205200926E+00    0.3213905399E+00    0.6376925416E-02    0.4508367009E-01    0.1687604566E+00
    0.4900000000E+03    0.3264061456E+00    0.3210549948E+00    0.6362467916E-02    0.4591308900E-01    0.1710138917E+00
    0.1000000000E+03    0.1423344889E+00    0.2533146720E+00    0.5134679036E-02    0.2000345194E-01    0.8843981289E-01
    0.3000000000E+03    0.2599621912E+00    0.3183048621E+00    0.6381322371E-02    0.3655419027E-01    0.1447462852E+00
    0.5000000000E+03    0.3292706380E+00    0.3208584601E+00    0.6354683217E-02    0.4631675878E-01    0.1721081053E+00
    0.7000000000E+03    0.3774800179E+00    0.3147140735E+00    0.6158612270E-02    0.5311344676E-01    0.1905283121E+00
    0.9000000000E+03    0.4128945867E+00    0.3073489949E+00    0.5947236983E-02    0.5811057764E-01    0.2045835189E+00
    0.1100000000E+04    0.4397599818E+00    0.3003628570E+00    0.5752652999E-02    0.6190466577E-01    0.2160328047E+00
    0.1300000000E+04    0.4606424841E+00    0.2940794097E+00    0.5580277501E-02    0.6485642369E-01    0.2257384966E+00
    0.1500000000E+04    0.4772078501E+00    0.2884933743E+00    0.5428741771E-02    0.6720008149E-01    0.2341889760E+00
    0.1700000000E+04    0.4905818128E+00    0.2835187575E+00    0.5295158906E-02    0.6909399417E-01    0.2416887106E+00
    0.1900000000E+04    0.5015473329E+00    0.2790603431E+00    0.5176632868E-02    0.7064833954E-01    0.2484409662E+00
    0.2100000000E+04    0.5106618741E+00    0.2750334967E+00    0.5070656266E-02    0.7194159106E-01    0.2545885845E+00
    0.2300000000E+04    0.5183305093E+00    0.2713679394E+00    0.4975163150E-02    0.7303078972E-01    0.2602360211E+00
    0.2500000000E+04    0.5248529838E+00    0.2680066871E+00    0.4888480537E-02    0.7395815886E-01    0.2654621265E+00
    0.2700000000E+04    0.5304547878E+00    0.2649038250E+00    0.4809258859E-02    0.7475547250E-01    0.2703279861E+00
    0.2900000000E+04    0.5353081161E+00    0.2620222942E+00    0.4736406769E-02    0.7544700276E-01    0.2748819534E+00
    0.3100000000E+04    0.5395462810E+00    0.2593320170E+00    0.4669036841E-02    0.7605154719E-01    0.2791630069E+00
    0.3300000000E+04    0.5432737970E+00    0.2568084011E+00    0.4606422405E-02    0.7658384767E-01    0.2832030597E+00
    0.3500000000E+04    0.5465735528E+00    0.2544311737E+00    0.4547963879E-02    0.7705559961E-01    0.2870285949E+00
    0.3700000000E+04    0.5495119879E+00    0.2521834823E+00    0.4493162680E-02    0.7747618058E-01    0.2906618483E+00
    0.3900000000E+04    0.5521428801E+00    0.2500512004E+00    0.4441601020E-02    0.7785318362E-01    0.2941216843E+00
    0.4100000000E+04    0.5545101543E+00    0.2480223913E+00    0.4392926204E-02    0.7819281271E-01    0.2974242546E+00
    0.4300000000E+04    0.5566499890E+00    0.2460868906E+00    0.4346838360E-02    0.7850017944E-01    0.3005835015E+00
    0.4500000000E+04    0.5585924143E+00    0.2442359802E+00    0.4303080805E-02    0.7877952824E-01    0.3036115501E+00
    0.4700000000E+04    0.5603625378E+00    0.2424621307E+00    0.4261432413E-02    0.7903440895E-01    0.3065190145E+00
    0.4900000000E+04    0.5619814924E+00    0.2407587976E+00    0.4221701539E-02    0.7926781056E-01    0.3093152434E+00
    0.1000000000E+04    0.4272084340E+00    0.3037753238E+00    0.5847236462E-02    0.6013165111E-01    0.2105677233E+00
    0.3000000000E+04    0.5374969825E+00    0.2606548994E+00    0.4702085283E-02    0.7575914524E-01    0.2770544560E+00
    0.5000000000E+04    0.5627399844E+00    0.2399317579E+00    0.4202502124E-02    0.7937726357E-01    0.3106742688E+00
    0.7000000000E+04    0.5731475119E+00    0.2260161851E+00    0.3887989844E-02    0.8088805445E-01    0.3336070943E+00
    0.9000000000E+04    0.5786989894E+00    0.2154307682E+00    0.3658515486E-02    0.8170476348E-01    0.3510369341E+00
    0.1100000000E+05    0.5821153384E+00    0.2068647822E+00    0.3478137443E-02    0.8221430801E-01    0.3650786391E+00
    0.1300000000E+05    0.5844170947E+00    0.1996690712E+00    0.3329859199E-02    0.8256242680E-01    0.3768158636E+00
    0.1500000000E+05    0.5860677405E+00    0.1934695175E+00    0.3204257472E-02    0.8281559769E-01    0.3868815051E+00
    0.1700000000E+05    0.5873065830E+00    0.1880288965E+00    0.3095543165E-02    0.8300829847E-01    0.3956784947E+00
    0.1900000000E+05    0.5882691233E+00    0.1831865487E+00    0.2999896241E-02    0.8316014017E-01    0.4034796407E+00
    0.2100000000E+05    0.5890376166E+00    0.1788282845E+00    0.2914659695E-02    0.8328308256E-01    0.4104784038E+00
    0.2300000000E+05    0.5896647885E+00    0.1748698774E+00    0.2837909225E-02    0.8338482770E-01    0.4168170295E+00
    0.2500000000E+05    0.5901859475E+00    0.1712473468E+00    0.2768205801E-02    0.8347055760E-01    0.4226031940E+00
    0.2700000000E+05    0.5906256029E+00    0.1679109107E+00    0.2704444884E-02    0.8354388647E-01    0.4279203790E+00
    0.2900000000E+05    0.5910012866E+00    0.1648210545E+00    0.2645760157E-02    0.8360741187E-01    0.4328346181E+00
    0.3100000000E+05    0.5913258629E+00    0.1619458785E+00    0.2591459641E-02    0.8366304893E-01    0.4373990417E+00
    0.3300000000E+05    0.5916089798E+00    0.1592592548E+00    0.2540981920E-02    0.8371224088E-01    0.4416570298E+00
    0.3500000000E+05    0.5918580124E+00    0.1567395118E+00    0.2493865310E-02    0.8375609622E-01    0.4456444571E+00
    0.3700000000E+05    0.5920786926E+00    0.1543684745E+00    0.2449725630E-02    0.8379548061E-01    0.4493913259E+00
    0.3900000000E+05    0.5922755413E+00    0.1521307508E+00    0.2408239841E-02    0.8383108015E-01    0.4529229786E+00
    0.4100000000E+05    0.5924521714E+00    0.1500131916E+00    0.2369133785E-02    0.8386344574E-01    0.4562610118E+00
    0.4300000000E+05    0.5926115040E+00    0.1480044757E+00    0.2332172846E-02    0.8389302497E-01    0.4594239773E+00
    0.4500000000E+05    0.5927559262E+00    0.1460947868E+00    0.2297154741E-02    0.8392018534E-01    0.4624279265E+00
    0.4700000000E+05    0.5928874072E+00    0.1442755589E+00    0.2263903880E-02    0.8394523149E-01    0.4652868379E+00
    0.4900000000E+05    0.5930075859E+00    0.1425392732E+00    0.2232266898E-02    0.8396841816E-01    0.4680129582E+00
    0.1000000000E+05    0.5805905410E+00    0.2109449267E+00    0.3563503252E-02    0.8198601825E-01    0.3583989934E+00
    0.3000000000E+05    0.5911692977E+00    0.1633583822E+00    0.2618099610E-02    0.8363611706E-01    0.4351576469E+00
    0.5000000000E+05    0.5930638752E+00    0.1417001296E+00    0.2217010869E-02    0.8397938263E-01    0.4693296433E+00
    0.7000000000E+05    0.5938370630E+00    0.1280053995E+00    0.1971112018E-02    0.8413898415E-01    0.4907444099E+00
    0.9000000000E+05    0.5942516208E+00    0.1181771819E+00    0.1798138394E-02    0.8423537883E-01    0.5060347605E+00
    0.1100000000E+06    0.5945075307E+00    0.1106137168E+00    0.1666982397E-02    0.8430183732E-01    0.5177617668E+00
    0.1300000000E+06    0.5946798014E+00    0.1045266725E+00    0.1562662460E-02    0.8435145927E-01    0.5271763247E+00
    0.1500000000E+06    0.5948027836E+00    0.9947204345E-01    0.1476875425E-02    0.8439052771E-01    0.5349792551E+00
    0.1700000000E+06    0.5948943842E+00    0.9517620714E-01    0.1404569462E-02    0.8442246692E-01    0.5416007520E+00
    0.1900000000E+06    0.5949648327E+00    0.9145925618E-01    0.1342458042E-02    0.8444931896E-01    0.5473228017E+00
    0.2100000000E+06    0.5950203858E+00    0.8819695518E-01    0.1288292102E-02    0.8447238601E-01    0.5523396479E+00
    0.2300000000E+06    0.5950650792E+00    0.8530014506E-01    0.1240470262E-02    0.8449254265E-01    0.5567904056E+00
    0.2500000000E+06    0.5951016286E+00    0.8270281951E-01    0.1197815244E-02    0.8451040108E-01    0.5607778849E+00
    0.2700000000E+06    0.5951319264E+00    0.8035484335E-01    0.1159438431E-02    0.8452640459E-01    0.5643800585E+00
    0.2900000000E+06    0.5951573297E+00    0.7821730747E-01    0.1124654089E-02    0.8454088326E-01    0.5676573604E+00
    0.3100000000E+06    0.5951788362E+00    0.7625945593E-01    0.1092922983E-02    0.8455408877E-01    0.5706575061E+00
    0.3300000000E+06    0.5951971951E+00    0.7445658966E-01    0.1063814133E-02    0.8456621699E-01    0.5734187749E+00
    0.3500000000E+06    0.5952129790E+00    0.7278859810E-01    0.1036978176E-02    0.8457742300E-01    0.5759723059E+00
    0.3700000000E+06    0.5952266329E+00    0.7123890675E-01    0.1012128360E-02    0.8458783154E-01    0.5783437417E+00
    0.3900000000E+06    0.5952385074E+00    0.6979370765E-01    0.9890267153E-03    0.8459754425E-01    0.5805544284E+00
    0.4100000000E+06    0.5952488824E+00    0.6844138642E-01    0.9674737995E-03    0.8460664498E-01    0.5826223085E+00
    0.4300000000E+06    0.5952579837E+00    0.6717208910E-01    0.9473009758E-03    0.8461520363E-01    0.5845625952E+00
    0.4500000000E+06    0.5952659954E+00    0.6597738980E-01    0.9283645102E-03    0.8462327904E-01    0.5863882893E+00
    0.4700000000E+06    0.5952730691E+00    0.6485003249E-01    0.9105410027E-03    0.8463092116E-01    0.5881105805E+00
    0.4900000000E+06    0.5952793303E+00    0.6378372804E-01    0.8937238067E-03    0.8463817276E-01    0.5897391624E+00
    0.1000000000E+06    0.5943932797E+00    0.1141728955E+00    0.1728489588E-02    0.8427129309E-01    0.5122474532E+00
    0.3000000000E+06    0.5951685184E+00    0.7721758716E-01    0.1108435998E-02    0.8454763181E-01    0.5691894949E+00
    0.5000000000E+06    0.5952821898E+00    0.6327172931E-01    0.8856631197E-03    0.8464166383E-01    0.5905209951E+00
    0.7000000000E+06    0.5953150028E+00    0.5521231812E-01    0.7600353248E-03    0.8469774860E-01    0.6028153226E+00
    0.9000000000E+06    0.5953245971E+00    0.4975350547E-01    0.6763493146E-03    0.8473757005E-01    0.6111295074E+00
    0.1100000000E+07    0.5953252539E+00    0.4572471361E-01    0.6153624559E-03    0.8476839823E-01    0.6172591382E+00
    0.1300000000E+07    0.5953219513E+00    0.4258545634E-01    0.5683238907E-03    0.8479353131E-01    0.6220316197E+00
    0.1500000000E+07    0.5953167797E+00    0.4004567387E-01    0.5305923079E-03    0.8481473868E-01    0.6258903670E+00
    0.1700000000E+07    0.5953107247E+00    0.3793337789E-01    0.4994420863E-03    0.8483307783E-01    0.6290980199E+00
    0.1900000000E+07    0.5953042874E+00    0.3613903749E-01    0.4731515389E-03    0.8484923051E-01    0.6318217001E+00
    0.2100000000E+07    0.5952977354E+00    0.3458903601E-01    0.4505716883E-03    0.8486366166E-01    0.6341736539E+00
    0.2300000000E+07    0.5952912154E+00    0.3323176364E-01    0.4309020679E-03    0.8487670239E-01    0.6362325274E+00
    0.2500000000E+07    0.5952848085E+00    0.3202978912E-01    0.4135653749E-03    0.8488859677E-01    0.6380553318E+00
    0.2700000000E+07    0.5952785586E+00    0.3095519521E-01    0.3981332278E-03    0.8489952990E-01    0.6396845696E+00
    0.2900000000E+07    0.5952724876E+00    0.2998666709E-01    0.3842800770E-03    0.8490964541E-01    0.6411526787E+00
    0.3100000000E+07    0.5952666052E+00    0.2910760362E-01    0.3717534509E-03    0.8491905704E-01    0.6424849152E+00
    0.3300000000E+07    0.5952609130E+00    0.2830485121E-01    0.3603541018E-03    0.8492785632E-01    0.6437012839E+00
    0.3500000000E+07    0.5952554082E+00    0.2756783120E-01    0.3499223780E-03    0.8493611805E-01    0.6448178692E+00
    0.3700000000E+07    0.5952500855E+00    0.2688792346E-01    0.3403286358E-03    0.8494390413E-01    0.6458477743E+00
    0.3900000000E+07    0.5952449380E+00    0.2625802178E-01    0.3314663474E-03    0.8495126635E-01    0.6468017986E+00
    0.4100000000E+07    0.5952399582E+00    0.2567220701E-01    0.3232470521E-03    0.8495824846E-01    0.6476889355E+00
    0.4300000000E+07    0.5952351381E+00    0.2512550272E-01    0.3155965935E-03    0.8496488780E-01    0.6485167447E+00
    0.4500000000E+07    0.5952304700E+00    0.2461368982E-01    0.3084522741E-03    0.8497121646E-01    0.6492916341E+00
    0.4700000000E+07    0.5952259462E+00    0.2413316399E-01    0.3017606719E-03    0.8497726222E-01    0.6500190772E+00
    0.4900000000E+07    0.5952215592E+00    0.2368082467E-01    0.2954759466E-03    0.8498304929E-01    0.6507037815E+00
    0.1000000000E+07    0.5953256276E+00    0.4760249539E-01    0.6437031940E-03    0.8475385079E-01    0.6144028556E+00
    0.3000000000E+07    0.5952695226E+00    0.2953684343E-01    0.3778644652E-03    0.8491443304E-01    0.6418344256E+00
    0.5000000000E+07    0.5952194149E+00    0.2346437187E-01    0.2924735772E-03    0.8498585256E-01    0.6510314017E+00
    0.7000000000E+07    0.5951822183E+00    0.2011950745E-01    0.2465075794E-03    0.8503235092E-01    0.6560921868E+00
    0.9000000000E+07    0.5951529345E+00    0.1791872734E-01    0.2167371295E-03    0.8506689352E-01    0.6594199340E+00
    0.1100000000E+08    0.5951288417E+00    0.1632688706E-01    0.1954620372E-03    0.8509439015E-01    0.6618258848E+00
    0.1300000000E+08    0.5951083925E+00    0.1510513403E-01    0.1792920426E-03    0.8511723549E-01    0.6636718733E+00
    0.1500000000E+08    0.5950906354E+00    0.1412840002E-01    0.1664707853E-03    0.8513677881E-01    0.6651472691E+00
    0.1700000000E+08    0.5950749464E+00    0.1332392713E-01    0.1559854669E-03    0.8515385592E-01    0.6663621952E+00
    0.1900000000E+08    0.5950608953E+00    0.1264608742E-01    0.1472056917E-03    0.8516902060E-01    0.6673856902E+00
    0.2100000000E+08    0.5950481729E+00    0.1206460429E-01    0.1397158890E-03    0.8518265874E-01    0.6682635534E+00
    0.2300000000E+08    0.5950365500E+00    0.1155848191E-01    0.1332295449E-03    0.8519505005E-01    0.6690275378E+00
    0.2500000000E+08    0.5950258518E+00    0.1111263537E-01    0.1275418804E-03    0.8520640377E-01    0.6697004528E+00
    0.2700000000E+08    0.5950159421E+00    0.1071590651E-01    0.1225021401E-03    0.8521688049E-01    0.6702991675E+00
