  Pressure (Pa) 22mC5-400 (mol/kg) 2mC6-400 (mol/kg) 33mC5-400 (mol/kg) 23mC5-400 (mol/kg) C7-400 (mol/kg)
    0.1000000000E+01    0.2644863626E-02    0.2375272369E-02    0.1289344546E-03    0.5572916148E-03    0.6826462541E-02
    0.3000000000E+01    0.7823272559E-02    0.6918822731E-02    0.3756008181E-03    0.1648436963E-02    0.1996313562E-01
    0.5000000000E+01    0.1285929355E-01    0.1120365068E-01    0.6082647706E-03    0.2709602561E-02    0.3245525978E-01
    0.7000000000E+01    0.1775975401E-01    0.1524873439E-01    0.8279529386E-03    0.3742225681E-02    0.4435077906E-01
    0.9000000000E+01    0.2253104010E-01    0.1907126875E-01    0.1035595386E-02    0.4747650711E-02    0.5569295866E-01
    0.1100000000E+02    0.2717913172E-01    0.2268687088E-01    0.1232036754E-02    0.5727136526E-02    0.6652094349E-01
    0.1300000000E+02    0.3170963434E-01    0.2610975762E-01    0.1418045882E-02    0.6681863181E-02    0.7687023852E-01
    0.1500000000E+02    0.3612780779E-01    0.2935289943E-01    0.1594324148E-02    0.7612937983E-02    0.8677312340E-01
    0.1700000000E+02    0.4043859257E-01    0.3242815430E-01    0.1761512726E-02    0.8521401011E-02    0.9625901166E-01
    0.1900000000E+02    0.4464663367E-01    0.3534638459E-01    0.1920198911E-02    0.9408230146E-02    0.1053547628E+00
    0.2100000000E+02    0.4875630241E-01    0.3811755942E-01    0.2070921675E-02    0.1027434566E-01    0.1140849545E+00
    0.2300000000E+02    0.5277171631E-01    0.4075084458E-01    0.2214176527E-02    0.1112061439E-01    0.1224721209E+00
    0.2500000000E+02    0.5669675726E-01    0.4325468171E-01    0.2350419806E-02    0.1194785358E-01    0.1305369610E+00
    0.2700000000E+02    0.6053508823E-01    0.4563685827E-01    0.2480072473E-02    0.1275683440E-01    0.1382985226E+00
    0.2900000000E+02    0.6429016848E-01    0.4790456955E-01    0.2603523461E-02    0.1354828513E-01    0.1457743647E+00
    0.3100000000E+02    0.6796526759E-01    0.5006447364E-01    0.2721132655E-02    0.1432289410E-01    0.1529807001E+00
    0.3300000000E+02    0.7156347833E-01    0.5212274044E-01    0.2833233547E-02    0.1508131244E-01    0.1599325230E+00
    0.3500000000E+02    0.7508772852E-01    0.5408509537E-01    0.2940135597E-02    0.1582415657E-01    0.1666437215E+00
    0.3700000000E+02    0.7854079189E-01    0.5595685841E-01    0.3042126348E-02    0.1655201045E-01    0.1731271786E+00
    0.3900000000E+02    0.8192529818E-01    0.5774297915E-01    0.3139473322E-02    0.1726542772E-01    0.1793948614E+00
    0.4100000000E+02    0.8524374239E-01    0.5944806819E-01    0.3232425721E-02    0.1796493369E-01    0.1854579020E+00
    0.4300000000E+02    0.8849849337E-01    0.6107642546E-01    0.3321215955E-02    0.1865102709E-01    0.1913266689E+00
    0.4500000000E+02    0.9169180172E-01    0.6263206568E-01    0.3406061024E-02    0.1932418174E-01    0.1970108321E+00
    0.4700000000E+02    0.9482580716E-01    0.6411874142E-01    0.3487163760E-02    0.1998484816E-01    0.2025194210E+00
    0.4900000000E+02    0.9790254531E-01    0.6553996389E-01    0.3564713955E-02    0.2063345492E-01    0.2078608771E+00
    0.1000000000E+02    0.2487012645E-01    0.2090401688E-01    0.1135166479E-02    0.5240560493E-02    0.6116892620E-01
    0.3000000000E+02    0.6613751838E-01    0.4899760097E-01    0.2663036850E-02    0.1393765329E-01    0.1494102564E+00
    0.5000000000E+02    0.9942004837E-01    0.6622706610E-01    0.3602212847E-02    0.2095336420E-01    0.2104714191E+00
    0.7000000000E+02    0.1271884098E+00    0.7722990872E-01    0.4203367335E-02    0.2680786409E-01    0.2555808676E+00
    0.9000000000E+02    0.1509517950E+00    0.8439898197E-01    0.4595881301E-02    0.3181890916E-01    0.2904845129E+00
    0.1100000000E+03    0.1716869935E+00    0.8908465454E-01    0.4852832214E-02    0.3619216880E-01    0.3184370922E+00
    0.1300000000E+03    0.1900565159E+00    0.9210038010E-01    0.5018302171E-02    0.4006714422E-01    0.3414253163E+00
    0.1500000000E+03    0.2065274825E+00    0.9396117013E-01    0.5120251904E-02    0.4354219777E-01    0.3607335648E+00
    0.1700000000E+03    0.2214402068E+00    0.9500609687E-01    0.5177132273E-02    0.4668899209E-01    0.3772308700E+00
    0.1900000000E+03    0.2350496660E+00    0.9546553425E-01    0.5201513155E-02    0.4956122134E-01    0.3915274202E+00
    0.2100000000E+03    0.2475515950E+00    0.9550008095E-01    0.5202184486E-02    0.5220010536E-01    0.4040650217E+00
    0.2300000000E+03    0.2590994737E+00    0.9522409773E-01    0.5185427336E-02    0.5463796640E-01    0.4151719528E+00
    0.2500000000E+03    0.2698159188E+00    0.9472047127E-01    0.5155811719E-02    0.5690062770E-01    0.4250975909E+00
    0.2700000000E+03    0.2798005222E+00    0.9405016774E-01    0.5116713311E-02    0.5900906409E-01    0.4340350303E+00
    0.2900000000E+03    0.2891353718E+00    0.9325858266E-01    0.5070657266E-02    0.6098056434E-01    0.4421362993E+00
    0.3100000000E+03    0.2978890182E+00    0.9237986085E-01    0.5019552446E-02    0.6282956660E-01    0.4495228630E+00
    0.3300000000E+03    0.3061193806E+00    0.9143989620E-01    0.4964854313E-02    0.6456827020E-01    0.4562930388E+00
    0.3500000000E+03    0.3138759095E+00    0.9045845237E-01    0.4907680312E-02    0.6620709107E-01    0.4625273379E+00
    0.3700000000E+03    0.3212012222E+00    0.8945068642E-01    0.4848892921E-02    0.6775500620E-01    0.4682923811E+00
    0.3900000000E+03    0.3281323574E+00    0.8842825908E-01    0.4789160325E-02    0.6921981772E-01    0.4736438173E+00
    0.4100000000E+03    0.3347017490E+00    0.8740015424E-01    0.4729001300E-02    0.7060835807E-01    0.4786285291E+00
    0.4300000000E+03    0.3409379924E+00    0.8637329080E-01    0.4668818827E-02    0.7192665132E-01    0.4832863229E+00
    0.4500000000E+03    0.3468664536E+00    0.8535298423E-01    0.4608925516E-02    0.7318004142E-01    0.4876512379E+00
    0.4700000000E+03    0.3525097585E+00    0.8434329792E-01    0.4549563036E-02    0.7437329529E-01    0.4917525731E+00
    0.4900000000E+03    0.3578881900E+00    0.8334731303E-01    0.4490917077E-02    0.7551068637E-01    0.4956156998E+00
    0.1000000000E+03    0.1616508640E+00    0.8699240271E-01    0.4738060942E-02    0.3407535447E-01    0.3051843374E+00
    0.3000000000E+03    0.2935810046E+00    0.9282833042E-01    0.5045635900E-02    0.6191956876E-01    0.4459123028E+00
    0.5000000000E+03    0.3604838572E+00    0.8285520527E-01    0.4461908429E-02    0.7605965100E-01    0.4974649520E+00
    0.7000000000E+03    0.4021078640E+00    0.7403341383E-01    0.3938584488E-02    0.8486822675E-01    0.5260580364E+00
    0.9000000000E+03    0.4303854051E+00    0.6713005690E-01    0.3525615287E-02    0.9085992833E-01    0.5448310079E+00
    0.1100000000E+04    0.4506971732E+00    0.6172611145E-01    0.3201267409E-02    0.9516925640E-01    0.5583544824E+00
    0.1300000000E+04    0.4658957785E+00    0.5741199782E-01    0.2942412485E-02    0.9839797026E-01    0.5686874893E+00
    0.1500000000E+04    0.4776373617E+00    0.5389193696E-01    0.2731788643E-02    0.1008955995E+00    0.5769115528E+00
    0.1700000000E+04    0.4869453990E+00    0.5096146083E-01    0.2557214662E-02    0.1028782491E+00    0.5836562339E+00
    0.1900000000E+04    0.4944833226E+00    0.4847852274E-01    0.2410106354E-02    0.1044860653E+00    0.5893161218E+00
    0.2100000000E+04    0.5006980985E+00    0.4634264873E-01    0.2284329816E-02    0.1058135092E+00    0.5941527421E+00
    0.2300000000E+04    0.5059007044E+00    0.4448124944E-01    0.2175421451E-02    0.1069263321E+00    0.5983471829E+00
    0.2500000000E+04    0.5103135095E+00    0.4284076530E-01    0.2080071451E-02    0.1078715714E+00    0.6020293326E+00
    0.2700000000E+04    0.5140993243E+00    0.4138088828E-01    0.1995780881E-02    0.1086836816E+00    0.6052950978E+00
    0.2900000000E+04    0.5173798351E+00    0.4007072744E-01    0.1920631101E-02    0.1093884259E+00    0.6082170358E+00
    0.3100000000E+04    0.5202476572E+00    0.3888621488E-01    0.1853126142E-02    0.1100054217E+00    0.6108511850E+00
    0.3300000000E+04    0.5227744229E+00    0.3780831653E-01    0.1792083080E-02    0.1105498486E+00    0.6132416027E+00
    0.3500000000E+04    0.5250163369E+00    0.3682177439E-01    0.1736554472E-02    0.1110336226E+00    0.6154234669E+00
    0.3700000000E+04    0.5270180715E+00    0.3591420684E-01    0.1685772572E-02    0.1114662191E+00    0.6174252500E+00
    0.3900000000E+04    0.5288155485E+00    0.3507545411E-01    0.1639108587E-02    0.1118552606E+00    0.6192702767E+00
    0.4100000000E+04    0.5304379595E+00    0.3429709501E-01    0.1596042496E-02    0.1122069449E+00    0.6209778599E+00
    0.4300000000E+04    0.5319092560E+00    0.3357208476E-01    0.1556140379E-02    0.1125263592E+00    0.6225641461E+00
    0.4500000000E+04    0.5332492632E+00    0.3289448027E-01    0.1519037185E-02    0.1128177166E+00    0.6240427522E+00
    0.4700000000E+04    0.5344745242E+00    0.3225922894E-01    0.1484423483E-02    0.1130845342E+00    0.6254252524E+00
    0.4900000000E+04    0.5355989455E+00    0.3166200468E-01    0.1452035152E-02    0.1133297701E+00    0.6267215558E+00
    0.1000000000E+04    0.4413207971E+00    0.6426894445E-01    0.3353938160E-02    0.9317928516E-01    0.5520873781E+00
    0.3000000000E+04    0.5188604384E+00    0.3946405591E-01    0.1886003253E-02    0.1097068554E+00    0.6095670915E+00
    0.5000000000E+04    0.5361270918E+00    0.3137646719E-01    0.1436603325E-02    0.1134450930E+00    0.6273400989E+00
    0.7000000000E+04    0.5434843765E+00    0.2697894310E-01    0.1203482147E-02    0.1150633483E+00    0.6367499924E+00
    0.9000000000E+04    0.5475236064E+00    0.2409251546E-01    0.1055317601E-02    0.1159660266E+00    0.6427836727E+00
    0.1100000000E+05    0.5500658534E+00    0.2200295810E-01    0.9505430576E-03    0.1165432596E+00    0.6470663109E+00
    0.1300000000E+05    0.5518090409E+00    0.2039616726E-01    0.8714132814E-03    0.1169453733E+00    0.6503052930E+00
    0.1500000000E+05    0.5530766924E+00    0.1910883131E-01    0.8089229297E-03    0.1172424281E+00    0.6528639690E+00
    0.1700000000E+05    0.5540388866E+00    0.1804624889E-01    0.7579530118E-03    0.1174714542E+00    0.6549504573E+00
    0.1900000000E+05    0.5547934396E+00    0.1714909995E-01    0.7153499841E-03    0.1176538633E+00    0.6566935885E+00
    0.2100000000E+05    0.5554005379E+00    0.1637802394E-01    0.6790507517E-03    0.1178029017E+00    0.6581779025E+00
    0.2300000000E+05    0.5558992180E+00    0.1570570945E-01    0.6476411073E-03    0.1179272069E+00    0.6594614590E+00
    0.2500000000E+05    0.5563158919E+00    0.1511251536E-01    0.6201147726E-03    0.1180326547E+00    0.6605856162E+00
    0.2700000000E+05    0.5566690612E+00    0.1458389672E-01    0.5957335227E-03    0.1181233832E+00    0.6615807330E+00
    0.2900000000E+05    0.5569720678E+00    0.1410881591E-01    0.5739418121E-03    0.1182023926E+00    0.6624696604E+00
    0.3100000000E+05    0.5572347723E+00    0.1367872150E-01    0.5543124557E-03    0.1182719121E+00    0.6632699691E+00
    0.3300000000E+05    0.5574646181E+00    0.1328686933E-01    0.5365108376E-03    0.1183336334E+00    0.6639954193E+00
    0.3500000000E+05    0.5576673285E+00    0.1292785772E-01    0.5202706116E-03    0.1183888644E+00    0.6646569601E+00
    0.3700000000E+05    0.5578473750E+00    0.1259730131E-01    0.5053767719E-03    0.1184386321E+00    0.6652634266E+00
    0.3900000000E+05    0.5580083017E+00    0.1229159691E-01    0.4916535891E-03    0.1184837552E+00    0.6658220361E+00
    0.4100000000E+05    0.5581529532E+00    0.1200775233E-01    0.4789558405E-03    0.1185248940E+00    0.6663387502E+00
    0.4300000000E+05    0.5582836390E+00    0.1174325887E-01    0.4671623209E-03    0.1185625875E+00    0.6668185420E+00
    0.4500000000E+05    0.5584022531E+00    0.1149599502E-01    0.4561709657E-03    0.1185972801E+00    0.6672655967E+00
    0.4700000000E+05    0.5585103634E+00    0.1126415268E-01    0.4458951316E-03    0.1186293417E+00    0.6676834655E+00
    0.4900000000E+05    0.5586092790E+00    0.1104617982E-01    0.4362607250E-03    0.1186590825E+00    0.6680751834E+00
    0.1000000000E+05    0.5489250538E+00    0.2297286746E-01    0.9989142890E-03    0.1162831069E+00    0.6450879759E+00
    0.3000000000E+05    0.5571079455E+00    0.1388860301E-01    0.5638795942E-03    0.1182382223E+00    0.6628799562E+00
    0.5000000000E+05    0.5586556398E+00    0.1094196821E-01    0.4316637718E-03    0.1186731663E+00    0.6682620663E+00
    0.7000000000E+05    0.5592938833E+00    0.9339135378E-02    0.3617302916E-03    0.1188796236E+00    0.6711041077E+00
    0.9000000000E+05    0.5596361106E+00    0.8292235659E-02    0.3168703800E-03    0.1190056031E+00    0.6729275103E+00
    0.1100000000E+06    0.5598464149E+00    0.7538801829E-02    0.2850139916E-03    0.1190929857E+00    0.6742236474E+00
    0.1300000000E+06    0.5599869627E+00    0.6962698802E-02    0.2609124691E-03    0.1191584876E+00    0.6752056044E+00
    0.1500000000E+06    0.5600863817E+00    0.6503487799E-02    0.2418694877E-03    0.1192101985E+00    0.6759826611E+00
    0.1700000000E+06    0.5601596410E+00    0.6126173280E-02    0.2263398779E-03    0.1192525556E+00    0.6766173789E+00
    0.1900000000E+06    0.5602153046E+00    0.5808891157E-02    0.2133665478E-03    0.1192882177E+00    0.6771484872E+00
    0.2100000000E+06    0.5602586128E+00    0.5537178501E-02    0.2023210448E-03    0.1193188867E+00    0.6776014107E+00
    0.2300000000E+06    0.5602929446E+00    0.5301032190E-02    0.1927715051E-03    0.1193457090E+00    0.6779936208E+00
    0.2500000000E+06    0.5603205719E+00    0.5093281622E-02    0.1844101255E-03    0.1193694891E+00    0.6783375718E+00
    0.2700000000E+06    0.5603430754E+00    0.4908633352E-02    0.1770108526E-03    0.1193908105E+00    0.6786424125E+00
    0.2900000000E+06    0.5603615868E+00    0.4743082451E-02    0.1704034600E-03    0.1194101086E+00    0.6789150349E+00
    0.3100000000E+06    0.5603769365E+00    0.4593534962E-02    0.1644570070E-03    0.1194277160E+00    0.6791607428E+00
    0.3300000000E+06    0.5603897464E+00    0.4457557410E-02    0.1590689143E-03    0.1194438915E+00    0.6793836931E+00
    0.3500000000E+06    0.5604004907E+00    0.4333205727E-02    0.1541575350E-03    0.1194588405E+00    0.6795871961E+00
    0.3700000000E+06    0.5604095370E+00    0.4218905419E-02    0.1496569711E-03    0.1194727284E+00    0.6797739251E+00
    0.3900000000E+06    0.5604171740E+00    0.4113365785E-02    0.1455133769E-03    0.1194856898E+00    0.6799460657E+00
    0.4100000000E+06    0.5604236314E+00    0.4015517289E-02    0.1416822689E-03    0.1194978361E+00    0.6801054246E+00
    0.4300000000E+06    0.5604290939E+00    0.3924465053E-02    0.1381265346E-03    0.1195092602E+00    0.6802535100E+00
    0.4500000000E+06    0.5604337117E+00    0.3839453776E-02    0.1348149355E-03    0.1195200402E+00    0.6803915921E+00
    0.4700000000E+06    0.5604376077E+00    0.3759840906E-02    0.1317209648E-03    0.1195302425E+00    0.6805207494E+00
    0.4900000000E+06    0.5604408838E+00    0.3685075860E-02    0.1288219656E-03    0.1195399239E+00    0.6806419043E+00
    0.1000000000E+06    0.5597526840E+00    0.7887976622E-02    0.2997314965E-03    0.1190527738E+00    0.6736246396E+00
    0.3000000000E+06    0.5603696140E+00    0.4666473543E-02    0.1673545916E-03    0.1194191060E+00    0.6790409706E+00
    0.5000000000E+06    0.5604423164E+00    0.3649360281E-02    0.1274393800E-03    0.1195445850E+00    0.6806997334E+00
    0.7000000000E+06    0.5604530430E+00    0.3102412422E-02    0.1064603496E-03    0.1196194728E+00    0.6815815208E+00
    0.9000000000E+06    0.5604477853E+00    0.2747572652E-02    0.9306095091E-04    0.1196726418E+00    0.6821497592E+00
    0.1100000000E+07    0.5604373271E+00    0.2493365143E-02    0.8357550446E-04    0.1197137950E+00    0.6825549822E+00
    0.1300000000E+07    0.5604251686E+00    0.2299639259E-02    0.7641644975E-04    0.1197473379E+00    0.6828627442E+00
    0.1500000000E+07    0.5604126464E+00    0.2145620373E-02    0.7077089125E-04    0.1197756353E+00    0.6831067748E+00
    0.1700000000E+07    0.5604003128E+00    0.2019332500E-02    0.6617423489E-04    0.1198001004E+00    0.6833064355E+00
    0.1900000000E+07    0.5603883979E+00    0.1913319728E-02    0.6233935287E-04    0.1198216446E+00    0.6834737391E+00
    0.2100000000E+07    0.5603769888E+00    0.1822664275E-02    0.5907807020E-04    0.1198408892E+00    0.6836165868E+00
    0.2300000000E+07    0.5603661064E+00    0.1743973068E-02    0.5626128995E-04    0.1198582768E+00    0.6837404171E+00
    0.2500000000E+07    0.5603557403E+00    0.1674818881E-02    0.5379713422E-04    0.1198741335E+00    0.6838491125E+00
    0.2700000000E+07    0.5603458662E+00    0.1613413136E-02    0.5161821387E-04    0.1198887068E+00    0.6839455289E+00
    0.2900000000E+07    0.5603364539E+00    0.1558404769E-02    0.4967384079E-04    0.1199021886E+00    0.6840318200E+00
    0.3100000000E+07    0.5603274719E+00    0.1508751503E-02    0.4792506528E-04    0.1199147307E+00    0.6841096451E+00
    0.3300000000E+07    0.5603188891E+00    0.1463634592E-02    0.4634140274E-04    0.1199264554E+00    0.6841803060E+00
    0.3500000000E+07    0.5603106764E+00    0.1422400699E-02    0.4489860999E-04    0.1199374628E+00    0.6842448401E+00
    0.3700000000E+07    0.5603028066E+00    0.1384521232E-02    0.4357713562E-04    0.1199478354E+00    0.6843040861E+00
    0.3900000000E+07    0.5602952548E+00    0.1349563283E-02    0.4236101550E-04    0.1199576425E+00    0.6843587300E+00
    0.4100000000E+07    0.5602879981E+00    0.1317168437E-02    0.4123707007E-04    0.1199669424E+00    0.6844093394E+00
    0.4300000000E+07    0.5602810159E+00    0.1287037045E-02    0.4019431053E-04    0.1199757850E+00    0.6844563884E+00
    0.4500000000E+07    0.5602742892E+00    0.1258916384E-02    0.3922349263E-04    0.1199842131E+00    0.6845002764E+00
    0.4700000000E+07    0.5602678008E+00    0.1232591605E-02    0.3831677667E-04    0.1199922640E+00    0.6845413430E+00
    0.4900000000E+07    0.5602615352E+00    0.1207878726E-02    0.3746746500E-04    0.1199999698E+00    0.6845798786E+00
    0.1000000000E+07    0.5604429084E+00    0.2611055800E-02    0.8795455499E-04    0.1196943765E+00    0.6823675697E+00
    0.3000000000E+07    0.5603319111E+00    0.1532964374E-02    0.4877707696E-04    0.1199085688E+00    0.6840717023E+00
    0.5000000000E+07    0.5602584815E+00    0.1196076322E-02    0.3706250366E-04    0.1200037023E+00    0.6845982768E+00
    0.7000000000E+07    0.5602062458E+00    0.1015578331E-02    0.3092497530E-04    0.1200655960E+00    0.6848791870E+00
    0.9000000000E+07    0.5601658297E+00    0.8987199015E-03    0.2701211980E-04    0.1201115537E+00    0.6850605852E+00
    0.1100000000E+08    0.5601328894E+00    0.8151178303E-03    0.2424565251E-04    0.1201481241E+00    0.6851901264E+00
    0.1300000000E+08    0.5601050949E+00    0.7514705446E-03    0.2215959777E-04    0.1201784998E+00    0.6852886134E+00
    0.1500000000E+08    0.5600810563E+00    0.7009078847E-03    0.2051572479E-04    0.1202044790E+00    0.6853667686E+00
    0.1700000000E+08    0.5600598792E+00    0.6594747177E-03    0.1917803717E-04    0.1202271753E+00    0.6854307549E+00
    0.1900000000E+08    0.5600409545E+00    0.6247112990E-03    0.1806256505E-04    0.1202473264E+00    0.6854844001E+00
    0.2100000000E+08    0.5600238489E+00    0.5949966284E-03    0.1711431930E-04    0.1202654462E+00    0.6855302242E+00
    0.2300000000E+08    0.5600082429E+00    0.5692130904E-03    0.1629559912E-04    0.1202819072E+00    0.6855699630E+00
    0.2500000000E+08    0.5599938947E+00    0.5465616958E-03    0.1557958785E-04    0.1202969879E+00    0.6856048563E+00
    0.2700000000E+08    0.5599806164E+00    0.5264539981E-03    0.1494662589E-04    0.1203109021E+00    0.6856358169E+00
