  Pressure (Pa) 22mC5-400 (mol/kg) 2mC6-400 (mol/kg) 33mC5-400 (mol/kg) 23mC5-400 (mol/kg) C7-400 (mol/kg)
    0.1000000000E+01    0.3167383315E-02    0.3956573761E-02    0.1288581238E-03    0.3707727871E-03    0.5122827495E-02
    0.3000000000E+01    0.9332184329E-02    0.1151254879E-01    0.3749502814E-03    0.1092436442E-02    0.1499813856E-01
    0.5000000000E+01    0.1528241416E-01    0.1862332042E-01    0.6065524226E-03    0.1789000182E-02    0.2441037490E-01
    0.7000000000E+01    0.2103144839E-01    0.2532290547E-01    0.8247705388E-03    0.2462028415E-02    0.3339322502E-01
    0.9000000000E+01    0.2659154092E-01    0.3164203994E-01    0.1030603956E-02    0.3112954362E-02    0.4197714527E-01
    0.1100000000E+02    0.3197393931E-01    0.3760856077E-01    0.1224957748E-02    0.3743093562E-02    0.5018973992E-01
    0.1300000000E+02    0.3718898636E-01    0.4324773572E-01    0.1408653467E-02    0.4353655735E-02    0.5805608890E-01
    0.1500000000E+02    0.4224620949E-01    0.4858254952E-01    0.1582438442E-02    0.4945755245E-02    0.6559903114E-01
    0.1700000000E+02    0.4715439986E-01    0.5363395277E-01    0.1746993880E-02    0.5520420345E-02    0.7283941061E-01
    0.1900000000E+02    0.5192168240E-01    0.5842107923E-01    0.1902941926E-02    0.6078601375E-02    0.7979629056E-01
    0.2100000000E+02    0.5655557806E-01    0.6296143600E-01    0.2050851848E-02    0.6621178032E-02    0.8648714065E-01
    0.2300000000E+02    0.6106305912E-01    0.6727107044E-01    0.2191245462E-02    0.7148965847E-02    0.9292800094E-01
    0.2500000000E+02    0.6545059867E-01    0.7136471709E-01    0.2324601911E-02    0.7662721964E-02    0.9913362600E-01
    0.2700000000E+02    0.6972421469E-01    0.7525592736E-01    0.2451361879E-02    0.8163150302E-02    0.1051176119E+00
    0.2900000000E+02    0.7388950966E-01    0.7895718419E-01    0.2571931321E-02    0.8650906180E-02    0.1108925083E+00
    0.3100000000E+02    0.7795170602E-01    0.8248000378E-01    0.2686684768E-02    0.9126600474E-02    0.1164699180E+00
    0.3300000000E+02    0.8191567811E-01    0.8583502599E-01    0.2795968264E-02    0.9590803340E-02    0.1218605850E+00
    0.3500000000E+02    0.8578598092E-01    0.8903209483E-01    0.2900101987E-02    0.1004404759E-01    0.1270744730E+00
    0.3700000000E+02    0.8956687604E-01    0.9208033035E-01    0.2999382581E-02    0.1048683171E-01    0.1321208356E+00
    0.3900000000E+02    0.9326235512E-01    0.9498819293E-01    0.3094085249E-02    0.1091962262E-01    0.1370082788E+00
    0.4100000000E+02    0.9687616110E-01    0.9776354086E-01    0.3184465623E-02    0.1134285814E-01    0.1417448169E+00
    0.4300000000E+02    0.1004118075E+00    0.1004136821E+00    0.3270761447E-02    0.1175694928E-01    0.1463379233E+00
    0.4500000000E+02    0.1038725958E+00    0.1029454208E+00    0.3353194088E-02    0.1216228223E-01    0.1507945752E+00
    0.4700000000E+02    0.1072616317E+00    0.1053650991E+00    0.3431969899E-02    0.1255922027E-01    0.1551212946E+00
    0.4900000000E+02    0.1105818391E+00    0.1076786354E+00    0.3507281449E-02    0.1294810545E-01    0.1593241855E+00
    0.1000000000E+02    0.2930428535E-01    0.3466774116E-01    0.1129162616E-02    0.3430544347E-02    0.4612823515E-01
    0.3000000000E+02    0.7593318271E-01    0.8074021410E-01    0.2630012781E-02    0.8890224477E-02    0.1137052083E+00
    0.5000000000E+02    0.1122169995E+00    0.1087973422E+00    0.3543694811E-02    0.1313962968E-01    0.1613809966E+00
    0.7000000000E+02    0.1418985679E+00    0.1267643568E+00    0.4128015730E-02    0.1661657357E-01    0.1972298328E+00
    0.9000000000E+02    0.1670382763E+00    0.1386200580E+00    0.4512497895E-02    0.1956208171E-01    0.2254284756E+00
    0.1100000000E+03    0.1888709928E+00    0.1465594364E+00    0.4768665873E-02    0.2212061652E-01    0.2483643185E+00
    0.1300000000E+03    0.2081868063E+00    0.1518810078E+00    0.4938885162E-02    0.2438461100E-01    0.2675062488E+00
    0.1500000000E+03    0.2255182477E+00    0.1553954089E+00    0.5049643261E-02    0.2641636826E-01    0.2838107360E+00
    0.1700000000E+03    0.2412398846E+00    0.1576307345E+00    0.5118225520E-02    0.2825971174E-01    0.2979292759E+00
    0.1900000000E+03    0.2556247411E+00    0.1589430785E+00    0.5156310216E-02    0.2994658534E-01    0.3103222030E+00
    0.2100000000E+03    0.2688779517E+00    0.1595794504E+00    0.5172015655E-02    0.3150099034E-01    0.3213248313E+00
    0.2300000000E+03    0.2811577172E+00    0.1597152721E+00    0.5171120882E-02    0.3294143704E-01    0.3311877580E+00
    0.2500000000E+03    0.2925888401E+00    0.1594776084E+00    0.5157822438E-02    0.3428252828E-01    0.3401024217E+00
    0.2700000000E+03    0.3032717476E+00    0.1589600410E+00    0.5135219302E-02    0.3553601504E-01    0.3482178680E+00
    0.2900000000E+03    0.3132886719E+00    0.1582324681E+00    0.5105632679E-02    0.3671151954E-01    0.3556520742E+00
    0.3100000000E+03    0.3227079892E+00    0.1573477228E+00    0.5070822197E-02    0.3781704287E-01    0.3624997968E+00
    0.3300000000E+03    0.3315873309E+00    0.1563461411E+00    0.5032135318E-02    0.3885932899E-01    0.3688381316E+00
    0.3500000000E+03    0.3399758586E+00    0.1552587760E+00    0.4990612613E-02    0.3984413093E-01    0.3747305338E+00
    0.3700000000E+03    0.3479159572E+00    0.1541096984E+00    0.4947063225E-02    0.4077640883E-01    0.3802297751E+00
    0.3900000000E+03    0.3554445151E+00    0.1529176689E+00    0.4902119814E-02    0.4166047976E-01    0.3853801552E+00
    0.4100000000E+03    0.3625939065E+00    0.1516973704E+00    0.4856279111E-02    0.4250013263E-01    0.3902191784E+00
    0.4300000000E+03    0.3693927556E+00    0.1504603265E+00    0.4809932234E-02    0.4329871762E-01    0.3947788427E+00
    0.4500000000E+03    0.3758665390E+00    0.1492155950E+00    0.4763387602E-02    0.4405921661E-01    0.3990866419E+00
    0.4700000000E+03    0.3820380651E+00    0.1479702964E+00    0.4716888435E-02    0.4478429933E-01    0.4031663532E+00
    0.4900000000E+03    0.3879278614E+00    0.1467300193E+00    0.4670626244E-02    0.4547636862E-01    0.4070386629E+00
    0.1000000000E+03    0.1783109865E+00    0.1429833020E+00    0.4653490857E-02    0.2088304980E-01    0.2374470316E+00
    0.3000000000E+03    0.3180692077E+00    0.1578069711E+00    0.5088787951E-02    0.3727258140E-01    0.3591440668E+00
    0.5000000000E+03    0.3907729807E+00    0.1461131706E+00    0.4647632352E-02    0.4581071035E-01    0.4089027869E+00
    0.7000000000E+03    0.4365914069E+00    0.1346844956E+00    0.4222445771E-02    0.5119831042E-01    0.4386962173E+00
    0.9000000000E+03    0.4678409380E+00    0.1253226488E+00    0.3874962956E-02    0.5487743733E-01    0.4594344772E+00
    0.1100000000E+04    0.4902787687E+00    0.1177429652E+00    0.3594733146E-02    0.5752252286E-01    0.4750900891E+00
    0.1300000000E+04    0.5070273078E+00    0.1115174809E+00    0.3365950296E-02    0.5949953209E-01    0.4875252983E+00
    0.1500000000E+04    0.5199226159E+00    0.1063085724E+00    0.3175950030E-02    0.6102376777E-01    0.4977534451E+00
    0.1700000000E+04    0.5301069238E+00    0.1018727159E+00    0.3015485605E-02    0.6222923522E-01    0.5063833930E+00
    0.1900000000E+04    0.5383228491E+00    0.9803599336E-01    0.2877895117E-02    0.6320309796E-01    0.5138078453E+00
    0.2100000000E+04    0.5450710834E+00    0.9467275865E-01    0.2758337436E-02    0.6400415086E-01    0.5202939458E+00
    0.2300000000E+04    0.5506997720E+00    0.9169060579E-01    0.2653239670E-02    0.6467329436E-01    0.5260311314E+00
    0.2500000000E+04    0.5554575019E+00    0.8902026282E-01    0.2559919078E-02    0.6523974615E-01    0.5311582866E+00
    0.2700000000E+04    0.5595259240E+00    0.8660882817E-01    0.2476326667E-02    0.6572486635E-01    0.5357800542E+00
    0.2900000000E+04    0.5630405004E+00    0.8441519752E-01    0.2400872077E-02    0.6614459117E-01    0.5399770984E+00
    0.3100000000E+04    0.5661040806E+00    0.8240692327E-01    0.2332302395E-02    0.6651102587E-01    0.5438128144E+00
    0.3300000000E+04    0.5687960139E+00    0.8055802029E-01    0.2269616976E-02    0.6683351410E-01    0.5473378617E+00
    0.3500000000E+04    0.5711784025E+00    0.7884740584E-01    0.2212006620E-02    0.6711937212E-01    0.5505933111E+00
    0.3700000000E+04    0.5733004823E+00    0.7725777175E-01    0.2158809462E-02    0.6737440314E-01    0.5536128844E+00
    0.3900000000E+04    0.5752017466E+00    0.7577475586E-01    0.2109478503E-02    0.6760326433E-01    0.5564245812E+00
    0.4100000000E+04    0.5769142119E+00    0.7438632442E-01    0.2063557368E-02    0.6780973300E-01    0.5590518828E+00
    0.4300000000E+04    0.5784640856E+00    0.7308230520E-01    0.2020661981E-02    0.6799690262E-01    0.5615146583E+00
    0.4500000000E+04    0.5798730111E+00    0.7185402996E-01    0.1980466529E-02    0.6816732920E-01    0.5638298562E+00
    0.4700000000E+04    0.5811590081E+00    0.7069405756E-01    0.1942692602E-02    0.6832314185E-01    0.5660120402E+00
    0.4900000000E+04    0.5823371927E+00    0.6959595695E-01    0.1907100686E-02    0.6846612751E-01    0.5680738076E+00
    0.1000000000E+04    0.4799257767E+00    0.1213382959E+00    0.3727478711E-02    0.5630163274E-01    0.4677530011E+00
    0.3000000000E+04    0.5646232392E+00    0.8338964559E-01    0.2365794266E-02    0.6633383098E-01    0.5419366999E+00
    0.5000000000E+04    0.5828899245E+00    0.6906833205E-01    0.1890057088E-02    0.6853329147E-01    0.5690630174E+00
    0.7000000000E+04    0.5905419467E+00    0.6072294013E-01    0.1625473210E-02    0.6947041148E-01    0.5845680494E+00
    0.9000000000E+04    0.5947012947E+00    0.5501429674E-01    0.1449831849E-02    0.6998859980E-01    0.5949978589E+00
    0.1100000000E+05    0.5973023630E+00    0.5076458761E-01    0.1321830429E-02    0.7031825934E-01    0.6026563633E+00
    0.1300000000E+05    0.5990780686E+00    0.4742924620E-01    0.1222981235E-02    0.7054719169E-01    0.6085998076E+00
    0.1500000000E+05    0.6003653648E+00    0.4471456862E-01    0.1143557907E-02    0.7071599745E-01    0.6133921545E+00
    0.1700000000E+05    0.6013402867E+00    0.4244537332E-01    0.1077872051E-02    0.7084601134E-01    0.6173664536E+00
    0.1900000000E+05    0.6021035814E+00    0.4050943393E-01    0.1022337412E-02    0.7094951486E-01    0.6207340948E+00
    0.2100000000E+05    0.6027169954E+00    0.3883089978E-01    0.9745623138E-03    0.7103407920E-01    0.6236367433E+00
    0.2300000000E+05    0.6032204473E+00    0.3735632019E-01    0.9328804487E-03    0.7110462777E-01    0.6261734614E+00
    0.2500000000E+05    0.6036408739E+00    0.3604674575E-01    0.8960894782E-03    0.7116450228E-01    0.6284159319E+00
    0.2700000000E+05    0.6039971015E+00    0.3487300185E-01    0.8632965554E-03    0.7121605193E-01    0.6304175071E+00
    0.2900000000E+05    0.6043026797E+00    0.3381272632E-01    0.8338225497E-03    0.7126097735E-01    0.6322188444E+00
    0.3100000000E+05    0.6045676063E+00    0.3284843977E-01    0.8071402621E-03    0.7130054070E-01    0.6338515546E+00
    0.3300000000E+05    0.6047994176E+00    0.3196624733E-01    0.7828332080E-03    0.7133569890E-01    0.6353406436E+00
    0.3500000000E+05    0.6050039007E+00    0.3115494046E-01    0.7605673244E-03    0.7136719103E-01    0.6367061917E+00
    0.3700000000E+05    0.6051855724E+00    0.3040536039E-01    0.7400710590E-03    0.7139559730E-01    0.6379645388E+00
    0.3900000000E+05    0.6053480093E+00    0.2970993750E-01    0.7211210521E-03    0.7142137976E-01    0.6391291372E+00
    0.4100000000E+05    0.6054940795E+00    0.2906235164E-01    0.7035316419E-03    0.7144491107E-01    0.6402111779E+00
    0.4300000000E+05    0.6056261098E+00    0.2845727750E-01    0.6871470393E-03    0.7146649532E-01    0.6412200587E+00
    0.4500000000E+05    0.6057460075E+00    0.2789019090E-01    0.6718354050E-03    0.7148638315E-01    0.6421637384E+00
    0.4700000000E+05    0.6058553505E+00    0.2735721945E-01    0.6574843039E-03    0.7150478310E-01    0.6430490088E+00
    0.4900000000E+05    0.6059554553E+00    0.2685502599E-01    0.6439971731E-03    0.7152187019E-01    0.6438817067E+00
    0.1000000000E+05    0.5961368243E+00    0.5274948181E-01    0.1381326856E-02    0.7016984373E-01    0.5990910445E+00
    0.3000000000E+05    0.6044397055E+00    0.3331952479E-01    0.8201606851E-03    0.7128136352E-01    0.6330545828E+00
    0.5000000000E+05    0.6060023964E+00    0.2661455146E-01    0.6375510653E-03    0.7152996856E-01    0.6442799454E+00
    0.7000000000E+05    0.6066508991E+00    0.2288508199E-01    0.5386176497E-03    0.7164930113E-01    0.6504151854E+00
    0.9000000000E+05    0.6070017749E+00    0.2041791002E-01    0.4742927050E-03    0.7172286747E-01    0.6544319895E+00
    0.1100000000E+06    0.6072196636E+00    0.1862705619E-01    0.4282013931E-03    0.7177435074E-01    0.6573270798E+00
    0.1300000000E+06    0.6073669753E+00    0.1724907407E-01    0.3931013856E-03    0.7181323957E-01    0.6595430461E+00
    0.1500000000E+06    0.6074724953E+00    0.1614532664E-01    0.3652282415E-03    0.7184414515E-01    0.6613107415E+00
    0.1700000000E+06    0.6075513081E+00    0.1523486303E-01    0.3424056406E-03    0.7186960733E-01    0.6627640501E+00
    0.1900000000E+06    0.6076120658E+00    0.1446677064E-01    0.3232761908E-03    0.7189115424E-01    0.6639867194E+00
    0.2100000000E+06    0.6076600774E+00    0.1380718759E-01    0.3069435534E-03    0.7190976786E-01    0.6650342008E+00
    0.2300000000E+06    0.6076987766E+00    0.1323258661E-01    0.2927888688E-03    0.7192611217E-01    0.6659448764E+00
    0.2500000000E+06    0.6077304795E+00    0.1272603658E-01    0.2803692812E-03    0.7194065474E-01    0.6667462776E+00
    0.2700000000E+06    0.6077568029E+00    0.1227499628E-01    0.2693584209E-03    0.7195373598E-01    0.6674587399E+00
    0.2900000000E+06    0.6077789085E+00    0.1186994890E-01    0.2595097689E-03    0.7196561059E-01    0.6680976561E+00
    0.3100000000E+06    0.6077976516E+00    0.1150352287E-01    0.2506331860E-03    0.7197647369E-01    0.6686749224E+00
    0.3300000000E+06    0.6078136753E+00    0.1116990648E-01    0.2425793557E-03    0.7198647772E-01    0.6691998993E+00
    0.3500000000E+06    0.6078274718E+00    0.1086444686E-01    0.2352291717E-03    0.7199574386E-01    0.6696800670E+00
    0.3700000000E+06    0.6078394241E+00    0.1058336833E-01    0.2284863118E-03    0.7200436991E-01    0.6701214854E+00
    0.3900000000E+06    0.6078498341E+00    0.1032357021E-01    0.2222719280E-03    0.7201243584E-01    0.6705291236E+00
    0.4100000000E+06    0.6078589432E+00    0.1008247891E-01    0.2165207733E-03    0.7202000782E-01    0.6709071003E+00
    0.4300000000E+06    0.6078669463E+00    0.9857937849E-02    0.2111783292E-03    0.7202714116E-01    0.6712588621E+00
    0.4500000000E+06    0.6078740024E+00    0.9648124268E-02    0.2061986407E-03    0.7203388257E-01    0.6715873190E+00
    0.4700000000E+06    0.6078802426E+00    0.9451485465E-02    0.2015426625E-03    0.7204027179E-01    0.6718949467E+00
    0.4900000000E+06    0.6078857755E+00    0.9266689353E-02    0.1971769792E-03    0.7204634292E-01    0.6721838672E+00
    0.1000000000E+06    0.6071222554E+00    0.1945860767E-01    0.4495380561E-03    0.7175060675E-01    0.6559849373E+00
    0.3000000000E+06    0.6077886561E+00    0.1168230260E-01    0.2549601146E-03    0.7197115821E-01    0.6683933599E+00
    0.5000000000E+06    0.6078883058E+00    0.9178366629E-02    0.1950938442E-03    0.7204926856E-01    0.6723218941E+00
    0.7000000000E+06    0.6079176226E+00    0.7822169155E-02    0.1634002859E-03    0.7209651105E-01    0.6744363006E+00
    0.9000000000E+06    0.6079265747E+00    0.6938673772E-02    0.1430737050E-03    0.7213030233E-01    0.6758086826E+00
    0.1100000000E+07    0.6079276239E+00    0.6303970830E-02    0.1286445356E-03    0.7215658226E-01    0.6767921405E+00
    0.1300000000E+07    0.6079251374E+00    0.5819286740E-02    0.1177320951E-03    0.7217807434E-01    0.6775417585E+00
    0.1500000000E+07    0.6079209589E+00    0.5433333538E-02    0.1091131015E-03    0.7219625052E-01    0.6781378151E+00
    0.1700000000E+07    0.6079159623E+00    0.5116465966E-02    0.1020865623E-03    0.7221199540E-01    0.6786266037E+00
    0.1900000000E+07    0.6079105953E+00    0.4850188482E-02    0.9621834268E-04    0.7222588174E-01    0.6790369522E+00
    0.2100000000E+07    0.6079050988E+00    0.4622280487E-02    0.9122343547E-04    0.7223830146E-01    0.6793878787E+00
    0.2300000000E+07    0.6078996062E+00    0.4424297898E-02    0.8690603047E-04    0.7224953447E-01    0.6796925071E+00
    0.2500000000E+07    0.6078941925E+00    0.4250192679E-02    0.8312659841E-04    0.7225978759E-01    0.6799602269E+00
    0.2700000000E+07    0.6078888992E+00    0.4095503274E-02    0.7978268999E-04    0.7226921797E-01    0.6801979575E+00
    0.2900000000E+07    0.6078837480E+00    0.3956856253E-02    0.7679717332E-04    0.7227794776E-01    0.6804109266E+00
    0.3100000000E+07    0.6078787493E+00    0.3831646963E-02    0.7411072918E-04    0.7228607383E-01    0.6806031672E+00
    0.3300000000E+07    0.6078739062E+00    0.3717827790E-02    0.7167689557E-04    0.7229367426E-01    0.6807778477E+00
    0.3500000000E+07    0.6078692175E+00    0.3613763650E-02    0.6945869814E-04    0.7230081290E-01    0.6809374966E+00
    0.3700000000E+07    0.6078646798E+00    0.3518130829E-02    0.6742629968E-04    0.7230754266E-01    0.6810841595E+00
    0.3900000000E+07    0.6078602879E+00    0.3429844599E-02    0.6555532381E-04    0.7231390783E-01    0.6812195120E+00
    0.4100000000E+07    0.6078560361E+00    0.3348006406E-02    0.6382563560E-04    0.7231994588E-01    0.6813449415E+00
    0.4300000000E+07    0.6078519180E+00    0.3271864661E-02    0.6222043896E-04    0.7232568881E-01    0.6814616078E+00
    0.4500000000E+07    0.6078479275E+00    0.3200785186E-02    0.6072559807E-04    0.7233116411E-01    0.6815704892E+00
    0.4700000000E+07    0.6078440584E+00    0.3134228609E-02    0.5932911987E-04    0.7233639563E-01    0.6816724174E+00
    0.4900000000E+07    0.6078403046E+00    0.3071732874E-02    0.5802075446E-04    0.7234140415E-01    0.6817681045E+00
    0.1000000000E+07    0.6079277234E+00    0.6598003181E-02    0.1353100459E-03    0.7214416908E-01    0.6763368001E+00
    0.3000000000E+07    0.6078812293E+00    0.3892710973E-02    0.7541972685E-04    0.7228208100E-01    0.6805094227E+00
    0.5000000000E+07    0.6078384691E+00    0.3041881136E-02    0.5739680932E-04    0.7234383058E-01    0.6818138029E+00
    0.7000000000E+07    0.6078065772E+00    0.2584949487E-02    0.4793229632E-04    0.7238410166E-01    0.6825126792E+00
    0.9000000000E+07    0.6077814130E+00    0.2288721709E-02    0.4189037451E-04    0.7241404093E-01    0.6829651299E+00
    0.1100000000E+08    0.6077606809E+00    0.2076603356E-02    0.3761479594E-04    0.7243788316E-01    0.6832888013E+00
    0.1300000000E+08    0.6077430669E+00    0.1915007019E-02    0.3438868111E-04    0.7245769727E-01    0.6835352014E+00
    0.1500000000E+08    0.6077277605E+00    0.1786565112E-02    0.3184511459E-04    0.7247465027E-01    0.6837309346E+00
    0.1700000000E+08    0.6077142290E+00    0.1681270454E-02    0.2977446196E-04    0.7248946556E-01    0.6838913169E+00
    0.1900000000E+08    0.6077021043E+00    0.1592895157E-02    0.2804719932E-04    0.7250262269E-01    0.6840258736E+00
    0.2100000000E+08    0.6076911219E+00    0.1517332640E-02    0.2657845899E-04    0.7251445600E-01    0.6841408819E+00
    0.2300000000E+08    0.6076810851E+00    0.1451750228E-02    0.2531002844E-04    0.7252520786E-01    0.6842406697E+00
    0.2500000000E+08    0.6076718440E+00    0.1394122000E-02    0.2420048453E-04    0.7253505964E-01    0.6843283308E+00
    0.2700000000E+08    0.6076632819E+00    0.1342955357E-02    0.2321944903E-04    0.7254415057E-01    0.6844061438E+00
