  Pressure (Pa) 22mC5-400 (mol/kg) 2mC6-400 (mol/kg) 33mC5-400 (mol/kg) 23mC5-400 (mol/kg) C7-400 (mol/kg)
    0.1000000000E+01    0.3167811625E-02    0.3948827747E-02    0.1286093223E-03    0.2781171593E-03    0.6813508128E-02
    0.3000000000E+01    0.9335884975E-02    0.1144685836E-01    0.3728413279E-03    0.8196519332E-03    0.1985333261E-01
    0.5000000000E+01    0.1529229244E-01    0.1845109136E-01    0.6010257636E-03    0.1342616613E-02    0.3216752534E-01
    0.7000000000E+01    0.2105007164E-01    0.2500378486E-01    0.8145351660E-03    0.1848154860E-02    0.4381791785E-01
    0.9000000000E+01    0.2662117943E-01    0.3114259811E-01    0.1014592620E-02    0.2337315540E-02    0.5485943379E-01
    0.1100000000E+02    0.3201660186E-01    0.3690119939E-01    0.1202291530E-02    0.2811062369E-02    0.6534103071E-01
    0.1300000000E+02    0.3724645107E-01    0.4230977974E-01    0.1378612320E-02    0.3270282405E-02    0.7530649169E-01
    0.1500000000E+02    0.4232005068E-01    0.4739548910E-01    0.1544436618E-02    0.3715793548E-02    0.8479509403E-01
    0.1700000000E+02    0.4724601155E-01    0.5218280826E-01    0.1700559347E-02    0.4148351173E-02    0.9384217668E-01
    0.1900000000E+02    0.5203229884E-01    0.5669386753E-01    0.1847699082E-02    0.4568654019E-02    0.1024796239E+00
    0.2100000000E+02    0.5668629169E-01    0.6094872065E-01    0.1986506954E-02    0.4977349423E-02    0.1107362792E+00
    0.2300000000E+02    0.6121483643E-01    0.6496558134E-01    0.2117574338E-02    0.5375037985E-02    0.1186383011E+00
    0.2500000000E+02    0.6562429410E-01    0.6876102818E-01    0.2241439508E-02    0.5762277734E-02    0.1262094701E+00
    0.2700000000E+02    0.6992058290E-01    0.7235018271E-01    0.2358593429E-02    0.6139587858E-02    0.1334714541E+00
    0.2900000000E+02    0.7410921637E-01    0.7574686482E-01    0.2469484800E-02    0.6507452046E-02    0.1404440390E+00
    0.3100000000E+02    0.7819533758E-01    0.7896372859E-01    0.2574524471E-02    0.6866321490E-02    0.1471453304E+00
    0.3300000000E+02    0.8218375000E-01    0.8201238159E-01    0.2674089316E-02    0.7216617594E-02    0.1535919286E+00
    0.3500000000E+02    0.8607894530E-01    0.8490348978E-01    0.2768525642E-02    0.7558734408E-02    0.1597990832E+00
    0.3700000000E+02    0.8988512842E-01    0.8764687013E-01    0.2858152196E-02    0.7893040833E-02    0.1657808284E+00
    0.3900000000E+02    0.9360624032E-01    0.9025157246E-01    0.2943262823E-02    0.8219882609E-02    0.1715501025E+00
    0.4100000000E+02    0.9724597856E-01    0.9272595210E-01    0.3024128827E-02    0.8539584129E-02    0.1771188537E+00
    0.4300000000E+02    0.1008078160E+00    0.9507773445E-01    0.3101001064E-02    0.8852450070E-02    0.1824981333E+00
    0.4500000000E+02    0.1042950178E+00    0.9731407247E-01    0.3174111813E-02    0.9158766891E-02    0.1876981794E+00
    0.4700000000E+02    0.1077106568E+00    0.9944159802E-01    0.3243676438E-02    0.9458804184E-02    0.1927284903E+00
    0.4900000000E+02    0.1110576277E+00    0.1014664678E+00    0.3309894887E-02    0.9752815916E-02    0.1975978911E+00
    0.1000000000E+02    0.2934019988E-01    0.3406746226E-01    0.1109923146E-02    0.2576058540E-02    0.6016737279E-01
    0.3000000000E+02    0.7616478317E-01    0.7737702529E-01    0.2522711789E-02    0.6687984104E-02    0.1438275255E+00
    0.5000000000E+02    0.1127062218E+00    0.1024422111E+00    0.3341807893E-02    0.9897637567E-02    0.1999748387E+00
    0.7000000000E+02    0.1426598338E+00    0.1177622919E+00    0.3843198234E-02    0.1252921137E-01    0.2407846117E+00
    0.9000000000E+02    0.1680703279E+00    0.1273820933E+00    0.4158294027E-02    0.1476209931E-01    0.2721003573E+00
    0.1100000000E+03    0.1901676855E+00    0.1334509938E+00    0.4356995687E-02    0.1670421957E-01    0.2970913102E+00
    0.1300000000E+03    0.2097409512E+00    0.1372048069E+00    0.4479551229E-02    0.1842480532E-01    0.3176330664E+00
    0.1500000000E+03    0.2273229467E+00    0.1393974338E+00    0.4550559345E-02    0.1997060942E-01    0.3349109269E+00
    0.1700000000E+03    0.2432889176E+00    0.1405104660E+00    0.4585769222E-02    0.2137455897E-01    0.3497133261E+00
    0.1900000000E+03    0.2579125960E+00    0.1408630408E+00    0.4595645200E-02    0.2266067401E-01    0.3625867280E+00
    0.2100000000E+03    0.2713997296E+00    0.1406730247E+00    0.4587352823E-02    0.2384700929E-01    0.3739228874E+00
    0.2300000000E+03    0.2839090065E+00    0.1400928198E+00    0.4565921817E-02    0.2494749027E-01    0.3840106806E+00
    0.2500000000E+03    0.2955655963E+00    0.1392312020E+00    0.4534955906E-02    0.2597310126E-01    0.3930682763E+00
    0.2700000000E+03    0.3064701904E+00    0.1381671140E+00    0.4497081525E-02    0.2693267862E-01    0.4012638589E+00
    0.2900000000E+03    0.3167052030E+00    0.1369586407E+00    0.4454240157E-02    0.2783345495E-01    0.4087294099E+00
    0.3100000000E+03    0.3263391291E+00    0.1356490034E+00    0.4407883811E-02    0.2868144142E-01    0.4155701282E+00
    0.3300000000E+03    0.3354296716E+00    0.1342706549E+00    0.4359108777E-02    0.2948170223E-01    0.4218710275E+00
    0.3500000000E+03    0.3440260296E+00    0.1328481328E+00    0.4308748982E-02    0.3023855538E-01    0.4277016546E+00
    0.3700000000E+03    0.3521706024E+00    0.1314000834E+00    0.4257442351E-02    0.3095572217E-01    0.4331195299E+00
    0.3900000000E+03    0.3599002774E+00    0.1299407203E+00    0.4205678711E-02    0.3163644024E-01    0.4381726977E+00
    0.4100000000E+03    0.3672474188E+00    0.1284808890E+00    0.4153834884E-02    0.3228355034E-01    0.4429016463E+00
    0.4300000000E+03    0.3742406367E+00    0.1270288557E+00    0.4102200718E-02    0.3289956381E-01    0.4473407733E+00
    0.4500000000E+03    0.3809053926E+00    0.1255908967E+00    0.4050998619E-02    0.3348671566E-01    0.4515195184E+00
    0.4700000000E+03    0.3872644819E+00    0.1241717442E+00    0.4000398367E-02    0.3404700699E-01    0.4554632488E+00
    0.4900000000E+03    0.3933384222E+00    0.1227749260E+00    0.3950528448E-02    0.3458223900E-01    0.4591939585E+00
    0.1000000000E+03    0.1794762412E+00    0.1307683604E+00    0.4269197892E-02    0.1576451221E-01    0.2852481219E+00
    0.3000000000E+03    0.3215934727E+00    0.1363142252E+00    0.4431425753E-02    0.2826371086E-01    0.4122221494E+00
    0.5000000000E+03    0.3962743294E+00    0.1220857310E+00    0.3925898420E-02    0.3484097292E-01    0.4609855211E+00
    0.7000000000E+03    0.4437309371E+00    0.1097896057E+00    0.3483983957E-02    0.3902567135E-01    0.4892162290E+00
    0.9000000000E+03    0.4763042296E+00    0.1001854361E+00    0.3136270694E-02    0.4190145173E-01    0.5083911544E+00
    0.1100000000E+04    0.4998036781E+00    0.9264941402E-01    0.2862783022E-02    0.4397870051E-01    0.5225874801E+00
    0.1300000000E+04    0.5174065839E+00    0.8661169743E-01    0.2643943692E-02    0.4553669652E-01    0.5336829851E+00
    0.1500000000E+04    0.5309955028E+00    0.8166590396E-01    0.2465345352E-02    0.4674099190E-01    0.5426845962E+00
    0.1700000000E+04    0.5417490269E+00    0.7753202737E-01    0.2316856859E-02    0.4769527990E-01    0.5501896075E+00
    0.1900000000E+04    0.5504373760E+00    0.7401564904E-01    0.2191342800E-02    0.4846735543E-01    0.5565788415E+00
    0.2100000000E+04    0.5575820277E+00    0.7097918454E-01    0.2083702264E-02    0.4910313950E-01    0.5621086501E+00
    0.2300000000E+04    0.5635468148E+00    0.6832313996E-01    0.1990220287E-02    0.4963468521E-01    0.5669590690E+00
    0.2500000000E+04    0.5685922488E+00    0.6597401765E-01    0.1908139438E-02    0.5008495336E-01    0.5712609150E+00
    0.2700000000E+04    0.5729091293E+00    0.6387643065E-01    0.1835375589E-02    0.5047076804E-01    0.5751119375E+00
    0.2900000000E+04    0.5766400107E+00    0.6198787055E-01    0.1770326771E-02    0.5080470479E-01    0.5785869044E+00
    0.3100000000E+04    0.5798932983E+00    0.6027516741E-01    0.1711742466E-02    0.5109633105E-01    0.5817441529E+00
    0.3300000000E+04    0.5827527384E+00    0.5871204688E-01    0.1658632646E-02    0.5135304122E-01    0.5846299839E+00
    0.3500000000E+04    0.5852839479E+00    0.5727741230E-01    0.1610203390E-02    0.5158063167E-01    0.5872816952E+00
    0.3700000000E+04    0.5875389979E+00    0.5595411509E-01    0.1565810545E-02    0.5178370427E-01    0.5897297257E+00
    0.3900000000E+04    0.5895596899E+00    0.5472805973E-01    0.1524925869E-02    0.5196595502E-01    0.5919992055E+00
    0.4100000000E+04    0.5913799349E+00    0.5358754238E-01    0.1487111931E-02    0.5213038367E-01    0.5941110953E+00
    0.4300000000E+04    0.5930275072E+00    0.5252275497E-01    0.1452003247E-02    0.5227944828E-01    0.5960830407E+00
    0.4500000000E+04    0.5945253558E+00    0.5152540865E-01    0.1419291936E-02    0.5241518082E-01    0.5979300201E+00
    0.4700000000E+04    0.5958925960E+00    0.5058844413E-01    0.1388716674E-02    0.5253927464E-01    0.5996648442E+00
    0.4900000000E+04    0.5971452688E+00    0.4970580659E-01    0.1360054110E-02    0.5265315143E-01    0.6012985453E+00
    0.1000000000E+04    0.4889490799E+00    0.9619853249E-01    0.2991592076E-02    0.4301887877E-01    0.5159651841E+00
    0.3000000000E+04    0.5783206296E+00    0.6111131764E-01    0.1740293677E-02    0.5095530140E-01    0.5802021083E+00
    0.5000000000E+04    0.5977329619E+00    0.4928319862E-01    0.1346378983E-02    0.5270664143E-01    0.6020805129E+00
    0.7000000000E+04    0.6058695243E+00    0.4272223838E-01    0.1138219822E-02    0.5345282831E-01    0.6141791775E+00
    0.9000000000E+04    0.6102922515E+00    0.3835915513E-01    0.1004212805E-02    0.5386520916E-01    0.6221503685E+00
    0.1100000000E+05    0.6130580250E+00    0.3517105577E-01    0.9085528409E-03    0.5412741267E-01    0.6279180491E+00
    0.1300000000E+05    0.6149463193E+00    0.3270218970E-01    0.8357808846E-03    0.5430941538E-01    0.6323443990E+00
    0.1500000000E+05    0.6163154509E+00    0.3071313280E-01    0.7779778714E-03    0.5444356546E-01    0.6358819683E+00
    0.1700000000E+05    0.6173525812E+00    0.2906387515E-01    0.7306067559E-03    0.5454685482E-01    0.6387944270E+00
    0.1900000000E+05    0.6181648054E+00    0.2766610203E-01    0.6908537752E-03    0.5462906136E-01    0.6412472877E+00
    0.2100000000E+05    0.6188177498E+00    0.2646086776E-01    0.6568675256E-03    0.5469621082E-01    0.6433504443E+00
    0.2300000000E+05    0.6193538363E+00    0.2540706388E-01    0.6273725569E-03    0.5475222041E-01    0.6451801322E+00
    0.2500000000E+05    0.6198016876E+00    0.2447499674E-01    0.6014573327E-03    0.5479974812E-01    0.6467911357E+00
    0.2700000000E+05    0.6201813070E+00    0.2364259192E-01    0.5784505256E-03    0.5484066204E-01    0.6482239813E+00
    0.2900000000E+05    0.6205070905E+00    0.2289304027E-01    0.5578451728E-03    0.5487631422E-01    0.6495093849E+00
    0.3100000000E+05    0.6207896604E+00    0.2221327872E-01    0.5392502241E-03    0.5490770789E-01    0.6506711117E+00
    0.3300000000E+05    0.6210370232E+00    0.2159297628E-01    0.5223584978E-03    0.5493560353E-01    0.6517278783E+00
    0.3500000000E+05    0.6212553277E+00    0.2102383757E-01    0.5069248516E-03    0.5496058840E-01    0.6526946544E+00
    0.3700000000E+05    0.6214493728E+00    0.2049911238E-01    0.4927509269E-03    0.5498312345E-01    0.6535835762E+00
    0.3900000000E+05    0.6216229586E+00    0.2001324276E-01    0.4796742470E-03    0.5500357571E-01    0.6544046013E+00
    0.4100000000E+05    0.6217791329E+00    0.1956160416E-01    0.4675602703E-03    0.5502224117E-01    0.6551659879E+00
    0.4300000000E+05    0.6219203683E+00    0.1914031231E-01    0.4562964963E-03    0.5503936133E-01    0.6558746505E+00
    0.4500000000E+05    0.6220486915E+00    0.1874607690E-01    0.4457880259E-03    0.5505513519E-01    0.6565364289E+00
    0.4700000000E+05    0.6221657796E+00    0.1837608928E-01    0.4359541675E-03    0.5506972837E-01    0.6571562942E+00
    0.4900000000E+05    0.6222730320E+00    0.1802793505E-01    0.4267258123E-03    0.5508327980E-01    0.6577385082E+00
    0.1000000000E+05    0.6118186689E+00    0.3665401680E-01    0.9528124325E-03    0.5400938273E-01    0.6252419677E+00
    0.3000000000E+05    0.6206532258E+00    0.2254513607E-01    0.5483172676E-03    0.5489249110E-01    0.6501044373E+00
    0.5000000000E+05    0.6223233451E+00    0.1786138157E-01    0.4223197539E-03    0.5508970229E-01    0.6580166651E+00
    0.7000000000E+05    0.6230202251E+00    0.1529130309E-01    0.3550619580E-03    0.5518432861E-01    0.6622785222E+00
    0.9000000000E+05    0.6233994812E+00    0.1360411849E-01    0.3116906281E-03    0.5524265466E-01    0.6650451372E+00
    0.1100000000E+06    0.6236364347E+00    0.1238570719E-01    0.2807819207E-03    0.5528346899E-01    0.6670276424E+00
    0.1300000000E+06    0.6237976553E+00    0.1145170276E-01    0.2573364583E-03    0.5531429721E-01    0.6685386163E+00
    0.1500000000E+06    0.6239139015E+00    0.1070574028E-01    0.2387744496E-03    0.5533879595E-01    0.6697399238E+00
    0.1700000000E+06    0.6240013214E+00    0.1009183770E-01    0.2236124859E-03    0.5535897911E-01    0.6707249222E+00
    0.1900000000E+06    0.6240691944E+00    0.9574927212E-02    0.2109292559E-03    0.5537605831E-01    0.6715517522E+00
    0.2100000000E+06    0.6241232258E+00    0.9131761591E-02    0.2001184662E-03    0.5539081209E-01    0.6722587707E+00
    0.2300000000E+06    0.6241671127E+00    0.8746232851E-02    0.1907627080E-03    0.5540376685E-01    0.6728724464E+00
    0.2500000000E+06    0.6242033535E+00    0.8406776168E-02    0.1825640088E-03    0.5541529330E-01    0.6734117155E+00
    0.2700000000E+06    0.6242336962E+00    0.8104842601E-02    0.1753032330E-03    0.5542566129E-01    0.6738905326E+00
    0.2900000000E+06    0.6242593990E+00    0.7833956407E-02    0.1688151635E-03    0.5543507276E-01    0.6743194394E+00
    0.3100000000E+06    0.6242813904E+00    0.7589109491E-02    0.1629725759E-03    0.5544368237E-01    0.6747065684E+00
    0.3300000000E+06    0.6243003698E+00    0.7366359088E-02    0.1576757057E-03    0.5545161099E-01    0.6750583080E+00
    0.3500000000E+06    0.6243168738E+00    0.7162552637E-02    0.1528450770E-03    0.5545895468E-01    0.6753797562E+00
    0.3700000000E+06    0.6243313206E+00    0.6975134878E-02    0.1484164934E-03    0.5546579097E-01    0.6756750374E+00
    0.3900000000E+06    0.6243440410E+00    0.6802009601E-02    0.1443374611E-03    0.5547218325E-01    0.6759475294E+00
    0.4100000000E+06    0.6243552996E+00    0.6641438631E-02    0.1405645846E-03    0.5547818399E-01    0.6762000288E+00
    0.4300000000E+06    0.6243653107E+00    0.6491966744E-02    0.1370616367E-03    0.5548383702E-01    0.6764348736E+00
    0.4500000000E+06    0.6243742496E+00    0.6352364994E-02    0.1337981068E-03    0.5548917938E-01    0.6766540355E+00
    0.4700000000E+06    0.6243822610E+00    0.6221587325E-02    0.1307480917E-03    0.5549424257E-01    0.6768591908E+00
    0.4900000000E+06    0.6243894653E+00    0.6098736960E-02    0.1278894397E-03    0.5549905362E-01    0.6770517750E+00
    0.1000000000E+06    0.6235303219E+00    0.1295080835E-01    0.2950729547E-03    0.5526464582E-01    0.6661097629E+00
    0.3000000000E+06    0.6242708104E+00    0.7708545719E-02    0.1658199665E-03    0.5543946957E-01    0.6745177921E+00
    0.5000000000E+06    0.6243927970E+00    0.6040038486E-02    0.1265258102E-03    0.5550137202E-01    0.6771437464E+00
    0.7000000000E+06    0.6244347094E+00    0.5140133657E-02    0.1058115928E-03    0.5553880663E-01    0.6785500070E+00
    0.9000000000E+06    0.6244523058E+00    0.4555305437E-02    0.9255870409E-04    0.5556557984E-01    0.6794601243E+00
    0.1100000000E+07    0.6244598937E+00    0.4135847813E-02    0.8316616657E-04    0.5558640004E-01    0.6801110495E+00
    0.1300000000E+07    0.6244626484E+00    0.3815915593E-02    0.7607123977E-04    0.5560342593E-01    0.6806064914E+00
    0.1500000000E+07    0.6244628350E+00    0.3561389608E-02    0.7047258351E-04    0.5561782417E-01    0.6810000025E+00
    0.1700000000E+07    0.6244615743E+00    0.3352579328E-02    0.6591170827E-04    0.5563029587E-01    0.6813224069E+00
    0.1900000000E+07    0.6244594700E+00    0.3177215185E-02    0.6210501364E-04    0.5564129493E-01    0.6815928713E+00
    0.2100000000E+07    0.6244568677E+00    0.3027198538E-02    0.5886650434E-04    0.5565113196E-01    0.6818240246E+00
    0.2300000000E+07    0.6244539749E+00    0.2896938247E-02    0.5606850269E-04    0.5566002875E-01    0.6820245730E+00
    0.2500000000E+07    0.6244509202E+00    0.2782432621E-02    0.5362009437E-04    0.5566814922E-01    0.6822007397E+00
    0.2700000000E+07    0.6244477853E+00    0.2680731541E-02    0.5145456737E-04    0.5567561786E-01    0.6823571074E+00
    0.2900000000E+07    0.6244446233E+00    0.2589605644E-02    0.4952172323E-04    0.5568253150E-01    0.6824971359E+00
    0.3100000000E+07    0.6244414687E+00    0.2507334476E-02    0.4778297510E-04    0.5568896686E-01    0.6826234931E+00
    0.3300000000E+07    0.6244383442E+00    0.2432566132E-02    0.4620811291E-04    0.5569498583E-01    0.6827382734E+00
    0.3500000000E+07    0.6244352646E+00    0.2364221506E-02    0.4477310507E-04    0.5570063898E-01    0.6828431476E+00
    0.3700000000E+07    0.6244322393E+00    0.2301427311E-02    0.4345856576E-04    0.5570596824E-01    0.6829394668E+00
    0.3900000000E+07    0.6244292741E+00    0.2243468163E-02    0.4224866239E-04    0.5571100870E-01    0.6830283374E+00
    0.4100000000E+07    0.6244263724E+00    0.2189751645E-02    0.4113032115E-04    0.5571579005E-01    0.6831106749E+00
    0.4300000000E+07    0.6244235356E+00    0.2139782376E-02    0.4009263922E-04    0.5572033763E-01    0.6831872445E+00
    0.4500000000E+07    0.6244207641E+00    0.2093142473E-02    0.3912644301E-04    0.5572467323E-01    0.6832586914E+00
    0.4700000000E+07    0.6244180574E+00    0.2049476610E-02    0.3822395138E-04    0.5572881573E-01    0.6833255640E+00
    0.4900000000E+07    0.6244154146E+00    0.2008480468E-02    0.3737851564E-04    0.5573278161E-01    0.6833883318E+00
    0.1000000000E+07    0.6244569235E+00    0.4330094949E-02    0.8750344485E-04    0.5557656592E-01    0.6798098033E+00
    0.3000000000E+07    0.6244430434E+00    0.2547455058E-02    0.4863014190E-04    0.5568580480E-01    0.6825618811E+00
    0.5000000000E+07    0.6244141167E+00    0.1988900119E-02    0.3697537476E-04    0.5573470290E-01    0.6834183050E+00
    0.7000000000E+07    0.6243910874E+00    0.1689341410E-02    0.3086323859E-04    0.5576658868E-01    0.6838764096E+00
    0.9000000000E+07    0.6243724494E+00    0.1495290131E-02    0.2696439591E-04    0.5579029208E-01    0.6841727023E+00
    0.1100000000E+08    0.6243568823E+00    0.1356410036E-02    0.2420679923E-04    0.5580916726E-01    0.6843845256E+00
    0.1300000000E+08    0.6243435420E+00    0.1250649122E-02    0.2212685916E-04    0.5582485279E-01    0.6845457029E+00
    0.1500000000E+08    0.6243318801E+00    0.1166612202E-02    0.2048745374E-04    0.5583827287E-01    0.6846736903E+00
    0.1700000000E+08    0.6243215251E+00    0.1097736694E-02    0.1915317149E-04    0.5585000037E-01    0.6847785310E+00
    0.1900000000E+08    0.6243122155E+00    0.1039940066E-02    0.1804038012E-04    0.5586041503E-01    0.6848664679E+00
    0.2100000000E+08    0.6243037603E+00    0.9905312383E-03    0.1709429890E-04    0.5586978157E-01    0.6849416137E+00
    0.2300000000E+08    0.6242960164E+00    0.9476544460E-03    0.1627736264E-04    0.5587829193E-01    0.6850068026E+00
    0.2500000000E+08    0.6242888735E+00    0.9099827651E-03    0.1556284664E-04    0.5588608970E-01    0.6850640604E+00
    0.2700000000E+08    0.6242822452E+00    0.8765387847E-03    0.1493115589E-04    0.5589328513E-01    0.6851148786E+00
