  Pressure (Pa) 22mC5-400 (mol/kg) 2mC6-400 (mol/kg) 33mC5-400 (mol/kg) 23mC5-400 (mol/kg) C7-400 (mol/kg)
    0.1000000000E+01    0.3169377717E-02    0.3168583788E-02    0.1289933750E-03    0.4637577063E-03    0.5127705911E-02
    0.3000000000E+01    0.9349297634E-02    0.9238300084E-02    0.3760998908E-03    0.1368048762E-02    0.1503983189E-01
    0.5000000000E+01    0.1532777926E-01    0.1497289129E-01    0.6095720458E-03    0.2242885998E-02    0.2452049351E-01
    0.7000000000E+01    0.2111637877E-01    0.2039607778E-01    0.8303736276E-03    0.3089958859E-02    0.3359869020E-01
    0.9000000000E+01    0.2672576032E-01    0.2552946686E-01    0.1039382573E-02    0.3910826398E-02    0.4230084966E-01
    0.1100000000E+02    0.3216578052E-01    0.3039277984E-01    0.1237400198E-02    0.4706929618E-02    0.5065110783E-01
    0.1300000000E+02    0.3744556349E-01    0.3500405062E-01    0.1425159268E-02    0.5479602447E-02    0.5867155296E-01
    0.1500000000E+02    0.4257356775E-01    0.3937979988E-01    0.1603331074E-02    0.6230081512E-02    0.6638243910E-01
    0.1700000000E+02    0.4755764592E-01    0.4353518825E-01    0.1772531659E-02    0.6959514867E-02    0.7380237344E-01
    0.1900000000E+02    0.5240509811E-01    0.4748415139E-01    0.1933327308E-02    0.7668969798E-02    0.8094848103E-01
    0.2100000000E+02    0.5712271982E-01    0.5123951939E-01    0.2086239393E-02    0.8359439823E-02    0.8783655014E-01
    0.2300000000E+02    0.6171684491E-01    0.5481312261E-01    0.2231748680E-02    0.9031850974E-02    0.9448116082E-01
    0.2500000000E+02    0.6619338430E-01    0.5821588558E-01    0.2370299142E-02    0.9687067453E-02    0.1008957988E+00
    0.2700000000E+02    0.7055786082E-01    0.6145791073E-01    0.2502301357E-02    0.1032589673E-01    0.1070929569E+00
    0.2900000000E+02    0.7481544068E-01    0.6454855302E-01    0.2628135543E-02    0.1094909413E-01    0.1130842251E+00
    0.3100000000E+02    0.7897096196E-01    0.6749648657E-01    0.2748154266E-02    0.1155736703E-01    0.1188803710E+00
    0.3300000000E+02    0.8302896039E-01    0.7030976450E-01    0.2862684867E-02    0.1215137858E-01    0.1244914121E+00
    0.3500000000E+02    0.8699369275E-01    0.7299587253E-01    0.2972031640E-02    0.1273175117E-01    0.1299266804E+00
    0.3700000000E+02    0.9086915812E-01    0.7556177715E-01    0.3076477791E-02    0.1329906950E-01    0.1351948800E+00
    0.3900000000E+02    0.9465911723E-01    0.7801396908E-01    0.3176287201E-02    0.1385388343E-01    0.1403041397E+00
    0.4100000000E+02    0.9836711011E-01    0.8035850247E-01    0.3271706019E-02    0.1439671056E-01    0.1452620601E+00
    0.4300000000E+02    0.1019964722E+00    0.8260103023E-01    0.3362964097E-02    0.1492803857E-01    0.1500757556E+00
    0.4500000000E+02    0.1055503489E+00    0.8474683616E-01    0.3450276292E-02    0.1544832737E-01    0.1547518937E+00
    0.4700000000E+02    0.1090317093E+00    0.8680086394E-01    0.3533843650E-02    0.1595801107E-01    0.1592967289E+00
    0.4900000000E+02    0.1124433583E+00    0.8876774354E-01    0.3613854472E-02    0.1645749980E-01    0.1637161350E+00
    0.1000000000E+02    0.2946635398E-01    0.2799371835E-01    0.1139717984E-02    0.4311887787E-02    0.4651854054E-01
    0.3000000000E+02    0.7690566836E-01    0.6603984116E-01    0.2688850814E-02    0.1125505370E-01    0.1160060454E+00
    0.5000000000E+02    0.1141238754E+00    0.8971986981E-01    0.3652581783E-02    0.1670354305E-01    0.1658805408E+00
    0.7000000000E+02    0.1446477131E+00    0.1051084220E+00    0.4277890009E-02    0.2117300514E-01    0.2037632638E+00
    0.9000000000E+02    0.1704857012E+00    0.1153707695E+00    0.4693576305E-02    0.2495712510E-01    0.2337386869E+00
    0.1100000000E+03    0.1928715551E+00    0.1222999944E+00    0.4972688435E-02    0.2823630489E-01    0.2582004658E+00
    0.1300000000E+03    0.2126093584E+00    0.1269778147E+00    0.5159357040E-02    0.3112812759E-01    0.2786486344E+00
    0.1500000000E+03    0.2302489172E+00    0.1300895830E+00    0.5281589284E-02    0.3371299537E-01    0.2960736282E+00
    0.1700000000E+03    0.2461813935E+00    0.1320868584E+00    0.5357873496E-02    0.3604811252E-01    0.3111573815E+00
    0.1900000000E+03    0.2606945521E+00    0.1332767893E+00    0.5400811928E-02    0.3817556349E-01    0.3243858309E+00
    0.2100000000E+03    0.2740062334E+00    0.1338738616E+00    0.5419225076E-02    0.4012720744E-01    0.3361153267E+00
    0.2300000000E+03    0.2862854657E+00    0.1340311745E+00    0.5419424337E-02    0.4192776545E-01    0.3466136254E+00
    0.2500000000E+03    0.2976662493E+00    0.1338600413E+00    0.5406010309E-02    0.4359683614E-01    0.3560861611E+00
    0.2700000000E+03    0.3082568271E+00    0.1334426639E+00    0.5382389444E-02    0.4515025141E-01    0.3646934342E+00
    0.2900000000E+03    0.3181460882E+00    0.1328405504E+00    0.5351117603E-02    0.4660101281E-01    0.3725628457E+00
    0.3100000000E+03    0.3274080929E+00    0.1321002395E+00    0.5314133976E-02    0.4795995330E-01    0.3797969511E+00
    0.3300000000E+03    0.3361053403E+00    0.1312572749E+00    0.5272923721E-02    0.4923621508E-01    0.3864793407E+00
    0.3500000000E+03    0.3442911705E+00    0.1303390145E+00    0.5228633125E-02    0.5043760093E-01    0.3926789110E+00
    0.3700000000E+03    0.3520115635E+00    0.1293666502E+00    0.5182152524E-02    0.5157083722E-01    0.3984530210E+00
    0.3900000000E+03    0.3593065062E+00    0.1283566799E+00    0.5134176876E-02    0.5264177385E-01    0.4038498595E+00
    0.4100000000E+03    0.3662110470E+00    0.1273219952E+00    0.5085250600E-02    0.5365553846E-01    0.4089102469E+00
    0.4300000000E+03    0.3727561200E+00    0.1262726945E+00    0.5035801166E-02    0.5461665701E-01    0.4136690233E+00
    0.4500000000E+03    0.3789691981E+00    0.1252166972E+00    0.4986164535E-02    0.5552914924E-01    0.4181561301E+00
    0.4700000000E+03    0.3848748156E+00    0.1241602119E+00    0.4936604600E-02    0.5639660505E-01    0.4223974632E+00
    0.4900000000E+03    0.3904949909E+00    0.1231080967E+00    0.4887328184E-02    0.5722224643E-01    0.4264155503E+00
    0.1000000000E+03    0.1820524050E+00    0.1191724678E+00    0.4846960145E-02    0.2665138917E-01    0.2465498237E+00
    0.3000000000E+03    0.3228513521E+00    0.1324852280E+00    0.5333237836E-02    0.4729135428E-01    0.3762536993E+00
    0.5000000000E+03    0.3932043170E+00    0.1225848970E+00    0.4862848249E-02    0.5762030560E-01    0.4283471318E+00
    0.7000000000E+03    0.4363410967E+00    0.1129045613E+00    0.4411730980E-02    0.6396227873E-01    0.4589570874E+00
    0.9000000000E+03    0.4652449211E+00    0.1049924972E+00    0.4045066760E-02    0.6821761159E-01    0.4799396946E+00
    0.1100000000E+04    0.4857631559E+00    0.9859113257E-01    0.3750325842E-02    0.7124265833E-01    0.4955829709E+00
    0.1300000000E+04    0.5009669900E+00    0.9333119708E-01    0.3510068287E-02    0.7348744178E-01    0.5078797132E+00
    0.1500000000E+04    0.5126184394E+00    0.8892576248E-01    0.3310636620E-02    0.7521028517E-01    0.5179049416E+00
    0.1700000000E+04    0.5217936838E+00    0.8516961845E-01    0.3142188103E-02    0.7656904331E-01    0.5262993190E+00
    0.1900000000E+04    0.5291828646E+00    0.8191690421E-01    0.2997689702E-02    0.7766499712E-01    0.5334729404E+00
    0.2100000000E+04    0.5352465365E+00    0.7906249288E-01    0.2872057599E-02    0.7856576831E-01    0.5397028399E+00
    0.2300000000E+04    0.5403024688E+00    0.7652913082E-01    0.2761552276E-02    0.7931803696E-01    0.5451842092E+00
    0.2500000000E+04    0.5445762354E+00    0.7425889171E-01    0.2663371447E-02    0.7995495624E-01    0.5500593051E+00
    0.2700000000E+04    0.5482319410E+00    0.7220749896E-01    0.2575377059E-02    0.8050065706E-01    0.5544347245E+00
    0.2900000000E+04    0.5513915523E+00    0.7034050513E-01    0.2495910284E-02    0.8097308314E-01    0.5583922203E+00
    0.3100000000E+04    0.5541474382E+00    0.6863067590E-01    0.2423664196E-02    0.8138583069E-01    0.5619957390E+00
    0.3300000000E+04    0.5565707270E+00    0.6705616517E-01    0.2357594625E-02    0.8174937472E-01    0.5652961546E+00
    0.3500000000E+04    0.5587170093E+00    0.6559921862E-01    0.2296856689E-02    0.8207190626E-01    0.5683345412E+00
    0.3700000000E+04    0.5606303141E+00    0.6424523635E-01    0.2240758844E-02    0.8235991616E-01    0.5711444918E+00
    0.3900000000E+04    0.5623459341E+00    0.6298208415E-01    0.2188729105E-02    0.8261861005E-01    0.5737537967E+00
    0.4100000000E+04    0.5638924678E+00    0.6179957950E-01    0.2140289850E-02    0.8285220838E-01    0.5761856813E+00
    0.4300000000E+04    0.5652933192E+00    0.6068910268E-01    0.2095038776E-02    0.8306416688E-01    0.5784597336E+00
    0.4500000000E+04    0.5665678148E+00    0.5964329867E-01    0.2052634319E-02    0.8325734070E-01    0.5805926106E+00
    0.4700000000E+04    0.5677320464E+00    0.5865584582E-01    0.2012784359E-02    0.8343410844E-01    0.5825985829E+00
    0.4900000000E+04    0.5687995147E+00    0.5772127439E-01    0.1975237387E-02    0.8359646673E-01    0.5844899603E+00
    0.1000000000E+04    0.4763186677E+00    0.1016275378E+00    0.3889863132E-02    0.6984970093E-01    0.4882736141E+00
    0.3000000000E+04    0.5528150946E+00    0.6946741933E-01    0.2458955227E-02    0.8118620020E-01    0.5602347847E+00
    0.5000000000E+04    0.5693005977E+00    0.5727230686E-01    0.1957258279E-02    0.8367278021E-01    0.5853960704E+00
    0.7000000000E+04    0.5762603244E+00    0.5018136985E-01    0.1678314679E-02    0.8474148423E-01    0.5994835085E+00
    0.9000000000E+04    0.5800653969E+00    0.4534679616E-01    0.1493483667E-02    0.8533634219E-01    0.6088368570E+00
    0.1100000000E+05    0.5824548643E+00    0.4175907498E-01    0.1359072940E-02    0.8571662761E-01    0.6156412758E+00
    0.1300000000E+05    0.5840911069E+00    0.3895111911E-01    0.1255488256E-02    0.8598169911E-01    0.6208844648E+00
    0.1500000000E+05    0.5852800163E+00    0.3667123947E-01    0.1172417835E-02    0.8617772175E-01    0.6250882151E+00
    0.1700000000E+05    0.5861819948E+00    0.3476954280E-01    0.1103833632E-02    0.8632905131E-01    0.6285580877E+00
    0.1900000000E+05    0.5868891263E+00    0.3315016915E-01    0.1045938409E-02    0.8644975545E-01    0.6314866879E+00
    0.2100000000E+05    0.5874579939E+00    0.3174844348E-01    0.9962023404E-03    0.8654853108E-01    0.6340023412E+00
    0.2300000000E+05    0.5879252586E+00    0.3051886847E-01    0.9528647761E-03    0.8663104745E-01    0.6361943325E+00
    0.2500000000E+05    0.5883157054E+00    0.2942834448E-01    0.9146567035E-03    0.8670116057E-01    0.6381269874E+00
    0.2700000000E+05    0.5886466847E+00    0.2845211688E-01    0.8806367884E-03    0.8676158620E-01    0.6398479972E+00
    0.2900000000E+05    0.5889307016E+00    0.2757123884E-01    0.8500897763E-03    0.8681429354E-01    0.6413935795E+00
    0.3100000000E+05    0.5891769945E+00    0.2677092077E-01    0.8224609915E-03    0.8686074613E-01    0.6427918061E+00
    0.3300000000E+05    0.5893925346E+00    0.2603942097E-01    0.7973126712E-03    0.8690205505E-01    0.6440648202E+00
    0.3500000000E+05    0.5895826804E+00    0.2536727913E-01    0.7742940129E-03    0.8693907942E-01    0.6452303578E+00
    0.3700000000E+05    0.5897516177E+00    0.2474677371E-01    0.7531201111E-03    0.8697249437E-01    0.6463028166E+00
    0.3900000000E+05    0.5899026634E+00    0.2417152969E-01    0.7335568219E-03    0.8700283808E-01    0.6472940241E+00
    0.4100000000E+05    0.5900384794E+00    0.2363622963E-01    0.7154096769E-03    0.8703054500E-01    0.6482138002E+00
    0.4300000000E+05    0.5901612262E+00    0.2313639736E-01    0.6985156235E-03    0.8705596988E-01    0.6490703751E+00
    0.4500000000E+05    0.5902726759E+00    0.2266823347E-01    0.6827367772E-03    0.8707940536E-01    0.6498707067E+00
    0.4700000000E+05    0.5903742952E+00    0.2222848865E-01    0.6679556301E-03    0.8710109510E-01    0.6506207231E+00
    0.4900000000E+05    0.5904673086E+00    0.2181436497E-01    0.6540713307E-03    0.8712124369E-01    0.6513255105E+00
    0.1000000000E+05    0.5813831131E+00    0.4343345710E-01    0.1421512982E-02    0.8554522390E-01    0.6124803028E+00
    0.3000000000E+05    0.5890580837E+00    0.2716180479E-01    0.8359403022E-03    0.8683822535E-01    0.6421096099E+00
    0.5000000000E+05    0.5905109164E+00    0.2161614061E-01    0.6474378051E-03    0.8713079521E-01    0.6516623399E+00
    0.7000000000E+05    0.5911124840E+00    0.1854844449E-01    0.5458275522E-03    0.8727169652E-01    0.6568321583E+00
    0.9000000000E+05    0.5914366253E+00    0.1652586007E-01    0.4799693045E-03    0.8735869640E-01    0.6601971324E+00
    0.1100000000E+06    0.5916368980E+00    0.1506114718E-01    0.4328832654E-03    0.8741963574E-01    0.6626126791E+00
    0.1300000000E+06    0.5917715326E+00    0.1393608954E-01    0.3970853228E-03    0.8746569385E-01    0.6644560602E+00
    0.1500000000E+06    0.5918673762E+00    0.1303617427E-01    0.3686952813E-03    0.8750231126E-01    0.6659230925E+00
    0.1700000000E+06    0.5919384860E+00    0.1229468263E-01    0.3454743919E-03    0.8753248764E-01    0.6671269135E+00
    0.1900000000E+06    0.5919929158E+00    0.1166972719E-01    0.3260286031E-03    0.8755802912E-01    0.6681380797E+00
    0.2100000000E+06    0.5920356014E+00    0.1113348968E-01    0.3094386249E-03    0.8758009696E-01    0.6690031914E+00
    0.2300000000E+06    0.5920697305E+00    0.1066666614E-01    0.2950704913E-03    0.8759947671E-01    0.6697544357E+00
    0.2500000000E+06    0.5920974498E+00    0.1025537972E-01    0.2824709953E-03    0.8761672176E-01    0.6704148584E+00
    0.2700000000E+06    0.5921202555E+00    0.9889361319E-02    0.2713064352E-03    0.8763223511E-01    0.6710014544E+00
    0.2900000000E+06    0.5921392209E+00    0.9560824881E-02    0.2613249534E-03    0.8764631839E-01    0.6715270695E+00
    0.3100000000E+06    0.5921551346E+00    0.9263743974E-02    0.2523324299E-03    0.8765920267E-01    0.6720016193E+00
    0.3300000000E+06    0.5921685886E+00    0.8993370625E-02    0.2441765203E-03    0.8767106856E-01    0.6724328967E+00
    0.3500000000E+06    0.5921800351E+00    0.8745905939E-02    0.2367357731E-03    0.8768205963E-01    0.6728271227E+00
    0.3700000000E+06    0.5921898253E+00    0.8518268939E-02    0.2299120222E-03    0.8769229177E-01    0.6731893327E+00
    0.3900000000E+06    0.5921982355E+00    0.8307930772E-02    0.2236249491E-03    0.8770185974E-01    0.6735236518E+00
    0.4100000000E+06    0.5922054861E+00    0.8112793476E-02    0.2178081203E-03    0.8771084198E-01    0.6738334964E+00
    0.4300000000E+06    0.5922117546E+00    0.7931099809E-02    0.2124060493E-03    0.8771930405E-01    0.6741217237E+00
    0.4500000000E+06    0.5922171858E+00    0.7761365138E-02    0.2073719830E-03    0.8772730131E-01    0.6743907437E+00
    0.4700000000E+06    0.5922218984E+00    0.7602325286E-02    0.2026662128E-03    0.8773488088E-01    0.6746426062E+00
    0.4900000000E+06    0.5922259909E+00    0.7452896083E-02    0.1982547672E-03    0.8774208319E-01    0.6748790664E+00
    0.1000000000E+06    0.5915474984E+00    0.1574090106E-01    0.4546694654E-03    0.8739152539E-01    0.6614938661E+00
    0.3000000000E+06    0.5921475184E+00    0.9408674756E-02    0.2567154256E-03    0.8765289812E-01    0.6717701982E+00
    0.5000000000E+06    0.5922278309E+00    0.7381487945E-02    0.1961501124E-03    0.8774555397E-01    0.6749920020E+00
    0.7000000000E+06    0.5922463194E+00    0.6285914728E-02    0.1641545517E-03    0.8780160119E-01    0.6767196519E+00
    0.9000000000E+06    0.5922478550E+00    0.5573113070E-02    0.1436596824E-03    0.8784169164E-01    0.6778385992E+00
    0.1100000000E+07    0.5922432961E+00    0.5061479848E-02    0.1291232912E-03    0.8787287081E-01    0.6786392736E+00
    0.1300000000E+07    0.5922363132E+00    0.4671026348E-02    0.1181365935E-03    0.8789836954E-01    0.6792489099E+00
    0.1500000000E+07    0.5922283874E+00    0.4360263517E-02    0.1094631493E-03    0.8791993413E-01    0.6797332520E+00
    0.1700000000E+07    0.5922201817E+00    0.4105229776E-02    0.1023949854E-03    0.8793861411E-01    0.6801301595E+00
    0.1900000000E+07    0.5922120099E+00    0.3890985429E-02    0.9649392003E-04    0.8795508899E-01    0.6804631826E+00
    0.2100000000E+07    0.5922040234E+00    0.3707664677E-02    0.9147243853E-04    0.8796982379E-01    0.6807478437E+00
    0.2300000000E+07    0.5921962926E+00    0.3548453645E-02    0.8713309448E-04    0.8798315060E-01    0.6809948461E+00
    0.2500000000E+07    0.5921888467E+00    0.3408473839E-02    0.8333524562E-04    0.8799531481E-01    0.6812118426E+00
    0.2700000000E+07    0.5921816925E+00    0.3284127684E-02    0.7997565925E-04    0.8800650287E-01    0.6814044695E+00
    0.2900000000E+07    0.5921748255E+00    0.3172695836E-02    0.7697663617E-04    0.8801685973E-01    0.6815769829E+00
    0.3100000000E+07    0.5921682349E+00    0.3072079228E-02    0.7427843626E-04    0.8802650030E-01    0.6817326648E+00
    0.3300000000E+07    0.5921619075E+00    0.2980628107E-02    0.7183427872E-04    0.8803551723E-01    0.6818740925E+00
    0.3500000000E+07    0.5921558284E+00    0.2897025377E-02    0.6960694323E-04    0.8804398628E-01    0.6820033221E+00
    0.3700000000E+07    0.5921499831E+00    0.2820204972E-02    0.6756639990E-04    0.8805197020E-01    0.6821220165E+00
    0.3900000000E+07    0.5921443571E+00    0.2749293451E-02    0.6568811919E-04    0.8805952157E-01    0.6822315374E+00
    0.4100000000E+07    0.5921389368E+00    0.2683567408E-02    0.6395184293E-04    0.8806668485E-01    0.6823330118E+00
    0.4300000000E+07    0.5921337095E+00    0.2622421849E-02    0.6234067476E-04    0.8807349797E-01    0.6824273817E+00
    0.4500000000E+07    0.5921286631E+00    0.2565346360E-02    0.6084039641E-04    0.8807999358E-01    0.6825154414E+00
    0.4700000000E+07    0.5921237866E+00    0.2511906895E-02    0.5943894646E-04    0.8808619996E-01    0.6825978663E+00
    0.4900000000E+07    0.5921190697E+00    0.2461731667E-02    0.5812601779E-04    0.8809214178E-01    0.6826752342E+00
    0.1000000000E+07    0.5922460286E+00    0.5298452847E-02    0.1358370599E-03    0.8785814348E-01    0.6782686837E+00
    0.3000000000E+07    0.5921714964E+00    0.3121147693E-02    0.7559311491E-04    0.8802176331E-01    0.6816567526E+00
    0.5000000000E+07    0.5921167682E+00    0.2437766217E-02    0.5749992884E-04    0.8809502034E-01    0.6827121803E+00
    0.7000000000E+07    0.5920771789E+00    0.2071036685E-02    0.4800547682E-04    0.8814279495E-01    0.6832769263E+00
    0.9000000000E+07    0.5920463320E+00    0.1833389514E-02    0.4194700089E-04    0.8817831204E-01    0.6836422596E+00
    0.1100000000E+08    0.5920210936E+00    0.1663268358E-02    0.3766092950E-04    0.8820659580E-01    0.6839034713E+00
    0.1300000000E+08    0.5919997455E+00    0.1533694209E-02    0.3442757506E-04    0.8823010081E-01    0.6841022446E+00
    0.1500000000E+08    0.5919812509E+00    0.1430721717E-02    0.3187871530E-04    0.8825021157E-01    0.6842600954E+00
    0.1700000000E+08    0.5919649378E+00    0.1346317822E-02    0.2980402565E-04    0.8826778632E-01    0.6843894044E+00
    0.1900000000E+08    0.5919503460E+00    0.1275484322E-02    0.2807358351E-04    0.8828339397E-01    0.6844978684E+00
    0.2100000000E+08    0.5919371470E+00    0.1214926073E-02    0.2660227492E-04    0.8829743115E-01    0.6845905579E+00
    0.2300000000E+08    0.5919250980E+00    0.1162370468E-02    0.2533172702E-04    0.8831018541E-01    0.6846709679E+00
    0.2500000000E+08    0.5919140145E+00    0.1116192357E-02    0.2422040783E-04    0.8832187191E-01    0.6847415962E+00
    0.2700000000E+08    0.5919037533E+00    0.1075194546E-02    0.2323786268E-04    0.8833265583E-01    0.6848042821E+00
