  Pressure (Pa) 22mC5-400 (mol/kg) 2mC6-400 (mol/kg) 33mC5-400 (mol/kg) 23mC5-400 (mol/kg) C7-400 (mol/kg)
    0.1000000000E+01    0.3170864600E-02    0.3143956508E-02    0.6400223363E-04    0.1855900350E-03    0.1184767729E-01
    0.3000000000E+01    0.9362186236E-02    0.9031808942E-02    0.1839066108E-03    0.5479732301E-03    0.3410650761E-01
    0.5000000000E+01    0.1536228891E-01    0.1443721796E-01    0.2940438996E-03    0.8991725328E-03    0.5464099361E-01
    0.7000000000E+01    0.2118162738E-01    0.1941333186E-01    0.3954909464E-03    0.1239799318E-02    0.7364938567E-01
    0.9000000000E+01    0.2682988642E-01    0.2400565007E-01    0.4891693186E-03    0.1570419940E-02    0.9130046690E-01
    0.1100000000E+02    0.3231605049E-01    0.2825337381E-01    0.5758727657E-03    0.1891559802E-02    0.1077388426E+00
    0.1300000000E+02    0.3764846597E-01    0.3219047741E-01    0.6562889971E-03    0.2203706996E-02    0.1230891293E+00
    0.1500000000E+02    0.4283489688E-01    0.3584656592E-01    0.7310171093E-03    0.2507315562E-02    0.1374593011E+00
    0.1700000000E+02    0.4788257490E-01    0.3924756734E-01    0.8005816491E-03    0.2802808413E-02    0.1509433854E+00
    0.1900000000E+02    0.5279824435E-01    0.4241629581E-01    0.8654440512E-03    0.3090579961E-02    0.1636236503E+00
    0.2100000000E+02    0.5758820263E-01    0.4537291307E-01    0.9260120093E-03    0.3370998488E-02    0.1755723925E+00
    0.2300000000E+02    0.6225833682E-01    0.4813530927E-01    0.9826472045E-03    0.3644408278E-02    0.1868534083E+00
    0.2500000000E+02    0.6681415660E-01    0.5071941912E-01    0.1035671722E-02    0.3911131550E-02    0.1975232115E+00
    0.2700000000E+02    0.7126082421E-01    0.5313948607E-01    0.1085373409E-02    0.4171470203E-02    0.2076320470E+00
    0.2900000000E+02    0.7560318150E-01    0.5540828413E-01    0.1132010375E-02    0.4425707403E-02    0.2172247403E+00
    0.3100000000E+02    0.7984577452E-01    0.5753730526E-01    0.1175814790E-02    0.4674109018E-02    0.2263414112E+00
    0.3300000000E+02    0.8399287592E-01    0.5953691846E-01    0.1216996110E-02    0.4916924927E-02    0.2350180784E+00
    0.3500000000E+02    0.8804850530E-01    0.6141650534E-01    0.1255743825E-02    0.5154390212E-02    0.2432871728E+00
    0.3700000000E+02    0.9201644780E-01    0.6318457632E-01    0.1292229812E-02    0.5386726245E-02    0.2511779749E+00
    0.3900000000E+02    0.9590027106E-01    0.6484887057E-01    0.1326610357E-02    0.5614141677E-02    0.2587169903E+00
    0.4100000000E+02    0.9970334075E-01    0.6641644228E-01    0.1359027906E-02    0.5836833349E-02    0.2659282726E+00
    0.4300000000E+02    0.1034288348E+00    0.6789373553E-01    0.1389612580E-02    0.6054987121E-02    0.2728337014E+00
    0.4500000000E+02    0.1070797562E+00    0.6928664937E-01    0.1418483488E-02    0.6268778633E-02    0.2794532244E+00
    0.4700000000E+02    0.1106589455E+00    0.7060059463E-01    0.1445749881E-02    0.6478374006E-02    0.2858050666E+00
    0.4900000000E+02    0.1141690911E+00    0.7184054377E-01    0.1471512157E-02    0.6683930483E-02    0.2919059138E+00
    0.1000000000E+02    0.2959269441E-01    0.2617035131E-01    0.5333476634E-03    0.1732143626E-02    0.9966302873E-01
    0.3000000000E+02    0.7773667534E-01    0.5648959412E-01    0.1154253062E-02    0.4550621681E-02    0.2218402376E+00
    0.5000000000E+02    0.1158990737E+00    0.7243421467E-01    0.1483858426E-02    0.6785240992E-02    0.2948670474E+00
    0.7000000000E+02    0.1474266564E+00    0.8136154637E-01    0.1670773354E-02    0.8631736326E-02    0.3440305127E+00
    0.9000000000E+02    0.1742629836E+00    0.8640874280E-01    0.1778364468E-02    0.1020378242E-01    0.3797065663E+00
    0.1100000000E+03    0.1976190551E+00    0.8914010199E-01    0.1838274931E-02    0.1157221133E-01    0.4069649388E+00
    0.1300000000E+03    0.2182925456E+00    0.9041810477E-01    0.1867998443E-02    0.1278368125E-01    0.4285887794E+00
    0.1500000000E+03    0.2368331523E+00    0.9075283017E-01    0.1877920369E-02    0.1387034657E-01    0.4462393538E+00
    0.1700000000E+03    0.2536341811E+00    0.9046192281E-01    0.1874539477E-02    0.1485521425E-01    0.4609729640E+00
    0.1900000000E+03    0.2689861290E+00    0.8975112275E-01    0.1862089869E-02    0.1575527776E-01    0.4734953066E+00
    0.2100000000E+03    0.2831094919E+00    0.8875782576E-01    0.1843418804E-02    0.1658343596E-01    0.4842969802E+00
    0.2300000000E+03    0.2961756400E+00    0.8757601542E-01    0.1820489650E-02    0.1734971414E-01    0.4937303854E+00
    0.2500000000E+03    0.3083205486E+00    0.8627120021E-01    0.1794683660E-02    0.1806206714E-01    0.5020556748E+00
    0.2700000000E+03    0.3196540901E+00    0.8488970699E-01    0.1766988097E-02    0.1872692289E-01    0.5094694123E+00
    0.2900000000E+03    0.3302664849E+00    0.8346464975E-01    0.1738117354E-02    0.1934955973E-01    0.5161231095E+00
    0.3100000000E+03    0.3402328803E+00    0.8201986816E-01    0.1708593095E-02    0.1993437429E-01    0.5221355931E+00
    0.3300000000E+03    0.3496166662E+00    0.8057258785E-01    0.1678798580E-02    0.2048507541E-01    0.5276014827E+00
    0.3500000000E+03    0.3584719210E+00    0.7913525391E-01    0.1649016241E-02    0.2100482723E-01    0.5325971399E+00
    0.3700000000E+03    0.3668452448E+00    0.7771681717E-01    0.1619454164E-02    0.2149635644E-01    0.5371849318E+00
    0.3900000000E+03    0.3747771548E+00    0.7632365057E-01    0.1590265042E-02    0.2196203386E-01    0.5414163439E+00
    0.4100000000E+03    0.3823031619E+00    0.7496021112E-01    0.1561559950E-02    0.2240393748E-01    0.5453342892E+00
    0.4300000000E+03    0.3894546132E+00    0.7362952366E-01    0.1533418458E-02    0.2282390169E-01    0.5489748497E+00
    0.4500000000E+03    0.3962593571E+00    0.7233353831E-01    0.1505896172E-02    0.2322355623E-01    0.5523686043E+00
    0.4700000000E+03    0.4027422769E+00    0.7107339687E-01    0.1479030378E-02    0.2360435735E-01    0.5555416574E+00
    0.4900000000E+03    0.4089257208E+00    0.6984963317E-01    0.1452844333E-02    0.2396761301E-01    0.5585164412E+00
    0.1000000000E+03    0.1863189340E+00    0.8799899749E-01    0.1812964631E-02    0.1091010811E-01    0.3941787596E+00
    0.3000000000E+03    0.3353262272E+00    0.8274351758E-01    0.1723410222E-02    0.1964644875E-01    0.5192031015E+00
    0.5000000000E+03    0.4119115179E+00    0.6925143162E-01    0.1440010469E-02    0.2414303463E-01    0.5599356472E+00
    0.7000000000E+03    0.4599147188E+00    0.5908063421E-01    0.1218674029E-02    0.2696504046E-01    0.5814804418E+00
    0.9000000000E+03    0.4926140312E+00    0.5167295908E-01    0.1054136539E-02    0.2888977442E-01    0.5952094496E+00
    0.1100000000E+04    0.5161096221E+00    0.4615237896E-01    0.9300187849E-03    0.3027452566E-01    0.6048866312E+00
    0.1300000000E+04    0.5336759062E+00    0.4191483628E-01    0.8341114290E-03    0.3131117411E-01    0.6121562282E+00
    0.1500000000E+04    0.5472278039E+00    0.3857099923E-01    0.7582136827E-03    0.3211198763E-01    0.6178626317E+00
    0.1700000000E+04    0.5579534829E+00    0.3586778985E-01    0.6968447144E-03    0.3274665856E-01    0.6224886270E+00
    0.1900000000E+04    0.5666246851E+00    0.3363659618E-01    0.6462781513E-03    0.3326047439E-01    0.6263323206E+00
    0.2100000000E+04    0.5737617506E+00    0.3176195154E-01    0.6039226724E-03    0.3368398364E-01    0.6295887759E+00
    0.2300000000E+04    0.5797267079E+00    0.3016265915E-01    0.5679343996E-03    0.3403845011E-01    0.6323915549E+00
    0.2500000000E+04    0.5847783053E+00    0.2878020942E-01    0.5369724658E-03    0.3433907834E-01    0.6348355092E+00
    0.2700000000E+04    0.5891058396E+00    0.2757149836E-01    0.5100420818E-03    0.3459699678E-01    0.6369900531E+00
    0.2900000000E+04    0.5928506552E+00    0.2650413324E-01    0.4863916470E-03    0.3482051863E-01    0.6389072787E+00
    0.3100000000E+04    0.5961202120E+00    0.2555333181E-01    0.4654438462E-03    0.3501596706E-01    0.6406271235E+00
    0.3300000000E+04    0.5989975284E+00    0.2469982695E-01    0.4467485541E-03    0.3518822932E-01    0.6421807751E+00
    0.3500000000E+04    0.6015476670E+00    0.2392842059E-01    0.4299500220E-03    0.3534113737E-01    0.6435929808E+00
    0.3700000000E+04    0.6038222792E+00    0.2322696622E-01    0.4147636040E-03    0.3547773476E-01    0.6448836558E+00
    0.3900000000E+04    0.6058628507E+00    0.2258564013E-01    0.4009589752E-03    0.3560046713E-01    0.6460690272E+00
    0.4100000000E+04    0.6077030557E+00    0.2199641086E-01    0.3883478441E-03    0.3571132060E-01    0.6471624644E+00
    0.4300000000E+04    0.6093704931E+00    0.2145264715E-01    0.3767748291E-03    0.3581192374E-01    0.6481750925E+00
    0.4500000000E+04    0.6108879825E+00    0.2094882418E-01    0.3661105960E-03    0.3590362375E-01    0.6491162524E+00
    0.4700000000E+04    0.6122745452E+00    0.2048030064E-01    0.3562466322E-03    0.3598754413E-01    0.6499938511E+00
    0.4900000000E+04    0.6135461554E+00    0.2004314767E-01    0.3470912248E-03    0.3606462886E-01    0.6508146319E+00
    0.1000000000E+04    0.5052647684E+00    0.4872064962E-01    0.9878978368E-03    0.2963514516E-01    0.6004246199E+00
    0.3000000000E+04    0.5945391669E+00    0.2601547605E-01    0.4756105908E-03    0.3492141804E-01    0.6397897506E+00
    0.5000000000E+04    0.6141431577E+00    0.1983526886E-01    0.3427543784E-03    0.3610086233E-01    0.6512055573E+00
    0.7000000000E+04    0.6224408353E+00    0.1672214470E-01    0.2792355008E-03    0.3660824948E-01    0.6570952419E+00
    0.9000000000E+04    0.6269821562E+00    0.1476246847E-01    0.2407878124E-03    0.3689050820E-01    0.6608147359E+00
    0.1100000000E+05    0.6298365766E+00    0.1338057090E-01    0.2144667821E-03    0.3707082766E-01    0.6634276970E+00
    0.1300000000E+05    0.6317931740E+00    0.1233689336E-01    0.1950415748E-03    0.3719644070E-01    0.6653889762E+00
    0.1500000000E+05    0.6332164539E+00    0.1151160388E-01    0.1799635677E-03    0.3728928735E-01    0.6669292597E+00
    0.1700000000E+05    0.6342975663E+00    0.1083716795E-01    0.1678289061E-03    0.3736093720E-01    0.6681794007E+00
    0.1900000000E+05    0.6351462494E+00    0.1027219865E-01    0.1577941571E-03    0.3741806926E-01    0.6692197740E+00
    0.2100000000E+05    0.6358299372E+00    0.9789706221E-02    0.1493186976E-03    0.3746481063E-01    0.6701027863E+00
    0.2300000000E+05    0.6363923250E+00    0.9371224260E-02    0.1420381825E-03    0.3750385039E-01    0.6708642361E+00
    0.2500000000E+05    0.6368629570E+00    0.9003625969E-02    0.1356970518E-03    0.3753701685E-01    0.6715295068E+00
    0.2700000000E+05    0.6372625189E+00    0.8677284979E-02    0.1301101064E-03    0.3756559717E-01    0.6721171565E+00
    0.2900000000E+05    0.6376059230E+00    0.8384956791E-02    0.1251394464E-03    0.3759052441E-01    0.6726411046E+00
    0.3100000000E+05    0.6379041886E+00    0.8121068917E-02    0.1206800119E-03    0.3761249184E-01    0.6731120209E+00
    0.3300000000E+05    0.6381656335E+00    0.7881254031E-02    0.1166501781E-03    0.3763202560E-01    0.6735382378E+00
    0.3500000000E+05    0.6383966529E+00    0.7662033424E-02    0.1129854428E-03    0.3764953248E-01    0.6739263685E+00
    0.3700000000E+05    0.6386022443E+00    0.7460596672E-02    0.1096340738E-03    0.3766533206E-01    0.6742817373E+00
    0.3900000000E+05    0.6387863693E+00    0.7274644716E-02    0.1065540342E-03    0.3767967905E-01    0.6746086845E+00
    0.4100000000E+05    0.6389522082E+00    0.7102275826E-02    0.1037107678E-03    0.3769277905E-01    0.6749107884E+00
    0.4300000000E+05    0.6391023436E+00    0.6941901237E-02    0.1010755709E-03    0.3770479989E-01    0.6751910285E+00
    0.4500000000E+05    0.6392388944E+00    0.6792181735E-02    0.9862437818E-04    0.3771588004E-01    0.6754519082E+00
    0.4700000000E+05    0.6393636152E+00    0.6651979294E-02    0.9633684219E-04    0.3772613475E-01    0.6756955486E+00
    0.4900000000E+05    0.6394779714E+00    0.6520319722E-02    0.9419562658E-04    0.3773566080E-01    0.6759237596E+00
    0.1000000000E+05    0.6285559453E+00    0.1401839161E-01    0.2265314963E-03    0.3698956795E-01    0.6622234521E+00
    0.3000000000E+05    0.6377601256E+00    0.8249754737E-02    0.1228513911E-03    0.3760184195E-01    0.6728826246E+00
    0.5000000000E+05    0.6395316560E+00    0.6457426556E-02    0.9317515698E-04    0.3774017665E-01    0.6760325740E+00
    0.7000000000E+05    0.6402783877E+00    0.5494179023E-02    0.7774116201E-04    0.3780679518E-01    0.6776824970E+00
    0.9000000000E+05    0.6406882392E+00    0.4868897421E-02    0.6792419639E-04    0.3784793309E-01    0.6787363013E+00
    0.1100000000E+06    0.6409463321E+00    0.4420632157E-02    0.6098905467E-04    0.3787675103E-01    0.6794831659E+00
    0.1300000000E+06    0.6411232766E+00    0.4078797531E-02    0.5576085860E-04    0.3789853317E-01    0.6800477869E+00
    0.1500000000E+06    0.6412518212E+00    0.3806871311E-02    0.5164082192E-04    0.3791585123E-01    0.6804938650E+00
    0.1700000000E+06    0.6413492161E+00    0.3583793542E-02    0.4828772515E-04    0.3793012327E-01    0.6808577615E+00
    0.1900000000E+06    0.6414254051E+00    0.3396447919E-02    0.4549110598E-04    0.3794220320E-01    0.6811619352E+00
    0.2100000000E+06    0.6414865193E+00    0.3236179664E-02    0.4311322675E-04    0.3795264010E-01    0.6814211023E+00
    0.2300000000E+06    0.6415365431E+00    0.3097014928E-02    0.4105968966E-04    0.3796180546E-01    0.6816453599E+00
    0.2500000000E+06    0.6415781764E+00    0.2974678698E-02    0.3926336367E-04    0.3796996098E-01    0.6818418960E+00
    0.2700000000E+06    0.6416133130E+00    0.2866019641E-02    0.3767503953E-04    0.3797729726E-01    0.6820159852E+00
    0.2900000000E+06    0.6416433198E+00    0.2768656483E-02    0.3625772044E-04    0.3798395699E-01    0.6821715969E+00
    0.3100000000E+06    0.6416692080E+00    0.2680751605E-02    0.3498298759E-04    0.3799004946E-01    0.6823117829E+00
    0.3300000000E+06    0.6416917411E+00    0.2600861067E-02    0.3382860497E-04    0.3799566010E-01    0.6824389336E+00
    0.3500000000E+06    0.6417115066E+00    0.2527832314E-02    0.3277689319E-04    0.3800085686E-01    0.6825549510E+00
    0.3700000000E+06    0.6417289634E+00    0.2460732620E-02    0.3181359701E-04    0.3800569454E-01    0.6826613702E+00
    0.3900000000E+06    0.6417444753E+00    0.2398797908E-02    0.3092707848E-04    0.3801021799E-01    0.6827594456E+00
    0.4100000000E+06    0.6417583341E+00    0.2341395433E-02    0.3010773077E-04    0.3801446431E-01    0.6828502134E+00
    0.4300000000E+06    0.6417707770E+00    0.2287996086E-02    0.2934754474E-04    0.3801846453E-01    0.6829345383E+00
    0.4500000000E+06    0.6417819980E+00    0.2238153527E-02    0.2863978330E-04    0.3802224483E-01    0.6830131482E+00
    0.4700000000E+06    0.6417921579E+00    0.2191488227E-02    0.2797873334E-04    0.3802582753E-01    0.6830866610E+00
    0.4900000000E+06    0.6418013909E+00    0.2147675133E-02    0.2735951424E-04    0.3802923174E-01    0.6831556048E+00
    0.1000000000E+06    0.6408305084E+00    0.4628203808E-02    0.6418946931E-04    0.3786345748E-01    0.6791382301E+00
    0.3000000000E+06    0.6416567262E+00    0.2723619851E-02    0.3560404340E-04    0.3798706831E-01    0.6822434556E+00
    0.5000000000E+06    0.6418056957E+00    0.2126749056E-02    0.2706425625E-04    0.3803087216E-01    0.6831885079E+00
    0.7000000000E+06    0.6418629281E+00    0.1806575878E-02    0.2258866678E-04    0.3805735651E-01    0.6836898372E+00
    0.9000000000E+06    0.6418910467E+00    0.1599143176E-02    0.1973448319E-04    0.3807629330E-01    0.6840125306E+00
    0.1100000000E+07    0.6419065861E+00    0.1450672322E-02    0.1771601596E-04    0.3809101614E-01    0.6842424783E+00
    0.1300000000E+07    0.6419157039E+00    0.1337599932E-02    0.1619367998E-04    0.3810305349E-01    0.6844170276E+00
    0.1500000000E+07    0.6419211808E+00    0.1247748499E-02    0.1499383009E-04    0.3811323136E-01    0.6845553755E+00
    0.1700000000E+07    0.6419244395E+00    0.1174104289E-02    0.1401732181E-04    0.3812204607E-01    0.6846685330E+00
    0.1900000000E+07    0.6419262753E+00    0.1112303799E-02    0.1320292933E-04    0.3812981895E-01    0.6847633278E+00
    0.2100000000E+07    0.6419271625E+00    0.1059470574E-02    0.1251055200E-04    0.3813676983E-01    0.6848442486E+00
    0.2300000000E+07    0.6419273991E+00    0.1013620912E-02    0.1191269301E-04    0.3814305569E-01    0.6849143837E+00
    0.2500000000E+07    0.6419271797E+00    0.9733363509E-03    0.1138979147E-04    0.3814879252E-01    0.6849759372E+00
    0.2700000000E+07    0.6419266357E+00    0.9375720130E-03    0.1092750553E-04    0.3815406841E-01    0.6850305299E+00
    0.2900000000E+07    0.6419258581E+00    0.9055388549E-03    0.1051505117E-04    0.3815895187E-01    0.6850793837E+00
    0.3100000000E+07    0.6419249114E+00    0.8766283336E-03    0.1014414414E-04    0.3816349717E-01    0.6851234399E+00
    0.3300000000E+07    0.6419238423E+00    0.8503625336E-03    0.9808302278E-05    0.3816774809E-01    0.6851634368E+00
    0.3500000000E+07    0.6419226849E+00    0.8263601711E-03    0.9502371766E-05    0.3817174042E-01    0.6851999626E+00
    0.3700000000E+07    0.6419214645E+00    0.8043128260E-03    0.9222197063E-05    0.3817550379E-01    0.6852334929E+00
    0.3900000000E+07    0.6419202003E+00    0.7839679520E-03    0.8964385723E-05    0.3817906304E-01    0.6852644165E+00
    0.4100000000E+07    0.6419189067E+00    0.7651164935E-03    0.8726137517E-05    0.3818243915E-01    0.6852930552E+00
    0.4300000000E+07    0.6419175946E+00    0.7475836999E-03    0.8505118047E-05    0.3818565005E-01    0.6853196776E+00
    0.4500000000E+07    0.6419162727E+00    0.7312222068E-03    0.8299363811E-05    0.3818871114E-01    0.6853445101E+00
    0.4700000000E+07    0.6419149472E+00    0.7159067502E-03    0.8107209856E-05    0.3819163577E-01    0.6853677450E+00
    0.4900000000E+07    0.6419136234E+00    0.7015300770E-03    0.7927233954E-05    0.3819443560E-01    0.6853895470E+00
    0.1000000000E+07    0.6418998843E+00    0.1519396217E-02    0.1864765657E-04    0.3808406241E-01    0.6841361468E+00
    0.3000000000E+07    0.6419254026E+00    0.8907257369E-03    0.1032484521E-04    0.3816126384E-01    0.6851019613E+00
    0.5000000000E+07    0.6419129634E+00    0.6946643902E-03    0.7841423768E-05    0.3819579196E-01    0.6853999557E+00
    0.7000000000E+07    0.6419004178E+00    0.5896925431E-03    0.6541241857E-05    0.3821829853E-01    0.6855588536E+00
    0.9000000000E+07    0.6418894613E+00    0.5217586290E-03    0.5712673711E-05    0.3823502548E-01    0.6856614386E+00
    0.1100000000E+08    0.6418799518E+00    0.4731708352E-03    0.5127017589E-05    0.3824834294E-01    0.6857346871E+00
    0.1300000000E+08    0.6418716095E+00    0.4361876014E-03    0.4685490416E-05    0.3825940845E-01    0.6857903713E+00
    0.1500000000E+08    0.6418642001E+00    0.4068118429E-03    0.4337606649E-05    0.3826887477E-01    0.6858345572E+00
    0.1700000000E+08    0.6418575448E+00    0.3827430432E-03    0.4054553593E-05    0.3827714642E-01    0.6858707310E+00
    0.1900000000E+08    0.6418515084E+00    0.3625507760E-03    0.3818544720E-05    0.3828449153E-01    0.6859010577E+00
    0.2100000000E+08    0.6418459879E+00    0.3452925315E-03    0.3617934154E-05    0.3829109701E-01    0.6859269624E+00
    0.2300000000E+08    0.6418409031E+00    0.3303185777E-03    0.3444738546E-05    0.3829709835E-01    0.6859494267E+00
    0.2500000000E+08    0.6418361910E+00    0.3171644734E-03    0.3293279993E-05    0.3830259689E-01    0.6859691517E+00
    0.2700000000E+08    0.6418318010E+00    0.3054881986E-03    0.3159396391E-05    0.3830767047E-01    0.6859866533E+00
