  Pressure (Pa) 22mC5-400 (mol/kg) 2mC6-400 (mol/kg) 33mC5-400 (mol/kg) 23mC5-400 (mol/kg) C7-400 (mol/kg)
    0.1000000000E+01    0.3169178603E-02    0.3174817714E-02    0.1938658092E-03    0.4637285854E-03    0.3426731492E-02
    0.3000000000E+01    0.9347582968E-02    0.9291974445E-02    0.5673840018E-03    0.1367797985E-02    0.1009786863E-01
    0.5000000000E+01    0.1532321791E-01    0.1511566327E-01    0.9229581218E-03    0.2242218872E-02    0.1653718365E-01
    0.7000000000E+01    0.2110780972E-01    0.2066428824E-01    0.1261711374E-02    0.3088705569E-02    0.2275733594E-01
    0.9000000000E+01    0.2671217228E-01    0.2595479350E-01    0.1584677944E-02    0.3908839021E-02    0.2877006652E-01
    0.1100000000E+02    0.3214629417E-01    0.3100280321E-01    0.1892811523E-02    0.4704079527E-02    0.3458628021E-01
    0.1300000000E+02    0.3741941595E-01    0.3582274578E-01    0.2186992884E-02    0.5475778044E-02    0.4021611911E-01
    0.1500000000E+02    0.4254009900E-01    0.4042796445E-01    0.2468036623E-02    0.6225186240E-02    0.4566902849E-01
    0.1700000000E+02    0.4751628692E-01    0.4483081596E-01    0.2736697168E-02    0.6953465475E-02    0.5095381594E-01
    0.1900000000E+02    0.5235536037E-01    0.4904275867E-01    0.2993674159E-02    0.7661694813E-02    0.5607870454E-01
    0.2100000000E+02    0.5706418621E-01    0.5307443160E-01    0.3239617260E-02    0.8350878207E-02    0.6105138087E-01
    0.2300000000E+02    0.6164916158E-01    0.5693572521E-01    0.3475130479E-02    0.9021950945E-02    0.6587903827E-01
    0.2500000000E+02    0.6611625353E-01    0.6063584515E-01    0.3700776049E-02    0.9675785438E-02    0.7056841599E-01
    0.2700000000E+02    0.7047103474E-01    0.6418336958E-01    0.3917077925E-02    0.1031319644E-01    0.7512583473E-01
    0.2900000000E+02    0.7471871568E-01    0.6758630091E-01    0.4124524943E-02    0.1093494577E-01    0.7955722879E-01
    0.3100000000E+02    0.7886417377E-01    0.7085211256E-01    0.4323573663E-02    0.1154174654E-01    0.8386817534E-01
    0.3300000000E+02    0.8291197968E-01    0.7398779126E-01    0.4514650953E-02    0.1213426701E-01    0.8806392106E-01
    0.3500000000E+02    0.8686642124E-01    0.7699987541E-01    0.4698156326E-02    0.1271313412E-01    0.9214940645E-01
    0.3700000000E+02    0.9073152515E-01    0.7989448985E-01    0.4874464063E-02    0.1327893661E-01    0.9612928793E-01
    0.3900000000E+02    0.9451107665E-01    0.8267737756E-01    0.5043925144E-02    0.1383222793E-01    0.1000079582E+00
    0.4100000000E+02    0.9820863756E-01    0.8535392845E-01    0.5206869000E-02    0.1437352885E-01    0.1037895646E+00
    0.4300000000E+02    0.1018275626E+00    0.8792920561E-01    0.5363605120E-02    0.1490332989E-01    0.1074780264E+00
    0.4500000000E+02    0.1053710145E+00    0.9040796932E-01    0.5514424513E-02    0.1542209347E-01    0.1110770501E+00
    0.4700000000E+02    0.1088419773E+00    0.9279469893E-01    0.5659601040E-02    0.1593025592E-01    0.1145901440E+00
    0.4900000000E+02    0.1122432695E+00    0.9509361297E-01    0.5799392642E-02    0.1642822935E-01    0.1180206313E+00
    0.1000000000E+02    0.2944991909E-01    0.2850818185E-01    0.1740542182E-02    0.4309484018E-02    0.3170208703E-01
    0.3000000000E+02    0.7680393001E-01    0.6923589909E-01    0.4225071743E-02    0.1124017195E-01    0.8172742263E-01
    0.5000000000E+02    0.1139186274E+00    0.9621139065E-01    0.5867345626E-02    0.1667351773E-01    0.1197058883E+00
    0.7000000000E+02    0.1443436291E+00    0.1148100510E+00    0.6995897004E-02    0.2112851764E-01    0.1497587614E+00
    0.9000000000E+02    0.1700939652E+00    0.1279957550E+00    0.7792063327E-02    0.2489980972E-01    0.1742960341E+00
    0.1100000000E+03    0.1924044378E+00    0.1375240223E+00    0.8363377596E-02    0.2816795548E-01    0.1948250682E+00
    0.1300000000E+03    0.2120784092E+00    0.1444937095E+00    0.8777235161E-02    0.3105043294E-01    0.2123393942E+00
    0.1500000000E+03    0.2296644351E+00    0.1496234671E+00    0.9077772538E-02    0.3362746171E-01    0.2275219743E+00
    0.1700000000E+03    0.2455523626E+00    0.1534003123E+00    0.9294943142E-02    0.3595605396E-01    0.2408587502E+00
    0.1900000000E+03    0.2600287385E+00    0.1561641240E+00    0.9449681836E-02    0.3807811612E-01    0.2527055812E+00
    0.2100000000E+03    0.2733103275E+00    0.1581580001E+00    0.9556984840E-02    0.4002535017E-01    0.2633295089E+00
    0.2300000000E+03    0.2855652279E+00    0.1595594731E+00    0.9627820295E-02    0.4182234117E-01    0.2729351732E+00
    0.2500000000E+03    0.2969266410E+00    0.1605005206E+00    0.9670353977E-02    0.4348857096E-01    0.2816822758E+00
    0.2700000000E+03    0.3075021260E+00    0.1610807692E+00    0.9690758794E-02    0.4503977144E-01    0.2896974532E+00
    0.2900000000E+03    0.3173799852E+00    0.1613764297E+00    0.9693763089E-02    0.4648885836E-01    0.2970825486E+00
    0.3100000000E+03    0.3266337756E+00    0.1614464786E+00    0.9683030362E-02    0.4784659107E-01    0.3039204994E+00
    0.3300000000E+03    0.3353255624E+00    0.1613370190E+00    0.9661427462E-02    0.4912204828E-01    0.3102796101E+00
    0.3500000000E+03    0.3435083111E+00    0.1610844110E+00    0.9631217349E-02    0.5032297799E-01    0.3162167054E+00
    0.3700000000E+03    0.3512276775E+00    0.1607175545E+00    0.9594199824E-02    0.5145605912E-01    0.3217794943E+00
    0.3900000000E+03    0.3585233669E+00    0.1602595768E+00    0.9551815722E-02    0.5252710037E-01    0.3270083674E+00
    0.4100000000E+03    0.3654301827E+00    0.1597290965E+00    0.9505225048E-02    0.5354119355E-01    0.3319377801E+00
    0.4300000000E+03    0.3719788458E+00    0.1591411804E+00    0.9455366242E-02    0.5450283338E-01    0.3365973303E+00
    0.4500000000E+03    0.3781966426E+00    0.1585080759E+00    0.9403001608E-02    0.5541601232E-01    0.3410126064E+00
    0.4700000000E+03    0.3841079444E+00    0.1578397773E+00    0.9348752462E-02    0.5628429642E-01    0.3452058618E+00
    0.4900000000E+03    0.3897346270E+00    0.1571444663E+00    0.9293126569E-02    0.5711088678E-01    0.3491965553E+00
    0.1000000000E+03    0.1816214682E+00    0.1331370922E+00    0.8100923892E-02    0.2658833597E-01    0.1849904149E+00
    0.3000000000E+03    0.3220807721E+00    0.1614365141E+00    0.9689918563E-02    0.4717854179E-01    0.3005653465E+00
    0.5000000000E+03    0.3924474757E+00    0.1567888293E+00    0.9264930380E-02    0.5750945990E-01    0.3511213677E+00
    0.7000000000E+03    0.4356748329E+00    0.1493662506E+00    0.8696843436E-02    0.6386466798E-01    0.3822195387E+00
    0.9000000000E+03    0.4646758632E+00    0.1424797473E+00    0.8187237492E-02    0.6813422017E-01    0.4042629749E+00
    0.1100000000E+04    0.4852800997E+00    0.1365042794E+00    0.7753703259E-02    0.7117185412E-01    0.4211464644E+00
    0.1300000000E+04    0.5005558660E+00    0.1313475074E+00    0.7385621872E-02    0.7342716950E-01    0.4347227743E+00
    0.1500000000E+04    0.5122664807E+00    0.1268602942E+00    0.7070034639E-02    0.7515867803E-01    0.4460102374E+00
    0.1700000000E+04    0.5214902973E+00    0.1229123147E+00    0.6796148395E-02    0.7652455158E-01    0.4556256445E+00
    0.1900000000E+04    0.5289195250E+00    0.1194010852E+00    0.6555637926E-02    0.7762637316E-01    0.4639696152E+00
    0.2100000000E+04    0.5350164423E+00    0.1162478234E+00    0.6342177453E-02    0.7853201644E-01    0.4713164395E+00
    0.2300000000E+04    0.5401001898E+00    0.1133918553E+00    0.6150939707E-02    0.7928836210E-01    0.4778618035E+00
    0.2500000000E+04    0.5443974144E+00    0.1107859697E+00    0.5978199894E-02    0.7992872026E-01    0.4837500014E+00
    0.2700000000E+04    0.5480730573E+00    0.1083929496E+00    0.5821045575E-02    0.8047734426E-01    0.4890903535E+00
    0.2900000000E+04    0.5512497388E+00    0.1061830573E+00    0.5677168489E-02    0.8095227352E-01    0.4939675765E+00
    0.3100000000E+04    0.5540203417E+00    0.1041322211E+00    0.5544715251E-02    0.8136717943E-01    0.4984485910E+00
    0.3300000000E+04    0.5564564006E+00    0.1022207166E+00    0.5422179469E-02    0.8173259654E-01    0.5025871359E+00
    0.3500000000E+04    0.5586138303E+00    0.1004322006E+00    0.5308322906E-02    0.8205676335E-01    0.5064269855E+00
    0.3700000000E+04    0.5605369202E+00    0.9875299135E-01    0.5202117168E-02    0.8234620885E-01    0.5100042451E+00
    0.3900000000E+04    0.5622611739E+00    0.9717152863E-01    0.5102700010E-02    0.8260616954E-01    0.5133490252E+00
    0.4100000000E+04    0.5638153618E+00    0.9567796115E-01    0.5009342199E-02    0.8284089110E-01    0.5164866848E+00
    0.4300000000E+04    0.5652230294E+00    0.9426382878E-01    0.4921422077E-02    0.8305384994E-01    0.5194387698E+00
    0.4500000000E+04    0.5665036200E+00    0.9292181460E-01    0.4838405818E-02    0.8324791837E-01    0.5222237316E+00
    0.4700000000E+04    0.5676733227E+00    0.9164554932E-01    0.4759831940E-02    0.8342548923E-01    0.5248574858E+00
    0.4900000000E+04    0.5687457199E+00    0.9042945559E-01    0.4685299037E-02    0.8358857111E-01    0.5273538502E+00
    0.1000000000E+04    0.4757943560E+00    0.1393806859E+00    0.7961453536E-02    0.6977285790E-01    0.4132062903E+00
    0.3000000000E+04    0.5526809062E+00    0.1051390791E+00    0.5609615130E-02    0.8116650882E-01    0.4962539853E+00
    0.5000000000E+04    0.5692490858E+00    0.8984241537E-01    0.4649436481E-02    0.8366521977E-01    0.5285543430E+00
    0.7000000000E+04    0.5762380455E+00    0.8032699255E-01    0.4078342829E-02    0.8473821765E-01    0.5476142091E+00
    0.9000000000E+04    0.5800565426E+00    0.7357679770E-01    0.3684273542E-02    0.8533504947E-01    0.5607054102E+00
    0.1100000000E+05    0.5824531589E+00    0.6843038117E-01    0.3389621689E-02    0.8571638713E-01    0.5704646618E+00
    0.1300000000E+05    0.5840935811E+00    0.6432130899E-01    0.3157818978E-02    0.8598207459E-01    0.5781272215E+00
    0.1500000000E+05    0.5852850924E+00    0.6093271245E-01    0.2968913851E-02    0.8617848119E-01    0.5843638220E+00
    0.1700000000E+05    0.5861887621E+00    0.5807043388E-01    0.2810913783E-02    0.8633006079E-01    0.5895760016E+00
    0.1900000000E+05    0.5868970263E+00    0.5560746766E-01    0.2676093746E-02    0.8645093273E-01    0.5940215331E+00
    0.2100000000E+05    0.5874666673E+00    0.5345652332E-01    0.2559211390E-02    0.8654982326E-01    0.5978748449E+00
    0.2300000000E+05    0.5879344658E+00    0.5155523154E-01    0.2456561110E-02    0.8663241920E-01    0.6012589357E+00
    0.2500000000E+05    0.5883252816E+00    0.4985761022E-01    0.2365436171E-02    0.8670258759E-01    0.6042634659E+00
    0.2700000000E+05    0.5886565138E+00    0.4832887019E-01    0.2283805307E-02    0.8676305136E-01    0.6069556043E+00
    0.2900000000E+05    0.5889407004E+00    0.4694211223E-01    0.2210109229E-02    0.8681578452E-01    0.6093868368E+00
    0.3100000000E+05    0.5891871020E+00    0.4567614848E-01    0.2143127668E-02    0.8686225394E-01    0.6115974051E+00
    0.3300000000E+05    0.5894027059E+00    0.4451402066E-01    0.2081889664E-02    0.8690357303E-01    0.6136192949E+00
    0.3500000000E+05    0.5895928819E+00    0.4344196501E-01    0.2025611371E-02    0.8694060258E-01    0.6154783042E+00
    0.3700000000E+05    0.5897618242E+00    0.4244867238E-01    0.1973651904E-02    0.8697401897E-01    0.6171955100E+00
    0.3900000000E+05    0.5899128557E+00    0.4152474870E-01    0.1925481317E-02    0.8700436126E-01    0.6187883288E+00
    0.4100000000E+05    0.5900486428E+00    0.4066231431E-01    0.1880656974E-02    0.8703206460E-01    0.6202712999E+00
    0.4300000000E+05    0.5901713499E+00    0.3985470168E-01    0.1838805804E-02    0.8705748425E-01    0.6216566716E+00
    0.4500000000E+05    0.5902827514E+00    0.3909622417E-01    0.1799610796E-02    0.8708091324E-01    0.6229548475E+00
    0.4700000000E+05    0.5903843163E+00    0.3838199671E-01    0.1762800568E-02    0.8710259554E-01    0.6241747309E+00
    0.4900000000E+05    0.5904772704E+00    0.3770779518E-01    0.1728141224E-02    0.8712273597E-01    0.6253239933E+00
    0.1000000000E+05    0.5813783418E+00    0.7084670902E-01    0.3527357167E-02    0.8554453201E-01    0.5659055679E+00
    0.3000000000E+05    0.5890681433E+00    0.4629517623E-01    0.2175844827E-02    0.8683972571E-01    0.6105175392E+00
    0.5000000000E+05    0.5905208473E+00    0.3738453693E-01    0.1711553682E-02    0.8713228320E-01    0.6258742550E+00
    0.7000000000E+05    0.5911217390E+00    0.3233680275E-01    0.1455170703E-02    0.8727308968E-01    0.6344029961E+00
    0.9000000000E+05    0.5914452613E+00    0.2896240546E-01    0.1286668189E-02    0.8736000210E-01    0.6400395536E+00
    0.1100000000E+06    0.5916450152E+00    0.2649569892E-01    0.1165057621E-02    0.8742086814E-01    0.6441281213E+00
    0.1300000000E+06    0.5917792163E+00    0.2458783724E-01    0.1071959616E-02    0.8746686511E-01    0.6472723990E+00
    0.1500000000E+06    0.5918746937E+00    0.2305352446E-01    0.9977295297E-03    0.8750343096E-01    0.6497898336E+00
    0.1700000000E+06    0.5919454896E+00    0.2178380305E-01    0.9367516391E-03    0.8753356328E-01    0.6518656714E+00
    0.1900000000E+06    0.5919996470E+00    0.2070976454E-01    0.8855036379E-03    0.8755906663E-01    0.6536163616E+00
    0.2100000000E+06    0.5920420934E+00    0.1978536935E-01    0.8416489385E-03    0.8758110107E-01    0.6551193220E+00
    0.2300000000E+06    0.5920760103E+00    0.1897850705E-01    0.8035681019E-03    0.8760045127E-01    0.6564283235E+00
    0.2500000000E+06    0.5921035396E+00    0.1826599431E-01    0.7700984690E-03    0.8761766997E-01    0.6575820494E+00
    0.2700000000E+06    0.5921261740E+00    0.1763061018E-01    0.7403807720E-03    0.8763315961E-01    0.6586091453E+00
    0.2900000000E+06    0.5921449839E+00    0.1705925412E-01    0.7137643622E-03    0.8764722143E-01    0.6595313434E+00
    0.3100000000E+06    0.5921607556E+00    0.1654175624E-01    0.6897462901E-03    0.8766008617E-01    0.6603654733E+00
    0.3300000000E+06    0.5921740793E+00    0.1607008276E-01    0.6679308110E-03    0.8767193416E-01    0.6611248006E+00
    0.3500000000E+06    0.5921854055E+00    0.1563779028E-01    0.6480016862E-03    0.8768290877E-01    0.6618199438E+00
    0.3700000000E+06    0.5921950842E+00    0.1523964165E-01    0.6297027589E-03    0.8769312570E-01    0.6624595183E+00
    0.3900000000E+06    0.5922033908E+00    0.1487132963E-01    0.6128240324E-03    0.8770267958E-01    0.6630505977E+00
    0.4100000000E+06    0.5922105446E+00    0.1452927425E-01    0.5971914994E-03    0.8771164869E-01    0.6635990527E+00
    0.4300000000E+06    0.5922167226E+00    0.1421047188E-01    0.5826595821E-03    0.8772009851E-01    0.6641098017E+00
    0.4500000000E+06    0.5922220688E+00    0.1391238080E-01    0.5691054277E-03    0.8772808429E-01    0.6645870015E+00
    0.4700000000E+06    0.5922267014E+00    0.1363283354E-01    0.5564245430E-03    0.8773565310E-01    0.6650341925E+00
    0.4900000000E+06    0.5922307183E+00    0.1336996871E-01    0.5445274116E-03    0.8774284527E-01    0.6654544116E+00
    0.1000000000E+06    0.5915558631E+00    0.2764287397E-01    0.1221444186E-02    0.8739279276E-01    0.6422299717E+00
    0.3000000000E+06    0.5921532089E+00    0.1679431774E-01    0.7014574070E-03    0.8765379116E-01    0.6599585166E+00
    0.5000000000E+06    0.5922325221E+00    0.1324428079E-01    0.5388482106E-03    0.8774631120E-01    0.6656552404E+00
    0.7000000000E+06    0.5922504459E+00    0.1131008463E-01    0.4522548063E-03    0.8780228378E-01    0.6687378091E+00
    0.9000000000E+06    0.5922516045E+00    0.1004576526E-01    0.3965315150E-03    0.8784232571E-01    0.6707446904E+00
    0.1100000000E+07    0.5922467702E+00    0.9135397979E-02    0.3568859982E-03    0.8787347032E-01    0.6721857563E+00
    0.1300000000E+07    0.5922395742E+00    0.8439037161E-02    0.3268533769E-03    0.8789894298E-01    0.6732857972E+00
    0.1500000000E+07    0.5922314770E+00    0.7883803636E-02    0.3031022409E-03    0.8792048711E-01    0.6741614836E+00
    0.1700000000E+07    0.5922231293E+00    0.7427478798E-02    0.2837194193E-03    0.8793915054E-01    0.6748802291E+00
    0.1900000000E+07    0.5922148373E+00    0.7043676391E-02    0.2675180282E-03    0.8795561176E-01    0.6754840799E+00
    0.2100000000E+07    0.5922067472E+00    0.6714937060E-02    0.2537177905E-03    0.8797033506E-01    0.6760008102E+00
    0.2300000000E+07    0.5921989259E+00    0.6429182304E-02    0.2417819966E-03    0.8798365206E-01    0.6764496070E+00
    0.2500000000E+07    0.5921914000E+00    0.6177751997E-02    0.2313278159E-03    0.8799580782E-01    0.6768442098E+00
    0.2700000000E+07    0.5921841743E+00    0.5954251922E-02    0.2220739089E-03    0.8800698851E-01    0.6771947525E+00
    0.2900000000E+07    0.5921772430E+00    0.5753843523E-02    0.2138082983E-03    0.8801733890E-01    0.6775088959E+00
    0.3100000000E+07    0.5921705942E+00    0.5572788272E-02    0.2063678485E-03    0.8802697375E-01    0.6777925543E+00
    0.3300000000E+07    0.5921642135E+00    0.5408145326E-02    0.1996247049E-03    0.8803598558E-01    0.6780503763E+00
    0.3500000000E+07    0.5921580856E+00    0.5257564985E-02    0.1934770644E-03    0.8804445007E-01    0.6782860735E+00
    0.3700000000E+07    0.5921521953E+00    0.5119144017E-02    0.1878427338E-03    0.8805242990E-01    0.6785026505E+00
    0.3900000000E+07    0.5921465276E+00    0.4991322065E-02    0.1826545319E-03    0.8805997758E-01    0.6787025689E+00
    0.4100000000E+07    0.5921410686E+00    0.4872806010E-02    0.1778569433E-03    0.8806713751E-01    0.6788878678E+00
    0.4300000000E+07    0.5921358051E+00    0.4762513801E-02    0.1734036403E-03    0.8807394760E-01    0.6790602525E+00
    0.4500000000E+07    0.5921307249E+00    0.4659532076E-02    0.1692556188E-03    0.8808044044E-01    0.6792211617E+00
    0.4700000000E+07    0.5921258167E+00    0.4563083750E-02    0.1653797758E-03    0.8808664430E-01    0.6793718192E+00
    0.4900000000E+07    0.5921210700E+00    0.4472502907E-02    0.1617478109E-03    0.8809258380E-01    0.6795132729E+00
    0.1000000000E+07    0.5922496308E+00    0.9557350489E-02    0.3752093858E-03    0.8785875895E-01    0.6715182422E+00
    0.3000000000E+07    0.5921738841E+00    0.5661096465E-02    0.2099936214E-03    0.8802223953E-01    0.6776542200E+00
    0.5000000000E+07    0.5921187541E+00    0.4429230162E-02    0.1600155368E-03    0.8809546128E-01    0.6795808358E+00
    0.7000000000E+07    0.5920789441E+00    0.3766394563E-02    0.1337206696E-03    0.8814322146E-01    0.6806146544E+00
    0.9000000000E+07    0.5920479520E+00    0.3336206255E-02    0.1169165271E-03    0.8817873204E-01    0.6812844964E+00
    0.1100000000E+08    0.5920226086E+00    0.3027934997E-02    0.1050164071E-03    0.8820701312E-01    0.6817639381E+00
    0.1300000000E+08    0.5920011799E+00    0.2792959507E-02    0.9603245418E-04    0.8823051756E-01    0.6821290579E+00
    0.1500000000E+08    0.5919826209E+00    0.2606114760E-02    0.8894631207E-04    0.8825062902E-01    0.6824191799E+00
    0.1700000000E+08    0.5919662547E+00    0.2452890382E-02    0.8317574950E-04    0.8826820526E-01    0.6826569557E+00
    0.1900000000E+08    0.5919516183E+00    0.2324250859E-02    0.7836083488E-04    0.8828381493E-01    0.6828564786E+00
    0.2100000000E+08    0.5919383809E+00    0.2214235548E-02    0.7426562541E-04    0.8829785447E-01    0.6830270393E+00
    0.2300000000E+08    0.5919262986E+00    0.2118731260E-02    0.7072822204E-04    0.8831061134E-01    0.6831750453E+00
    0.2500000000E+08    0.5919151858E+00    0.2034795273E-02    0.6763338278E-04    0.8832230060E-01    0.6833050781E+00
    0.2700000000E+08    0.5919048985E+00    0.1960258910E-02    0.6489656974E-04    0.8833308738E-01    0.6834205127E+00
