  Pressure (Pa) 22mC5-400 (mol/kg) 2mC6-400 (mol/kg) 33mC5-400 (mol/kg) 23mC5-400 (mol/kg) C7-400 (mol/kg)
    0.1000000000E+01    0.3172496289E-02    0.2374248212E-02    0.3221962190E-03    0.1856854942E-03    0.6824896739E-02
    0.3000000000E+01    0.9376278775E-02    0.6910055789E-02    0.9378038682E-03    0.5487976993E-03    0.1994982128E-01
    0.5000000000E+01    0.1539988224E-01    0.1118046248E-01    0.1517491560E-02    0.9013719140E-03    0.3242026598E-01
    0.7000000000E+01    0.2125243731E-01    0.1520541291E-01    0.2063956957E-02    0.1243942066E-02    0.4428579268E-01
    0.9000000000E+01    0.2694245134E-01    0.1900293919E-01    0.2579638818E-02    0.1577005638E-02    0.5559103897E-01
    0.1100000000E+02    0.3247786063E-01    0.2258938511E-01    0.3066747385E-02    0.1901026725E-02    0.6637631660E-01
    0.1300000000E+02    0.3786607758E-01    0.2597959943E-01    0.3527290566E-02    0.2216438787E-02    0.7667812447E-01
    0.1500000000E+02    0.4311403319E-01    0.2918710295E-01    0.3963096576E-02    0.2523647138E-02    0.8652959035E-01
    0.1700000000E+02    0.4822821556E-01    0.3222423365E-01    0.4375833588E-02    0.2823031192E-02    0.9596085249E-01
    0.1900000000E+02    0.5321470474E-01    0.3510227300E-01    0.4767026851E-02    0.3114946504E-02    0.1049993905E+00
    0.2100000000E+02    0.5807920436E-01    0.3783155645E-01    0.5138073641E-02    0.3399726620E-02    0.1136703131E+00
    0.2300000000E+02    0.6282707036E-01    0.4042157022E-01    0.5490256373E-02    0.3677684754E-02    0.1219966095E+00
    0.2500000000E+02    0.6746333719E-01    0.4288103640E-01    0.5824754124E-02    0.3949115321E-02    0.1299993690E+00
    0.2700000000E+02    0.7199274156E-01    0.4521798801E-01    0.6142652789E-02    0.4214295327E-02    0.1376979741E+00
    0.2900000000E+02    0.7641974431E-01    0.4743983537E-01    0.6444954065E-02    0.4473485646E-02    0.1451102707E+00
    0.3100000000E+02    0.8074855017E-01    0.4955342489E-01    0.6732583410E-02    0.4726932177E-02    0.1522527175E+00
    0.3300000000E+02    0.8498312605E-01    0.5156509131E-01    0.7006397109E-02    0.4974866910E-02    0.1591405194E+00
    0.3500000000E+02    0.8912721764E-01    0.5348070427E-01    0.7267188579E-02    0.5217508900E-02    0.1657877446E+00
    0.3700000000E+02    0.9318436472E-01    0.5530570985E-01    0.7515693984E-02    0.5455065163E-02    0.1722074301E+00
    0.3900000000E+02    0.9715791519E-01    0.5704516773E-01    0.7752597266E-02    0.5687731493E-02    0.1784116740E+00
    0.4100000000E+02    0.1010510380E+00    0.5870378453E-01    0.7978534650E-02    0.5915693219E-02    0.1844117197E+00
    0.4300000000E+02    0.1048667350E+00    0.6028594374E-01    0.8194098696E-02    0.6139125899E-02    0.1902180302E+00
    0.4500000000E+02    0.1086078519E+00    0.6179573263E-01    0.8399841938E-02    0.6358195961E-02    0.1958403549E+00
    0.4700000000E+02    0.1122770883E+00    0.6323696659E-01    0.8596280172E-02    0.6573061293E-02    0.2012877898E+00
    0.4900000000E+02    0.1158770073E+00    0.6461321105E-01    0.8783895423E-02    0.6783871787E-02    0.2065688318E+00
    0.1000000000E+02    0.2972900654E-01    0.2082158618E-01    0.2826634808E-02    0.1740118713E-02    0.6104630882E-01
    0.3000000000E+02    0.7859616854E-01    0.4850975502E-01    0.6590547667E-02    0.4600912071E-02    0.1487142470E+00
    0.5000000000E+02    0.1176517384E+00    0.6527801300E-01    0.8874536494E-02    0.6887801251E-02    0.2091494589E+00
    0.7000000000E+02    0.1500387493E+00    0.7586724368E-01    0.1031949864E-01    0.8784599707E-02    0.2537065727E+00
    0.9000000000E+02    0.1776374072E+00    0.8269184660E-01    0.1125197176E-01    0.1040127308E-01    0.2881481984E+00
    0.1100000000E+03    0.2016455225E+00    0.8709977294E-01    0.1185444491E-01    0.1180787964E-01    0.3157200112E+00
    0.1300000000E+03    0.2228656560E+00    0.8989565161E-01    0.1223601574E-01    0.1305136192E-01    0.3383951148E+00
    0.1500000000E+03    0.2418583176E+00    0.9158489097E-01    0.1246534679E-01    0.1416450580E-01    0.3574452521E+00
    0.1700000000E+03    0.2590288288E+00    0.9249791238E-01    0.1258743574E-01    0.1517102049E-01    0.3737289571E+00
    0.1900000000E+03    0.2746791089E+00    0.9285778916E-01    0.1263274679E-01    0.1608856726E-01    0.3878480104E+00
    0.2100000000E+03    0.2890398775E+00    0.9281911991E-01    0.1262246044E-01    0.1693064278E-01    0.4002375585E+00
    0.2300000000E+03    0.3022914118E+00    0.9249138570E-01    0.1257162949E-01    0.1770779325E-01    0.4112206080E+00
    0.2500000000E+03    0.3145773489E+00    0.9195351658E-01    0.1249114892E-01    0.1842842167E-01    0.4210423453E+00
    0.2700000000E+03    0.3260141163E+00    0.9126326830E-01    0.1238902516E-01    0.1909933943E-01    0.4298925130E+00
    0.2900000000E+03    0.3366975320E+00    0.9046342468E-01    0.1227121673E-01    0.1972615238E-01    0.4379204393E+00
    0.3100000000E+03    0.3467075234E+00    0.8958599858E-01    0.1214220449E-01    0.2031353683E-01    0.4452453983E+00
    0.3300000000E+03    0.3561115669E+00    0.8865513690E-01    0.1200538664E-01    0.2086544076E-01    0.4519639166E+00
    0.3500000000E+03    0.3649672399E+00    0.8768916634E-01    0.1186335740E-01    0.2138523308E-01    0.4581550314E+00
    0.3700000000E+03    0.3733241432E+00    0.8670205769E-01    0.1171810699E-01    0.2187581612E-01    0.4638841423E+00
    0.3900000000E+03    0.3812253723E+00    0.8570448901E-01    0.1157116713E-01    0.2233971162E-01    0.4692058800E+00
    0.4100000000E+03    0.3887086567E+00    0.8470462778E-01    0.1142371838E-01    0.2277912745E-01    0.4741662732E+00
    0.4300000000E+03    0.3958072551E+00    0.8370871273E-01    0.1127667023E-01    0.2319600993E-01    0.4788044082E+00
    0.4500000000E+03    0.4025506657E+00    0.8272149142E-01    0.1113072155E-01    0.2359208540E-01    0.4831537138E+00
    0.4700000000E+03    0.4089651963E+00    0.8174655219E-01    0.1098640652E-01    0.2396889352E-01    0.4872429691E+00
    0.4900000000E+03    0.4150744265E+00    0.8078657825E-01    0.1084413005E-01    0.2432781440E-01    0.4910971004E+00
    0.1000000000E+03    0.1900330876E+00    0.8513855040E-01    0.1158641642E-01    0.1112748936E-01    0.3026483260E+00
    0.3000000000E+03    0.3417822301E+00    0.9003274326E-01    0.1220787705E-01    0.2002451131E-01    0.4416642934E+00
    0.5000000000E+03    0.4180212711E+00    0.8031284342E-01    0.1077385430E-01    0.2450096029E-01    0.4929428900E+00
    0.7000000000E+03    0.4651311833E+00    0.7186809707E-01    0.9514622870E-02    0.2727072929E-01    0.5215595960E+00
    0.9000000000E+03    0.4969623913E+00    0.6529890191E-01    0.8528702801E-02    0.2914465734E-01    0.5404388811E+00
    0.1100000000E+04    0.5197310670E+00    0.6016633754E-01    0.7757120783E-02    0.3048684690E-01    0.5540913492E+00
    0.1300000000E+04    0.5367132305E+00    0.5606879929E-01    0.7142228122E-02    0.3148928375E-01    0.5645558026E+00
    0.1500000000E+04    0.5497999743E+00    0.5272204155E-01    0.6642028068E-02    0.3226284680E-01    0.5729064486E+00
    0.1700000000E+04    0.5601541317E+00    0.4993155686E-01    0.6227249363E-02    0.3287574817E-01    0.5797703314E+00
    0.1900000000E+04    0.5685262869E+00    0.4756301091E-01    0.5877418948E-02    0.3337203806E-01    0.5855414466E+00
    0.2100000000E+04    0.5754203380E+00    0.4552171722E-01    0.5577978910E-02    0.3378130301E-01    0.5904815152E+00
    0.2300000000E+04    0.5811858385E+00    0.4373940507E-01    0.5318369860E-02    0.3412407673E-01    0.5947721302E+00
    0.2500000000E+04    0.5860721235E+00    0.4216575255E-01    0.5090778629E-02    0.3441501264E-01    0.5985437836E+00
    0.2700000000E+04    0.5902613648E+00    0.4076290066E-01    0.4889314250E-02    0.3466482199E-01    0.6018929906E+00
    0.2900000000E+04    0.5938894774E+00    0.3950183078E-01    0.4709457363E-02    0.3488150003E-01    0.6048928823E+00
    0.3100000000E+04    0.5970597482E+00    0.3835992258E-01    0.4547685579E-02    0.3507112547E-01    0.6076000211E+00
    0.3300000000E+04    0.5998519585E+00    0.3731927347E-01    0.4401213814E-02    0.3523839593E-01    0.6100589347E+00
    0.3500000000E+04    0.6023286356E+00    0.3636551944E-01    0.4267811051E-02    0.3538699483E-01    0.6123052207E+00
    0.3700000000E+04    0.6045394276E+00    0.3548699227E-01    0.4145668813E-02    0.3551984832E-01    0.6143677239E+00
    0.3900000000E+04    0.6065242223E+00    0.3467410700E-01    0.4033305246E-02    0.3563930841E-01    0.6162700992E+00
    0.4100000000E+04    0.6083154097E+00    0.3391890969E-01    0.3929494128E-02    0.3574728595E-01    0.6180319526E+00
    0.4300000000E+04    0.6099395470E+00    0.3321473859E-01    0.3833211609E-02    0.3584534846E-01    0.6196696911E+00
    0.4500000000E+04    0.6114186033E+00    0.3255596700E-01    0.3743595734E-02    0.3593479327E-01    0.6211971633E+00
    0.4700000000E+04    0.6127709003E+00    0.3193780566E-01    0.3659915327E-02    0.3601670287E-01    0.6226261503E+00
    0.4900000000E+04    0.6140118323E+00    0.3135614910E-01    0.3581545802E-02    0.3609198724E-01    0.6239667463E+00
    0.1000000000E+04    0.5092308030E+00    0.6258103647E-01    0.8120089426E-02    0.2986764440E-01    0.5477586422E+00
    0.3000000000E+04    0.5955263902E+00    0.3891719516E-01    0.4626499733E-02    0.3497937331E-01    0.6062800226E+00
    0.5000000000E+04    0.6145946866E+00    0.3107788391E-01    0.3544181826E-02    0.3612739041E-01    0.6246066655E+00
    0.7000000000E+04    0.6227144955E+00    0.2677862689E-01    0.2977794370E-02    0.3662433696E-01    0.6343613053E+00
    0.9000000000E+04    0.6271754334E+00    0.2394328188E-01    0.2615849870E-02    0.3690187590E-01    0.6406357501E+00
    0.1100000000E+05    0.6299864065E+00    0.2188461307E-01    0.2358969027E-02    0.3707964388E-01    0.6450988184E+00
    0.1300000000E+05    0.6319165993E+00    0.2029837298E-01    0.2164461010E-02    0.3720370619E-01    0.6484795653E+00
    0.1500000000E+05    0.6333224447E+00    0.1902563774E-01    0.2010557929E-02    0.3729552891E-01    0.6511534667E+00
    0.1700000000E+05    0.6343913120E+00    0.1797393639E-01    0.1884840251E-02    0.3736645963E-01    0.6533360266E+00
    0.1900000000E+05    0.6352309744E+00    0.1708519601E-01    0.1779634426E-02    0.3742306198E-01    0.6551608663E+00
    0.2100000000E+05    0.6359077600E+00    0.1632080533E-01    0.1689908299E-02    0.3746939807E-01    0.6567157884E+00
    0.2300000000E+05    0.6364647017E+00    0.1565392905E-01    0.1612205616E-02    0.3750811810E-01    0.6580611619E+00
    0.2500000000E+05    0.6369309260E+00    0.1506524258E-01    0.1544062995E-02    0.3754102582E-01    0.6592400325E+00
    0.2700000000E+05    0.6373268442E+00    0.1454041931E-01    0.1483670696E-02    0.3756939229E-01    0.6602840243E+00
    0.2900000000E+05    0.6376671816E+00    0.1406857694E-01    0.1429665151E-02    0.3759413957E-01    0.6612169587E+00
    0.3100000000E+05    0.6379628263E+00    0.1364127748E-01    0.1380996736E-02    0.3761595321E-01    0.6620571649E+00
    0.3300000000E+05    0.6382220014E+00    0.1325186148E-01    0.1336842509E-02    0.3763535382E-01    0.6628190054E+00
    0.3500000000E+05    0.6384510325E+00    0.1289499181E-01    0.1296546888E-02    0.3765274407E-01    0.6635139148E+00
    0.3700000000E+05    0.6386548648E+00    0.1256633307E-01    0.1259580269E-02    0.3766844048E-01    0.6641511243E+00
    0.3900000000E+05    0.6388374195E+00    0.1226232142E-01    0.1225509508E-02    0.3768269540E-01    0.6647381784E+00
    0.4100000000E+05    0.6390018458E+00    0.1197999598E-01    0.1193976442E-02    0.3769571257E-01    0.6652813113E+00
    0.4300000000E+05    0.6391507018E+00    0.1171687332E-01    0.1164681981E-02    0.3770765842E-01    0.6657857255E+00
    0.4500000000E+05    0.6392860865E+00    0.1147085258E-01    0.1137374139E-02    0.3771867022E-01    0.6662558008E+00
    0.4700000000E+05    0.6394097387E+00    0.1124014260E-01    0.1111838913E-02    0.3772886231E-01    0.6666952546E+00
    0.4900000000E+05    0.6395231107E+00    0.1102320547E-01    0.1087893215E-02    0.3773833068E-01    0.6671072651E+00
    0.1000000000E+05    0.6287245590E+00    0.2284079128E-01    0.2477658268E-02    0.3699948730E-01    0.6430361447E+00
    0.3000000000E+05    0.6378200247E+00    0.1384981109E-01    0.1404719747E-02    0.3760537733E-01    0.6616476763E+00
    0.5000000000E+05    0.6395763315E+00    0.1091947926E-01    0.1076466297E-02    0.3774281937E-01    0.6673038489E+00
    0.7000000000E+05    0.6403163805E+00    0.9323345748E-02    0.9025145787E-03    0.3780904658E-01    0.6702949159E+00
    0.9000000000E+05    0.6407222021E+00    0.8280086978E-02    0.7908242101E-03    0.3784994876E-01    0.6722152915E+00
    0.1100000000E+06    0.6409774924E+00    0.7528938021E-02    0.7114626122E-03    0.3787860292E-01    0.6735809178E+00
    0.1300000000E+06    0.6411523264E+00    0.6954401332E-02    0.6513956518E-03    0.3790026182E-01    0.6746157828E+00
    0.1500000000E+06    0.6412791992E+00    0.6496330466E-02    0.6039214904E-03    0.3791748233E-01    0.6754348426E+00
    0.1700000000E+06    0.6413752229E+00    0.6119882700E-02    0.5651970979E-03    0.3793167440E-01    0.6761039420E+00
    0.1900000000E+06    0.6414502578E+00    0.5803281561E-02    0.5328409244E-03    0.3794368708E-01    0.6766638596E+00
    0.2100000000E+06    0.6415103816E+00    0.5532117946E-02    0.5052885890E-03    0.3795406630E-01    0.6771413732E+00
    0.2300000000E+06    0.6415595420E+00    0.5296423612E-02    0.4814647417E-03    0.3796318140E-01    0.6775548884E+00
    0.2500000000E+06    0.6416004131E+00    0.5089051550E-02    0.4606027511E-03    0.3797129259E-01    0.6779175279E+00
    0.2700000000E+06    0.6416348698E+00    0.4904724844E-02    0.4421394747E-03    0.3797858935E-01    0.6782389334E+00
    0.2900000000E+06    0.6416642648E+00    0.4739450484E-02    0.4256507676E-03    0.3798521353E-01    0.6785263688E+00
    0.3100000000E+06    0.6416895982E+00    0.4590143327E-02    0.4108103180E-03    0.3799127379E-01    0.6787854248E+00
    0.3300000000E+06    0.6417116251E+00    0.4454376557E-02    0.3973624567E-03    0.3799685506E-01    0.6790204835E+00
    0.3500000000E+06    0.6417309259E+00    0.4330211225E-02    0.3851036602E-03    0.3800202486E-01    0.6792350350E+00
    0.3700000000E+06    0.6417479540E+00    0.4216076843E-02    0.3738696451E-03    0.3800683770E-01    0.6794318979E+00
    0.3900000000E+06    0.6417630687E+00    0.4110685882E-02    0.3635261596E-03    0.3801133814E-01    0.6796133766E+00
    0.4100000000E+06    0.6417765582E+00    0.4012971358E-02    0.3539622846E-03    0.3801556307E-01    0.6797813761E+00
    0.4300000000E+06    0.6417886561E+00    0.3922040465E-02    0.3450854731E-03    0.3801954333E-01    0.6799374869E+00
    0.4500000000E+06    0.6417995541E+00    0.3837139603E-02    0.3368178191E-03    0.3802330495E-01    0.6800830484E+00
    0.4700000000E+06    0.6418094106E+00    0.3757627628E-02    0.3290932133E-03    0.3802687010E-01    0.6802191980E+00
    0.4900000000E+06    0.6418183578E+00    0.3682955133E-02    0.3218551439E-03    0.3803025780E-01    0.6803469085E+00
    0.1000000000E+06    0.6408629599E+00    0.7877087816E-02    0.7481319872E-03    0.3786538481E-01    0.6729497429E+00
    0.3000000000E+06    0.6416773872E+00    0.4662965810E-02    0.4180418956E-03    0.3798830837E-01    0.6786591463E+00
    0.5000000000E+06    0.6418225258E+00    0.3647283017E-02    0.3184030945E-03    0.3803189032E-01    0.6804078654E+00
    0.7000000000E+06    0.6418776363E+00    0.3100940957E-02    0.2660160939E-03    0.3805825243E-01    0.6813372169E+00
    0.9000000000E+06    0.6419043480E+00    0.2746435215E-02    0.2325501219E-03    0.3807710857E-01    0.6819359372E+00
    0.1100000000E+07    0.6419188619E+00    0.2492439090E-02    0.2088566972E-03    0.3809177291E-01    0.6823627872E+00
    0.1300000000E+07    0.6419271873E+00    0.2298858899E-02    0.1909727711E-03    0.3810376525E-01    0.6826868989E+00
    0.1500000000E+07    0.6419320265E+00    0.2144946460E-02    0.1768687711E-03    0.3811390707E-01    0.6829438394E+00
    0.1700000000E+07    0.6419347570E+00    0.2018739727E-02    0.1653845971E-03    0.3812269205E-01    0.6831540224E+00
    0.1900000000E+07    0.6419361453E+00    0.1912790835E-02    0.1558032190E-03    0.3813043984E-01    0.6833301123E+00
    0.2100000000E+07    0.6419366468E+00    0.1822186964E-02    0.1476546813E-03    0.3813736919E-01    0.6834804376E+00
    0.2300000000E+07    0.6419365461E+00    0.1743538272E-02    0.1406165526E-03    0.3814363629E-01    0.6836107306E+00
    0.2500000000E+07    0.6419360283E+00    0.1674419724E-02    0.1344593474E-03    0.3814935659E-01    0.6837250829E+00
    0.2700000000E+07    0.6419352177E+00    0.1613044280E-02    0.1290147386E-03    0.3815461778E-01    0.6838265039E+00
    0.2900000000E+07    0.6419341999E+00    0.1558061989E-02    0.1241561108E-03    0.3815948803E-01    0.6839172630E+00
    0.3100000000E+07    0.6419330353E+00    0.1508431395E-02    0.1197861666E-03    0.3816402140E-01    0.6839991083E+00
    0.3300000000E+07    0.6419317672E+00    0.1463334380E-02    0.1158287528E-03    0.3816826147E-01    0.6840734113E+00
    0.3500000000E+07    0.6419304270E+00    0.1422118082E-02    0.1122233059E-03    0.3817224387E-01    0.6841412647E+00
    0.3700000000E+07    0.6419290381E+00    0.1384254286E-02    0.1089209818E-03    0.3817599811E-01    0.6842035519E+00
    0.3900000000E+07    0.6419276177E+00    0.1349310383E-02    0.1058818977E-03    0.3817954893E-01    0.6842609954E+00
    0.4100000000E+07    0.6419261787E+00    0.1316928196E-02    0.1030731267E-03    0.3818291723E-01    0.6843141930E+00
    0.4300000000E+07    0.6419247310E+00    0.1286808273E-02    0.1004672144E-03    0.3818612085E-01    0.6843636438E+00
    0.4500000000E+07    0.6419232819E+00    0.1258698050E-02    0.9804106483E-04    0.3818917516E-01    0.6844097686E+00
    0.4700000000E+07    0.6419218372E+00    0.1232382809E-02    0.9577509069E-04    0.3819209345E-01    0.6844529248E+00
    0.4900000000E+07    0.6419204009E+00    0.1207678682E-02    0.9365255785E-04    0.3819488732E-01    0.6844934181E+00
    0.1000000000E+07    0.6419126368E+00    0.2610034751E-02    0.2197952907E-03    0.3808484634E-01    0.6821653853E+00
    0.3000000000E+07    0.6419336329E+00    0.1532633313E-02    0.1219152333E-03    0.3816179389E-01    0.6839592067E+00
    0.5000000000E+07    0.6419196871E+00    0.1195880388E-02    0.9264050430E-04    0.3819624083E-01    0.6845127499E+00
    0.7000000000E+07    0.6419063077E+00    0.1015439698E-02    0.7730150899E-04    0.3821870404E-01    0.6848078233E+00
    0.9000000000E+07    0.6418947993E+00    0.8986128674E-03    0.6752198271E-04    0.3823540323E-01    0.6849982652E+00
    0.1100000000E+08    0.6418848883E+00    0.8150307899E-03    0.6060744480E-04    0.3824870113E-01    0.6851342084E+00
    0.1300000000E+08    0.6418762361E+00    0.7513972808E-03    0.5539341903E-04    0.3825975201E-01    0.6852375278E+00
    0.1500000000E+08    0.6418685778E+00    0.7008446833E-03    0.5128454071E-04    0.3826920693E-01    0.6853194945E+00
    0.1700000000E+08    0.6418617165E+00    0.6594191843E-03    0.4794092966E-04    0.3827746944E-01    0.6853865848E+00
    0.1900000000E+08    0.6418555059E+00    0.6246618002E-03    0.4515272458E-04    0.3828480706E-01    0.6854428204E+00
    0.2100000000E+08    0.6418498352E+00    0.5949520012E-03    0.4278249149E-04    0.3829140628E-01    0.6854908481E+00
    0.2300000000E+08    0.6418446193E+00    0.5691724773E-03    0.4073600352E-04    0.3829740231E-01    0.6855324906E+00
    0.2500000000E+08    0.6418397913E+00    0.5465244466E-03    0.3894623591E-04    0.3830289631E-01    0.6855690500E+00
    0.2700000000E+08    0.6418352978E+00    0.5264196082E-03    0.3736405147E-04    0.3830796595E-01    0.6856014842E+00
