  Pressure (Pa) 22mC5-400 (mol/kg) 2mC6-400 (mol/kg) 33mC5-400 (mol/kg) 23mC5-400 (mol/kg) C7-400 (mol/kg)
    0.1000000000E+01    0.3160568061E-02    0.6335490370E-02    0.1289527038E-03    0.2774815078E-03    0.1711226812E-02
    0.3000000000E+01    0.9274055186E-02    0.1846404594E-01    0.3757872130E-03    0.8142260577E-03    0.5030572185E-02
    0.5000000000E+01    0.1512918124E-01    0.2991723440E-01    0.6088366331E-03    0.1328302612E-02    0.8219894526E-02
    0.7000000000E+01    0.2074606410E-01    0.4074732582E-01    0.8291669411E-03    0.1821476036E-02    0.1128746068E-01
    0.9000000000E+01    0.2614271868E-01    0.5100135094E-01    0.1037737334E-02    0.2295326724E-02    0.1424083646E-01
    0.1100000000E+02    0.3133532643E-01    0.6072174353E-01    0.1235413315E-02    0.2751274241E-02    0.1708695997E-01
    0.1300000000E+02    0.3633846440E-01    0.6994689020E-01    0.1422977890E-02    0.3190597414E-02    0.1983220593E-01
    0.1500000000E+02    0.4116530066E-01    0.7871160272E-01    0.1601141194E-02    0.3614451473E-02    0.2248244217E-01
    0.1700000000E+02    0.4582776192E-01    0.8704752552E-01    0.1770548792E-02    0.4023882753E-02    0.2504307946E-01
    0.1900000000E+02    0.5033667760E-01    0.9498348849E-01    0.1931788866E-02    0.4419841333E-02    0.2751911555E-01
    0.2100000000E+02    0.5470190431E-01    0.1025458134E+00    0.2085398463E-02    0.4803191953E-02    0.2991517419E-01
    0.2300000000E+02    0.5893243370E-01    0.1097585813E+00    0.2231868937E-02    0.5174723474E-02    0.3223553977E-01
    0.2500000000E+02    0.6303648621E-01    0.1166438657E+00    0.2371650711E-02    0.5535157106E-02    0.3448418821E-01
    0.2700000000E+02    0.6702159291E-01    0.1232219381E+00    0.2505157457E-02    0.5885153579E-02    0.3666481446E-01
    0.2900000000E+02    0.7089466701E-01    0.1295114479E+00    0.2632769764E-02    0.6225319423E-02    0.3878085716E-01
    0.3100000000E+02    0.7466206670E-01    0.1355295811E+00    0.2754838385E-02    0.6556212479E-02    0.4083552071E-01
    0.3300000000E+02    0.7832965040E-01    0.1412922017E+00    0.2871687100E-02    0.6878346743E-02    0.4283179502E-01
    0.3500000000E+02    0.8190282552E-01    0.1468139757E+00    0.2983615257E-02    0.7192196643E-02    0.4477247345E-01
    0.3700000000E+02    0.8538659162E-01    0.1521084822E+00    0.3090900033E-02    0.7498200827E-02    0.4666016877E-01
    0.3900000000E+02    0.8878557862E-01    0.1571883120E+00    0.3193798448E-02    0.7796765518E-02    0.4849732774E-01
    0.4100000000E+02    0.9210408086E-01    0.1620651559E+00    0.3292549157E-02    0.8088267496E-02    0.5028624422E-01
    0.4300000000E+02    0.9534608739E-01    0.1667498833E+00    0.3387374062E-02    0.8373056755E-02    0.5202907104E-01
    0.4500000000E+02    0.9851530901E-01    0.1712526132E+00    0.3478479752E-02    0.8651458882E-02    0.5372783082E-01
    0.4700000000E+02    0.1016152025E+00    0.1755827774E+00    0.3566058801E-02    0.8923777178E-02    0.5538442580E-01
    0.4900000000E+02    0.1046489924E+00    0.1797491780E+00    0.3650290927E-02    0.9190294564E-02    0.5700064673E-01
    0.1000000000E+02    0.2876358218E-01    0.5592576316E-01    0.1137886374E-02    0.2525455368E-02    0.1567689382E-01
    0.3000000000E+02    0.7279119889E-01    0.1325534156E+00    0.2694476198E-02    0.6391891950E-02    0.3981566965E-01
    0.5000000000E+02    0.1061420474E+00    0.1817735581E+00    0.3691204804E-02    0.9321461180E-02    0.5779414807E-01
    0.7000000000E+02    0.1331681160E+00    0.2153984815E+00    0.4369197853E-02    0.1169599805E-01    0.7190682752E-01
    0.9000000000E+02    0.1560463277E+00    0.2393622085E+00    0.4849647809E-02    0.1370651384E-01    0.8341438693E-01
    0.1100000000E+03    0.1759981344E+00    0.2569655631E+00    0.5200000700E-02    0.1546018864E-01    0.9307075043E-01
    0.1300000000E+03    0.1937686321E+00    0.2701860333E+00    0.5460682627E-02    0.1702240573E-01    0.1013565535E+00
    0.1500000000E+03    0.2098423356E+00    0.2802772938E+00    0.5657336196E-02    0.1843568327E-01    0.1085939255E+00
    0.1700000000E+03    0.2245507004E+00    0.2880704360E+00    0.5806970261E-02    0.1972910849E-01    0.1150076302E+00
    0.1900000000E+03    0.2381300572E+00    0.2941366820E+00    0.5921282548E-02    0.2092342115E-01    0.1207597728E+00
    0.2100000000E+03    0.2507548379E+00    0.2988805258E+00    0.6008561968E-02    0.2203392911E-01    0.1259705527E+00
    0.2300000000E+03    0.2625576253E+00    0.3025956474E+00    0.6074830885E-02    0.2307226775E-01    0.1307312193E+00
    0.2500000000E+03    0.2736417777E+00    0.3054998457E+00    0.6124558868E-02    0.2404750776E-01    0.1351124607E+00
    0.2700000000E+03    0.2840896672E+00    0.3077576127E+00    0.6161124072E-02    0.2496687812E-01    0.1391700090E+00
    0.2900000000E+03    0.2939682244E+00    0.3094951542E+00    0.6187120305E-02    0.2583625271E-01    0.1429484872E+00
    0.3100000000E+03    0.3033327712E+00    0.3108106413E+00    0.6204566663E-02    0.2666048667E-01    0.1464841147E+00
    0.3300000000E+03    0.3122297330E+00    0.3117813642E+00    0.6215053865E-02    0.2744365437E-01    0.1498066488E+00
    0.3500000000E+03    0.3206985976E+00    0.3124688237E+00    0.6219848463E-02    0.2818922141E-01    0.1529408048E+00
    0.3700000000E+03    0.3287733575E+00    0.3129224203E+00    0.6219968357E-02    0.2890017110E-01    0.1559073123E+00
    0.3900000000E+03    0.3364835888E+00    0.3131821681E+00    0.6216238396E-02    0.2957909922E-01    0.1587237132E+00
    0.4100000000E+03    0.3438552710E+00    0.3132807215E+00    0.6209331910E-02    0.3022828595E-01    0.1614049717E+00
    0.4300000000E+03    0.3509114191E+00    0.3132449066E+00    0.6199802129E-02    0.3084975129E-01    0.1639639474E+00
    0.4500000000E+03    0.3576725761E+00    0.3130968939E+00    0.6188106236E-02    0.3144529836E-01    0.1664117663E+00
    0.4700000000E+03    0.3641572023E+00    0.3128551038E+00    0.6174623983E-02    0.3201654752E-01    0.1687581144E+00
    0.4900000000E+03    0.3703819868E+00    0.3125349148E+00    0.6159672235E-02    0.3256496369E-01    0.1710114723E+00
    0.1000000000E+03    0.1663335760E+00    0.2488134007E+00    0.5038111728E-02    0.1461067784E-01    0.8843922898E-01
    0.3000000000E+03    0.2987116649E+00    0.3102004023E+00    0.6196804146E-02    0.2625374160E-01    0.1447446648E+00
    0.5000000000E+03    0.3734017319E+00    0.3123495343E+00    0.6151729998E-02    0.3283103018E-01    0.1721056480E+00
    0.7000000000E+03    0.4232238616E+00    0.3067509679E+00    0.5961402541E-02    0.3722304301E-01    0.1905251817E+00
    0.9000000000E+03    0.4585353122E+00    0.3002039566E+00    0.5764659175E-02    0.4033911155E-01    0.2045798705E+00
    0.1100000000E+04    0.4845547534E+00    0.2940566043E+00    0.5587143647E-02    0.4263763349E-01    0.2160287697E+00
    0.1300000000E+04    0.5043172507E+00    0.2885422038E+00    0.5431531323E-02    0.4438532949E-01    0.2257341794E+00
    0.1500000000E+04    0.5197101515E+00    0.2836301288E+00    0.5295385206E-02    0.4574813355E-01    0.2341844566E+00
    0.1700000000E+04    0.5319592503E+00    0.2792348105E+00    0.5175503960E-02    0.4683386246E-01    0.2416840494E+00
    0.1900000000E+04    0.5418881221E+00    0.2752706585E+00    0.5069004683E-02    0.4771498493E-01    0.2484362083E+00
    0.2100000000E+04    0.5500661688E+00    0.2716649659E+00    0.4973523061E-02    0.4844162435E-01    0.2545837639E+00
    0.2300000000E+04    0.5568970196E+00    0.2683589494E+00    0.4887175894E-02    0.4904932554E-01    0.2602311633E+00
    0.2500000000E+04    0.5626731936E+00    0.2653057484E+00    0.4808472910E-02    0.4956385879E-01    0.2654572506E+00
    0.2700000000E+04    0.5676109132E+00    0.2624680087E+00    0.4736231265E-02    0.5000428030E-01    0.2703231064E+00
    0.2900000000E+04    0.5718728603E+00    0.2598157715E+00    0.4669505355E-02    0.5038493330E-01    0.2748770808E+00
    0.3100000000E+04    0.5755834022E+00    0.2573247973E+00    0.4607532423E-02    0.5071678727E-01    0.2791581495E+00
    0.3300000000E+04    0.5788389967E+00    0.2549752798E+00    0.4549691267E-02    0.5100835341E-01    0.2831982238E+00
    0.3500000000E+04    0.5817154405E+00    0.2527508720E+00    0.4495471079E-02    0.5126632253E-01    0.2870237849E+00
    0.3700000000E+04    0.5842730081E+00    0.2506379484E+00    0.4444447891E-02    0.5149601745E-01    0.2906570677E+00
    0.3900000000E+04    0.5865601551E+00    0.2486250451E+00    0.4396266663E-02    0.5170171897E-01    0.2941169357E+00
    0.4100000000E+04    0.5886162250E+00    0.2467024311E+00    0.4350627576E-02    0.5188690436E-01    0.2974195396E+00
    0.4300000000E+04    0.5904734567E+00    0.2448617777E+00    0.4307275438E-02    0.5205442416E-01    0.3005788215E+00
    0.4500000000E+04    0.5921584908E+00    0.2430959016E+00    0.4265991442E-02    0.5220663490E-01    0.3036069058E+00
    0.4700000000E+04    0.5936935138E+00    0.2413985630E+00    0.4226586688E-02    0.5234549997E-01    0.3065144064E+00
    0.4900000000E+04    0.5950971367E+00    0.2397643058E+00    0.4188897049E-02    0.5247266703E-01    0.3093106717E+00
    0.1000000000E+04    0.4724818154E+00    0.2970549841E+00    0.5673114963E-02    0.4157082042E-01    0.2105638668E+00
    0.3000000000E+04    0.5737904715E+00    0.2585514556E+00    0.4637966502E-02    0.5055637916E-01    0.2770495901E+00
    0.5000000000E+04    0.5957546821E+00    0.2389693101E+00    0.4170649857E-02    0.5253230743E-01    0.3106697153E+00
    0.7000000000E+04    0.6047826644E+00    0.2254674804E+00    0.3868798675E-02    0.5335700467E-01    0.3336028855E+00
    0.9000000000E+04    0.6096152944E+00    0.2150759596E+00    0.3645578099E-02    0.5380550646E-01    0.3510330133E+00
    0.1100000000E+05    0.6126024873E+00    0.2066161356E+00    0.3468762804E-02    0.5408723030E-01    0.3650749542E+00
    0.1300000000E+05    0.6146236348E+00    0.1994848612E+00    0.3322717314E-02    0.5428094999E-01    0.3768123743E+00
    0.1500000000E+05    0.6160785834E+00    0.1933273841E+00    0.3198613188E-02    0.5442267149E-01    0.3868781808E+00
    0.1700000000E+05    0.6171742586E+00    0.1879157770E+00    0.3090955698E-02    0.5453112795E-01    0.3956753117E+00
    0.1900000000E+05    0.6180281355E+00    0.1830942971E+00    0.2996084471E-02    0.5461701200E-01    0.4034765806E+00
    0.2100000000E+05    0.6187117168E+00    0.1787515544E+00    0.2911435436E-02    0.5468686734E-01    0.4104754517E+00
    0.2300000000E+05    0.6192709537E+00    0.1748050126E+00    0.2835141492E-02    0.5474492232E-01    0.4168141733E+00
    0.2500000000E+05    0.6197366924E+00    0.1711917608E+00    0.2765800445E-02    0.5479403102E-01    0.4226004237E+00
    0.2700000000E+05    0.6201303935E+00    0.1678627217E+00    0.2702332394E-02    0.5483619004E-01    0.4279176863E+00
    0.2900000000E+05    0.6204674402E+00    0.1647788598E+00    0.2643888025E-02    0.5487283851E-01    0.4328319960E+00
    0.3100000000E+05    0.6207591425E+00    0.1619086109E+00    0.2589787419E-02    0.5490504034E-01    0.4373964841E+00
    0.3300000000E+05    0.6210139982E+00    0.1592260877E+00    0.2539477911E-02    0.5493359936E-01    0.4416545316E+00
    0.3500000000E+05    0.6212385142E+00    0.1567097947E+00    0.2492504301E-02    0.5495913442E-01    0.4456420136E+00
    0.3700000000E+05    0.6214377555E+00    0.1543416884E+00    0.2448487302E-02    0.5498212997E-01    0.4493889332E+00
    0.3900000000E+05    0.6216157232E+00    0.1521064765E+00    0.2407107620E-02    0.5500297078E-01    0.4529206332E+00
    0.4100000000E+05    0.6217756191E+00    0.1499910866E+00    0.2368094011E-02    0.5502196644E-01    0.4562587107E+00
    0.4300000000E+05    0.6219200355E+00    0.1479842576E+00    0.2331214152E-02    0.5503936899E-01    0.4594217176E+00
    0.4500000000E+05    0.6220510932E+00    0.1460762204E+00    0.2296267587E-02    0.5505538578E-01    0.4624257057E+00
    0.4700000000E+05    0.6221705439E+00    0.1442584468E+00    0.2263080194E-02    0.5507018900E-01    0.4652846538E+00
    0.4900000000E+05    0.6222798469E+00    0.1425234485E+00    0.2231499804E-02    0.5508392287E-01    0.4680108087E+00
    0.1000000000E+05    0.6112676152E+00    0.2106503271E+00    0.3552571224E-02    0.5396077868E-01    0.3583951963E+00
    0.3000000000E+05    0.6206183736E+00    0.1633187676E+00    0.2616331879E-02    0.5488943995E-01    0.4351550578E+00
    0.5000000000E+05    0.6223310839E+00    0.1416848939E+00    0.2216269804E-02    0.5509042762E-01    0.4693275104E+00
    0.7000000000E+05    0.6230380794E+00    0.1279973089E+00    0.1970695516E-02    0.5518595867E-01    0.4907425371E+00
    0.9000000000E+05    0.6234204779E+00    0.1181721449E+00    0.1797867885E-02    0.5524457117E-01    0.5060330621E+00
    0.1100000000E+06    0.6236583736E+00    0.1106102682E+00    0.1666790850E-02    0.5528547617E-01    0.5177601966E+00
    0.1300000000E+06    0.6238196996E+00    0.1045241572E+00    0.1562518793E-02    0.5531632015E-01    0.5271748539E+00
    0.1500000000E+06    0.6239357029E+00    0.9947012420E-01    0.1476763153E-02    0.5534080316E-01    0.5349778647E+00
    0.1700000000E+06    0.6240227323E+00    0.9517469220E-01    0.1404478979E-02    0.5536095702E-01    0.5415994282E+00
    0.1900000000E+06    0.6240901576E+00    0.9145802846E-01    0.1342383352E-02    0.5537800143E-01    0.5473215345E+00
    0.2100000000E+06    0.6241437269E+00    0.8819593904E-01    0.1288229255E-02    0.5539271878E-01    0.5523384297E+00
    0.2300000000E+06    0.6241871577E+00    0.8529928940E-01    0.1240416544E-02    0.5540563738E-01    0.5567892302E+00
    0.2500000000E+06    0.6242229586E+00    0.8270208855E-01    0.1197768724E-02    0.5541712884E-01    0.5607767475E+00
    0.2700000000E+06    0.6242528817E+00    0.8035421128E-01    0.1159397698E-02    0.5542746343E-01    0.5643789550E+00
    0.2900000000E+06    0.6242781869E+00    0.7821675518E-01    0.1124618083E-02    0.5543684325E-01    0.5676562876E+00
    0.3100000000E+06    0.6242998025E+00    0.7625896896E-01    0.1092890892E-02    0.5544542299E-01    0.5706564611E+00
    0.3300000000E+06    0.6243184273E+00    0.7445615689E-01    0.1063785325E-02    0.5545332345E-01    0.5734177554E+00
    0.3500000000E+06    0.6243345966E+00    0.7278821079E-01    0.1036952151E-02    0.5546064062E-01    0.5759713098E+00
    0.3700000000E+06    0.6243487275E+00    0.7123855799E-01    0.1012104716E-02    0.5546745193E-01    0.5783427672E+00
    0.3900000000E+06    0.6243611492E+00    0.6979339183E-01    0.9890051252E-03    0.5547382065E-01    0.5805534740E+00
    0.4100000000E+06    0.6243721253E+00    0.6844109901E-01    0.9674539955E-03    0.5547979915E-01    0.5826213727E+00
    0.4300000000E+06    0.6243818688E+00    0.6717182636E-01    0.9472827352E-03    0.5548543118E-01    0.5845616769E+00
    0.4500000000E+06    0.6243905538E+00    0.6597714863E-01    0.9283476468E-03    0.5549075366E-01    0.5863873874E+00
    0.4700000000E+06    0.6243983240E+00    0.6484981028E-01    0.9105253591E-03    0.5549579802E-01    0.5881096940E+00
    0.4900000000E+06    0.6244052988E+00    0.6378352260E-01    0.8937092492E-03    0.5550059121E-01    0.5897382904E+00
    0.1000000000E+06    0.6235519463E+00    0.1141687669E+00    0.1728263905E-02    0.5526662165E-01    0.5122458234E+00
    0.3000000000E+06    0.6242894078E+00    0.7721706910E-01    0.1108402038E-02    0.5544122491E-01    0.5691884363E+00
    0.5000000000E+06    0.6244085199E+00    0.6327153153E-01    0.8856490613E-03    0.5550290101E-01    0.5905201301E+00
    0.7000000000E+06    0.6244486644E+00    0.5521221307E-01    0.7600274620E-03    0.5554020028E-01    0.6028145658E+00
    0.9000000000E+06    0.6244650455E+00    0.4975343995E-01    0.6763442209E-03    0.5556688329E-01    0.6111288231E+00
    0.1100000000E+07    0.6244717330E+00    0.4572466869E-01    0.6153588551E-03    0.5558763868E-01    0.6172585070E+00
    0.1300000000E+07    0.6244737855E+00    0.4258542356E-01    0.5683211937E-03    0.5560461559E-01    0.6220310299E+00
    0.1500000000E+07    0.6244734042E+00    0.4004564889E-01    0.5305902031E-03    0.5561897543E-01    0.6258898108E+00
    0.1700000000E+07    0.6244716717E+00    0.3793335824E-01    0.4994403923E-03    0.5563141621E-01    0.6290974917E+00
    0.1900000000E+07    0.6244691669E+00    0.3613902165E-01    0.4731501427E-03    0.5564238984E-01    0.6318211958E+00
    0.2100000000E+07    0.6244662191E+00    0.3458902299E-01    0.4505705155E-03    0.5565220560E-01    0.6341731704E+00
    0.2300000000E+07    0.6244630240E+00    0.3323175277E-01    0.4309010674E-03    0.5566108439E-01    0.6362320621E+00
    0.2500000000E+07    0.6244597018E+00    0.3202977995E-01    0.4135645103E-03    0.5566918942E-01    0.6380548828E+00
    0.2700000000E+07    0.6244563280E+00    0.3095518739E-01    0.3981324726E-03    0.5567664473E-01    0.6396841352E+00
    0.2900000000E+07    0.6244529508E+00    0.2998666038E-01    0.3842794113E-03    0.5568354675E-01    0.6411522576E+00
    0.3100000000E+07    0.6244496010E+00    0.2910759782E-01    0.3717528593E-03    0.5568997193E-01    0.6424845062E+00
    0.3300000000E+07    0.6244462984E+00    0.2830484618E-01    0.3603535724E-03    0.5569598191E-01    0.6437008861E+00
    0.3500000000E+07    0.6244430554E+00    0.2756782681E-01    0.3499219014E-03    0.5570162712E-01    0.6448174817E+00
    0.3700000000E+07    0.6244398794E+00    0.2688791963E-01    0.3403282044E-03    0.5570694931E-01    0.6458473964E+00
    0.3900000000E+07    0.6244367747E+00    0.2625801843E-01    0.3314659551E-03    0.5571198346E-01    0.6468014296E+00
    0.4100000000E+07    0.6244337432E+00    0.2567220407E-01    0.3232466938E-03    0.5571675917E-01    0.6476885748E+00
    0.4300000000E+07    0.6244307854E+00    0.2512550015E-01    0.3155962650E-03    0.5572130168E-01    0.6485163918E+00
    0.4500000000E+07    0.6244279006E+00    0.2461368757E-01    0.3084519718E-03    0.5572563273E-01    0.6492912887E+00
    0.4700000000E+07    0.6244250877E+00    0.2413316203E-01    0.3017603930E-03    0.5572977114E-01    0.6500187388E+00
    0.4900000000E+07    0.6244223449E+00    0.2368082297E-01    0.2954756884E-03    0.5573373333E-01    0.6507034497E+00
    0.1000000000E+07    0.6244691827E+00    0.4760244164E-01    0.6436989483E-03    0.5557783453E-01    0.6144021997E+00
    0.3000000000E+07    0.6244512710E+00    0.2953683720E-01    0.3778638382E-03    0.5568681479E-01    0.6418340107E+00
    0.5000000000E+07    0.6244209991E+00    0.2346437029E-01    0.2924733286E-03    0.5573565291E-01    0.6510310730E+00
    0.7000000000E+07    0.6243972312E+00    0.2011950738E-01    0.2465074500E-03    0.5576751796E-01    0.6560919088E+00
    0.9000000000E+07    0.6243781083E+00    0.1791872799E-01    0.2167370541E-03    0.5579121510E-01    0.6594196913E+00
    0.1100000000E+08    0.6243621911E+00    0.1632688812E-01    0.1954619912E-03    0.5581009078E-01    0.6618256691E+00
    0.1300000000E+08    0.6243485826E+00    0.1510513536E-01    0.1792920147E-03    0.5582578039E-01    0.6636716793E+00
    0.1500000000E+08    0.6243367066E+00    0.1412840155E-01    0.1664707694E-03    0.5583920658E-01    0.6651470933E+00
    0.1700000000E+08    0.6243261757E+00    0.1332392880E-01    0.1559854594E-03    0.5585094138E-01    0.6663620350E+00
    0.1900000000E+08    0.6243167181E+00    0.1264608921E-01    0.1472056903E-03    0.5586136407E-01    0.6673855437E+00
    0.2100000000E+08    0.6243081362E+00    0.1206460616E-01    0.1397158922E-03    0.5587073906E-01    0.6682634191E+00
    0.2300000000E+08    0.6243002822E+00    0.1155848386E-01    0.1332295517E-03    0.5587925812E-01    0.6690274145E+00
    0.2500000000E+08    0.6242930425E+00    0.1111263738E-01    0.1275418901E-03    0.5588706471E-01    0.6697003395E+00
    0.2700000000E+08    0.6242863283E+00    0.1071590856E-01    0.1225021521E-03    0.5589426901E-01    0.6702990634E+00
