  Pressure (Pa) 22mC5-400 (mol/kg) 2mC6-400 (mol/kg) 33mC5-400 (mol/kg) 23mC5-400 (mol/kg) C7-400 (mol/kg)
    0.1000000000E+01    0.3696513547E-02    0.3154855991E-02    0.1926610412E-03    0.9272412672E-04    0.8503224507E-02
    0.3000000000E+01    0.1089805285E-01    0.9121900391E-02    0.5571230359E-03    0.2733726209E-03    0.2470092418E-01
    0.5000000000E+01    0.1785712883E-01    0.1466775532E-01    0.8959443324E-03    0.4479435711E-03    0.3990614039E-01
    0.7000000000E+01    0.2458807166E-01    0.1983076749E-01    0.1211458437E-02    0.6167961174E-03    0.5421067015E-01
    0.9000000000E+01    0.3110407268E-01    0.2464482403E-01    0.1505727206E-02    0.7802608614E-03    0.6769523192E-01
    0.1100000000E+02    0.3741729532E-01    0.2913998557E-01    0.1780579450E-02    0.9386426461E-03    0.8043109231E-01
    0.1300000000E+02    0.4353897340E-01    0.3334301369E-01    0.2037643093E-02    0.1092223018E-02    0.9248141399E-01
    0.1500000000E+02    0.4947949832E-01    0.3727781277E-01    0.2278372109E-02    0.1241262413E-02    0.1039023792E+00
    0.1700000000E+02    0.5524849673E-01    0.4096580227E-01    0.2504069207E-02    0.1386002104E-02    0.1147441313E+00
    0.1900000000E+02    0.6085489975E-01    0.4442623177E-01    0.2715905036E-02    0.1526665930E-02    0.1250515672E+00
    0.2100000000E+02    0.6630700481E-01    0.4767644914E-01    0.2914934517E-02    0.1663461851E-02    0.1348650091E+00
    0.2300000000E+02    0.7161253105E-01    0.5073212953E-01    0.3102110796E-02    0.1796583338E-02    0.1442207742E+00
    0.2500000000E+02    0.7677866902E-01    0.5360747195E-01    0.3278297219E-02    0.1926210609E-02    0.1531516622E+00
    0.2700000000E+02    0.8181212534E-01    0.5631536863E-01    0.3444277641E-02    0.2052511759E-02    0.1616873727E+00
    0.2900000000E+02    0.8671916294E-01    0.5886755146E-01    0.3600765346E-02    0.2175643761E-02    0.1698548648E+00
    0.3100000000E+02    0.9150563730E-01    0.6127471912E-01    0.3748410786E-02    0.2295753377E-02    0.1776786671E+00
    0.3300000000E+02    0.9617702931E-01    0.6354664776E-01    0.3887808318E-02    0.2412977984E-02    0.1851811471E+00
    0.3500000000E+02    0.1007384749E+00    0.6569228779E-01    0.4019502093E-02    0.2527446307E-02    0.1923827452E+00
    0.3700000000E+02    0.1051947918E+00    0.6771984858E-01    0.4143991215E-02    0.2639279107E-02    0.1993021787E+00
    0.3900000000E+02    0.1095505044E+00    0.6963687309E-01    0.4261734275E-02    0.2748589781E-02    0.2059566208E+00
    0.4100000000E+02    0.1138098654E+00    0.7145030348E-01    0.4373153350E-02    0.2855484925E-02    0.2123618576E+00
    0.4300000000E+02    0.1179768765E+00    0.7316653921E-01    0.4478637532E-02    0.2960064841E-02    0.2185324257E+00
    0.4500000000E+02    0.1220553064E+00    0.7479148855E-01    0.4578546061E-02    0.3062423996E-02    0.2244817344E+00
    0.4700000000E+02    0.1260487083E+00    0.7633061420E-01    0.4673211103E-02    0.3162651446E-02    0.2302221737E+00
    0.4900000000E+02    0.1299604344E+00    0.7778897410E-01    0.4762940229E-02    0.3260831223E-02    0.2357652096E+00
    0.1000000000E+02    0.3428530847E-01    0.2693052231E-01    0.1645474278E-02    0.8600690079E-03    0.7415262633E-01
    0.3000000000E+02    0.8912711955E-01    0.6008863075E-01    0.3675654960E-02    0.2236067570E-02    0.1738082815E+00
    0.5000000000E+02    0.1318866655E+00    0.7848934582E-01    0.4806043761E-02    0.3309178207E-02    0.2384660530E+00
    0.7000000000E+02    0.1668061464E+00    0.8923064993E-01    0.5468225953E-02    0.4185730902E-02    0.2843271601E+00
    0.9000000000E+02    0.1962721435E+00    0.9559671695E-01    0.5862014856E-02    0.4925548359E-02    0.3188517413E+00
    0.1100000000E+03    0.2217376687E+00    0.9929840348E-01    0.6091649099E-02    0.5565053927E-02    0.3459706539E+00
    0.1300000000E+03    0.2441436153E+00    0.1013034929E+00    0.6216219895E-02    0.6127834389E-02    0.3679606315E+00
    0.1500000000E+03    0.2641302945E+00    0.1021936527E+00    0.6271342746E-02    0.6629941956E-02    0.3862363777E+00
    0.1700000000E+03    0.2821517069E+00    0.1023350561E+00    0.6279515759E-02    0.7082758502E-02    0.4017260776E+00
    0.1900000000E+03    0.2985410461E+00    0.1019667280E+00    0.6255484596E-02    0.7494637501E-02    0.4150656933E+00
    0.2100000000E+03    0.3135501356E+00    0.1012492550E+00    0.6209202281E-02    0.7871892587E-02    0.4267066587E+00
    0.2300000000E+03    0.3273741729E+00    0.1002930408E+00    0.6147547731E-02    0.8219417831E-02    0.4369789913E+00
    0.2500000000E+03    0.3401678130E+00    0.9917539900E-01    0.6075366643E-02    0.8541090928E-02    0.4461300203E+00
    0.2700000000E+03    0.3520559489E+00    0.9795126369E-01    0.5996124789E-02    0.8840043445E-02    0.4543490900E+00
    0.2900000000E+03    0.3631411337E+00    0.9666010547E-01    0.5912330657E-02    0.9118846887E-02    0.4617838469E+00
    0.3100000000E+03    0.3735088150E+00    0.9533051384E-01    0.5825816128E-02    0.9379643926E-02    0.4685512892E+00
    0.3300000000E+03    0.3832311062E+00    0.9398330213E-01    0.5737927149E-02    0.9624242941E-02    0.4747454510E+00
    0.3500000000E+03    0.3923695573E+00    0.9263365270E-01    0.5649655875E-02    0.9854187473E-02    0.4804428666E+00
    0.3700000000E+03    0.4009772257E+00    0.9129262477E-01    0.5561733846E-02    0.1007080815E-01    0.4857065301E+00
    0.3900000000E+03    0.4091002505E+00    0.8996823025E-01    0.5474698729E-02    0.1027526215E-01    0.4905888175E+00
    0.4100000000E+03    0.4167790662E+00    0.8866621163E-01    0.5388942771E-02    0.1046856364E-01    0.4951336745E+00
    0.4300000000E+03    0.4240493523E+00    0.8739061106E-01    0.5304748403E-02    0.1065160755E-01    0.4993782803E+00
    0.4500000000E+03    0.4309427846E+00    0.8614419097E-01    0.5222314693E-02    0.1082518843E-01    0.5033543272E+00
    0.4700000000E+03    0.4374876374E+00    0.8492874786E-01    0.5141777175E-02    0.1099001557E-01    0.5070890176E+00
    0.4900000000E+03    0.4437092719E+00    0.8374534817E-01    0.5063222850E-02    0.1114672519E-01    0.5106058486E+00
    0.1000000000E+03    0.2094372846E+00    0.9770819442E-01    0.5992933227E-02    0.5256143501E-02    0.3331680613E+00
    0.3000000000E+03    0.3684098791E+00    0.9599865963E-01    0.5869319708E-02    0.9251376263E-02    0.4652446398E+00
    0.5000000000E+03    0.4467061108E+00    0.8316584311E-01    0.5024706171E-02    0.1122221727E-01    0.5122890525E+00
    0.7000000000E+03    0.4941968158E+00    0.7321644831E-01    0.4359034282E-02    0.1241937292E-01    0.5383046168E+00
    0.9000000000E+03    0.5257701571E+00    0.6583920607E-01    0.3861621856E-02    0.1321643956E-01    0.5553930587E+00
    0.1100000000E+04    0.5480593113E+00    0.6023560499E-01    0.3483170766E-02    0.1377996500E-01    0.5677172148E+00
    0.1300000000E+04    0.5645102037E+00    0.5584561850E-01    0.3187351482E-02    0.1419651925E-01    0.5771456871E+00
    0.1500000000E+04    0.5770815930E+00    0.5230822163E-01    0.2950102865E-02    0.1451533766E-01    0.5846589077E+00
    0.1700000000E+04    0.5869609442E+00    0.4938868460E-01    0.2755502042E-02    0.1476628407E-01    0.5908275403E+00
    0.1900000000E+04    0.5949052788E+00    0.4693020354E-01    0.2592783483E-02    0.1496840691E-01    0.5960093819E+00
    0.2100000000E+04    0.6014174185E+00    0.4482484654E-01    0.2454476395E-02    0.1513436494E-01    0.6004417008E+00
    0.2300000000E+04    0.6068429972E+00    0.4299617187E-01    0.2335261513E-02    0.1527286413E-01    0.6042888899E+00
    0.2500000000E+04    0.6114266295E+00    0.4138861758E-01    0.2231260261E-02    0.1539006917E-01    0.6076689394E+00
    0.2700000000E+04    0.6153458369E+00    0.3996085029E-01    0.2139582930E-02    0.1549045624E-01    0.6106690265E+00
    0.2900000000E+04    0.6187322937E+00    0.3868148026E-01    0.2058034463E-02    0.1557734723E-01    0.6133551457E+00
    0.3100000000E+04    0.6216855565E+00    0.3752622769E-01    0.1984918281E-02    0.1565325512E-01    0.6157782981E+00
    0.3300000000E+04    0.6242821842E+00    0.3647600280E-01    0.1918902515E-02    0.1572011340E-01    0.6179786041E+00
    0.3500000000E+04    0.6265819436E+00    0.3551557555E-01    0.1858926863E-02    0.1577943232E-01    0.6199881161E+00
    0.3700000000E+04    0.6286321269E+00    0.3463263514E-01    0.1804136507E-02    0.1583240753E-01    0.6218327909E+00
    0.3900000000E+04    0.6304706123E+00    0.3381711252E-01    0.1753834375E-02    0.1587999723E-01    0.6235339029E+00
    0.4100000000E+04    0.6321280730E+00    0.3306068405E-01    0.1707446114E-02    0.1592297777E-01    0.6251090765E+00
    0.4300000000E+04    0.6336295969E+00    0.3235640230E-01    0.1664494002E-02    0.1596198448E-01    0.6265730533E+00
    0.4500000000E+04    0.6349958914E+00    0.3169841736E-01    0.1624577251E-02    0.1599754206E-01    0.6279382709E+00
    0.4700000000E+04    0.6362441912E+00    0.3108176391E-01    0.1587356950E-02    0.1603008746E-01    0.6292153059E+00
    0.4900000000E+04    0.6373889511E+00    0.3050219640E-01    0.1552544428E-02    0.1605998736E-01    0.6304132170E+00
    0.1000000000E+04    0.5378124156E+00    0.6285635043E-01    0.3660135842E-02    0.1352079275E-01    0.5620039906E+00
    0.3000000000E+04    0.6202578343E+00    0.3808963616E-01    0.2020512876E-02    0.1561654175E-01    0.6145968682E+00
    0.5000000000E+04    0.6379263947E+00    0.3022515765E-01    0.1535962330E-02    0.1607404401E-01    0.6309849842E+00
    0.7000000000E+04    0.6453988797E+00    0.2596278179E-01    0.1285773355E-02    0.1627115671E-01    0.6396980193E+00
    0.9000000000E+04    0.6494943341E+00    0.2316917464E-01    0.1126990178E-02    0.1638120393E-01    0.6453009800E+00
    0.1100000000E+05    0.6520726315E+00    0.2114889302E-01    0.1014785945E-02    0.1645176511E-01    0.6492865944E+00
    0.1300000000E+05    0.6538425654E+00    0.1959663786E-01    0.9300836001E-03    0.1650108849E-01    0.6523062111E+00
    0.1500000000E+05    0.6551317506E+00    0.1835383338E-01    0.8632154287E-03    0.1653766231E-01    0.6546950562E+00
    0.1700000000E+05    0.6561121474E+00    0.1732859341E-01    0.8086900564E-03    0.1656597021E-01    0.6566454554E+00
    0.1900000000E+05    0.6568825726E+00    0.1646339815E-01    0.7631261345E-03    0.1658860496E-01    0.6582766306E+00
    0.2100000000E+05    0.6575038054E+00    0.1572010339E-01    0.7243122794E-03    0.1660717140E-01    0.6596669129E+00
    0.2300000000E+05    0.6580152635E+00    0.1507225549E-01    0.6907330333E-03    0.1662271684E-01    0.6608701569E+00
    0.2500000000E+05    0.6584436205E+00    0.1450083925E-01    0.6613103094E-03    0.1663595442E-01    0.6619247627E+00
    0.2700000000E+05    0.6588075657E+00    0.1399177946E-01    0.6352533540E-03    0.1664738696E-01    0.6628589428E+00
    0.2900000000E+05    0.6591205818E+00    0.1353439925E-01    0.6119671929E-03    0.1665737942E-01    0.6636939502E+00
    0.3100000000E+05    0.6593926376E+00    0.1312042978E-01    0.5909943947E-03    0.1666620333E-01    0.6644461387E+00
    0.3300000000E+05    0.6596312624E+00    0.1274335203E-01    0.5719767034E-03    0.1667406503E-01    0.6651283245E+00
    0.3500000000E+05    0.6598422487E+00    0.1239794635E-01    0.5546289946E-03    0.1668112423E-01    0.6657507121E+00
    0.3700000000E+05    0.6600301248E+00    0.1207997639E-01    0.5387211338E-03    0.1668750657E-01    0.6663215402E+00
    0.3900000000E+05    0.6601984822E+00    0.1178596241E-01    0.5240650489E-03    0.1669331226E-01    0.6668475434E+00
    0.4100000000E+05    0.6603502054E+00    0.1151301544E-01    0.5105053351E-03    0.1669862230E-01    0.6673342870E+00
    0.4300000000E+05    0.6604876379E+00    0.1125871396E-01    0.4979123036E-03    0.1670350288E-01    0.6677864157E+00
    0.4500000000E+05    0.6606127029E+00    0.1102101065E-01    0.4861767568E-03    0.1670800866E-01    0.6682078406E+00
    0.4700000000E+05    0.6607269938E+00    0.1079816099E-01    0.4752060057E-03    0.1671218517E-01    0.6686018813E+00
    0.4900000000E+05    0.6608318417E+00    0.1058866788E-01    0.4649207940E-03    0.1671607069E-01    0.6689713764E+00
    0.1000000000E+05    0.6509153900E+00    0.2208642172E-01    0.1066579789E-02    0.1641993624E-01    0.6474445173E+00
    0.3000000000E+05    0.6592612115E+00    0.1332243054E-01    0.6012159867E-03    0.1666192327E-01    0.6640795254E+00
    0.5000000000E+05    0.6608810818E+00    0.1048851893E-01    0.4600135685E-03    0.1671791466E-01    0.6691476964E+00
    0.7000000000E+05    0.6615675885E+00    0.8948860614E-02    0.3853805102E-03    0.1674528873E-01    0.6718323205E+00
    0.9000000000E+05    0.6619462117E+00    0.7943906758E-02    0.3375269464E-03    0.1676238490E-01    0.6735580490E+00
    0.1100000000E+06    0.6621857577E+00    0.7220983150E-02    0.3035549291E-03    0.1677446883E-01    0.6747864200E+00
    0.1300000000E+06    0.6623507519E+00    0.6668385953E-02    0.2778585368E-03    0.1678366956E-01    0.6757179915E+00
    0.1500000000E+06    0.6624711762E+00    0.6228018093E-02    0.2575589556E-03    0.1679102945E-01    0.6764557752E+00
    0.1700000000E+06    0.6625628501E+00    0.5866255342E-02    0.2410069032E-03    0.1679712634E-01    0.6770588146E+00
    0.1900000000E+06    0.6626349069E+00    0.5562097894E-02    0.2271810327E-03    0.1680230983E-01    0.6775636969E+00
    0.2100000000E+06    0.6626929872E+00    0.5301658561E-02    0.2154108261E-03    0.1680680570E-01    0.6779944606E+00
    0.2300000000E+06    0.6627407618E+00    0.5075334733E-02    0.2052355872E-03    0.1681076731E-01    0.6783676357E+00
    0.2500000000E+06    0.6627807221E+00    0.4876244305E-02    0.1963270076E-03    0.1681430309E-01    0.6786950128E+00
    0.2700000000E+06    0.6628146181E+00    0.4699307693E-02    0.1884440041E-03    0.1681749227E-01    0.6789852580E+00
    0.2900000000E+06    0.6628437148E+00    0.4540682351E-02    0.1814050513E-03    0.1682039435E-01    0.6792449027E+00
    0.3100000000E+06    0.6628689493E+00    0.4397400164E-02    0.1750705303E-03    0.1682305506E-01    0.6794789753E+00
    0.3300000000E+06    0.6628910305E+00    0.4267126914E-02    0.1693310724E-03    0.1682551021E-01    0.6796914183E+00
    0.3500000000E+06    0.6629105044E+00    0.4147998021E-02    0.1640996335E-03    0.1682778836E-01    0.6798853728E+00
    0.3700000000E+06    0.6629277983E+00    0.4038503516E-02    0.1593059645E-03    0.1682991263E-01    0.6800633758E+00
    0.3900000000E+06    0.6629432513E+00    0.3937405697E-02    0.1548926676E-03    0.1683190194E-01    0.6802275023E+00
    0.4100000000E+06    0.6629571360E+00    0.3843679027E-02    0.1508123278E-03    0.1683377201E-01    0.6803794682E+00
    0.4300000000E+06    0.6629696739E+00    0.3756465504E-02    0.1470253891E-03    0.1683553600E-01    0.6805207059E+00
    0.4500000000E+06    0.6629810471E+00    0.3675041001E-02    0.1434985577E-03    0.1683720503E-01    0.6806524225E+00
    0.4700000000E+06    0.6629914063E+00    0.3598789520E-02    0.1402035841E-03    0.1683878859E-01    0.6807756428E+00
    0.4900000000E+06    0.6630008775E+00    0.3527183265E-02    0.1371163230E-03    0.1684029485E-01    0.6808912436E+00
    0.1000000000E+06    0.6620781201E+00    0.7555985175E-02    0.3192487755E-03    0.1676888262E-01    0.6742185544E+00
    0.3000000000E+06    0.6628567660E+00    0.4467281892E-02    0.1781571742E-03    0.1682175244E-01    0.6793648675E+00
    0.5000000000E+06    0.6630053138E+00    0.3492977363E-02    0.1356439772E-03    0.1684102123E-01    0.6809464268E+00
    0.7000000000E+06    0.6630661027E+00    0.2969204792E-02    0.1133049497E-03    0.1685279496E-01    0.6817882835E+00
    0.9000000000E+06    0.6630982713E+00    0.2629454993E-02    0.9903887157E-04    0.1686126221E-01    0.6823312055E+00
    0.1100000000E+07    0.6631177124E+00    0.2386083405E-02    0.8894081755E-04    0.1686786965E-01    0.6827185754E+00
    0.1300000000E+07    0.6631304521E+00    0.2200629197E-02    0.8131990285E-04    0.1687328585E-01    0.6830128901E+00
    0.1500000000E+07    0.6631392626E+00    0.2053194952E-02    0.7531042836E-04    0.1687787417E-01    0.6832463269E+00
    0.1700000000E+07    0.6631455904E+00    0.1932311588E-02    0.7041766499E-04    0.1688185385E-01    0.6834373654E+00
    0.1900000000E+07    0.6631502607E+00    0.1830839370E-02    0.6633588226E-04    0.1688536731E-01    0.6835974755E+00
    0.2100000000E+07    0.6631537767E+00    0.1744069372E-02    0.6286472484E-04    0.1688851226E-01    0.6837342040E+00
    0.2300000000E+07    0.6631564615E+00    0.1668752802E-02    0.5986674598E-04    0.1689135862E-01    0.6838527466E+00
    0.2500000000E+07    0.6631585314E+00    0.1602565754E-02    0.5724412918E-04    0.1689395815E-01    0.6839568136E+00
    0.2700000000E+07    0.6631601362E+00    0.1543795853E-02    0.5492513201E-04    0.1689635022E-01    0.6840491345E+00
    0.2900000000E+07    0.6631613825E+00    0.1491149642E-02    0.5285579359E-04    0.1689856550E-01    0.6841317684E+00
    0.3100000000E+07    0.6631623484E+00    0.1443629314E-02    0.5099465047E-04    0.1690062832E-01    0.6842063016E+00
    0.3300000000E+07    0.6631630916E+00    0.1400451082E-02    0.4930925140E-04    0.1690255831E-01    0.6842739790E+00
    0.3500000000E+07    0.6631636562E+00    0.1360989514E-02    0.4777378977E-04    0.1690437154E-01    0.6843357928E+00
    0.3700000000E+07    0.6631640760E+00    0.1324738611E-02    0.4636745368E-04    0.1690608134E-01    0.6843925451E+00
    0.3900000000E+07    0.6631643775E+00    0.1291283976E-02    0.4507325012E-04    0.1690769886E-01    0.6844448923E+00
    0.4100000000E+07    0.6631645814E+00    0.1260282523E-02    0.4387715033E-04    0.1690923357E-01    0.6844933772E+00
    0.4300000000E+07    0.6631647044E+00    0.1231447427E-02    0.4276745763E-04    0.1691069352E-01    0.6845384535E+00
    0.4500000000E+07    0.6631647600E+00    0.1204536784E-02    0.4173433245E-04    0.1691208567E-01    0.6845805035E+00
    0.4700000000E+07    0.6631647592E+00    0.1179344942E-02    0.4076943028E-04    0.1691341604E-01    0.6846198520E+00
    0.4900000000E+07    0.6631647107E+00    0.1155695801E-02    0.3986562230E-04    0.1691468988E-01    0.6846567769E+00
    0.1000000000E+07    0.6631090913E+00    0.2498754751E-02    0.9360259042E-04    0.1686474642E-01    0.6825393990E+00
    0.3000000000E+07    0.6631618965E+00    0.1466801994E-02    0.5190140504E-04    0.1689961465E-01    0.6841699630E+00
    0.5000000000E+07    0.6631646711E+00    0.1144401477E-02    0.3943467859E-04    0.1691530706E-01    0.6846744067E+00
    0.7000000000E+07    0.6631626369E+00    0.9716783945E-03    0.3290353069E-04    0.1692555536E-01    0.6849436278E+00
    0.9000000000E+07    0.6631597201E+00    0.8598582281E-03    0.2873989279E-04    0.1693317946E-01    0.6851175214E+00
    0.1100000000E+08    0.6631567246E+00    0.7798627829E-03    0.2579619337E-04    0.1693925330E-01    0.6852417249E+00
    0.1300000000E+08    0.6631538599E+00    0.7189624724E-03    0.2357653848E-04    0.1694430228E-01    0.6853361663E+00
    0.1500000000E+08    0.6631511776E+00    0.6705828002E-03    0.2182740997E-04    0.1694862298E-01    0.6854111187E+00
    0.1700000000E+08    0.6631486807E+00    0.6309389472E-03    0.2040408807E-04    0.1695239937E-01    0.6854724883E+00
    0.1900000000E+08    0.6631463569E+00    0.5976771387E-03    0.1921721851E-04    0.1695575345E-01    0.6855239435E+00
    0.2100000000E+08    0.6631441896E+00    0.5692462366E-03    0.1820828703E-04    0.1695877030E-01    0.6855678997E+00
    0.2300000000E+08    0.6631421627E+00    0.5445768077E-03    0.1733717651E-04    0.1696151163E-01    0.6856060209E+00
    0.2500000000E+08    0.6631402609E+00    0.5229043180E-03    0.1657535189E-04    0.1696402360E-01    0.6856394958E+00
    0.2700000000E+08    0.6631384710E+00    0.5036657029E-03    0.1590189397E-04    0.1696634169E-01    0.6856691991E+00
