  Pressure (Pa) 22mC5-400 (mol/kg) 2mC6-400 (mol/kg) 33mC5-400 (mol/kg) 23mC5-400 (mol/kg) C7-400 (mol/kg)
    0.1000000000E+01    0.3697107465E-02    0.2387331790E-02    0.2591541004E-03    0.4636952022E-03    0.1719162570E-02
    0.3000000000E+01    0.1090302676E-01    0.7023092984E-02    0.7623086278E-03    0.1367487652E-02    0.5099519636E-02
    0.5000000000E+01    0.1786998599E-01    0.1148216293E-01    0.1246183109E-02    0.2241332410E-02    0.8404906297E-02
    0.7000000000E+01    0.2461152120E-01    0.1577410122E-01    0.1711816434E-02    0.3086925580E-02    0.1163798934E-01
    0.9000000000E+01    0.3114013892E-01    0.1990778081E-01    0.2160173094E-02    0.3905834278E-02    0.1480130835E-01
    0.1100000000E+02    0.3746741203E-01    0.2389144951E-01    0.2592149834E-02    0.4699508640E-02    0.1789728328E-01
    0.1300000000E+02    0.4360406513E-01    0.2773278507E-01    0.3008581610E-02    0.5469292525E-02    0.2092822143E-01
    0.1500000000E+02    0.4956005087E-01    0.3143894435E-01    0.3410246913E-02    0.6216433064E-02    0.2389632398E-01
    0.1700000000E+02    0.5534461806E-01    0.3501660747E-01    0.3797872546E-02    0.6942089211E-02    0.2680369206E-01
    0.1900000000E+02    0.6096637290E-01    0.3847201755E-01    0.4172137921E-02    0.7647339399E-02    0.2965233239E-01
    0.2100000000E+02    0.6643333383E-01    0.4181101636E-01    0.4533678921E-02    0.8333188417E-02    0.3244416260E-01
    0.2300000000E+02    0.7175298095E-01    0.4503907665E-01    0.4883091399E-02    0.9000573604E-02    0.3518101611E-01
    0.2500000000E+02    0.7693230054E-01    0.4816133123E-01    0.5220934326E-02    0.9650370422E-02    0.3786464676E-01
    0.2700000000E+02    0.8197782523E-01    0.5118259939E-01    0.5547732651E-02    0.1028339749E-01    0.4049673309E-01
    0.2900000000E+02    0.8689567035E-01    0.5410741087E-01    0.5863979893E-02    0.1090042115E-01    0.4307888238E-01
    0.3100000000E+02    0.9169156687E-01    0.5694002753E-01    0.6170140497E-02    0.1150215957E-01    0.4561263444E-01
    0.3300000000E+02    0.9637089125E-01    0.5968446323E-01    0.6466651979E-02    0.1208928651E-01    0.4809946508E-01
    0.3500000000E+02    0.1009386925E+00    0.6234450181E-01    0.6753926877E-02    0.1266243468E-01    0.5054078949E-01
    0.3700000000E+02    0.1053997171E+00    0.6492371361E-01    0.7032354537E-02    0.1322219891E-01    0.5293796530E-01
    0.3900000000E+02    0.1097584312E+00    0.6742547048E-01    0.7302302747E-02    0.1376913886E-01    0.5529229552E-01
    0.4100000000E+02    0.1140190411E+00    0.6985295959E-01    0.7564119225E-02    0.1430378170E-01    0.5760503127E-01
    0.4300000000E+02    0.1181855125E+00    0.7220919607E-01    0.7818132994E-02    0.1482662438E-01    0.5987737436E-01
    0.4500000000E+02    0.1222615871E+00    0.7449703459E-01    0.8064655636E-02    0.1533813582E-01    0.6211047972E-01
    0.4700000000E+02    0.1262507985E+00    0.7671918003E-01    0.8303982447E-02    0.1583875886E-01    0.6430545768E-01
    0.4900000000E+02    0.1301564868E+00    0.7887819728E-01    0.8536393504E-02    0.1632891207E-01    0.6646337611E-01
    0.1000000000E+02    0.3432825432E-01    0.2191787390E-01    0.2378155386E-02    0.4305739386E-02    0.1635756706E-01
    0.3000000000E+02    0.8930851818E-01    0.5553498709E-01    0.6018293072E-02    0.1120315791E-01    0.4435171437E-01
    0.5000000000E+02    0.1320790038E+00    0.7993479833E-01    0.8650089229E-02    0.1657018707E-01    0.6752876060E-01
    0.7000000000E+02    0.1668281194E+00    0.9828270055E-01    0.1061885246E-01    0.2093171044E-01    0.8712121706E-01
    0.9000000000E+02    0.1959535523E+00    0.1124490791E+00    0.1212906953E-01    0.2458822003E-01    0.1039677133E+00
    0.1100000000E+03    0.2209340427E+00    0.1236132252E+00    0.1330993162E-01    0.2772504982E-01    0.1186595509E+00
    0.1300000000E+03    0.2427368996E+00    0.1325562231E+00    0.1424716261E-01    0.3046344051E-01    0.1316261948E+00
    0.1500000000E+03    0.2620258945E+00    0.1398157949E+00    0.1499987258E-01    0.3288659157E-01    0.1431874957E+00
    0.1700000000E+03    0.2792749419E+00    0.1457738392E+00    0.1561010068E-01    0.3505390755E-01    0.1535868499E+00
    0.1900000000E+03    0.2948338845E+00    0.1507086414E+00    0.1610851543E-01    0.3700924259E-01    0.1630129634E+00
    0.2100000000E+03    0.3089684051E+00    0.1548274039E+00    0.1651797186E-01    0.3878590242E-01    0.1716145507E+00
    0.2300000000E+03    0.3218852323E+00    0.1582872647E+00    0.1685581341E-01    0.4040980350E-01    0.1795105130E+00
    0.2500000000E+03    0.3337486203E+00    0.1612093012E+00    0.1713540781E-01    0.4190153842E-01    0.1867971421E+00
    0.2700000000E+03    0.3446914560E+00    0.1636881097E+00    0.1736719933E-01    0.4327776805E-01    0.1935533205E+00
    0.2900000000E+03    0.3548229471E+00    0.1657985075E+00    0.1755944611E-01    0.4455218515E-01    0.1998443406E+00
    0.3100000000E+03    0.3642340738E+00    0.1676003179E+00    0.1771874720E-01    0.4573619769E-01    0.2057247539E+00
    0.3300000000E+03    0.3730015383E+00    0.1691418458E+00    0.1785042602E-01    0.4683942382E-01    0.2112405276E+00
    0.3500000000E+03    0.3811906823E+00    0.1704624420E+00    0.1795881359E-01    0.4787005764E-01    0.2164306975E+00
    0.3700000000E+03    0.3888576811E+00    0.1715944219E+00    0.1804746080E-01    0.4883514412E-01    0.2213286503E+00
    0.3900000000E+03    0.3960512201E+00    0.1725645193E+00    0.1811929937E-01    0.4974078932E-01    0.2259631288E+00
    0.4100000000E+03    0.4028137954E+00    0.1733950006E+00    0.1817676538E-01    0.5059232336E-01    0.2303590281E+00
    0.4300000000E+03    0.4091827362E+00    0.1741045272E+00    0.1822189496E-01    0.5139442861E-01    0.2345380318E+00
    0.4500000000E+03    0.4151910189E+00    0.1747088300E+00    0.1825639924E-01    0.5215124168E-01    0.2385191245E+00
    0.4700000000E+03    0.4208679224E+00    0.1752212408E+00    0.1828172340E-01    0.5286643561E-01    0.2423190089E+00
    0.4900000000E+03    0.4262395612E+00    0.1756531152E+00    0.1829909372E-01    0.5354328668E-01    0.2459524464E+00
    0.1000000000E+03    0.2088925333E+00    0.1183505364E+00    0.1275453886E-01    0.2621289881E-01    0.1115530601E+00
    0.3000000000E+03    0.3596134658E+00    0.1667347308E+00    0.1764285598E-01    0.4515485371E-01    0.2028328205E+00
    0.5000000000E+03    0.4288183113E+00    0.1758419441E+00    0.1830512898E-01    0.5386826271E-01    0.2477108997E+00
    0.7000000000E+03    0.4689395418E+00    0.1771362919E+00    0.1819426974E-01    0.5892856827E-01    0.2766606300E+00
    0.9000000000E+03    0.4948684853E+00    0.1760646971E+00    0.1788636929E-01    0.6220456729E-01    0.2978181056E+00
    0.1100000000E+04    0.5128481986E+00    0.1741423989E+00    0.1752955400E-01    0.6448026137E-01    0.3144142589E+00
    0.1300000000E+04    0.5259672386E+00    0.1719078098E+00    0.1717026135E-01    0.6614375832E-01    0.3280330662E+00
    0.1500000000E+04    0.5359186693E+00    0.1695821993E+00    0.1682419835E-01    0.6740794019E-01    0.3395613061E+00
    0.1700000000E+04    0.5437019345E+00    0.1672645066E+00    0.1649634882E-01    0.6839855153E-01    0.3495430763E+00
    0.1900000000E+04    0.5499418146E+00    0.1650005731E+00    0.1618763626E-01    0.6919424652E-01    0.3583353799E+00
    0.2100000000E+04    0.5550472799E+00    0.1628112233E+00    0.1589740847E-01    0.6984654213E-01    0.3661847636E+00
    0.2300000000E+04    0.5592963836E+00    0.1607048261E+00    0.1562443653E-01    0.7039048542E-01    0.3732684965E+00
    0.2500000000E+04    0.5628842818E+00    0.1586833437E+00    0.1536733408E-01    0.7085068979E-01    0.3797182497E+00
    0.2700000000E+04    0.5659517077E+00    0.1567454108E+00    0.1512473457E-01    0.7124491574E-01    0.3856344796E+00
    0.2900000000E+04    0.5686025434E+00    0.1548879669E+00    0.1489536256E-01    0.7158628128E-01    0.3910955637E+00
    0.3100000000E+04    0.5709150410E+00    0.1531071468E+00    0.1467805759E-01    0.7188467415E-01    0.3961638272E+00
    0.3300000000E+04    0.5729492053E+00    0.1513987748E+00    0.1447177666E-01    0.7214768119E-01    0.4008896463E+00
    0.3500000000E+04    0.5747517796E+00    0.1497586387E+00    0.1427558763E-01    0.7238121619E-01    0.4053143195E+00
    0.3700000000E+04    0.5763596906E+00    0.1481826401E+00    0.1408865900E-01    0.7258995403E-01    0.4094721260E+00
    0.3900000000E+04    0.5778024792E+00    0.1466668733E+00    0.1391024901E-01    0.7277763689E-01    0.4133918317E+00
    0.4100000000E+04    0.5791040466E+00    0.1452076619E+00    0.1373969510E-01    0.7294729454E-01    0.4170978116E+00
    0.4300000000E+04    0.5802839303E+00    0.1438015723E+00    0.1357640425E-01    0.7310140517E-01    0.4206109009E+00
    0.4500000000E+04    0.5813582505E+00    0.1424454123E+00    0.1341984445E-01    0.7324201484E-01    0.4239490485E+00
    0.4700000000E+04    0.5823404214E+00    0.1411362224E+00    0.1326953715E-01    0.7337082729E-01    0.4271278271E+00
    0.4900000000E+04    0.5832416928E+00    0.1398712630E+00    0.1312505081E-01    0.7348927228E-01    0.4301608342E+00
    0.1000000000E+04    0.5046136062E+00    0.1751648864E+00    0.1771004267E-01    0.6343750178E-01    0.3065644843E+00
    0.3000000000E+04    0.5697969741E+00    0.1539882365E+00    0.1478526958E-01    0.7174032971E-01    0.3936754079E+00
    0.5000000000E+04    0.5836650196E+00    0.1392545700E+00    0.1305486705E-01    0.7354499210E-01    0.4316264631E+00
    0.7000000000E+04    0.5895658356E+00    0.1287211161E+00    0.1187930404E-01    0.7432920511E-01    0.4555491714E+00
    0.9000000000E+04    0.5928134421E+00    0.1206530115E+00    0.1100451971E-01    0.7476988917E-01    0.4727574188E+00
    0.1100000000E+05    0.5948630515E+00    0.1141784203E+00    0.1031627243E-01    0.7505379335E-01    0.4860436055E+00
    0.1300000000E+05    0.5962719126E+00    0.1088099899E+00    0.9754074079E-02    0.7525294984E-01    0.4967709885E+00
    0.1500000000E+05    0.5972986382E+00    0.1042502212E+00    0.9282235970E-02    0.7540102851E-01    0.5057055053E+00
    0.1700000000E+05    0.5980794117E+00    0.1003050722E+00    0.8878035721E-02    0.7551588632E-01    0.5133191566E+00
    0.1900000000E+05    0.5986926930E+00    0.9684139059E-01    0.8526165879E-02    0.7560788442E-01    0.5199226211E+00
    0.2100000000E+05    0.5991868398E+00    0.9376408179E-01    0.8215854504E-02    0.7568345398E-01    0.5257307852E+00
    0.2300000000E+05    0.5995932653E+00    0.9100300743E-01    0.7939253356E-02    0.7574680210E-01    0.5308981495E+00
    0.2500000000E+05    0.5999332541E+00    0.8850504541E-01    0.7690479921E-02    0.7580079937E-01    0.5355393146E+00
    0.2700000000E+05    0.6002217356E+00    0.8622905784E-01    0.7465019807E-02    0.7584747331E-01    0.5397414926E+00
    0.2900000000E+05    0.6004694882E+00    0.8414258036E-01    0.7259338752E-02    0.7588829790E-01    0.5435724952E+00
    0.3100000000E+05    0.6006844866E+00    0.8221957386E-01    0.7070622103E-02    0.7592437125E-01    0.5470860211E+00
    0.3300000000E+05    0.6008727569E+00    0.8043885574E-01    0.6896594826E-02    0.7595652884E-01    0.5503252691E+00
    0.3500000000E+05    0.6010389364E+00    0.7878297916E-01    0.6735394035E-02    0.7598541803E-01    0.5533254703E+00
    0.3700000000E+05    0.6011866516E+00    0.7723741561E-01    0.6585476743E-02    0.7601154853E-01    0.5561157069E+00
    0.3900000000E+05    0.6013187789E+00    0.7578994793E-01    0.6445551832E-02    0.7603532736E-01    0.5587202429E+00
    0.4100000000E+05    0.6014376288E+00    0.7443021204E-01    0.6314529034E-02    0.7605708366E-01    0.5611595162E+00
    0.4300000000E+05    0.6015450782E+00    0.7314934600E-01    0.6191480076E-02    0.7607708663E-01    0.5634508901E+00
    0.4500000000E+05    0.6016426676E+00    0.7193971774E-01    0.6075608705E-02    0.7609555868E-01    0.5656092307E+00
    0.4700000000E+05    0.6017316730E+00    0.7079471121E-01    0.5966227261E-02    0.7611268525E-01    0.5676473553E+00
    0.4900000000E+05    0.6018131600E+00    0.6970855677E-01    0.5862738177E-02    0.7612862228E-01    0.5695763859E+00
    0.1000000000E+05    0.5939426552E+00    0.1172529348E+00    0.1064165150E-01    0.7492558870E-01    0.4797859601E+00
    0.3000000000E+05    0.6005806671E+00    0.8316206607E-01    0.7163013014E-02    0.7590687112E-01    0.5453660306E+00
    0.5000000000E+05    0.6018513702E+00    0.6918594346E-01    0.5813037469E-02    0.7613618681E-01    0.5705030734E+00
    0.7000000000E+05    0.6023788445E+00    0.6086897589E-01    0.5030419001E-02    0.7624857162E-01    0.5851269408E+00
    0.9000000000E+05    0.6026632665E+00    0.5514234106E-01    0.4500888550E-02    0.7631883524E-01    0.5950696829E+00
    0.1100000000E+06    0.6028390015E+00    0.5086960007E-01    0.4110966691E-02    0.7636852880E-01    0.6024259825E+00
    0.1300000000E+06    0.6029571002E+00    0.4751387158E-01    0.3807949987E-02    0.7640638032E-01    0.6081680968E+00
    0.1500000000E+06    0.6030411251E+00    0.4478246510E-01    0.3563476704E-02    0.7643666729E-01    0.6128197474E+00
    0.1700000000E+06    0.6031034215E+00    0.4249979307E-01    0.3360710011E-02    0.7646176237E-01    0.6166923419E+00
    0.1900000000E+06    0.6031510654E+00    0.4055300656E-01    0.3188923965E-02    0.7648310177E-01    0.6199846368E+00
    0.2100000000E+06    0.6031883942E+00    0.3886569598E-01    0.3040911069E-02    0.7650161327E-01    0.6228304551E+00
    0.2300000000E+06    0.6032182095E+00    0.3738396330E-01    0.2911621133E-02    0.7651792721E-01    0.6253237525E+00
    0.2500000000E+06    0.6032423979E+00    0.3606851342E-01    0.2797394129E-02    0.7653248939E-01    0.6275327564E+00
    0.2700000000E+06    0.6032622742E+00    0.3488990703E-01    0.2695502725E-02    0.7654562560E-01    0.6295084065E+00
    0.2900000000E+06    0.6032787818E+00    0.3382557888E-01    0.2603866642E-02    0.7655758052E-01    0.6312896302E+00
    0.3100000000E+06    0.6032926134E+00    0.3285789289E-01    0.2520867318E-02    0.7656854215E-01    0.6329067704E+00
    0.3300000000E+06    0.6033042891E+00    0.3197283227E-01    0.2445223693E-02    0.7657865787E-01    0.6343838854E+00
    0.3500000000E+06    0.6033142061E+00    0.3115909277E-01    0.2375906608E-02    0.7658804515E-01    0.6357403359E+00
    0.3700000000E+06    0.6033226727E+00    0.3040743988E-01    0.2312078365E-02    0.7659679903E-01    0.6369919066E+00
    0.3900000000E+06    0.6033299315E+00    0.2971024350E-01    0.2253049152E-02    0.7660499744E-01    0.6381516167E+00
    0.4100000000E+06    0.6033361760E+00    0.2906113475E-01    0.2198245014E-02    0.7661270499E-01    0.6392303154E+00
    0.4300000000E+06    0.6033415619E+00    0.2845474881E-01    0.2147183935E-02    0.7661997582E-01    0.6402371275E+00
    0.4500000000E+06    0.6033462162E+00    0.2788652923E-01    0.2099457697E-02    0.7662685573E-01    0.6411797922E+00
    0.4700000000E+06    0.6033502430E+00    0.2735257702E-01    0.2054717935E-02    0.7663338378E-01    0.6420649231E+00
    0.4900000000E+06    0.6033537286E+00    0.2684953302E-01    0.2012665287E-02    0.7663959353E-01    0.6428982113E+00
    0.1000000000E+06    0.6027605598E+00    0.5286588154E-01    0.4292581361E-02    0.7634555339E-01    0.5989954261E+00
    0.3000000000E+06    0.6032859962E+00    0.3333060431E-01    0.2561374210E-02    0.7656317548E-01    0.6321170812E+00
    0.5000000000E+06    0.6033552915E+00    0.2660867619E-01    0.1992564343E-02    0.7664258827E-01    0.6432969806E+00
    0.7000000000E+06    0.6033706140E+00    0.2287524381E-01    0.1683909106E-02    0.7669114217E-01    0.6494609591E+00
    0.9000000000E+06    0.6033712541E+00    0.2040728360E-01    0.1483097861E-02    0.7672607607E-01    0.6535178765E+00
    0.1100000000E+07    0.6033666782E+00    0.1861662364E-01    0.1339157291E-02    0.7675334629E-01    0.6564525399E+00
    0.1300000000E+07    0.6033600686E+00    0.1723915843E-01    0.1229515905E-02    0.7677570630E-01    0.6587049010E+00
    0.1500000000E+07    0.6033527007E+00    0.1613601873E-01    0.1142433790E-02    0.7679465293E-01    0.6605054507E+00
    0.1700000000E+07    0.6033451401E+00    0.1522616522E-01    0.1071120998E-02    0.7681108963E-01    0.6619883205E+00
    0.1900000000E+07    0.6033376508E+00    0.1445865149E-01    0.1011341355E-02    0.7682560333E-01    0.6632376456E+00
    0.2100000000E+07    0.6033303576E+00    0.1379960412E-01    0.9602969496E-03    0.7683859677E-01    0.6643092619E+00
    0.2300000000E+07    0.6033233164E+00    0.1322549378E-01    0.9160556934E-03    0.7685035821E-01    0.6652418934E+00
    0.2500000000E+07    0.6033165480E+00    0.1271939121E-01    0.8772347954E-03    0.7686110106E-01    0.6660633639E+00
    0.2700000000E+07    0.6033100550E+00    0.1226875859E-01    0.8428150677E-03    0.7687098773E-01    0.6667942550E+00
    0.2900000000E+07    0.6033038306E+00    0.1186408293E-01    0.8120266058E-03    0.7688014466E-01    0.6674501661E+00
    0.3100000000E+07    0.6032978633E+00    0.1149799639E-01    0.7842755324E-03    0.7688867221E-01    0.6680431676E+00
    0.3300000000E+07    0.6032921393E+00    0.1116469076E-01    0.7590954415E-03    0.7689665138E-01    0.6685827666E+00
    0.3500000000E+07    0.6032866443E+00    0.1085951628E-01    0.7361142650E-03    0.7690414846E-01    0.6690765679E+00
    0.3700000000E+07    0.6032813642E+00    0.1057870004E-01    0.7150310909E-03    0.7691121843E-01    0.6695307378E+00
    0.3900000000E+07    0.6032762853E+00    0.1031914379E-01    0.6955995818E-03    0.7691790737E-01    0.6699503366E+00
    0.4100000000E+07    0.6032713948E+00    0.1007827609E-01    0.6776158832E-03    0.7692425426E-01    0.6703395616E+00
    0.4300000000E+07    0.6032666806E+00    0.9853942238E-02    0.6609096512E-03    0.7693029243E-01    0.6707019278E+00
    0.4500000000E+07    0.6032621315E+00    0.9644321116E-02    0.6453372926E-03    0.7693605052E-01    0.6710404045E+00
    0.4700000000E+07    0.6032577374E+00    0.9447861467E-02    0.6307767992E-03    0.7694155340E-01    0.6713575195E+00
    0.4900000000E+07    0.6032534886E+00    0.9263232473E-02    0.6171237510E-03    0.7694682274E-01    0.6716554407E+00
    0.1000000000E+07    0.6033693500E+00    0.1944801258E-01    0.1405795480E-02    0.7674045506E-01    0.6550909328E+00
    0.3000000000E+07    0.6033008156E+00    0.1167661018E-01    0.7978030862E-03    0.7688448166E-01    0.6677538852E+00
    0.5000000000E+07    0.6032514160E+00    0.9174989150E-02    0.6106089128E-03    0.7694937588E-01    0.6717977985E+00
    0.7000000000E+07    0.6032158114E+00    0.7819959480E-02    0.5114789486E-03    0.7699178079E-01    0.6739809997E+00
    0.9000000000E+07    0.6031881190E+00    0.6937154071E-02    0.4478909044E-03    0.7702333954E-01    0.6754004362E+00
    0.1100000000E+08    0.6031654872E+00    0.6302900974E-02    0.4027461353E-03    0.7704848863E-01    0.6764187279E+00
    0.1300000000E+08    0.6031463592E+00    0.5818530154E-02    0.3686009076E-03    0.7706939915E-01    0.6771954960E+00
    0.1500000000E+08    0.6031297981E+00    0.5432805621E-02    0.3416298319E-03    0.7708729706E-01    0.6778134957E+00
    0.1700000000E+08    0.6031151973E+00    0.5116110944E-02    0.3196405573E-03    0.7710294296E-01    0.6783205033E+00
    0.1900000000E+08    0.6031021424E+00    0.4849967802E-02    0.3012752081E-03    0.7711684132E-01    0.6787462973E+00
    0.2100000000E+08    0.6030903375E+00    0.4622166487E-02    0.2856422778E-03    0.7712934403E-01    0.6791105371E+00
    0.2300000000E+08    0.6030795643E+00    0.4424270125E-02    0.2721292296E-03    0.7714070632E-01    0.6794267973E+00
    0.2500000000E+08    0.6030696568E+00    0.4250235632E-02    0.2602995605E-03    0.7715111921E-01    0.6797047948E+00
    0.2700000000E+08    0.6030604864E+00    0.4095604955E-02    0.2498327522E-03    0.7716072940E-01    0.6799516934E+00
