  Pressure (Pa) 22mC5-400 (mol/kg) 2mC6-400 (mol/kg) 33mC5-400 (mol/kg) 23mC5-400 (mol/kg) C7-400 (mol/kg)
    0.1000000000E+01    0.3703511438E-02    0.7911963286E-03    0.1932669563E-03    0.3715983946E-03    0.8527455784E-02
    0.3000000000E+01    0.1095838761E-01    0.2301392035E-02    0.5622290391E-03    0.1099542136E-02    0.2490539566E-01
    0.5000000000E+01    0.1801779166E-01    0.3721427194E-02    0.9092463656E-03    0.1807889191E-02    0.4043967289E-01
    0.7000000000E+01    0.2489013887E-01    0.5058000525E-02    0.1235948172E-02    0.2497483018E-02    0.5519471908E-01
    0.9000000000E+01    0.3158336019E-01    0.6317174957E-02    0.1543808809E-02    0.3169118544E-02    0.6922854550E-01
    0.1100000000E+02    0.3810493654E-01    0.7504452070E-02    0.1834165909E-02    0.3823545589E-02    0.8259352412E-01
    0.1300000000E+02    0.4446193008E-01    0.8624836177E-02    0.2108236022E-02    0.4461472009E-02    0.9533705723E-01
    0.1500000000E+02    0.5066101307E-01    0.9682889717E-02    0.2367128126E-02    0.5083566584E-02    0.1075021540E+00
    0.1700000000E+02    0.5670849432E-01    0.1068278131E-01    0.2611855352E-02    0.5690461666E-02    0.1191279283E+00
    0.1900000000E+02    0.6261034354E-01    0.1162832760E-01    0.2843345182E-02    0.6282755626E-02    0.1302500307E+00
    0.2100000000E+02    0.6837221379E-01    0.1252302982E-01    0.3062448365E-02    0.6861015098E-02    0.1409010237E+00
    0.2300000000E+02    0.7399946217E-01    0.1337010582E-01    0.3269946724E-02    0.7425777055E-02    0.1511107099E+00
    0.2500000000E+02    0.7949716893E-01    0.1417251822E-01    0.3466560018E-02    0.7977550720E-02    0.1609064182E+00
    0.2700000000E+02    0.8487015509E-01    0.1493299929E-01    0.3652951999E-02    0.8516819341E-02    0.1703132560E+00
    0.2900000000E+02    0.9012299880E-01    0.1565407287E-01    0.3829735754E-02    0.9044041820E-02    0.1793543306E+00
    0.3100000000E+02    0.9526005045E-01    0.1633807385E-01    0.3997478453E-02    0.9559654233E-02    0.1880509450E+00
    0.3300000000E+02    0.1002854467E+00    0.1698716551E-01    0.4156705558E-02    0.1006407123E-01    0.1964227709E+00
    0.3500000000E+02    0.1052031233E+00    0.1760335489E-01    0.4307904581E-02    0.1055768734E-01    0.2044880018E+00
    0.3700000000E+02    0.1100168275E+00    0.1818850660E-01    0.4451528433E-02    0.1104087819E-01    0.2122634901E+00
    0.3900000000E+02    0.1147301289E+00    0.1874435513E-01    0.4587998428E-02    0.1151400159E-01    0.2197648684E+00
    0.4100000000E+02    0.1193464301E+00    0.1927251595E-01    0.4717706969E-02    0.1197739862E-01    0.2270066581E+00
    0.4300000000E+02    0.1238689763E+00    0.1977449541E-01    0.4841019973E-02    0.1243139460E-01    0.2340023667E+00
    0.4500000000E+02    0.1283008643E+00    0.2025169970E-01    0.4958279043E-02    0.1287629996E-01    0.2407645749E+00
    0.4700000000E+02    0.1326450512E+00    0.2070544299E-01    0.5069803438E-02    0.1331241111E-01    0.2473050149E+00
    0.4900000000E+02    0.1369043617E+00    0.2113695466E-01    0.5175891850E-02    0.1374001124E-01    0.2536346411E+00
    0.1000000000E+02    0.3486515314E-01    0.6919476942E-02    0.1691096596E-02    0.3498437937E-02    0.7599156884E-01
    0.3000000000E+02    0.9270573524E-01    0.1600056840E-01    0.3914703463E-02    0.9303272883E-02    0.1837444295E+00
    0.5000000000E+02    0.1390030369E+00    0.2134473630E-01    0.5226985678E-02    0.1395070473E-01    0.2567236253E+00
    0.7000000000E+02    0.1771175760E+00    0.2457710389E-01    0.6022747400E-02    0.1777759698E-01    0.3095985062E+00
    0.9000000000E+02    0.2091893863E+00    0.2653409141E-01    0.6505345700E-02    0.2099848355E-01    0.3497786470E+00
    0.1100000000E+03    0.2366490039E+00    0.2768542311E-01    0.6789197411E-02    0.2375678135E-01    0.3814157770E+00
    0.1300000000E+03    0.2604918031E+00    0.2831166093E-01    0.6942834150E-02    0.2615228634E-01    0.4070199461E+00
    0.1500000000E+03    0.2814340701E+00    0.2858821885E-01    0.7009257333E-02    0.2825681735E-01    0.4281996965E+00
    0.1700000000E+03    0.3000061946E+00    0.2862867705E-01    0.7016428906E-02    0.3012355722E-01    0.4460344944E+00
    0.1900000000E+03    0.3166106481E+00    0.2850861887E-01    0.6983046527E-02    0.3179286459E-01    0.4612763877E+00
    0.2100000000E+03    0.3315593555E+00    0.2827944143E-01    0.6921892747E-02    0.3329602021E-01    0.4744658230E+00
    0.2300000000E+03    0.3450985416E+00    0.2797669727E-01    0.6841861020E-02    0.3465771770E-01    0.4860014627E+00
    0.2500000000E+03    0.3574257067E+00    0.2762530875E-01    0.6749224834E-02    0.3589776536E-01    0.4961840145E+00
    0.2700000000E+03    0.3687015096E+00    0.2724292295E-01    0.6648456352E-02    0.3703227750E-01    0.5052447136E+00
    0.2900000000E+03    0.3790582682E+00    0.2684212362E-01    0.6542767815E-02    0.3807452660E-01    0.5133643876E+00
    0.3100000000E+03    0.3886061599E+00    0.2643192044E-01    0.6434477342E-02    0.3903556502E-01    0.5206865536E+00
    0.3300000000E+03    0.3974378252E+00    0.2601877017E-01    0.6325260699E-02    0.3992468651E-01    0.5273266221E+00
    0.3500000000E+03    0.4056318403E+00    0.2560728787E-01    0.6216327409E-02    0.4074977441E-01    0.5333784955E+00
    0.3700000000E+03    0.4132553749E+00    0.2520074912E-01    0.6108545683E-02    0.4151756814E-01    0.5389193859E+00
    0.3900000000E+03    0.4203662540E+00    0.2480144902E-01    0.6002532152E-02    0.4223386987E-01    0.5440133880E+00
    0.4100000000E+03    0.4270145754E+00    0.2441096149E-01    0.5898717013E-02    0.4290370681E-01    0.5487141697E+00
    0.4300000000E+03    0.4332439948E+00    0.2403032828E-01    0.5797391786E-02    0.4353146000E-01    0.5530670231E+00
    0.4500000000E+03    0.4390927552E+00    0.2366019783E-01    0.5698744607E-02    0.4412096755E-01    0.5571104487E+00
    0.4700000000E+03    0.4445945207E+00    0.2330092809E-01    0.5602886498E-02    0.4467560824E-01    0.5608773910E+00
    0.4900000000E+03    0.4497790562E+00    0.2295266295E-01    0.5509871055E-02    0.4519836975E-01    0.5643962131E+00
    0.1000000000E+03    0.2234255393E+00    0.2718975689E-01    0.6667061852E-02    0.2242841996E-01    0.3664809364E+00
    0.3000000000E+03    0.3839271667E+00    0.2663774368E-01    0.6488830392E-02    0.3856457961E-01    0.5171173749E+00
    0.5000000000E+03    0.4522607380E+00    0.2278265794E-01    0.5464434102E-02    0.4544863652E-01    0.5660703839E+00
    0.7000000000E+03    0.4903197767E+00    0.1991366634E-01    0.4695374513E-02    0.4929032019E-01    0.5910523042E+00
    0.9000000000E+03    0.5144681073E+00    0.1783612955E-01    0.4137827064E-02    0.5173264354E-01    0.6064410152E+00
    0.1100000000E+04    0.5310882682E+00    0.1627763832E-01    0.3721158405E-02    0.5341690520E-01    0.6169715103E+00
    0.1300000000E+04    0.5431919857E+00    0.1506422797E-01    0.3398864094E-02    0.5464592363E-01    0.6246806980E+00
    0.1500000000E+04    0.5523821906E+00    0.1408922503E-01    0.3141945639E-02    0.5558097705E-01    0.6305965719E+00
    0.1700000000E+04    0.5595879981E+00    0.1328535317E-01    0.2931931651E-02    0.5631561076E-01    0.6352968371E+00
    0.1900000000E+04    0.5653837831E+00    0.1260852215E-01    0.2756648321E-02    0.5690769270E-01    0.6391323927E+00
    0.2100000000E+04    0.5701430551E+00    0.1202874687E-01    0.2607794185E-02    0.5739487889E-01    0.6423293256E+00
    0.2300000000E+04    0.5741188488E+00    0.1152494837E-01    0.2479529962E-02    0.5780269651E-01    0.6450402184E+00
    0.2500000000E+04    0.5774884783E+00    0.1108187282E-01    0.2367633881E-02    0.5814904575E-01    0.6473719750E+00
    0.2700000000E+04    0.5803797793E+00    0.1068819982E-01    0.2268979061E-02    0.5844684051E-01    0.6494018455E+00
    0.2900000000E+04    0.5828871769E+00    0.1033534127E-01    0.2181199936E-02    0.5870562599E-01    0.6511871175E+00
    0.3100000000E+04    0.5850818918E+00    0.1001665530E-01    0.2102473159E-02    0.5893260659E-01    0.6527712235E+00
    0.3300000000E+04    0.5870186306E+00    0.9726917441E-02    0.2031369892E-02    0.5913331994E-01    0.6541877246E+00
    0.3500000000E+04    0.5887400946E+00    0.9461956175E-02    0.1966753878E-02    0.5931209137E-01    0.6554629874E+00
    0.3700000000E+04    0.5902800907E+00    0.9218396018E-02    0.1907709580E-02    0.5947234764E-01    0.6566180306E+00
    0.3900000000E+04    0.5916657260E+00    0.8993472917E-02    0.1853490565E-02    0.5961683822E-01    0.6576698278E+00
    0.4100000000E+04    0.5929189842E+00    0.8784899164E-02    0.1803481762E-02    0.5974779448E-01    0.6586322441E+00
    0.4300000000E+04    0.5940578779E+00    0.8590762939E-02    0.1757171441E-02    0.5986704596E-01    0.6595167238E+00
    0.4500000000E+04    0.5950973046E+00    0.8409452517E-02    0.1714130110E-02    0.5997610679E-01    0.6603328015E+00
    0.4700000000E+04    0.5960496897E+00    0.8239598306E-02    0.1673994403E-02    0.6007624079E-01    0.6610884882E+00
    0.4900000000E+04    0.5969254785E+00    0.8080027983E-02    0.1636454642E-02    0.6016851104E-01    0.6617905673E+00
    0.1000000000E+04    0.5234844071E+00    0.1700487582E-01    0.3915302127E-02    0.5264592809E-01    0.6121518630E+00
    0.3000000000E+04    0.5840198747E+00    0.1017208155E-01    0.2140802181E-02    0.5882271290E-01    0.6520020237E+00
    0.5000000000E+04    0.5973374667E+00    0.8003778067E-02    0.1618573712E-02    0.6021198420E-01    0.6621233454E+00
    0.7000000000E+04    0.6031268217E+00    0.6833580831E-02    0.1348929982E-02    0.6082879787E-01    0.6670054073E+00
    0.9000000000E+04    0.6063561055E+00    0.6070861348E-02    0.1178157798E-02    0.6118002075E-01    0.6699528794E+00
    0.1100000000E+05    0.6084131726E+00    0.5522134825E-02    0.1057805741E-02    0.6140832457E-01    0.6719552620E+00
    0.1300000000E+05    0.6098369736E+00    0.5102449795E-02    0.9672000003E-03    0.6156952037E-01    0.6734189701E+00
    0.1500000000E+05    0.6108802298E+00    0.4767763016E-02    0.8958555021E-03    0.6168996728E-01    0.6745437598E+00
    0.1700000000E+05    0.6116770898E+00    0.4492620354E-02    0.8378181542E-03    0.6178375665E-01    0.6754400700E+00
    0.1900000000E+05    0.6123053366E+00    0.4261133109E-02    0.7894247306E-03    0.6185911664E-01    0.6761742829E+00
    0.2100000000E+05    0.6128131634E+00    0.4062794728E-02    0.7482822224E-03    0.6192118091E-01    0.6767888796E+00
    0.2300000000E+05    0.6132320149E+00    0.3890338783E-02    0.7127528219E-03    0.6197332224E-01    0.6773124056E+00
    0.2500000000E+05    0.6135832773E+00    0.3738555728E-02    0.6816729878E-03    0.6201785041E-01    0.6777648079E+00
    0.2700000000E+05    0.6138820006E+00    0.3603598881E-02    0.6541904620E-03    0.6205640193E-01    0.6781604791E+00
    0.2900000000E+05    0.6141390814E+00    0.3482557040E-02    0.6296648689E-03    0.6209016980E-01    0.6785100869E+00
    0.3100000000E+05    0.6143626027E+00    0.3373180455E-02    0.6076045278E-03    0.6212004492E-01    0.6788217193E+00
    0.3300000000E+05    0.6145586861E+00    0.3273699039E-02    0.5876248569E-03    0.6214670657E-01    0.6791016296E+00
    0.3500000000E+05    0.6147320524E+00    0.3182698203E-02    0.5694201626E-03    0.6217068211E-01    0.6793547355E+00
    0.3700000000E+05    0.6148864003E+00    0.3099031887E-02    0.5527440039E-03    0.6219238743E-01    0.6795849618E+00
    0.3900000000E+05    0.6150246685E+00    0.3021760289E-02    0.5373952152E-03    0.6221215518E-01    0.6797954825E+00
    0.4100000000E+05    0.6151492212E+00    0.2950104391E-02    0.5232077563E-03    0.6223025474E-01    0.6799888949E+00
    0.4300000000E+05    0.6152619819E+00    0.2883412189E-02    0.5100432093E-03    0.6224690670E-01    0.6801673462E+00
    0.4500000000E+05    0.6153645315E+00    0.2821133210E-02    0.4977851458E-03    0.6226229354E-01    0.6803326288E+00
    0.4700000000E+05    0.6154581809E+00    0.2762799019E-02    0.4863348349E-03    0.6227656756E-01    0.6804862515E+00
    0.4900000000E+05    0.6155440266E+00    0.2708008118E-02    0.4756079332E-03    0.6228985697E-01    0.6806294946E+00
    0.1000000000E+05    0.6074874447E+00    0.5776444531E-02    0.1113319481E-02    0.6130501849E-01    0.6710396699E+00
    0.3000000000E+05    0.6142546161E+00    0.3426530788E-02    0.6183527067E-03    0.6210554735E-01    0.6786702229E+00
    0.5000000000E+05    0.6155843176E+00    0.2681831271E-02    0.4704926896E-03    0.6229616708E-01    0.6806975718E+00
    0.7000000000E+05    0.6161434475E+00    0.2280722524E-02    0.3929187742E-03    0.6239008206E-01    0.6817117848E+00
    0.9000000000E+05    0.6164480905E+00    0.2020271308E-02    0.3434084024E-03    0.6244894530E-01    0.6823413125E+00
    0.1100000000E+06    0.6166381334E+00    0.1833583362E-02    0.3083737465E-03    0.6249063469E-01    0.6827785223E+00
    0.1300000000E+06    0.6167670469E+00    0.1691260928E-02    0.2819380983E-03    0.6252241692E-01    0.6831039752E+00
    0.1500000000E+06    0.6168596302E+00    0.1578080163E-02    0.2610946679E-03    0.6254786175E-01    0.6833579416E+00
    0.1700000000E+06    0.6169289309E+00    0.1485259513E-02    0.2441258339E-03    0.6256895257E-01    0.6835630184E+00
    0.1900000000E+06    0.6169824557E+00    0.1407329254E-02    0.2299704368E-03    0.6258689145E-01    0.6837329674E+00
    0.2100000000E+06    0.6170248225E+00    0.1340680320E-02    0.2179331974E-03    0.6260245570E-01    0.6838766999E+00
    0.2300000000E+06    0.6170590241E+00    0.1282821859E-02    0.2075372117E-03    0.6261617379E-01    0.6840002680E+00
    0.2500000000E+06    0.6170870824E+00    0.1231971613E-02    0.1984431191E-03    0.6262841973E-01    0.6841079420E+00
    0.2700000000E+06    0.6171104112E+00    0.1186815998E-02    0.1904020406E-03    0.6263946697E-01    0.6842028307E+00
    0.2900000000E+06    0.6171300276E+00    0.1146362581E-02    0.1832267955E-03    0.6264952097E-01    0.6842872571E+00
    0.3100000000E+06    0.6171466814E+00    0.1109845640E-02    0.1767735621E-03    0.6265873967E-01    0.6843629961E+00
    0.3300000000E+06    0.6171609368E+00    0.1076663596E-02    0.1709297843E-03    0.6266724689E-01    0.6844314296E+00
    0.3500000000E+06    0.6171732263E+00    0.1046336350E-02    0.1656059562E-03    0.6267514136E-01    0.6844936516E+00
    0.3700000000E+06    0.6171838863E+00    0.1018475433E-02    0.1607298975E-03    0.6268250299E-01    0.6845505406E+00
    0.3900000000E+06    0.6171931828E+00    0.9927626699E-03    0.1562426746E-03    0.6268939728E-01    0.6846028114E+00
    0.4100000000E+06    0.6172013281E+00    0.9689346130E-03    0.1520956352E-03    0.6269587858E-01    0.6846510518E+00
    0.4300000000E+06    0.6172084940E+00    0.9467709967E-03    0.1482482158E-03    0.6270199242E-01    0.6846957506E+00
    0.4500000000E+06    0.6172148208E+00    0.9260860374E-03    0.1446662938E-03    0.6270777733E-01    0.6847373176E+00
    0.4700000000E+06    0.6172204239E+00    0.9067217838E-03    0.1413209320E-03    0.6271326615E-01    0.6847760997E+00
    0.4900000000E+06    0.6172253995E+00    0.8885429721E-03    0.1381874093E-03    0.6271848713E-01    0.6848123921E+00
    0.1000000000E+06    0.6165530855E+00    0.1920024364E-02    0.3245465578E-03    0.6247135443E-01    0.6825775383E+00
    0.3000000000E+06    0.6171386860E+00    0.1127652921E-02    0.1799175838E-03    0.6265422632E-01    0.6843261183E+00
    0.5000000000E+06    0.6172276776E+00    0.8798610312E-03    0.1366933254E-03    0.6272100495E-01    0.6848296854E+00
    0.7000000000E+06    0.6172542984E+00    0.7470795493E-03    0.1140504112E-03    0.6276181787E-01    0.6850909806E+00
    0.9000000000E+06    0.6172627338E+00    0.6611096002E-03    0.9961605259E-04    0.6279117041E-01    0.6852569487E+00
    0.1100000000E+07    0.6172640623E+00    0.5996044277E-03    0.8941123686E-04    0.6281407574E-01    0.6853741256E+00
    0.1300000000E+07    0.6172621838E+00    0.5527795211E-03    0.8171661564E-04    0.6283285127E-01    0.6854624542E+00
    0.1500000000E+07    0.6172587523E+00    0.5155809053E-03    0.7565322650E-04    0.6284875657E-01    0.6855320776E+00
    0.1700000000E+07    0.6172545557E+00    0.4850988995E-03    0.7071932968E-04    0.6286255179E-01    0.6855887663E+00
    0.1900000000E+07    0.6172499998E+00    0.4595238914E-03    0.6660514222E-04    0.6287473067E-01    0.6856360750E+00
    0.2100000000E+07    0.6172453047E+00    0.4376633062E-03    0.6310780395E-04    0.6288563197E-01    0.6856763275E+00
    0.2300000000E+07    0.6172405934E+00    0.4186949020E-03    0.6008823693E-04    0.6289549809E-01    0.6857111154E+00
    0.2500000000E+07    0.6172359358E+00    0.4020308500E-03    0.5744751699E-04    0.6290450850E-01    0.6857415697E+00
    0.2700000000E+07    0.6172313714E+00    0.3872382192E-03    0.5511312327E-04    0.6291279971E-01    0.6857685192E+00
    0.2900000000E+07    0.6172269217E+00    0.3739901338E-03    0.5303053194E-04    0.6292047803E-01    0.6857925869E+00
    0.3100000000E+07    0.6172225973E+00    0.3620345302E-03    0.5115786236E-04    0.6292762781E-01    0.6858142510E+00
    0.3300000000E+07    0.6172184025E+00    0.3511734783E-03    0.4946234761E-04    0.6293431711E-01    0.6858338860E+00
    0.3500000000E+07    0.6172143374E+00    0.3412490870E-03    0.4791793783E-04    0.6294060166E-01    0.6858517892E+00
    0.3700000000E+07    0.6172103996E+00    0.3321336525E-03    0.4650363068E-04    0.6294652763E-01    0.6858682006E+00
    0.3900000000E+07    0.6172065855E+00    0.3237226167E-03    0.4520228193E-04    0.6295213376E-01    0.6858833161E+00
    0.4100000000E+07    0.6172028905E+00    0.3159294353E-03    0.4399974121E-04    0.6295745278E-01    0.6858972974E+00
    0.4300000000E+07    0.6171993096E+00    0.3086817718E-03    0.4288421297E-04    0.6296251269E-01    0.6859102794E+00
    0.4500000000E+07    0.6171958377E+00    0.3019186310E-03    0.4184577640E-04    0.6296733756E-01    0.6859223754E+00
    0.4700000000E+07    0.6171924699E+00    0.2955881690E-03    0.4087601966E-04    0.6297194825E-01    0.6859336816E+00
    0.4900000000E+07    0.6171892009E+00    0.2896459994E-03    0.3996775763E-04    0.6297636299E-01    0.6859442804E+00
    0.1000000000E+07    0.6172639620E+00    0.6280708493E-03    0.9412101425E-04    0.6280324880E-01    0.6853200552E+00
    0.3000000000E+07    0.6172247434E+00    0.3678642208E-03    0.5207018606E-04    0.6292411440E-01    0.6858036939E+00
    0.5000000000E+07    0.6171876021E+00    0.2868083603E-03    0.3953472198E-04    0.6297850194E-01    0.6859493369E+00
    0.7000000000E+07    0.6171597775E+00    0.2434298414E-03    0.3297439911E-04    0.6301401810E-01    0.6860262426E+00
    0.9000000000E+07    0.6171377769E+00    0.2153640302E-03    0.2879466492E-04    0.6304043843E-01    0.6860755979E+00
    0.1100000000E+08    0.6171196280E+00    0.1952942405E-03    0.2584077800E-04    0.6306148567E-01    0.6861106908E+00
    0.1300000000E+08    0.6171041949E+00    0.1800198138E-03    0.2361410185E-04    0.6307898092E-01    0.6861372828E+00
    0.1500000000E+08    0.6170907748E+00    0.1678885558E-03    0.2185984410E-04    0.6309395220E-01    0.6861583293E+00
    0.1700000000E+08    0.6170789045E+00    0.1579497039E-03    0.2043261293E-04    0.6310703711E-01    0.6861755223E+00
    0.1900000000E+08    0.6170682639E+00    0.1496121656E-03    0.1924266625E-04    0.6311865851E-01    0.6861899098E+00
    0.2100000000E+08    0.6170586222E+00    0.1424865111E-03    0.1823125040E-04    0.6312911127E-01    0.6862021798E+00
    0.2300000000E+08    0.6170498080E+00    0.1363043059E-03    0.1735809256E-04    0.6313860924E-01    0.6862128053E+00
    0.2500000000E+08    0.6170416905E+00    0.1308736829E-03    0.1659455199E-04    0.6314731244E-01    0.6862221233E+00
    0.2700000000E+08    0.6170341676E+00    0.1260533582E-03    0.1591963534E-04    0.6315534377E-01    0.6862303816E+00
