  Pressure (Pa) 22mC5-400 (mol/kg) 2mC6-400 (mol/kg) 33mC5-400 (mol/kg) 23mC5-400 (mol/kg) C7-400 (mol/kg)
    0.1000000000E+01    0.3703780958E-02    0.7911941829E-03    0.2576889682E-03    0.2787190522E-03    0.8526804534E-02
    0.3000000000E+01    0.1096075896E-01    0.2301386933E-02    0.7496405725E-03    0.8248348264E-03    0.2489986995E-01
    0.5000000000E+01    0.1802423361E-01    0.3721447675E-02    0.1212344884E-02    0.1356401054E-02    0.4042518057E-01
    0.7000000000E+01    0.2490249126E-01    0.5058100283E-02    0.1647982373E-02    0.1874040647E-02    0.5516786153E-01
    0.9000000000E+01    0.3160334354E-01    0.6317426332E-02    0.2058524873E-02    0.2378340831E-02    0.6918650992E-01
    0.1100000000E+02    0.3813416075E-01    0.7504940839E-02    0.2445760228E-02    0.2869855663E-02    0.8253399353E-01
    0.1300000000E+02    0.4450190242E-01    0.8625657388E-02    0.2811313480E-02    0.3349108323E-02    0.9525813515E-01
    0.1500000000E+02    0.5071314553E-01    0.9684144370E-02    0.3156665163E-02    0.3816593235E-02    0.1074023010E+00
    0.1700000000E+02    0.5677411028E-01    0.1068457372E-01    0.3483167147E-02    0.4272778010E-02    0.1190059087E+00
    0.1900000000E+02    0.6269068398E-01    0.1163076331E-01    0.3792056428E-02    0.4718105232E-02    0.1301048673E+00
    0.2100000000E+02    0.6846844293E-01    0.1252621394E-01    0.4084467153E-02    0.5152994109E-02    0.1407319596E+00
    0.2300000000E+02    0.7411267269E-01    0.1337414177E-01    0.4361441146E-02    0.5577841996E-02    0.1509171755E+00
    0.2500000000E+02    0.7962838676E-01    0.1417750674E-01    0.4623937163E-02    0.5993025796E-02    0.1606880042E+00
    0.2700000000E+02    0.8502034385E-01    0.1493903767E-01    0.4872839033E-02    0.6398903263E-02    0.1700696891E+00
    0.2900000000E+02    0.9029306390E-01    0.1566125441E-01    0.5108962851E-02    0.6795814197E-02    0.1790854539E+00
    0.3100000000E+02    0.9545084282E-01    0.1634648748E-01    0.5333063360E-02    0.7184081565E-02    0.1877567001E+00
    0.3300000000E+02    0.1004977663E+00    0.1699689546E-01    0.5545839600E-02    0.7564012525E-02    0.1961031832E+00
    0.3500000000E+02    0.1054377224E+00    0.1761448056E-01    0.5747939955E-02    0.7935899386E-02    0.2041431680E+00
    0.3700000000E+02    0.1102744135E+00    0.1820110247E-01    0.5939966646E-02    0.8300020498E-02    0.2118935669E+00
    0.3900000000E+02    0.1150113674E+00    0.1875849072E-01    0.6122479752E-02    0.8656641076E-02    0.2193700632E+00
    0.4100000000E+02    0.1196519471E+00    0.1928825585E-01    0.6296000816E-02    0.9006013967E-02    0.2265872208E+00
    0.4300000000E+02    0.1241993609E+00    0.1979189935E-01    0.6461016085E-02    0.9348380371E-02    0.2335585825E+00
    0.4500000000E+02    0.1286566708E+00    0.2027082264E-01    0.6617979423E-02    0.9683970500E-02    0.2402967586E+00
    0.4700000000E+02    0.1330268010E+00    0.2072633526E-01    0.6767314940E-02    0.1001300421E-01    0.2468135054E+00
    0.4900000000E+02    0.1373125456E+00    0.2115966210E-01    0.6909419368E-02    0.1033569155E-01    0.2531197968E+00
    0.1000000000E+02    0.3488956227E-01    0.6919835626E-02    0.2254950790E-02    0.2625663019E-02    0.7594104747E-01
    0.3000000000E+02    0.9288606087E-01    0.1600835516E-01    0.5222471086E-02    0.6991008771E-02    0.1834628704E+00
    0.5000000000E+02    0.1394246127E+00    0.2136836715E-01    0.6977876951E-02    0.1049471845E-01    0.2561972531E+00
    0.7000000000E+02    0.1778265287E+00    0.2462064760E-01    0.8046101587E-02    0.1338649359E-01    0.3088626174E+00
    0.9000000000E+02    0.2102103093E+00    0.2659829030E-01    0.8697148641E-02    0.1582561636E-01    0.3488729016E+00
    0.1100000000E+03    0.2379939253E+00    0.2776912765E-01    0.9082908062E-02    0.1791870494E-01    0.3803745085E+00
    0.1300000000E+03    0.2621650528E+00    0.2841280078E-01    0.9294414126E-02    0.1974002751E-01    0.4058709462E+00
    0.1500000000E+03    0.2834350814E+00    0.2870437557E-01    0.9388856028E-02    0.2134307988E-01    0.4269650222E+00
    0.1700000000E+03    0.3023312024E+00    0.2875740119E-01    0.9403481528E-02    0.2276750851E-01    0.4447315941E+00
    0.1900000000E+03    0.3192537675E+00    0.2864759498E-01    0.9363246509E-02    0.2404342276E-01    0.4599191088E+00
    0.2100000000E+03    0.3345132948E+00    0.2842656533E-01    0.9285250742E-02    0.2519417719E-01    0.4730652187E+00
    0.2300000000E+03    0.3483550892E+00    0.2813010385E-01    0.9181421971E-02    0.2623822261E-01    0.4845664150E+00
    0.2500000000E+03    0.3609760736E+00    0.2778337268E-01    0.9060198247E-02    0.2719037160E-01    0.4947217096E+00
    0.2700000000E+03    0.3725365744E+00    0.2740424523E-01    0.8927614041E-02    0.2806268469E-01    0.5037610031E+00
    0.2900000000E+03    0.3831687555E+00    0.2700551156E-01    0.8788019294E-02    0.2886510446E-01    0.5118640655E+00
    0.3100000000E+03    0.3929827716E+00    0.2659636534E-01    0.8644565858E-02    0.2960591829E-01    0.5191735694E+00
    0.3300000000E+03    0.4020713364E+00    0.2618342494E-01    0.8499542786E-02    0.3029210185E-01    0.5258042456E+00
    0.3500000000E+03    0.4105131702E+00    0.2577144597E-01    0.8354611244E-02    0.3092957831E-01    0.5318494458E+00
    0.3700000000E+03    0.4183756383E+00    0.2536382534E-01    0.8210971446E-02    0.3152341680E-01    0.5373859329E+00
    0.3900000000E+03    0.4257167976E+00    0.2496296230E-01    0.8069482788E-02    0.3207798629E-01    0.5424774330E+00
    0.4100000000E+03    0.4325870037E+00    0.2457051979E-01    0.7930751248E-02    0.3259707645E-01    0.5471773098E+00
    0.4300000000E+03    0.4390301863E+00    0.2418761537E-01    0.7795193595E-02    0.3308399356E-01    0.5515306028E+00
    0.4500000000E+03    0.4450848727E+00    0.2381496191E-01    0.7663084956E-02    0.3354163749E-01    0.5555756018E+00
    0.4700000000E+03    0.4507850156E+00    0.2345297193E-01    0.7534594319E-02    0.3397256397E-01    0.5593450749E+00
    0.4900000000E+03    0.4561606698E+00    0.2310183543E-01    0.7409811193E-02    0.3437903546E-01    0.5628672367E+00
    0.1000000000E+03    0.2246075226E+00    0.2726392718E-01    0.8916479114E-02    0.1691018031E-01    0.3655035556E+00
    0.3000000000E+03    0.3881718758E+00    0.2680177558E-01    0.8716614773E-02    0.2924274878E-01    0.5156102739E+00
    0.5000000000E+03    0.4587352790E+00    0.2293035048E-01    0.7348821248E-02    0.3457373787E-01    0.5645433408E+00
    0.7000000000E+03    0.4983382126E+00    0.2003043395E-01    0.6313667769E-02    0.3757138753E-01    0.5895844630E+00
    0.9000000000E+03    0.5235814370E+00    0.1792631988E-01    0.5560791757E-02    0.3948573919E-01    0.6050443261E+00
    0.1100000000E+04    0.5410046764E+00    0.1634747478E-01    0.4997441358E-02    0.4080957816E-01    0.6156431351E+00
    0.1300000000E+04    0.5537165036E+00    0.1511880540E-01    0.4561556142E-02    0.4177730063E-01    0.6234144905E+00
    0.1500000000E+04    0.5633801449E+00    0.1413231692E-01    0.4214152428E-02    0.4251440148E-01    0.6293861201E+00
    0.1700000000E+04    0.5709633684E+00    0.1331969744E-01    0.3930296180E-02    0.4309394888E-01    0.6341362916E+00
    0.1900000000E+04    0.5770661395E+00    0.1263611162E-01    0.3693513992E-02    0.4356127059E-01    0.6380166368E+00
    0.2100000000E+04    0.5820794377E+00    0.1205104852E-01    0.3492555933E-02    0.4394592445E-01    0.6412539438E+00
    0.2300000000E+04    0.5862685611E+00    0.1154305713E-01    0.3319502052E-02    0.4426797981E-01    0.6440014093E+00
    0.2500000000E+04    0.5898196489E+00    0.1109661769E-01    0.3168623752E-02    0.4454152693E-01    0.6463664590E+00
    0.2700000000E+04    0.5928670293E+00    0.1070021711E-01    0.3035677431E-02    0.4477674073E-01    0.6484267801E+00
    0.2900000000E+04    0.5955099987E+00    0.1034512573E-01    0.2917452791E-02    0.4498114747E-01    0.6502400265E+00
    0.3100000000E+04    0.5978234968E+00    0.1002459620E-01    0.2811475771E-02    0.4516043099E-01    0.6518499380E+00
    0.3300000000E+04    0.5998651149E+00    0.9733324447E-02    0.2715808100E-02    0.4531896219E-01    0.6532903342E+00
    0.3500000000E+04    0.6016798226E+00    0.9467078082E-02    0.2628908882E-02    0.4546015629E-01    0.6545878007E+00
    0.3700000000E+04    0.6033032339E+00    0.9222434573E-02    0.2549536986E-02    0.4558671980E-01    0.6557635429E+00
    0.3900000000E+04    0.6047639116E+00    0.8996593097E-02    0.2476680904E-02    0.4570082476E-01    0.6568346935E+00
    0.4100000000E+04    0.6060850244E+00    0.8787236919E-02    0.2409507471E-02    0.4580423424E-01    0.6578152551E+00
    0.4300000000E+04    0.6072855591E+00    0.8592431098E-02    0.2347323787E-02    0.4589839398E-01    0.6587167910E+00
    0.4500000000E+04    0.6083812203E+00    0.8410545333E-02    0.2289548538E-02    0.4598450064E-01    0.6595489388E+00
    0.4700000000E+04    0.6093851084E+00    0.8240194992E-02    0.2235690108E-02    0.4606355308E-01    0.6603198001E+00
    0.4900000000E+04    0.6103082365E+00    0.8080195481E-02    0.2185329688E-02    0.4613639159E-01    0.6610362372E+00
    0.1000000000E+04    0.5330286104E+00    0.1708416440E-01    0.5259975571E-02    0.4020323278E-01    0.6107900106E+00
    0.3000000000E+04    0.5967039897E+00    0.1018090106E-01    0.2863065165E-02    0.4507363052E-01    0.6510680894E+00
    0.5000000000E+04    0.6107424863E+00    0.8003752852E-02    0.2161346953E-02    0.4617070741E-01    0.6613759104E+00
    0.7000000000E+04    0.6168440746E+00    0.6831521031E-02    0.1800070365E-02    0.4665741979E-01    0.6663662855E+00
    0.9000000000E+04    0.6202471091E+00    0.6068275184E-02    0.1571621599E-02    0.4693437584E-01    0.6693864470E+00
    0.1100000000E+05    0.6224148937E+00    0.5519471752E-02    0.1410773879E-02    0.4711431122E-01    0.6714418628E+00
    0.1300000000E+05    0.6239155138E+00    0.5099861504E-02    0.1289756471E-02    0.4724130484E-01    0.6729464281E+00
    0.1500000000E+05    0.6250152790E+00    0.4765300151E-02    0.1194506393E-02    0.4733616507E-01    0.6741039241E+00
    0.1700000000E+05    0.6258555191E+00    0.4490295480E-02    0.1117046590E-02    0.4741001132E-01    0.6750271715E+00
    0.1900000000E+05    0.6265181671E+00    0.4258943805E-02    0.1052473287E-02    0.4746933408E-01    0.6757840629E+00
    0.2100000000E+05    0.6270539809E+00    0.4060732842E-02    0.9975851343E-03    0.4751818163E-01    0.6764180897E+00
    0.2300000000E+05    0.6274960758E+00    0.3888394343E-02    0.9501921978E-03    0.4755921295E-01    0.6769585015E+00
    0.2500000000E+05    0.6278669732E+00    0.3736718619E-02    0.9087393282E-03    0.4759424857E-01    0.6774257530E+00
    0.2700000000E+05    0.6281825213E+00    0.3601859547E-02    0.8720878095E-03    0.4762457808E-01    0.6778346139E+00
    0.2900000000E+05    0.6284541946E+00    0.3480906740E-02    0.8393822653E-03    0.4765114143E-01    0.6781960375E+00
    0.3100000000E+05    0.6286905048E+00    0.3371611323E-02    0.8099660915E-03    0.4767464042E-01    0.6785183336E+00
    0.3300000000E+05    0.6288978985E+00    0.3272204046E-02    0.7833258104E-03    0.4769561008E-01    0.6788079303E+00
    0.3500000000E+05    0.6290813472E+00    0.3181271091E-02    0.7590533424E-03    0.4771446571E-01    0.6790698849E+00
    0.3700000000E+05    0.6292447463E+00    0.3097667087E-02    0.7368197553E-03    0.4773153480E-01    0.6793082358E+00
    0.3900000000E+05    0.6293911908E+00    0.3020452838E-02    0.7163565824E-03    0.4774707926E-01    0.6795262499E+00
    0.4100000000E+05    0.6295231712E+00    0.2948849862E-02    0.6974422587E-03    0.4776131117E-01    0.6797266017E+00
    0.4300000000E+05    0.6296427137E+00    0.2882206623E-02    0.6798920977E-03    0.4777440417E-01    0.6799115030E+00
    0.4500000000E+05    0.6297514835E+00    0.2819973055E-02    0.6635507660E-03    0.4778650189E-01    0.6800828007E+00
    0.4700000000E+05    0.6298508619E+00    0.2761681082E-02    0.6482865525E-03    0.4779772421E-01    0.6802420502E+00
    0.4900000000E+05    0.6299420044E+00    0.2706929520E-02    0.6339869472E-03    0.4780817203E-01    0.6803905714E+00
    0.1000000000E+05    0.6214393191E+00    0.5773789833E-02    0.1484951932E-02    0.4703290156E-01    0.6705016288E+00
    0.3000000000E+05    0.6285763268E+00    0.3424922001E-02    0.8242979435E-03    0.4766323726E-01    0.6783616376E+00
    0.5000000000E+05    0.6299847974E+00    0.2680771351E-02    0.6271680987E-03    0.4781313276E-01    0.6804611679E+00
    0.7000000000E+05    0.6305800748E+00    0.2279936835E-02    0.5237637094E-03    0.4788695485E-01    0.6815137601E+00
    0.9000000000E+05    0.6309061724E+00    0.2019648328E-02    0.4577708782E-03    0.4793321601E-01    0.6821679420E+00
    0.1100000000E+06    0.6311107535E+00    0.1833067784E-02    0.4110735927E-03    0.4796597677E-01    0.6826226659E+00
    0.1300000000E+06    0.6312503491E+00    0.1690821450E-02    0.3758378963E-03    0.4799095068E-01    0.6829613689E+00
    0.1500000000E+06    0.6313512202E+00    0.1577697385E-02    0.3480558849E-03    0.4801094399E-01    0.6832258025E+00
    0.1700000000E+06    0.6314272070E+00    0.1484920594E-02    0.3254381475E-03    0.4802751571E-01    0.6834394130E+00
    0.1900000000E+06    0.6314862857E+00    0.1407025259E-02    0.3065703013E-03    0.4804161061E-01    0.6836164889E+00
    0.2100000000E+06    0.6315333717E+00    0.1340404786E-02    0.2905256449E-03    0.4805383957E-01    0.6837662876E+00
    0.2300000000E+06    0.6315716562E+00    0.1282569960E-02    0.2766685424E-03    0.4806461791E-01    0.6838950988E+00
    0.2500000000E+06    0.6316032993E+00    0.1231739651E-02    0.2645466820E-03    0.4807423953E-01    0.6840073623E+00
    0.2700000000E+06    0.6316298138E+00    0.1186601077E-02    0.2538283495E-03    0.4808291930E-01    0.6841063113E+00
    0.2900000000E+06    0.6316522906E+00    0.1146162393E-02    0.2442640634E-03    0.4809081868E-01    0.6841943626E+00
    0.3100000000E+06    0.6316715349E+00    0.1109658314E-02    0.2356621331E-03    0.4809806176E-01    0.6842733631E+00
    0.3300000000E+06    0.6316881540E+00    0.1076487595E-02    0.2278725389E-03    0.4810474583E-01    0.6843447512E+00
    0.3500000000E+06    0.6317026143E+00    0.1046170395E-02    0.2207759830E-03    0.4811094847E-01    0.6844096658E+00
    0.3700000000E+06    0.6317152794E+00    0.1018318452E-02    0.2142762599E-03    0.4811673246E-01    0.6844690217E+00
    0.3900000000E+06    0.6317264371E+00    0.9926137518E-03    0.2082948193E-03    0.4812214927E-01    0.6845235633E+00
    0.4100000000E+06    0.6317363179E+00    0.9687929784E-03    0.2027668146E-03    0.4812724161E-01    0.6845739028E+00
    0.4300000000E+06    0.6317451085E+00    0.9466359739E-03    0.1976381798E-03    0.4813204524E-01    0.6846205495E+00
    0.4500000000E+06    0.6317529617E+00    0.9259570431E-03    0.1928634340E-03    0.4813659044E-01    0.6846639305E+00
    0.4700000000E+06    0.6317600035E+00    0.9065983084E-03    0.1884040073E-03    0.4814090302E-01    0.6847044069E+00
    0.4900000000E+06    0.6317663391E+00    0.8884245678E-03    0.1842269492E-03    0.4814500515E-01    0.6847422867E+00
    0.1000000000E+06    0.6310190539E+00    0.1919460086E-02    0.4326301080E-03    0.4795082608E-01    0.6824135903E+00
    0.3000000000E+06    0.6316622750E+00    0.1127459374E-02    0.2398530087E-03    0.4809451564E-01    0.6842348962E+00
    0.5000000000E+06    0.6317692701E+00    0.8797450112E-03    0.1822352952E-03    0.4814698341E-01    0.6847603370E+00
    0.7000000000E+06    0.6318062283E+00    0.7469969511E-03    0.1520512070E-03    0.4817905058E-01    0.6850331114E+00
    0.9000000000E+06    0.6318218422E+00    0.6610455808E-03    0.1328090208E-03    0.4820211363E-01    0.6852064039E+00
    0.1100000000E+07    0.6318286469E+00    0.5995522205E-03    0.1192049129E-03    0.4822011122E-01    0.6853287621E+00
    0.1300000000E+07    0.6318311865E+00    0.5527354798E-03    0.1089470189E-03    0.4823486406E-01    0.6854209990E+00
    0.1500000000E+07    0.6318314535E+00    0.5155428425E-03    0.1008636722E-03    0.4824736176E-01    0.6854937031E+00
    0.1700000000E+07    0.6318304356E+00    0.4850654009E-03    0.9428603733E-04    0.4825820156E-01    0.6855528993E+00
    0.1900000000E+07    0.6318286655E+00    0.4594939902E-03    0.8880115815E-04    0.4826777138E-01    0.6856022992E+00
    0.2100000000E+07    0.6318264492E+00    0.4376363125E-03    0.8413860882E-04    0.4827633737E-01    0.6856443297E+00
    0.2300000000E+07    0.6318239702E+00    0.4186703064E-03    0.8011298761E-04    0.4828408999E-01    0.6856806529E+00
    0.2500000000E+07    0.6318213427E+00    0.4020082658E-03    0.7659241977E-04    0.4829117025E-01    0.6857124500E+00
    0.2700000000E+07    0.6318186397E+00    0.3872173460E-03    0.7348022785E-04    0.4829768542E-01    0.6857405867E+00
    0.2900000000E+07    0.6318159084E+00    0.3739707336E-03    0.7070372569E-04    0.4830371901E-01    0.6857657136E+00
    0.3100000000E+07    0.6318131798E+00    0.3620164112E-03    0.6820708155E-04    0.4830933730E-01    0.6857883304E+00
    0.3300000000E+07    0.6318104743E+00    0.3511564838E-03    0.6594661312E-04    0.4831459377E-01    0.6858088278E+00
    0.3500000000E+07    0.6318078055E+00    0.3412330873E-03    0.6388759258E-04    0.4831953220E-01    0.6858275167E+00
    0.3700000000E+07    0.6318051817E+00    0.3321185391E-03    0.6200202095E-04    0.4832418889E-01    0.6858446477E+00
    0.3900000000E+07    0.6318026086E+00    0.3237082977E-03    0.6026704257E-04    0.4832859424E-01    0.6858604254E+00
    0.4100000000E+07    0.6318000891E+00    0.3159158325E-03    0.5866379293E-04    0.4833277401E-01    0.6858750186E+00
    0.4300000000E+07    0.6317976249E+00    0.3086688179E-03    0.5717654680E-04    0.4833675017E-01    0.6858885682E+00
    0.4500000000E+07    0.6317952165E+00    0.3019062677E-03    0.5579207820E-04    0.4834054164E-01    0.6859011927E+00
    0.4700000000E+07    0.6317928635E+00    0.2955763455E-03    0.5449917282E-04    0.4834416482E-01    0.6859129925E+00
    0.4900000000E+07    0.6317905654E+00    0.2896346712E-03    0.5328825172E-04    0.4834763402E-01    0.6859240536E+00
    0.1000000000E+07    0.6318259707E+00    0.6280133285E-03    0.1254835750E-03    0.4821160405E-01    0.6852723002E+00
    0.3000000000E+07    0.6318145423E+00    0.3678454828E-03    0.6942339306E-04    0.4830657646E-01    0.6857773092E+00
    0.5000000000E+07    0.6317894365E+00    0.2867972648E-03    0.5271091539E-04    0.4834931486E-01    0.6859293305E+00
    0.7000000000E+07    0.6317693839E+00    0.2434219903E-03    0.4396443616E-04    0.4837722466E-01    0.6860095761E+00
    0.9000000000E+07    0.6317531325E+00    0.2153579689E-03    0.3839179465E-04    0.4839798701E-01    0.6860610604E+00
    0.1100000000E+08    0.6317395477E+00    0.1952893118E-03    0.3445349047E-04    0.4841452716E-01    0.6860976584E+00
    0.1300000000E+08    0.6317278997E+00    0.1800156656E-03    0.3148473378E-04    0.4842827609E-01    0.6861253854E+00
    0.1500000000E+08    0.6317177130E+00    0.1678849776E-03    0.2914582856E-04    0.4844004162E-01    0.6861473264E+00
    0.1700000000E+08    0.6317086651E+00    0.1579465601E-03    0.2724293333E-04    0.4845032478E-01    0.6861652475E+00
    0.1900000000E+08    0.6317005284E+00    0.1496093636E-03    0.2565640014E-04    0.4845945785E-01    0.6861802422E+00
    0.2100000000E+08    0.6316931370E+00    0.1424839851E-03    0.2430789579E-04    0.4846767256E-01    0.6861930285E+00
    0.2300000000E+08    0.6316863661E+00    0.1363020073E-03    0.2314372646E-04    0.4847513694E-01    0.6862040998E+00
    0.2500000000E+08    0.6316801197E+00    0.1308715747E-03    0.2212570670E-04    0.4848197676E-01    0.6862138078E+00
    0.2700000000E+08    0.6316743226E+00    0.1260514120E-03    0.2122584691E-04    0.4848828858E-01    0.6862224110E+00
