  Pressure (Pa) 22mC5-400 (mol/kg) 2mC6-400 (mol/kg) 33mC5-400 (mol/kg) 23mC5-400 (mol/kg) C7-400 (mol/kg)
    0.1000000000E+01    0.3693457736E-02    0.3954884408E-02    0.2576050720E-03    0.9264750985E-04    0.5122043401E-02
    0.3000000000E+01    0.1087184477E-01    0.1149813549E-01    0.7489515684E-03    0.2727155103E-03    0.1499145581E-01
    0.5000000000E+01    0.1778768279E-01    0.1858531925E-01    0.1210601563E-02    0.4462023420E-03    0.2439277122E-01
    0.7000000000E+01    0.2445810039E-01    0.2525212720E-01    0.1644876347E-02    0.6135372933E-03    0.3336046177E-01
    0.9000000000E+01    0.3089872439E-01    0.3153073276E-01    0.2053868438E-02    0.7751120179E-03    0.4192565186E-01
    0.1100000000E+02    0.3712384123E-01    0.3745020873E-01    0.2439468735E-02    0.9312845788E-03    0.5011651657E-01
    0.1300000000E+02    0.4314653799E-01    0.4303688713E-01    0.2803389919E-02    0.1082382982E-02    0.5795862451E-01
    0.1500000000E+02    0.4897882606E-01    0.4831467037E-01    0.3147186691E-02    0.1228708276E-02    0.6547523375E-01
    0.1700000000E+02    0.5463174974E-01    0.5330530137E-01    0.3472273333E-02    0.1370537273E-02    0.7268754832E-01
    0.1900000000E+02    0.6011548209E-01    0.5802859856E-01    0.3779938996E-02    0.1508124951E-02    0.7961494121E-01
    0.2100000000E+02    0.6543940953E-01    0.6250266115E-01    0.4071361047E-02    0.1641706571E-02    0.8627514882E-01
    0.2300000000E+02    0.7061220677E-01    0.6674404892E-01    0.4347616753E-02    0.1771499562E-02    0.9268444118E-01
    0.2500000000E+02    0.7564190343E-01    0.7076793996E-01    0.4609693548E-02    0.1897705181E-02    0.9885777123E-01
    0.2700000000E+02    0.8053594318E-01    0.7458826971E-01    0.4858498065E-02    0.2020510004E-02    0.1048089063E+00
    0.2900000000E+02    0.8530123667E-01    0.7821785355E-01    0.5094864111E-02    0.2140087244E-02    0.1105505438E+00
    0.3100000000E+02    0.8994420865E-01    0.8166849537E-01    0.5319559725E-02    0.2256597939E-02    0.1160944142E+00
    0.3300000000E+02    0.9447084030E-01    0.8495108380E-01    0.5533293435E-02    0.2370192009E-02    0.1214513716E+00
    0.3500000000E+02    0.9888670713E-01    0.8807567782E-01    0.5736719823E-02    0.2481009208E-02    0.1266314748E+00
    0.3700000000E+02    0.1031970132E+00    0.9105158291E-01    0.5930444477E-02    0.2589179977E-02    0.1316440592E+00
    0.3900000000E+02    0.1074066215E+00    0.9388741920E-01    0.6115028422E-02    0.2694826216E-02    0.1364978012E+00
    0.4100000000E+02    0.1115200824E+00    0.9659118226E-01    0.6290992068E-02    0.2798061976E-02    0.1412007758E+00
    0.4300000000E+02    0.1155416577E+00    0.9917029769E-01    0.6458818769E-02    0.2898994092E-02    0.1457605081E+00
    0.4500000000E+02    0.1194753442E+00    0.1016316701E+00    0.6618957996E-02    0.2997722745E-02    0.1501840197E+00
    0.4700000000E+02    0.1233248938E+00    0.1039817273E+00    0.6771828210E-02    0.3094341982E-02    0.1544778706E+00
    0.4900000000E+02    0.1270938324E+00    0.1062264597E+00    0.6917819442E-02    0.3188940185E-02    0.1586481965E+00
    0.1000000000E+02    0.3403737668E-01    0.3453365582E-01    0.2249481592E-02    0.8538524022E-03    0.4606621944E-01
    0.3000000000E+02    0.8763762910E-01    0.7996484127E-01    0.5208625113E-02    0.2198716291E-02    0.1133465020E+00
    0.5000000000E+02    0.1289491168E+00    0.1073110905E+00    0.6988350129E-02    0.3235507573E-02    0.1606888476E+00
    0.7000000000E+02    0.1625324017E+00    0.1246494433E+00    0.8114359278E-02    0.4078540552E-02    0.1962349029E+00
    0.9000000000E+02    0.1908494809E+00    0.1359836707E+00    0.8847466727E-02    0.4789530942E-02    0.2241729801E+00
    0.1100000000E+03    0.2153557000E+00    0.1435009317E+00    0.9330311000E-02    0.5404962144E-02    0.2468878660E+00
    0.1300000000E+03    0.2369730404E+00    0.1484848368E+00    0.9646721506E-02    0.5947947800E-02    0.2658427462E+00
    0.1500000000E+03    0.2563185497E+00    0.1517313378E+00    0.9848765130E-02    0.6433957508E-02    0.2819883872E+00
    0.1700000000E+03    0.2738241031E+00    0.1537559085E+00    0.9970224276E-02    0.6873818832E-02    0.2959713671E+00
    0.1900000000E+03    0.2898034627E+00    0.1549042751E+00    0.1003380358E-01    0.7275398314E-02    0.3082479810E+00
    0.2100000000E+03    0.3044918984E+00    0.1554150582E+00    0.1005520910E-01    0.7644594700E-02    0.3191502789E+00
    0.2300000000E+03    0.3180706665E+00    0.1554569106E+00    0.1004556834E-01    0.7985952606E-02    0.3289262303E+00
    0.2500000000E+03    0.3306827186E+00    0.1551514203E+00    0.1001292393E-01    0.8303056315E-02    0.3377651529E+00
    0.2700000000E+03    0.3424431148E+00    0.1545877154E+00    0.9963186944E-02    0.8598790860E-02    0.3458143719E+00
    0.2900000000E+03    0.3534461269E+00    0.1538320506E+00    0.9900763404E-02    0.8875520085E-02    0.3531904600E+00
    0.3100000000E+03    0.3637702053E+00    0.1529342595E+00    0.9828976449E-02    0.9135211185E-02    0.3599870189E+00
    0.3300000000E+03    0.3734815320E+00    0.1519321940E+00    0.9750357209E-02    0.9379523763E-02    0.3662801889E+00
    0.3500000000E+03    0.3826366120E+00    0.1508548384E+00    0.9666849168E-02    0.9609874819E-02    0.3721326285E+00
    0.3700000000E+03    0.3912842000E+00    0.1497245316E+00    0.9579954269E-02    0.9827487036E-02    0.3775964416E+00
    0.3900000000E+03    0.3994667554E+00    0.1485585782E+00    0.9490838992E-02    0.1003342527E-01    0.3827153640E+00
    0.4100000000E+03    0.4072215589E+00    0.1473704313E+00    0.9400412444E-02    0.1022862454E-01    0.3875264216E+00
    0.4300000000E+03    0.4145815818E+00    0.1461705732E+00    0.9309384580E-02    0.1041391183E-01    0.3920612039E+00
    0.4500000000E+03    0.4215761709E+00    0.1449671763E+00    0.9218310080E-02    0.1059002323E-01    0.3963468540E+00
    0.4700000000E+03    0.4282315954E+00    0.1437666069E+00    0.9127621774E-02    0.1075761769E-01    0.4004068469E+00
    0.4900000000E+03    0.4345714882E+00    0.1425738101E+00    0.9037656317E-02    0.1091728805E-01    0.4042616071E+00
    0.1000000000E+03    0.2035122353E+00    0.1401243302E+00    0.9113964455E-02    0.5107519004E-02    0.2360764445E+00
    0.3000000000E+03    0.3586886431E+00    0.1533983160E+00    0.9865866330E-02    0.9007385324E-02    0.3566560653E+00
    0.5000000000E+03    0.4376298649E+00    0.1419815578E+00    0.8993028557E-02    0.1099432114E-01    0.4061176975E+00
    0.7000000000E+03    0.4864884771E+00    0.1310919348E+00    0.8175618781E-02    0.1222576103E-01    0.4358221773E+00
    0.9000000000E+03    0.5193599752E+00    0.1222404504E+00    0.7514877304E-02    0.1305539048E-01    0.4565466892E+00
    0.1100000000E+04    0.5427271741E+00    0.1150892522E+00    0.6984608197E-02    0.1364596983E-01    0.4722207154E+00
    0.1300000000E+04    0.5600418697E+00    0.1092125009E+00    0.6552448655E-02    0.1408420858E-01    0.4846891621E+00
    0.1500000000E+04    0.5733010591E+00    0.1042861991E+00    0.6193551502E-02    0.1442029764E-01    0.4949574055E+00
    0.1700000000E+04    0.5837305760E+00    0.1000806245E+00    0.5890150140E-02    0.1468506170E-01    0.5036303345E+00
    0.1900000000E+04    0.5921188376E+00    0.9643327618E-01    0.5629603044E-02    0.1489833605E-01    0.5110985631E+00
    0.2100000000E+04    0.5989928217E+00    0.9322739189E-01    0.5402796317E-02    0.1507338517E-01    0.5176281060E+00
    0.2300000000E+04    0.6047163918E+00    0.9037734521E-01    0.5203037940E-02    0.1521937232E-01    0.5234077881E+00
    0.2500000000E+04    0.6095478826E+00    0.8781902316E-01    0.5025319332E-02    0.1534280643E-01    0.5285761707E+00
    0.2700000000E+04    0.6136751895E+00    0.8550346724E-01    0.4865822425E-02    0.1544842402E-01    0.5332377402E+00
    0.2900000000E+04    0.6172378928E+00    0.8339261040E-01    0.4721586677E-02    0.1553974545E-01    0.5374731013E+00
    0.3100000000E+04    0.6203416314E+00    0.8145636624E-01    0.4590280437E-02    0.1561943637E-01    0.5413456475E+00
    0.3300000000E+04    0.6230676893E+00    0.7967060315E-01    0.4470041187E-02    0.1568954893E-01    0.5449060694E+00
    0.3500000000E+04    0.6254795407E+00    0.7801570757E-01    0.4359361941E-02    0.1575168646E-01    0.5481954883E+00
    0.3700000000E+04    0.6276274138E+00    0.7647554686E-01    0.4257009115E-02    0.1580711837E-01    0.5512476862E+00
    0.3900000000E+04    0.6295515338E+00    0.7503670802E-01    0.4161962209E-02    0.1585686180E-01    0.5540907275E+00
    0.4100000000E+04    0.6312844661E+00    0.7368793022E-01    0.4073368853E-02    0.1590174062E-01    0.5567481596E+00
    0.4300000000E+04    0.6328528363E+00    0.7241967575E-01    0.3990510845E-02    0.1594242881E-01    0.5592399165E+00
    0.4500000000E+04    0.6342786115E+00    0.7122380131E-01    0.3912778170E-02    0.1597948270E-01    0.5615830099E+00
    0.4700000000E+04    0.6355800654E+00    0.7009330308E-01    0.3839648884E-02    0.1601336537E-01    0.5637920632E+00
    0.4900000000E+04    0.6367725158E+00    0.6902211683E-01    0.3770673382E-02    0.1604446517E-01    0.5658797309E+00
    0.1000000000E+04    0.5319698773E+00    0.1184809622E+00    0.7235604561E-02    0.1337398763E-01    0.4648718074E+00
    0.3000000000E+04    0.6188415700E+00    0.8240429036E-01    0.4654443257E-02    0.1558090431E-01    0.5394513024E+00
    0.5000000000E+04    0.6373319860E+00    0.6850708788E-01    0.3737619462E-02    0.1605907604E-01    0.5668815443E+00
    0.7000000000E+04    0.6450831217E+00    0.6033381333E-01    0.3222511888E-02    0.1626320204E-01    0.5825990557E+00
    0.9000000000E+04    0.6493049898E+00    0.5471677051E-01    0.2878597123E-02    0.1637643276E-01    0.5931874310E+00
    0.1100000000E+05    0.6519509419E+00    0.5052364373E-01    0.2627058278E-02    0.1644869853E-01    0.6009702383E+00
    0.1300000000E+05    0.6537611402E+00    0.4722667002E-01    0.2432327647E-02    0.1649903683E-01    0.6070146593E+00
    0.1500000000E+05    0.6550761254E+00    0.4453971557E-01    0.2275585113E-02    0.1653626126E-01    0.6118912458E+00
    0.1700000000E+05    0.6560739747E+00    0.4229149328E-01    0.2145777174E-02    0.1656500943E-01    0.6159372807E+00
    0.1900000000E+05    0.6568567042E+00    0.4037198004E-01    0.2035912613E-02    0.1658795473E-01    0.6193670159E+00
    0.2100000000E+05    0.6574868984E+00    0.3870666391E-01    0.1941317158E-02    0.1660674742E-01    0.6223241314E+00
    0.2300000000E+05    0.6580050558E+00    0.3724295410E-01    0.1858727541E-02    0.1662246208E-01    0.6249091558E+00
    0.2500000000E+05    0.6584385288E+00    0.3594247866E-01    0.1785785174E-02    0.1663582896E-01    0.6271948686E+00
    0.2700000000E+05    0.6588064509E+00    0.3477646519E-01    0.1720736137E-02    0.1664736204E-01    0.6292354616E+00
    0.2900000000E+05    0.6591226040E+00    0.3372284023E-01    0.1662244750E-02    0.1665743386E-01    0.6310722472E+00
    0.3100000000E+05    0.6593971656E+00    0.3276433708E-01    0.1609273085E-02    0.1666632120E-01    0.6327373563E+00
    0.3300000000E+05    0.6596378131E+00    0.3188722102E-01    0.1561000460E-02    0.1667423413E-01    0.6342562139E+00
    0.3500000000E+05    0.6598504467E+00    0.3108040636E-01    0.1516768090E-02    0.1668133509E-01    0.6356492424E+00
    0.3700000000E+05    0.6600396747E+00    0.3033483025E-01    0.1476040097E-02    0.1668775171E-01    0.6369330638E+00
    0.3900000000E+05    0.6602091485E+00    0.2964299900E-01    0.1438375436E-02    0.1669358574E-01    0.6381213660E+00
    0.4100000000E+05    0.6603617987E+00    0.2899865336E-01    0.1403407299E-02    0.1669891933E-01    0.6392255385E+00
    0.4300000000E+05    0.6605000039E+00    0.2839651748E-01    0.1370827743E-02    0.1670381957E-01    0.6402551473E+00
    0.4500000000E+05    0.6606257155E+00    0.2783210774E-01    0.1340376051E-02    0.1670834181E-01    0.6412182949E+00
    0.4700000000E+05    0.6607405487E+00    0.2730158533E-01    0.1311829785E-02    0.1671253215E-01    0.6421218974E+00
    0.4900000000E+05    0.6608458522E+00    0.2680164114E-01    0.1284997839E-02    0.1671642931E-01    0.6429718986E+00
    0.1000000000E+05    0.6507645846E+00    0.5248324531E-01    0.2744066620E-02    0.1641613598E-01    0.5973462310E+00
    0.3000000000E+05    0.6592645552E+00    0.3323262777E-01    0.1635124591E-02    0.1666201116E-01    0.6319245380E+00
    0.5000000000E+05    0.6608952922E+00    0.2656222385E-01    0.1272172213E-02    0.1671827838E-01    0.6433784331E+00
    0.7000000000E+05    0.6615835625E+00    0.2284757179E-01    0.1075216244E-02    0.1674569806E-01    0.6496430642E+00
    0.9000000000E+05    0.6619622199E+00    0.2038865778E-01    0.9470533981E-03    0.1676279591E-01    0.6537460673E+00
    0.1100000000E+06    0.6622013585E+00    0.1860307596E-01    0.8551725709E-03    0.1677487022E-01    0.6567039191E+00
    0.1300000000E+06    0.6623658371E+00    0.1722875401E-01    0.7851773200E-03    0.1678405848E-01    0.6589682364E+00
    0.1500000000E+06    0.6624857401E+00    0.1612769716E-01    0.7295787898E-03    0.1679140570E-01    0.6607746699E+00
    0.1700000000E+06    0.6625769205E+00    0.1521929524E-01    0.6840450777E-03    0.1679749056E-01    0.6622599226E+00
    0.1900000000E+06    0.6626485210E+00    0.1445283330E-01    0.6458731986E-03    0.1680266293E-01    0.6635095233E+00
    0.2100000000E+06    0.6627061827E+00    0.1379457208E-01    0.6132776741E-03    0.1680714859E-01    0.6645801115E+00
    0.2300000000E+06    0.6627535743E+00    0.1322106443E-01    0.5850254222E-03    0.1681110086E-01    0.6655108968E+00
    0.2500000000E+06    0.6627931835E+00    0.1271543380E-01    0.5602338510E-03    0.1681462808E-01    0.6663300072E+00
    0.2700000000E+06    0.6628267570E+00    0.1226517742E-01    0.5382523955E-03    0.1681780941E-01    0.6670582204E+00
    0.2900000000E+06    0.6628555566E+00    0.1186080640E-01    0.5185895793E-03    0.1682070427E-01    0.6677112652E+00
    0.3100000000E+06    0.6628805165E+00    0.1149496988E-01    0.5008662731E-03    0.1682335830E-01    0.6683012984E+00
    0.3300000000E+06    0.6629023431E+00    0.1116187187E-01    0.4847847090E-03    0.1682580727E-01    0.6688378855E+00
    0.3500000000E+06    0.6629215801E+00    0.1085687165E-01    0.4701073372E-03    0.1682807968E-01    0.6693286713E+00
    0.3700000000E+06    0.6629386529E+00    0.1057620305E-01    0.4566420300E-03    0.1683019859E-01    0.6697798493E+00
    0.3900000000E+06    0.6629538991E+00    0.1031677296E-01    0.4442314994E-03    0.1683218291E-01    0.6701964980E+00
    0.4100000000E+06    0.6629675898E+00    0.1007601392E-01    0.4327455784E-03    0.1683404829E-01    0.6705828272E+00
    0.4300000000E+06    0.6629799454E+00    0.9851774321E-02    0.4220754950E-03    0.1683580787E-01    0.6709423597E+00
    0.4500000000E+06    0.6629911466E+00    0.9642235482E-02    0.4121295559E-03    0.1683747275E-01    0.6712780697E+00
    0.4700000000E+06    0.6630013432E+00    0.9445848106E-02    0.4028298497E-03    0.1683905240E-01    0.6715924880E+00
    0.4900000000E+06    0.6630106605E+00    0.9261282949E-02    0.3941096948E-03    0.1684055496E-01    0.6718877836E+00
    0.1000000000E+06    0.6620939500E+00    0.1943225307E-01    0.8977109288E-03    0.1676928947E-01    0.6553326197E+00
    0.3000000000E+06    0.6628684679E+00    0.1167346463E-01    0.5095057194E-03    0.1682205896E-01    0.6680135087E+00
    0.5000000000E+06    0.6630150230E+00    0.9173068792E-02    0.3899486812E-03    0.1684127957E-01    0.6720288552E+00
    0.7000000000E+06    0.6630746473E+00    0.7818392208E-02    0.3266341806E-03    0.1685302547E-01    0.6741897977E+00
    0.9000000000E+06    0.6631060285E+00    0.6935742185E-02    0.2860204358E-03    0.1686147413E-01    0.6755922390E+00
    0.1100000000E+07    0.6631248904E+00    0.6301577071E-02    0.2571867471E-03    0.1686806805E-01    0.6765971377E+00
    0.1300000000E+07    0.6631371801E+00    0.5817265113E-02    0.2353786939E-03    0.1687347386E-01    0.6773630283E+00
    0.1500000000E+07    0.6631456273E+00    0.5431584609E-02    0.2181529034E-03    0.1687805388E-01    0.6779719729E+00
    0.1700000000E+07    0.6631516536E+00    0.5114925404E-02    0.2041090580E-03    0.1688202675E-01    0.6784712916E+00
    0.1900000000E+07    0.6631560681E+00    0.4848812283E-02    0.1923798437E-03    0.1688553450E-01    0.6788904505E+00
    0.2100000000E+07    0.6631593634E+00    0.4621037230E-02    0.1823958318E-03    0.1688867456E-01    0.6792488881E+00
    0.2300000000E+07    0.6631618550E+00    0.4423164370E-02    0.1737657811E-03    0.1689151669E-01    0.6795600176E+00
    0.2500000000E+07    0.6631637539E+00    0.4249151247E-02    0.1662108888E-03    0.1689411251E-01    0.6798334352E+00
    0.2700000000E+07    0.6631652059E+00    0.4094540230E-02    0.1595264351E-03    0.1689650131E-01    0.6800762124E+00
    0.2900000000E+07    0.6631663146E+00    0.3955960731E-02    0.1535582850E-03    0.1689871366E-01    0.6802936914E+00
    0.3100000000E+07    0.6631671555E+00    0.3830810204E-02    0.1481878950E-03    0.1690077385E-01    0.6804899937E+00
    0.3300000000E+07    0.6631677847E+00    0.3717042632E-02    0.1433224127E-03    0.1690270146E-01    0.6806683568E+00
    0.3500000000E+07    0.6631682445E+00    0.3613024162E-02    0.1388879443E-03    0.1690451253E-01    0.6808313643E+00
    0.3700000000E+07    0.6631685677E+00    0.3517432045E-02    0.1348248582E-03    0.1690622035E-01    0.6809811067E+00
    0.3900000000E+07    0.6631687795E+00    0.3429182318E-02    0.1310844356E-03    0.1690783606E-01    0.6811192958E+00
    0.4100000000E+07    0.6631689001E+00    0.3347377044E-02    0.1276264338E-03    0.1690936910E-01    0.6812473491E+00
    0.4300000000E+07    0.6631689454E+00    0.3271265136E-02    0.1244172828E-03    0.1691082751E-01    0.6813664517E+00
    0.4500000000E+07    0.6631689282E+00    0.3200212828E-02    0.1214287289E-03    0.1691221823E-01    0.6814776031E+00
    0.4700000000E+07    0.6631688589E+00    0.3133681091E-02    0.1186368010E-03    0.1691354726E-01    0.6815816528E+00
    0.4900000000E+07    0.6631687460E+00    0.3071208153E-02    0.1160210116E-03    0.1691481985E-01    0.6816793285E+00
    0.1000000000E+07    0.6631165391E+00    0.6595367429E-02    0.2705067218E-03    0.1686495110E-01    0.6761318822E+00
    0.3000000000E+07    0.6631667647E+00    0.3891845817E-02    0.1508046844E-03    0.1689976146E-01    0.6803942697E+00
    0.5000000000E+07    0.6631686755E+00    0.3041367125E-02    0.1147735628E-03    0.1691543644E-01    0.6817259755E+00
    0.7000000000E+07    0.6631661640E+00    0.2584585024E-02    0.9585063957E-04    0.1692567601E-01    0.6824392660E+00
    0.9000000000E+07    0.6631629317E+00    0.2288439919E-02    0.8377011100E-04    0.1693329488E-01    0.6829009440E+00
    0.1100000000E+08    0.6631597071E+00    0.2076373961E-02    0.7522102729E-04    0.1693936529E-01    0.6832311581E+00
    0.1300000000E+08    0.6631566659E+00    0.1914813769E-02    0.6877021300E-04    0.1694441189E-01    0.6834825028E+00
    0.1500000000E+08    0.6631538420E+00    0.1786398288E-02    0.6368410562E-04    0.1694873089E-01    0.6836821395E+00
    0.1700000000E+08    0.6631512281E+00    0.1681123783E-02    0.5954357665E-04    0.1695250604E-01    0.6838457032E+00
    0.1900000000E+08    0.6631488054E+00    0.1592764356E-02    0.5608965864E-04    0.1695585920E-01    0.6839829164E+00
    0.2100000000E+08    0.6631465532E+00    0.1517214657E-02    0.5315266560E-04    0.1695887538E-01    0.6841001856E+00
    0.2300000000E+08    0.6631444520E+00    0.1451642812E-02    0.5061620433E-04    0.1696161622E-01    0.6842019276E+00
    0.2500000000E+08    0.6631424848E+00    0.1394023442E-02    0.4839745009E-04    0.1696412784E-01    0.6842912994E+00
    0.2700000000E+08    0.6631406365E+00    0.1342864332E-02    0.4643566149E-04    0.1696644569E-01    0.6843706261E+00
