  Pressure (Pa) 22mC5-400 (mol/kg) 2mC6-400 (mol/kg) 33mC5-400 (mol/kg) 23mC5-400 (mol/kg) C7-400 (mol/kg)
    0.1000000000E+01    0.3702811690E-02    0.7958750346E-03    0.3887899318E-03    0.3715282185E-03    0.3435787064E-02
    0.3000000000E+01    0.1095231427E-01    0.2341731695E-02    0.1143902638E-02    0.1098933049E-02    0.1017666832E-01
    0.5000000000E+01    0.1800151468E-01    0.3828876186E-02    0.1870267528E-02    0.1806256773E-02    0.1674893706E-01
    0.7000000000E+01    0.2485934389E-01    0.5260125756E-02    0.2569258030E-02    0.2494394558E-02    0.2315906121E-01
    0.9000000000E+01    0.3153420001E-01    0.6638129342E-02    0.3242165718E-02    0.3164188166E-02    0.2941317931E-01
    0.1100000000E+02    0.3803398727E-01    0.7965379660E-02    0.3890206187E-02    0.3816429860E-02    0.3551712139E-01
    0.1300000000E+02    0.4436615163E-01    0.9244224293E-02    0.4514524444E-02    0.4451865980E-02    0.4147642806E-01
    0.1500000000E+02    0.5053771352E-01    0.1047687584E-01    0.5116199842E-02    0.5071200215E-02    0.4729636834E-01
    0.1700000000E+02    0.5655529763E-01    0.1166542127E-01    0.5696250616E-02    0.5675096593E-02    0.5298195614E-01
    0.1900000000E+02    0.6242516042E-01    0.1281183047E-01    0.6255638053E-02    0.6264182238E-02    0.5853796555E-01
    0.2100000000E+02    0.6815321530E-01    0.1391796415E-01    0.6795270327E-02    0.6839049889E-02    0.6396894504E-01
    0.2300000000E+02    0.7374505578E-01    0.1498558112E-01    0.7316006029E-02    0.7400260227E-02    0.6927923068E-01
    0.2500000000E+02    0.7920597682E-01    0.1601634499E-01    0.7818657433E-02    0.7948344010E-02    0.7447295844E-01
    0.2700000000E+02    0.8454099449E-01    0.1701183037E-01    0.8303993497E-02    0.8483804043E-02    0.7955407559E-01
    0.2900000000E+02    0.8975486410E-01    0.1797352857E-01    0.8772742649E-02    0.9007116994E-02    0.8452635144E-01
    0.3100000000E+02    0.9485209693E-01    0.1890285291E-01    0.9225595352E-02    0.9518735077E-02    0.8939338723E-01
    0.3300000000E+02    0.9983697571E-01    0.1980114360E-01    0.9663206489E-02    0.1001908760E-01    0.9415862546E-01
    0.3500000000E+02    0.1047135690E+00    0.2066967228E-01    0.1008619757E-01    0.1050858239E-01    0.9882535853E-01
    0.3700000000E+02    0.1094857443E+00    0.2150964628E-01    0.1049515876E-01    0.1098760715E-01    0.1033967369E+00
    0.3900000000E+02    0.1141571807E+00    0.2232221242E-01    0.1089065082E-01    0.1145653067E-01    0.1078757767E+00
    0.4100000000E+02    0.1187313796E+00    0.2310846077E-01    0.1127320681E-01    0.1191570396E-01    0.1122653667E+00
    0.4300000000E+02    0.1232116763E+00    0.2386942791E-01    0.1164333380E-01    0.1236546134E-01    0.1165682753E+00
    0.4500000000E+02    0.1276012489E+00    0.2460610016E-01    0.1200151434E-01    0.1280612141E-01    0.1207871563E+00
    0.4700000000E+02    0.1319031279E+00    0.2531941644E-01    0.1234820789E-01    0.1323798798E-01    0.1249245552E+00
    0.4900000000E+02    0.1361202049E+00    0.2601027105E-01    0.1268385220E-01    0.1366135089E-01    0.1289829144E+00
    0.1000000000E+02    0.3480550153E-01    0.7307948657E-02    0.3569221197E-02    0.3492455319E-02    0.3248356950E-01
    0.3000000000E+02    0.9231778726E-01    0.1844215205E-01    0.9001114319E-02    0.9264360543E-02    0.8697280557E-01
    0.5000000000E+02    0.1381978101E+00    0.2634754310E-01    0.1284766202E-01    0.1386993044E-01    0.1309831906E+00
    0.7000000000E+02    0.1759065156E+00    0.3210084458E-01    0.1563541771E-01    0.1765610186E-01    0.1673623133E+00
    0.9000000000E+02    0.2076196093E+00    0.3636665391E-01    0.1769011542E-01    0.2084098860E-01    0.1980038564E+00
    0.1100000000E+03    0.2347769550E+00    0.3957387533E-01    0.1922246392E-01    0.2356894512E-01    0.2242171802E+00
    0.1300000000E+03    0.2583725692E+00    0.4200950367E-01    0.2037378914E-01    0.2593963278E-01    0.2469372633E+00
    0.1500000000E+03    0.2791173548E+00    0.4387141479E-01    0.2124175577E-01    0.2802433156E-01    0.2668500813E+00
    0.1700000000E+03    0.2975351770E+00    0.4529951808E-01    0.2189556736E-01    0.2987557067E-01    0.2844706839E+00
    0.1900000000E+03    0.3140220728E+00    0.4639488286E-01    0.2238531406E-01    0.3153306389E-01    0.3001935729E+00
    0.2100000000E+03    0.3288841111E+00    0.4723188344E-01    0.2274791902E-01    0.3302750490E-01    0.3143262157E+00
    0.2300000000E+03    0.3423623902E+00    0.4786613803E-01    0.2301103309E-01    0.3438307332E-01    0.3271119398E+00
    0.2500000000E+03    0.3546500159E+00    0.4833983067E-01    0.2319565103E-01    0.3561913677E-01    0.3387459415E+00
    0.2700000000E+03    0.3659039242E+00    0.4868535846E-01    0.2331790829E-01    0.3675143614E-01    0.3493867127E+00
    0.2900000000E+03    0.3762533011E+00    0.4892788048E-01    0.2339033946E-01    0.3779292975E-01    0.3591643488E+00
    0.3100000000E+03    0.3858056998E+00    0.4908713039E-01    0.2342277506E-01    0.3875440669E-01    0.3681866900E+00
    0.3300000000E+03    0.3946515669E+00    0.4917872550E-01    0.2342299071E-01    0.3964494060E-01    0.3765439272E+00
    0.3500000000E+03    0.4028676474E+00    0.4921512577E-01    0.2339718359E-01    0.4047223103E-01    0.3843121057E+00
    0.3700000000E+03    0.4105195832E+00    0.4920634513E-01    0.2335032662E-01    0.4124286406E-01    0.3915558217E+00
    0.3900000000E+03    0.4176639253E+00    0.4916048532E-01    0.2328643474E-01    0.4196251401E-01    0.3983303215E+00
    0.4100000000E+03    0.4243497099E+00    0.4908414078E-01    0.2320876730E-01    0.4263610149E-01    0.4046831529E+00
    0.4300000000E+03    0.4306197079E+00    0.4898270869E-01    0.2311998322E-01    0.4326791872E-01    0.4106554764E+00
    0.4500000000E+03    0.4365114255E+00    0.4886062852E-01    0.2302226112E-01    0.4386172981E-01    0.4162831163E+00
    0.4700000000E+03    0.4420579136E+00    0.4872156873E-01    0.2291739299E-01    0.4442085196E-01    0.4215974086E+00
    0.4900000000E+03    0.4472884273E+00    0.4856857319E-01    0.2280685790E-01    0.4494822163E-01    0.4266258918E+00
    0.1000000000E+03    0.2216975095E+00    0.3808208198E-01    0.1851149300E-01    0.2225504080E-01    0.2115986005E+00
    0.3000000000E+03    0.3811231134E+00    0.4901685455E-01    0.2341102885E-01    0.3828306746E-01    0.3637639263E+00
    0.5000000000E+03    0.4497934338E+00    0.4848765898E-01    0.2274985646E-01    0.4520082641E-01    0.4290406638E+00
    0.7000000000E+03    0.4883147966E+00    0.4656950521E-01    0.2151782879E-01    0.4908887815E-01    0.4669573294E+00
    0.9000000000E+03    0.5128504390E+00    0.4457535006E-01    0.2033295594E-01    0.5157007115E-01    0.4923627499E+00
    0.1100000000E+04    0.5297709121E+00    0.4274104446E-01    0.1928505925E-01    0.5328448355E-01    0.5108645670E+00
    0.1300000000E+04    0.5421052983E+00    0.4109678037E-01    0.1837083725E-01    0.5453666774E-01    0.5250948303E+00
    0.1500000000E+04    0.5514742297E+00    0.3962744600E-01    0.1757084020E-01    0.5548967498E-01    0.5364695561E+00
    0.1700000000E+04    0.5588204442E+00    0.3830973172E-01    0.1686560270E-01    0.5623841627E-01    0.5458258059E+00
    0.1900000000E+04    0.5647281643E+00    0.3712143891E-01    0.1623877661E-01    0.5684174724E-01    0.5536938166E+00
    0.2100000000E+04    0.5695779383E+00    0.3604353504E-01    0.1567723321E-01    0.5733803014E-01    0.5604277313E+00
    0.2300000000E+04    0.5736278617E+00    0.3506021428E-01    0.1517052704E-01    0.5775330009E-01    0.5662741974E+00
    0.2500000000E+04    0.5770589317E+00    0.3415845578E-01    0.1471032141E-01    0.5810582693E-01    0.5714109295E+00
    0.2700000000E+04    0.5800017017E+00    0.3332751955E-01    0.1428991051E-01    0.5840879745E-01    0.5759696246E+00
    0.2900000000E+04    0.5825526318E+00    0.3255850130E-01    0.1390384920E-01    0.5867196120E-01    0.5800502122E+00
    0.3100000000E+04    0.5847844873E+00    0.3184396905E-01    0.1354767271E-01    0.5890267771E-01    0.5837300621E+00
    0.3300000000E+04    0.5867531635E+00    0.3117767483E-01    0.1321768519E-01    0.5910660398E-01    0.5870701288E+00
    0.3500000000E+04    0.5885022868E+00    0.3055432816E-01    0.1291079969E-01    0.5928815831E-01    0.5901191686E+00
    0.3700000000E+04    0.5900663932E+00    0.2996941804E-01    0.1262441613E-01    0.5945084069E-01    0.5929167049E+00
    0.3900000000E+04    0.5914731699E+00    0.2941907264E-01    0.1235632736E-01    0.5959745889E-01    0.5954951581E+00
    0.4100000000E+04    0.5927450671E+00    0.2889994808E-01    0.1210464626E-01    0.5973029113E-01    0.5978814044E+00
    0.4300000000E+04    0.5939004755E+00    0.2840913956E-01    0.1186774856E-01    0.5985120497E-01    0.6000979364E+00
    0.4500000000E+04    0.5949546019E+00    0.2794411002E-01    0.1164422754E-01    0.5996174565E-01    0.6021637402E+00
    0.4700000000E+04    0.5959201270E+00    0.2750263234E-01    0.1143285799E-01    0.6006320260E-01    0.6040949670E+00
    0.4900000000E+04    0.5968077075E+00    0.2708274216E-01    0.1123256708E-01    0.6015666018E-01    0.6059054543E+00
    0.1000000000E+04    0.5220268194E+00    0.4363444106E-01    0.1979133595E-01    0.5249942620E-01    0.5022717418E+00
    0.3000000000E+04    0.5837046174E+00    0.3219483975E-01    0.1372227228E-01    0.5879098818E-01    0.5819360918E+00
    0.5000000000E+04    0.5972251424E+00    0.2688034072E-01    0.1113627664E-01    0.6020068182E-01    0.6067692147E+00
    0.7000000000E+04    0.6030833226E+00    0.2363198657E-01    0.9613155890E-02    0.6082442949E-01    0.6198936757E+00
    0.9000000000E+04    0.6063435016E+00    0.2137301351E-01    0.8577911814E-02    0.6117876832E-01    0.6282841503E+00
    0.1100000000E+05    0.6084167251E+00    0.1968057573E-01    0.7814883853E-02    0.6140870349E-01    0.6342210194E+00
    0.1300000000E+05    0.6098498067E+00    0.1834924146E-01    0.7222206563E-02    0.6157083763E-01    0.6386975683E+00
    0.1500000000E+05    0.6108987303E+00    0.1726522223E-01    0.6744568510E-02    0.6169185848E-01    0.6422238429E+00
    0.1700000000E+05    0.6116991936E+00    0.1635958060E-01    0.6348965821E-02    0.6178601351E-01    0.6450917513E+00
    0.1900000000E+05    0.6123297897E+00    0.1558772651E-01    0.6014310448E-02    0.6186161252E-01    0.6474818000E+00
    0.2100000000E+05    0.6128391673E+00    0.1491933866E-01    0.5726407697E-02    0.6192383512E-01    0.6495122971E+00
    0.2300000000E+05    0.6132590423E+00    0.1433296671E-01    0.5475302650E-02    0.6197608146E-01    0.6512643908E+00
    0.2500000000E+05    0.6136109697E+00    0.1381294116E-01    0.5253778055E-02    0.6202067835E-01    0.6527958109E+00
    0.2700000000E+05    0.6139101087E+00    0.1334750725E-01    0.5056455842E-02    0.6205927333E-01    0.6541488788E+00
    0.2900000000E+05    0.6141674285E+00    0.1292764730E-01    0.4879234874E-02    0.6209306674E-01    0.6553554088E+00
    0.3100000000E+05    0.6143910620E+00    0.1254630998E-01    0.4718925587E-02    0.6212295451E-01    0.6564398326E+00
    0.3300000000E+05    0.6145871654E+00    0.1219788962E-01    0.4573004856E-02    0.6214961945E-01    0.6574212597E+00
    0.3500000000E+05    0.6147604843E+00    0.1187786516E-01    0.4439446941E-02    0.6217359140E-01    0.6583148774E+00
    0.3700000000E+05    0.6149147353E+00    0.1158254364E-01    0.4316604083E-02    0.6219528808E-01    0.6591329257E+00
    0.3900000000E+05    0.6150528701E+00    0.1130887433E-01    0.4203120375E-02    0.6221504346E-01    0.6598853926E+00
    0.4100000000E+05    0.6151772629E+00    0.1105431153E-01    0.4097868482E-02    0.6223312791E-01    0.6605805187E+00
    0.4300000000E+05    0.6152898442E+00    0.1081671161E-01    0.3999902363E-02    0.6224976277E-01    0.6612251706E+00
    0.4500000000E+05    0.6153922006E+00    0.1059425467E-01    0.3908421426E-02    0.6226513105E-01    0.6618251212E+00
    0.4700000000E+05    0.6154856471E+00    0.1038538411E-01    0.3822742980E-02    0.6227938551E-01    0.6623852637E+00
    0.4900000000E+05    0.6155712835E+00    0.1018875948E-01    0.3742280814E-02    0.6229265468E-01    0.6629097758E+00
    0.1000000000E+05    0.6074841026E+00    0.2047182682E-01    0.8170279816E-02    0.6130470101E-01    0.6314807976E+00
    0.3000000000E+05    0.6142830327E+00    0.1273254270E-01    0.4797137311E-02    0.6210845198E-01    0.6559115838E+00
    0.5000000000E+05    0.6156114683E+00    0.1009467027E-01    0.3703844805E-02    0.6229895449E-01    0.6631598128E+00
    0.7000000000E+05    0.6161684981E+00    0.8641039058E-02    0.3115753273E-02    0.6239266479E-01    0.6669452255E+00
    0.9000000000E+05    0.6164713540E+00    0.7685530452E-02    0.2735429303E-02    0.6245135333E-01    0.6693552867E+00
    0.1100000000E+06    0.6166599381E+00    0.6995207499E-02    0.2464027798E-02    0.6249290021E-01    0.6710584470E+00
    0.1300000000E+06    0.6167876495E+00    0.6465973248E-02    0.2258018728E-02    0.6252456518E-01    0.6723427203E+00
    0.1500000000E+06    0.6168792251E+00    0.6043311925E-02    0.2094860943E-02    0.6254991191E-01    0.6733550501E+00
    0.1700000000E+06    0.6169476668E+00    0.5695518259E-02    0.1961565027E-02    0.6257091931E-01    0.6741791957E+00
    0.1900000000E+06    0.6170004489E+00    0.5402718712E-02    0.1850052080E-02    0.6258878621E-01    0.6748668173E+00
    0.2100000000E+06    0.6170421653E+00    0.5151733474E-02    0.1755000375E-02    0.6260428757E-01    0.6754517184E+00
    0.2300000000E+06    0.6170757912E+00    0.4933428150E-02    0.1672743589E-02    0.6261795013E-01    0.6759570613E+00
    0.2500000000E+06    0.6171033351E+00    0.4741243796E-02    0.1600663165E-02    0.6263014658E-01    0.6763993142E+00
    0.2700000000E+06    0.6171262006E+00    0.4570331622E-02    0.1536832659E-02    0.6264114936E-01    0.6767905467E+00
    0.2900000000E+06    0.6171453970E+00    0.4417018665E-02    0.1479799243E-02    0.6265116313E-01    0.6771398315E+00
    0.3100000000E+06    0.6171616674E+00    0.4278464450E-02    0.1428443952E-02    0.6266034520E-01    0.6774541368E+00
    0.3300000000E+06    0.6171755711E+00    0.4152432822E-02    0.1381889212E-02    0.6266881890E-01    0.6777389141E+00
    0.3500000000E+06    0.6171875363E+00    0.4037135898E-02    0.1339435847E-02    0.6267668254E-01    0.6779984977E+00
    0.3700000000E+06    0.6171978961E+00    0.3931124638E-02    0.1300519054E-02    0.6268401568E-01    0.6782363819E+00
    0.3900000000E+06    0.6172069135E+00    0.3833210407E-02    0.1264676970E-02    0.6269088355E-01    0.6784554198E+00
    0.4100000000E+06    0.6172147984E+00    0.3742407675E-02    0.1231527772E-02    0.6269734026E-01    0.6786579661E+00
    0.4300000000E+06    0.6172217207E+00    0.3657891411E-02    0.1200752704E-02    0.6270343115E-01    0.6788459843E+00
    0.4500000000E+06    0.6172278187E+00    0.3578964931E-02    0.1172083306E-02    0.6270919455E-01    0.6790211259E+00
    0.4700000000E+06    0.6172332066E+00    0.3505035284E-02    0.1145291664E-02    0.6271466319E-01    0.6791847916E+00
    0.4900000000E+06    0.6172379791E+00    0.3435594182E-02    0.1120182872E-02    0.6271986516E-01    0.6793381779E+00
    0.1000000000E+06    0.6165755830E+00    0.7315397842E-02    0.2589544265E-02    0.6247368761E-01    0.6702724230E+00
    0.3000000000E+06    0.6171538594E+00    0.4346048533E-02    0.1453471487E-02    0.6265584975E-01    0.6773009857E+00
    0.5000000000E+06    0.6172401598E+00    0.3402417398E-02    0.1108206184E-02    0.6272237388E-01    0.6794113436E+00
    0.7000000000E+06    0.6172652638E+00    0.2893998481E-02    0.9263331086E-03    0.6276304659E-01    0.6805229830E+00
    0.9000000000E+06    0.6172726875E+00    0.2563819598E-02    0.8100374298E-03    0.6279230761E-01    0.6812350999E+00
    0.1100000000E+07    0.6172732770E+00    0.2327126638E-02    0.7276529190E-03    0.6281514746E-01    0.6817407145E+00
    0.1300000000E+07    0.6172708269E+00    0.2146666485E-02    0.6654431557E-03    0.6283387334E-01    0.6821234080E+00
    0.1500000000E+07    0.6172669354E+00    0.2003145639E-02    0.6163671170E-03    0.6284973948E-01    0.6824260013E+00
    0.1700000000E+07    0.6172623577E+00    0.1885434382E-02    0.5763976093E-03    0.6286350288E-01    0.6826729893E+00
    0.1900000000E+07    0.6172574792E+00    0.1786600057E-02    0.5430443258E-03    0.6287565534E-01    0.6828795263E+00
    0.2100000000E+07    0.6172525060E+00    0.1702068113E-02    0.5146744543E-03    0.6288653429E-01    0.6830555550E+00
    0.2300000000E+07    0.6172475516E+00    0.1628681224E-02    0.4901673952E-03    0.6289638126E-01    0.6832079045E+00
    0.2500000000E+07    0.6172426792E+00    0.1564180162E-02    0.4687253760E-03    0.6290537504E-01    0.6833414406E+00
    0.2700000000E+07    0.6172379229E+00    0.1506899737E-02    0.4497631064E-03    0.6291365169E-01    0.6834597365E+00
    0.2900000000E+07    0.6172333004E+00    0.1455581829E-02    0.4328402495E-03    0.6292131715E-01    0.6835654826E+00
    0.3100000000E+07    0.6172288193E+00    0.1409255681E-02    0.4176183759E-03    0.6292845547E-01    0.6836607489E+00
    0.3300000000E+07    0.6172244815E+00    0.1367158609E-02    0.4038325623E-03    0.6293513453E-01    0.6837471570E+00
    0.3500000000E+07    0.6172202852E+00    0.1328681920E-02    0.3912720940E-03    0.6294140985E-01    0.6838259979E+00
    0.3700000000E+07    0.6172162264E+00    0.1293333077E-02    0.3797670119E-03    0.6294732748E-01    0.6838983141E+00
    0.3900000000E+07    0.6172123002E+00    0.1260708658E-02    0.3691785237E-03    0.6295292602E-01    0.6839649574E+00
    0.4100000000E+07    0.6172085010E+00    0.1230474618E-02    0.3593920334E-03    0.6295823814E-01    0.6840266317E+00
    0.4300000000E+07    0.6172048229E+00    0.1202351659E-02    0.3503119836E-03    0.6296329172E-01    0.6840839247E+00
    0.4500000000E+07    0.6172012601E+00    0.1176104199E-02    0.3418579799E-03    0.6296811079E-01    0.6841373310E+00
    0.4700000000E+07    0.6171978068E+00    0.1151531945E-02    0.3339618367E-03    0.6297271614E-01    0.6841872707E+00
    0.4900000000E+07    0.6171944575E+00    0.1128463366E-02    0.3265652967E-03    0.6297712595E-01    0.6842341028E+00
    0.1000000000E+07    0.6172735203E+00    0.2436723971E-02    0.7656924287E-03    0.6280435080E-01    0.6815071096E+00
    0.3000000000E+07    0.6172310419E+00    0.1431846599E-02    0.4250347094E-03    0.6292494763E-01    0.6836143155E+00
    0.5000000000E+07    0.6171928201E+00    0.1117445937E-02    0.3230384408E-03    0.6297926259E-01    0.6842564517E+00
    0.7000000000E+07    0.6171644009E+00    0.9489282314E-03    0.2695780025E-03    0.6301474636E-01    0.6845968218E+00
    0.9000000000E+07    0.6171420086E+00    0.8398021502E-03    0.2354877516E-03    0.6304114991E-01    0.6848156953E+00
    0.1100000000E+08    0.6171235759E+00    0.7617207618E-03    0.2113817712E-03    0.6306218809E-01    0.6849715129E+00
    0.1300000000E+08    0.6171079248E+00    0.7022703747E-03    0.1932027835E-03    0.6307967864E-01    0.6850896856E+00
    0.1500000000E+08    0.6170943301E+00    0.6550381560E-03    0.1788760860E-03    0.6309464792E-01    0.6851832718E+00
    0.1700000000E+08    0.6170823160E+00    0.6163317204E-03    0.1672171411E-03    0.6310773257E-01    0.6852597589E+00
    0.1900000000E+08    0.6170715540E+00    0.5838544707E-03    0.1574944833E-03    0.6311935491E-01    0.6853237882E+00
    0.2100000000E+08    0.6170618081E+00    0.5560927858E-03    0.1492290559E-03    0.6312980944E-01    0.6853784099E+00
    0.2300000000E+08    0.6170529033E+00    0.5320030055E-03    0.1420923912E-03    0.6313930976E-01    0.6854257218E+00
    0.2500000000E+08    0.6170447058E+00    0.5108389641E-03    0.1358508342E-03    0.6314801577E-01    0.6854672202E+00
    0.2700000000E+08    0.6170371117E+00    0.4920510893E-03    0.1303330807E-03    0.6315605021E-01    0.6855040054E+00
