  Pressure (Pa) 22mC5-400 (mol/kg) 2mC6-400 (mol/kg) 33mC5-400 (mol/kg) 23mC5-400 (mol/kg) C7-400 (mol/kg)
    0.1000000000E+01    0.4226020210E-02    0.1583177032E-02    0.6445187978E-04    0.4637781266E-03    0.6833479749E-02
    0.3000000000E+01    0.1246686224E-01    0.4609377095E-02    0.1876570055E-03    0.1368175746E-02    0.2002298969E-01
    0.5000000000E+01    0.2043885801E-01    0.7459996865E-02    0.3037221801E-03    0.2243093151E-02    0.3261303787E-01
    0.7000000000E+01    0.2815633779E-01    0.1014751907E-01    0.4131539564E-03    0.3090101387E-02    0.4464461126E-01
    0.9000000000E+01    0.3563261004E-01    0.1268332572E-01    0.5164142160E-03    0.3910659492E-02    0.5615502092E-01
    0.1100000000E+02    0.4288005056E-01    0.1507781501E-01    0.6139249183E-03    0.4706124266E-02    0.6717830571E-01
    0.1300000000E+02    0.4991018251E-01    0.1734050365E-01    0.7060722581E-03    0.5477759040E-02    0.7774558401E-01
    0.1500000000E+02    0.5673374839E-01    0.1948011685E-01    0.7932103161E-03    0.6226741570E-02    0.8788536098E-01
    0.1700000000E+02    0.6336077491E-01    0.2150466738E-01    0.8756642735E-03    0.6954171146E-02    0.9762379777E-01
    0.1900000000E+02    0.6980063154E-01    0.2342152555E-01    0.9537332500E-03    0.7661075007E-02    0.1069849481E+00
    0.2100000000E+02    0.7606208343E-01    0.2523748104E-01    0.1027692815E-02    0.8348414147E-02    0.1159909669E+00
    0.2300000000E+02    0.8215333938E-01    0.2695879786E-01    0.1097797218E-02    0.9017088568E-02    0.1246622943E+00
    0.2500000000E+02    0.8808209527E-01    0.2859126310E-01    0.1164281367E-02    0.9667942042E-02    0.1330178190E+00
    0.2700000000E+02    0.9385557354E-01    0.3014023057E-01    0.1227362598E-02    0.1030176644E-01    0.1410750227E+00
    0.2900000000E+02    0.9948055917E-01    0.3161065958E-01    0.1287242252E-02    0.1091930568E-01    0.1488501096E+00
    0.3100000000E+02    0.1049634323E+00    0.3300714983E-01    0.1344107087E-02    0.1152125930E-01    0.1563581212E+00
    0.3300000000E+02    0.1103101981E+00    0.3433397261E-01    0.1398130544E-02    0.1210828571E-01    0.1636130385E+00
    0.3500000000E+02    0.1155265141E+00    0.3559509881E-01    0.1449473884E-02    0.1268100523E-01    0.1706278748E+00
    0.3700000000E+02    0.1206177149E+00    0.3679422423E-01    0.1498287217E-02    0.1324000277E-01    0.1774147582E+00
    0.3900000000E+02    0.1255888354E+00    0.3793479234E-01    0.1544710419E-02    0.1378583038E-01    0.1839850052E+00
    0.4100000000E+02    0.1304446311E+00    0.3902001487E-01    0.1588873970E-02    0.1431900949E-01    0.1903491885E+00
    0.4300000000E+02    0.1351895980E+00    0.4005289037E-01    0.1630899710E-02    0.1484003306E-01    0.1965171968E+00
    0.4500000000E+02    0.1398279895E+00    0.4103622117E-01    0.1670901520E-02    0.1534936748E-01    0.2024982897E+00
    0.4700000000E+02    0.1443638333E+00    0.4197262862E-01    0.1708985946E-02    0.1584745437E-01    0.2083011470E+00
    0.4900000000E+02    0.1488009461E+00    0.4286456708E-01    0.1745252759E-02    0.1633471224E-01    0.2139339135E+00
    0.1000000000E+02    0.3928419496E-01    0.1389762069E-01    0.5658633315E-03    0.4311447493E-02    0.6172554437E-01
    0.3000000000E+02    0.1022393760E+00    0.3231787274E-01    0.1316040384E-02    0.1122218862E-01    0.1526366023E+00
    0.5000000000E+02    0.1509836168E+00    0.4329458488E-01    0.1762734016E-02    0.1657440510E-01    0.2166889219E+00
    0.7000000000E+02    0.1902408798E+00    0.5004803287E-01    0.2036772451E-02    0.2088605913E-01    0.2644911303E+00
    0.9000000000E+02    0.2227856682E+00    0.5425079140E-01    0.2206223990E-02    0.2446138393E-01    0.3016836284E+00
    0.1100000000E+03    0.2503621712E+00    0.5684216643E-01    0.2309406027E-02    0.2749164757E-01    0.3315481280E+00
    0.1300000000E+03    0.2741281891E+00    0.5838132240E-01    0.2369194094E-02    0.3010382220E-01    0.3561273280E+00
    0.1500000000E+03    0.2948872231E+00    0.5921644194E-01    0.2399878317E-02    0.3238603039E-01    0.3767612872E+00
    0.1700000000E+03    0.3132178460E+00    0.5957217669E-01    0.2410710748E-02    0.3440172989E-01    0.3943669111E+00
    0.1900000000E+03    0.3295497504E+00    0.5959767023E-01    0.2407855742E-02    0.3619805215E-01    0.4095935945E+00
    0.2100000000E+03    0.3442105072E+00    0.5939425524E-01    0.2395516687E-02    0.3781092956E-01    0.4229147089E+00
    0.2300000000E+03    0.3574554493E+00    0.5903208998E-01    0.2376614173E-02    0.3926837228E-01    0.4346838413E+00
    0.2500000000E+03    0.3694874225E+00    0.5856049835E-01    0.2353208483E-02    0.4059263412E-01    0.4451706976E+00
    0.2700000000E+03    0.3804702329E+00    0.5801458590E-01    0.2326770663E-02    0.4180168716E-01    0.4545847759E+00
    0.2900000000E+03    0.3905380449E+00    0.5741958018E-01    0.2298360873E-02    0.4291025240E-01    0.4630914194E+00
    0.3100000000E+03    0.3998021055E+00    0.5679374029E-01    0.2268748320E-02    0.4393053711E-01    0.4708229701E+00
    0.3300000000E+03    0.4083556560E+00    0.5615034457E-01    0.2238493475E-02    0.4487277357E-01    0.4778866894E+00
    0.3500000000E+03    0.4162775894E+00    0.5549907101E-01    0.2208005365E-02    0.4574562009E-01    0.4843704895E+00
    0.3700000000E+03    0.4236352183E+00    0.5484697012E-01    0.2177582093E-02    0.4655646465E-01    0.4903471540E+00
    0.3900000000E+03    0.4304864041E+00    0.5419915932E-01    0.2147439871E-02    0.4731165839E-01    0.4958774936E+00
    0.4100000000E+03    0.4368812158E+00    0.5355932433E-01    0.2117734061E-02    0.4801669752E-01    0.5010127384E+00
    0.4300000000E+03    0.4428632394E+00    0.5293008486E-01    0.2088574571E-02    0.4867636696E-01    0.5057963757E+00
    0.4500000000E+03    0.4484706230E+00    0.5231326370E-01    0.2060037236E-02    0.4929485500E-01    0.5102655772E+00
    0.4700000000E+03    0.4537369201E+00    0.5171008628E-01    0.2032172281E-02    0.4987584575E-01    0.5144523197E+00
    0.4900000000E+03    0.4586917755E+00    0.5112132975E-01    0.2005010673E-02    0.5042259440E-01    0.5183842733E+00
    0.1000000000E+03    0.2371122451E+00    0.5570658000E-01    0.2264409808E-02    0.2603557801E-01    0.3173831970E+00
    0.3000000000E+03    0.3952643425E+00    0.5710958643E-01    0.2283665789E-02    0.4343074927E-01    0.4670468656E+00
    0.5000000000E+03    0.4610607485E+00    0.5083250776E-01    0.1991699237E-02    0.5068404336E-01    0.5202623518E+00
    0.7000000000E+03    0.4971376035E+00    0.4582002401E-01    0.1762079222E-02    0.5466975376E-01    0.5489217956E+00
    0.9000000000E+03    0.5197356299E+00    0.4201693975E-01    0.1590008422E-02    0.5717182260E-01    0.5672884066E+00
    0.1100000000E+04    0.5351283940E+00    0.3905270262E-01    0.1457644264E-02    0.5887991206E-01    0.5802573147E+00
    0.1300000000E+04    0.5462448997E+00    0.3666872718E-01    0.1352586049E-02    0.6011625884E-01    0.5900013482E+00
    0.1500000000E+04    0.5546281384E+00    0.3469929699E-01    0.1266888920E-02    0.6105074436E-01    0.5976457541E+00
    0.1700000000E+04    0.5611642367E+00    0.3303637095E-01    0.1195384075E-02    0.6178100306E-01    0.6038370127E+00
    0.1900000000E+04    0.5663965416E+00    0.3160708952E-01    0.1134599700E-02    0.6236694640E-01    0.6089754730E+00
    0.2100000000E+04    0.5706758718E+00    0.3036060810E-01    0.1082125901E-02    0.6284728591E-01    0.6133235689E+00
    0.2300000000E+04    0.5742384089E+00    0.2926032948E-01    0.1036238797E-02    0.6324810302E-01    0.6170611870E+00
    0.2500000000E+04    0.5772487509E+00    0.2827918716E-01    0.9956719797E-03    0.6358758795E-01    0.6203161562E+00
    0.2700000000E+04    0.5798249914E+00    0.2739668603E-01    0.9594731709E-03    0.6387880147E-01    0.6231820519E+00
    0.2900000000E+04    0.5820539846E+00    0.2659698583E-01    0.9269115462E-03    0.6413135673E-01    0.6257291035E+00
    0.3100000000E+04    0.5840009890E+00    0.2586762323E-01    0.8974161011E-03    0.6435248218E-01    0.6280111487E+00
    0.3300000000E+04    0.5857159592E+00    0.2519863704E-01    0.8705336014E-03    0.6454771532E-01    0.6300702212E+00
    0.3500000000E+04    0.5872377656E+00    0.2458195510E-01    0.8458992228E-03    0.6472136832E-01    0.6319396649E+00
    0.3700000000E+04    0.5885970957E+00    0.2401095529E-01    0.8232156216E-03    0.6487684821E-01    0.6336463032E+00
    0.3900000000E+04    0.5898184919E+00    0.2348014533E-01    0.8022377328E-03    0.6501688187E-01    0.6352119828E+00
    0.4100000000E+04    0.5909218117E+00    0.2298492505E-01    0.7827615396E-03    0.6514367735E-01    0.6366546949E+00
    0.4300000000E+04    0.5919232901E+00    0.2252140726E-01    0.7646156487E-03    0.6525904134E-01    0.6379894034E+00
    0.4500000000E+04    0.5928363280E+00    0.2208628080E-01    0.7476548822E-03    0.6536446628E-01    0.6392286660E+00
    0.4700000000E+04    0.5936720822E+00    0.2167670459E-01    0.7317553408E-03    0.6546119567E-01    0.6403831073E+00
    0.4900000000E+04    0.5944399153E+00    0.2129022455E-01    0.7168105557E-03    0.6555027388E-01    0.6414617830E+00
    0.1000000000E+04    0.5281036383E+00    0.4044879328E-01    0.1519765841E-02    0.5809992300E-01    0.5742764041E+00
    0.3000000000E+04    0.5830593119E+00    0.2622418534E-01    0.9118112450E-03    0.6424546878E-01    0.6269003902E+00
    0.5000000000E+04    0.5948008834E+00    0.2110496809E-01    0.7096669320E-03    0.6559222530E-01    0.6419751809E+00
    0.7000000000E+04    0.5998568128E+00    0.1821604906E-01    0.5999560714E-03    0.6618634852E-01    0.6496788494E+00
    0.9000000000E+04    0.6026628420E+00    0.1628881228E-01    0.5285412583E-03    0.6652396904E-01    0.6545088934E+00
    0.1100000000E+05    0.6044444719E+00    0.1488213136E-01    0.4773228017E-03    0.6674335664E-01    0.6578825708E+00
    0.1300000000E+05    0.6056746997E+00    0.1379551536E-01    0.4382896129E-03    0.6689832863E-01    0.6604028745E+00
    0.1500000000E+05    0.6065744348E+00    0.1292261854E-01    0.4072747126E-03    0.6701422801E-01    0.6623742753E+00
    0.1700000000E+05    0.6072606040E+00    0.1220096808E-01    0.3818673706E-03    0.6710457844E-01    0.6639688096E+00
    0.1900000000E+05    0.6078008569E+00    0.1159108453E-01    0.3605629879E-03    0.6717726754E-01    0.6652917839E+00
    0.2100000000E+05    0.6082370358E+00    0.1106660832E-01    0.3423674078E-03    0.6723721306E-01    0.6664116485E+00
    0.2300000000E+05    0.6085964027E+00    0.1060916612E-01    0.3265938496E-03    0.6728764465E-01    0.6673750296E+00
    0.2500000000E+05    0.6088974773E+00    0.1020550023E-01    0.3127506047E-03    0.6733077361E-01    0.6682149039E+00
    0.2700000000E+05    0.6091532783E+00    0.9845767944E-02    0.3004751348E-03    0.6736816665E-01    0.6689553240E+00
    0.2900000000E+05    0.6093732238E+00    0.9522485513E-02    0.2894934896E-03    0.6740096595E-01    0.6696142919E+00
    0.3100000000E+05    0.6095642940E+00    0.9229846221E-02    0.2795942933E-03    0.6743002466E-01    0.6702055786E+00
    0.3300000000E+05    0.6097317717E+00    0.8963265224E-02    0.2706114973E-03    0.6745599339E-01    0.6707399183E+00
    0.3500000000E+05    0.6098797281E+00    0.8719067021E-02    0.2624126079E-03    0.6747937740E-01    0.6712258160E+00
    0.3700000000E+05    0.6100113510E+00    0.8494265524E-02    0.2548904474E-03    0.6750057532E-01    0.6716701073E+00
    0.3900000000E+05    0.6101291720E+00    0.8286405907E-02    0.2479572593E-03    0.6751990609E-01    0.6720783563E+00
    0.4100000000E+05    0.6102352264E+00    0.8093448721E-02    0.2415404084E-03    0.6753762809E-01    0.6724551432E+00
    0.4300000000E+05    0.6103311696E+00    0.7913683515E-02    0.2355791902E-03    0.6755395302E-01    0.6728042767E+00
    0.4500000000E+05    0.6104183613E+00    0.7745663471E-02    0.2300224256E-03    0.6756905605E-01    0.6731289529E+00
    0.4700000000E+05    0.6104979286E+00    0.7588155264E-02    0.2248266230E-03    0.6758308348E-01    0.6734318760E+00
    0.4900000000E+05    0.6105708140E+00    0.7440100119E-02    0.2199545558E-03    0.6759615851E-01    0.6737153513E+00
    0.1000000000E+05    0.6036432898E+00    0.1553608990E-01    0.5010381015E-03    0.6664408033E-01    0.6563298852E+00
    0.3000000000E+05    0.6094720050E+00    0.9372646455E-02    0.2844198668E-03    0.6741591825E-01    0.6699176642E+00
    0.5000000000E+05    0.6106050039E+00    0.7369326642E-02    0.2176297237E-03    0.6760237218E-01    0.6738504255E+00
    0.7000000000E+05    0.6110779354E+00    0.6281792710E-02    0.1822543807E-03    0.6769531809E-01    0.6758910719E+00
    0.9000000000E+05    0.6113338327E+00    0.5572633971E-02    0.1595637535E-03    0.6775410940E-01    0.6771867475E+00
    0.1100000000E+06    0.6114923598E+00    0.5062922137E-02    0.1434562722E-03    0.6779605320E-01    0.6781011812E+00
    0.1300000000E+06    0.6115991303E+00    0.4673577223E-02    0.1312749826E-03    0.6782822070E-01    0.6787902704E+00
    0.1500000000E+06    0.6116752462E+00    0.4363490838E-02    0.1216543191E-03    0.6785410205E-01    0.6793332947E+00
    0.1700000000E+06    0.6117317835E+00    0.4108884159E-02    0.1138116501E-03    0.6787564480E-01    0.6797753459E+00
    0.1900000000E+06    0.6117751001E+00    0.3894914106E-02    0.1072622458E-03    0.6789403394E-01    0.6801441927E+00
    0.2100000000E+06    0.6118090980E+00    0.3711769766E-02    0.1016878718E-03    0.6791003847E-01    0.6804579854E+00
    0.2300000000E+06    0.6118363004E+00    0.3552670225E-02    0.9686988660E-04    0.6792418301E-01    0.6807291504E+00
    0.2500000000E+06    0.6118584083E+00    0.3412757679E-02    0.9265249244E-04    0.6793683991E-01    0.6809665173E+00
    0.2700000000E+06    0.6118766082E+00    0.3288448013E-02    0.8892129606E-04    0.6794828223E-01    0.6811765545E+00
    0.2900000000E+06    0.6118917520E+00    0.3177030907E-02    0.8559017482E-04    0.6795871564E-01    0.6813641227E+00
    0.3100000000E+06    0.6119044658E+00    0.3076413489E-02    0.8259289660E-04    0.6796829863E-01    0.6815329541E+00
    0.3300000000E+06    0.6119152202E+00    0.2984950351E-02    0.7987758619E-04    0.6797715576E-01    0.6816859679E+00
    0.3500000000E+06    0.6119243746E+00    0.2901327500E-02    0.7740296255E-04    0.6798538654E-01    0.6818254848E+00
    0.3700000000E+06    0.6119322084E+00    0.2824481115E-02    0.7513571411E-04    0.6799307166E-01    0.6819533758E+00
    0.3900000000E+06    0.6119389414E+00    0.2753539406E-02    0.7304862681E-04    0.6800027742E-01    0.6820711682E+00
    0.4100000000E+06    0.6119447492E+00    0.2687780187E-02    0.7111922246E-04    0.6800705889E-01    0.6821801227E+00
    0.4300000000E+06    0.6119497731E+00    0.2626599377E-02    0.6932875087E-04    0.6801346232E-01    0.6822812904E+00
    0.4500000000E+06    0.6119541285E+00    0.2569487252E-02    0.6766143210E-04    0.6801952686E-01    0.6823755554E+00
    0.4700000000E+06    0.6119579099E+00    0.2516010283E-02    0.6610387859E-04    0.6802528598E-01    0.6824636678E+00
    0.4900000000E+06    0.6119611958E+00    0.2465797081E-02    0.6464464895E-04    0.6803076848E-01    0.6825462680E+00
    0.1000000000E+06    0.6114215529E+00    0.5299073659E-02    0.1508970333E-03    0.6777662135E-01    0.6776792620E+00
    0.3000000000E+06    0.6118983802E+00    0.3125483996E-02    0.8405333317E-04    0.6796360498E-01    0.6814506819E+00
    0.5000000000E+06    0.6119626739E+00    0.2441812565E-02    0.6394877492E-04    0.6803341392E-01    0.6825856764E+00
    0.7000000000E+06    0.6119775904E+00    0.2074720636E-02    0.5339458601E-04    0.6807642450E-01    0.6831851366E+00
    0.9000000000E+06    0.6119789263E+00    0.1836773914E-02    0.4665854114E-04    0.6810749215E-01    0.6835699998E+00
    0.1100000000E+07    0.6119753653E+00    0.1666410725E-02    0.4189254870E-04    0.6813180238E-01    0.6838437646E+00
    0.1300000000E+07    0.6119698485E+00    0.1536638215E-02    0.3829685604E-04    0.6815176731E-01    0.6840513022E+00
    0.1500000000E+07    0.6119635650E+00    0.1433500108E-02    0.3546219789E-04    0.6816870378E-01    0.6842156279E+00
    0.1700000000E+07    0.6119570481E+00    0.1348955542E-02    0.3315477484E-04    0.6818340910E-01    0.6843499213E+00
    0.1900000000E+07    0.6119505511E+00    0.1278000763E-02    0.3123014881E-04    0.6819640248E-01    0.6844623443E+00
    0.2100000000E+07    0.6119441967E+00    0.1217336613E-02    0.2959368914E-04    0.6820804086E-01    0.6845582566E+00
    0.2300000000E+07    0.6119380424E+00    0.1164687524E-02    0.2818049219E-04    0.6821858013E-01    0.6846413429E+00
    0.2500000000E+07    0.6119321122E+00    0.1118426113E-02    0.2694437694E-04    0.6822820996E-01    0.6847142303E+00
    0.2700000000E+07    0.6119264124E+00    0.1077353474E-02    0.2585147825E-04    0.6823707484E-01    0.6847788497E+00
    0.2900000000E+07    0.6119209397E+00    0.1040564160E-02    0.2487632835E-04    0.6824528736E-01    0.6848366558E+00
    0.3100000000E+07    0.6119156862E+00    0.1007359795E-02    0.2399936055E-04    0.6825293699E-01    0.6848887686E+00
    0.3300000000E+07    0.6119106413E+00    0.9771918716E-03    0.2320526289E-04    0.6826009594E-01    0.6849360660E+00
    0.3500000000E+07    0.6119057935E+00    0.9496227603E-03    0.2248186004E-04    0.6826682338E-01    0.6849792475E+00
    0.3700000000E+07    0.6119011313E+00    0.9242984408E-03    0.2181933413E-04    0.6827316840E-01    0.6850188779E+00
    0.3900000000E+07    0.6118966435E+00    0.9009290124E-03    0.2120966959E-04    0.6827917215E-01    0.6850554194E+00
    0.4100000000E+07    0.6118923192E+00    0.8792744860E-03    0.2064624965E-04    0.6828486948E-01    0.6850892537E+00
    0.4300000000E+07    0.6118881483E+00    0.8591342449E-03    0.2012355794E-04    0.6829029015E-01    0.6851206999E+00
    0.4500000000E+07    0.6118841214E+00    0.8403391051E-03    0.1963695429E-04    0.6829545982E-01    0.6851500267E+00
    0.4700000000E+07    0.6118802296E+00    0.8227452500E-03    0.1918250384E-04    0.6830040069E-01    0.6851774621E+00
    0.4900000000E+07    0.6118764649E+00    0.8062295371E-03    0.1875684524E-04    0.6830513219E-01    0.6852032015E+00
    0.1000000000E+07    0.6119775106E+00    0.1745273285E-02    0.4409255767E-04    0.6812030466E-01    0.6837172218E+00
    0.3000000000E+07    0.6119182862E+00    0.1023551126E-02    0.2442661329E-04    0.6824917768E-01    0.6848633642E+00
    0.5000000000E+07    0.6118746278E+00    0.7983422343E-03    0.1855389345E-04    0.6830742482E-01    0.6852154886E+00
    0.7000000000E+07    0.6118430174E+00    0.6777424902E-03    0.1547854907E-04    0.6834551063E-01    0.6854029495E+00
    0.9000000000E+07    0.6118183758E+00    0.5996868892E-03    0.1351848287E-04    0.6837386117E-01    0.6855238617E+00
    0.1100000000E+08    0.6117982082E+00    0.5438561481E-03    0.1213294338E-04    0.6839645530E-01    0.6856101410E+00
    0.1300000000E+08    0.6117811455E+00    0.5013578208E-03    0.1108832542E-04    0.6841524168E-01    0.6856756999E+00
    0.1500000000E+08    0.6117663610E+00    0.4676001943E-03    0.1026522625E-04    0.6843132120E-01    0.6857277020E+00
    0.1700000000E+08    0.6117533186E+00    0.4399403405E-03    0.9595495904E-05    0.6844537701E-01    0.6857702615E+00
    0.1900000000E+08    0.6117416510E+00    0.4167348420E-03    0.9037061776E-05    0.6845786236E-01    0.6858059324E+00
    0.2100000000E+08    0.6117310962E+00    0.3969008039E-03    0.8562375151E-05    0.6846909340E-01    0.6858363953E+00
    0.2300000000E+08    0.6117214601E+00    0.3796916919E-03    0.8152550390E-05    0.6847929951E-01    0.6858628072E+00
    0.2500000000E+08    0.6117125956E+00    0.3645738528E-03    0.7794155229E-05    0.6848865233E-01    0.6858859944E+00
    0.2700000000E+08    0.6117043882E+00    0.3511542884E-03    0.7477343063E-05    0.6849728373E-01    0.6859065649E+00
