  Pressure (Pa) 22mC5-400 (mol/kg) 2mC6-400 (mol/kg) 33mC5-400 (mol/kg) 23mC5-400 (mol/kg) C7-400 (mol/kg)
    0.1000000000E+01    0.4214009927E-02    0.4757640516E-02    0.1291140242E-03    0.2774763794E-03    0.1714496084E-02
    0.3000000000E+01    0.1236430038E-01    0.1389965119E-01    0.3771687554E-03    0.8141548978E-03    0.5058806369E-02
    0.5000000000E+01    0.2016823645E-01    0.2257461355E-01    0.6124924050E-03    0.1328043503E-02    0.8295218868E-02
    0.7000000000E+01    0.2765195131E-01    0.3081617104E-01    0.8359999847E-03    0.1820861483E-02    0.1142937268E-01
    0.9000000000E+01    0.3483893644E-01    0.3865477704E-01    0.1048519897E-02    0.2294154349E-02    0.1446651276E-01
    0.1100000000E+02    0.4175036787E-01    0.4611806989E-01    0.1250804105E-02    0.2749315291E-02    0.1741152400E-01
    0.1300000000E+02    0.4840538524E-01    0.5323119559E-01    0.1443536883E-02    0.3187603535E-02    0.2026896186E-01
    0.1500000000E+02    0.5482133157E-01    0.6001708650E-01    0.1627342376E-02    0.3610160119E-02    0.2304307988E-01
    0.1700000000E+02    0.6101396004E-01    0.6649670310E-01    0.1802791161E-02    0.4018021488E-02    0.2573785447E-01
    0.1900000000E+02    0.6699761276E-01    0.7268924429E-01    0.1970405949E-02    0.4412131261E-02    0.2835700733E-01
    0.2100000000E+02    0.7278537611E-01    0.7861233107E-01    0.2130666571E-02    0.4793350444E-02    0.3090402566E-01
    0.2300000000E+02    0.7838921592E-01    0.8428216737E-01    0.2284014343E-02    0.5162466325E-02    0.3338218050E-01
    0.2500000000E+02    0.8382009562E-01    0.8971368145E-01    0.2430855904E-02    0.5520200245E-02    0.3579454340E-01
    0.2700000000E+02    0.8908807974E-01    0.9492065043E-01    0.2571566596E-02    0.5867214410E-02    0.3814400148E-01
    0.2900000000E+02    0.9420242484E-01    0.9991581039E-01    0.2706493454E-02    0.6204117866E-02    0.4043327124E-01
    0.3100000000E+02    0.9917165965E-01    0.1047109539E+00    0.2835957852E-02    0.6531471777E-02    0.4266491104E-01
    0.3300000000E+02    0.1040036558E+00    0.1093170168E+00    0.2960257863E-02    0.6849794076E-02    0.4484133261E-01
    0.3500000000E+02    0.1087056905E+00    0.1137441550E+00    0.3079670345E-02    0.7159563589E-02    0.4696481145E-01
    0.3700000000E+02    0.1132845022E+00    0.1180018140E+00    0.3194452824E-02    0.7461223691E-02    0.4903749644E-01
    0.3900000000E+02    0.1177463399E+00    0.1220987898E+00    0.3304845159E-02    0.7755185568E-02    0.5106141860E-01
    0.4100000000E+02    0.1220970076E+00    0.1260432849E+00    0.3411071049E-02    0.8041831113E-02    0.5303849914E-01
    0.4300000000E+02    0.1263419035E+00    0.1298429574E+00    0.3513339381E-02    0.8321515523E-02    0.5497055687E-01
    0.4500000000E+02    0.1304860552E+00    0.1335049658E+00    0.3611845445E-02    0.8594569619E-02    0.5685931496E-01
    0.4700000000E+02    0.1345341516E+00    0.1370360097E+00    0.3706772030E-02    0.8861301936E-02    0.5870640728E-01
    0.4900000000E+02    0.1384905712E+00    0.1404423658E+00    0.3798290416E-02    0.9122000587E-02    0.6051338410E-01
    0.1000000000E+02    0.3832785540E-01    0.4243171103E-01    0.1150897205E-02    0.2523919665E-02    0.1595024238E-01
    0.3000000000E+02    0.9670467443E-01    0.1023376816E+00    0.2771889311E-02    0.6368955182E-02    0.4155614084E-01
    0.5000000000E+02    0.1404356921E+00    0.1421006400E+00    0.3842822135E-02    0.9250172160E-02    0.6140229214E-01
    0.7000000000E+02    0.1753905589E+00    0.1699718734E+00    0.4588701294E-02    0.1155378655E-01    0.7739541549E-01
    0.9000000000E+02    0.2045396826E+00    0.1902660587E+00    0.5127351125E-02    0.1347526039E-01    0.9066981330E-01
    0.1100000000E+03    0.2295630985E+00    0.2054622691E+00    0.5526556285E-02    0.1512515084E-01    0.1019449654E+00
    0.1300000000E+03    0.2514929628E+00    0.2170852916E+00    0.5828057894E-02    0.1657138316E-01    0.1117007217E+00
    0.1500000000E+03    0.2710055732E+00    0.2261227314E+00    0.6058921294E-02    0.1785846540E-01    0.1202703052E+00
    0.1700000000E+03    0.2885676052E+00    0.2332408033E+00    0.6237422364E-02    0.1901711098E-01    0.1278929361E+00
    0.1900000000E+03    0.3045150933E+00    0.2389039191E+00    0.6376312279E-02    0.2006943606E-01    0.1347451963E+00
    0.2100000000E+03    0.3190987644E+00    0.2434446973E+00    0.6484730358E-02    0.2103194276E-01    0.1409605507E+00
    0.2300000000E+03    0.3325113959E+00    0.2471068321E+00    0.6569376309E-02    0.2191731948E-01    0.1466419486E+00
    0.2500000000E+03    0.3449050381E+00    0.2500723452E+00    0.6635256057E-02    0.2273557438E-01    0.1518702187E+00
    0.2700000000E+03    0.3564022564E+00    0.2524794689E+00    0.6686171612E-02    0.2349477521E-01    0.1567098149E+00
    0.2900000000E+03    0.3671037050E+00    0.2544347060E+00    0.6725051741E-02    0.2420154766E-01    0.1612128446E+00
    0.3100000000E+03    0.3770933723E+00    0.2560211580E+00    0.6754180528E-02    0.2486142069E-01    0.1654219516E+00
    0.3300000000E+03    0.3864423069E+00    0.2573043961E+00    0.6775358681E-02    0.2547907162E-01    0.1693724202E+00
    0.3500000000E+03    0.3952113229E+00    0.2583366772E+00    0.6790019479E-02    0.2605850423E-01    0.1730937349E+00
    0.3700000000E+03    0.4034530053E+00    0.2591600208E+00    0.6799313485E-02    0.2660318075E-01    0.1766107552E+00
    0.3900000000E+03    0.4112132244E+00    0.2598084873E+00    0.6804171349E-02    0.2711612144E-01    0.1799446126E+00
    0.4100000000E+03    0.4185322991E+00    0.2603098877E+00    0.6805350974E-02    0.2759998124E-01    0.1831134039E+00
    0.4300000000E+03    0.4254459041E+00    0.2606870814E+00    0.6803473365E-02    0.2805710940E-01    0.1861327328E+00
    0.4500000000E+03    0.4319857888E+00    0.2609589719E+00    0.6799050170E-02    0.2848959681E-01    0.1890161386E+00
    0.4700000000E+03    0.4381803529E+00    0.2611412793E+00    0.6792505036E-02    0.2889931391E-01    0.1917754373E+00
    0.4900000000E+03    0.4440551149E+00    0.2612471429E+00    0.6784190328E-02    0.2928794145E-01    0.1944209967E+00
    0.1000000000E+03    0.2174918370E+00    0.1983900034E+00    0.5341335579E-02    0.1432920034E-01    0.9652304236E-01
    0.3000000000E+03    0.3721828033E+00    0.2552695771E+00    0.6740712718E-02    0.2453703667E-01    0.1633517811E+00
    0.5000000000E+03    0.4468798526E+00    0.2612749281E+00    0.6779463311E-02    0.2947482634E-01    0.1957040237E+00
    0.7000000000E+03    0.4911477564E+00    0.2597328148E+00    0.6642432770E-02    0.3240590918E-01    0.2171340638E+00
    0.9000000000E+03    0.5199732762E+00    0.2565521869E+00    0.6483514520E-02    0.3431769801E-01    0.2332570999E+00
    0.1100000000E+04    0.5399801497E+00    0.2530554033E+00    0.6332312719E-02    0.3564689597E-01    0.2462404393E+00
    0.1300000000E+04    0.5545468573E+00    0.2496059999E+00    0.6194149498E-02    0.3661638724E-01    0.2571423344E+00
    0.1500000000E+04    0.5655569425E+00    0.2463089489E+00    0.6068745051E-02    0.3735050806E-01    0.2665584232E+00
    0.1700000000E+04    0.5741323293E+00    0.2431886526E+00    0.5954602760E-02    0.3792336298E-01    0.2748575812E+00
    0.1900000000E+04    0.5809774016E+00    0.2402426302E+00    0.5850140185E-02    0.3838150507E-01    0.2822844896E+00
    0.2100000000E+04    0.5865539301E+00    0.2374596348E+00    0.5753966372E-02    0.3875547117E-01    0.2890100580E+00
    0.2300000000E+04    0.5911757929E+00    0.2348261942E+00    0.5664921109E-02    0.3906603041E-01    0.2951585704E+00
    0.2500000000E+04    0.5950630013E+00    0.2323290186E+00    0.5582050560E-02    0.3932774960E-01    0.3008233642E+00
    0.2700000000E+04    0.5983738981E+00    0.2299558409E+00    0.5504570853E-02    0.3955111891E-01    0.3060764070E+00
    0.2900000000E+04    0.6012250844E+00    0.2276956397E+00    0.5431834314E-02    0.3974386790E-01    0.3109744187E+00
    0.3100000000E+04    0.6037041629E+00    0.2255386218E+00    0.5363301692E-02    0.3991180739E-01    0.3155629384E+00
    0.3300000000E+04    0.6058781235E+00    0.2234761173E+00    0.5298520217E-02    0.4005938375E-01    0.3198791121E+00
    0.3500000000E+04    0.6077990045E+00    0.2215004511E+00    0.5237106519E-02    0.4019005311E-01    0.3239536578E+00
    0.3700000000E+04    0.6095078002E+00    0.2196048158E+00    0.5178733357E-02    0.4030653989E-01    0.3278122843E+00
    0.3900000000E+04    0.6110372144E+00    0.2177831572E+00    0.5123119268E-02    0.4041101891E-01    0.3314767358E+00
    0.4100000000E+04    0.6124136354E+00    0.2160300731E+00    0.5070020439E-02    0.4050524616E-01    0.3349655763E+00
    0.4300000000E+04    0.6136585765E+00    0.2143407266E+00    0.5019224279E-02    0.4059065418E-01    0.3382947878E+00
    0.4500000000E+04    0.6147897422E+00    0.2127107723E+00    0.4970544296E-02    0.4066842263E-01    0.3414782331E+00
    0.4700000000E+04    0.6158218281E+00    0.2111362927E+00    0.4923815973E-02    0.4073953137E-01    0.3445280189E+00
    0.4900000000E+04    0.6167671290E+00    0.2096137450E+00    0.4878893425E-02    0.4080480073E-01    0.3474547831E+00
    0.1000000000E+04    0.5308198601E+00    0.2548107436E+00    0.6406388029E-02    0.3503802510E-01    0.2400598824E+00
    0.3000000000E+04    0.6025065439E+00    0.2266047995E+00    0.5397072617E-02    0.3983063403E-01    0.3133048730E+00
    0.5000000000E+04    0.6172105381E+00    0.2088709295E+00    0.4857068140E-02    0.4083546614E-01    0.3488750128E+00
    0.7000000000E+04    0.6233487401E+00    0.1960977586E+00    0.4490129019E-02    0.4126428753E-01    0.3726217228E+00
    0.9000000000E+04    0.6266902025E+00    0.1861575908E+00    0.4213899929E-02    0.4150290785E-01    0.3903963049E+00
    0.1100000000E+05    0.6287844524E+00    0.1780522564E+00    0.3993696853E-02    0.4165574972E-01    0.4045449107E+00
    0.1300000000E+05    0.6302172826E+00    0.1712320194E+00    0.3811521273E-02    0.4176258965E-01    0.4162547307E+00
    0.1500000000E+05    0.6312580738E+00    0.1653613942E+00    0.3656809071E-02    0.4184185752E-01    0.4262121638E+00
    0.1700000000E+05    0.6320477084E+00    0.1602204725E+00    0.3522827606E-02    0.4190326461E-01    0.4348504738E+00
    0.1900000000E+05    0.6326669211E+00    0.1556572835E+00    0.3405023693E-02    0.4195241799E-01    0.4424608140E+00
    0.2100000000E+05    0.6331652602E+00    0.1515624364E+00    0.3300176307E-02    0.4199278460E-01    0.4492482755E+00
    0.2300000000E+05    0.6335748009E+00    0.1478545940E+00    0.3205924705E-02    0.4202662556E-01    0.4553627431E+00
    0.2500000000E+05    0.6339172139E+00    0.1444716564E+00    0.3120488409E-02    0.4205547989E-01    0.4609170464E+00
    0.2700000000E+05    0.6342076630E+00    0.1413651552E+00    0.3042492439E-02    0.4208043247E-01    0.4659982148E+00
    0.2900000000E+05    0.6344570735E+00    0.1384965512E+00    0.2970853624E-02    0.4210227073E-01    0.4706747605E+00
    0.3100000000E+05    0.6346735150E+00    0.1358347067E+00    0.2904704066E-02    0.4212158053E-01    0.4750015625E+00
    0.3300000000E+05    0.6348630760E+00    0.1333541140E+00    0.2843338082E-02    0.4213880713E-01    0.4790232415E+00
    0.3500000000E+05    0.6350304358E+00    0.1310336229E+00    0.2786174499E-02    0.4215429524E-01    0.4827765526E+00
    0.3700000000E+05    0.6351792498E+00    0.1288555078E+00    0.2732729256E-02    0.4216831606E-01    0.4862921200E+00
    0.3900000000E+05    0.6353124145E+00    0.1268047709E+00    0.2682595125E-02    0.4218108604E-01    0.4895957197E+00
    0.4100000000E+05    0.6354322544E+00    0.1248686142E+00    0.2635426436E-02    0.4219278016E-01    0.4927092441E+00
    0.4300000000E+05    0.6355406566E+00    0.1230360325E+00    0.2590927404E-02    0.4220354143E-01    0.4956514386E+00
    0.4500000000E+05    0.6356391687E+00    0.1212974962E+00    0.2548843079E-02    0.4221348802E-01    0.4984384723E+00
    0.4700000000E+05    0.6357290721E+00    0.1196447012E+00    0.2508952251E-02    0.4222271841E-01    0.5010843851E+00
    0.4900000000E+05    0.6358114363E+00    0.1180703692E+00    0.2471061823E-02    0.4223131542E-01    0.5036014427E+00
    0.1000000000E+05    0.6278454383E+00    0.1819166845E+00    0.4098159356E-02    0.4158681233E-01    0.3978333942E+00
    0.3000000000E+05    0.6345689963E+00    0.1371414933E+00    0.2937140093E-02    0.4211221111E-01    0.4728788821E+00
    0.5000000000E+05    0.6358500782E+00    0.1173105928E+00    0.2452812975E-02    0.4223539876E-01    0.5048150696E+00
    0.7000000000E+05    0.6363855128E+00    0.1050139842E+00    0.2160816628E-02    0.4229631613E-01    0.5243630210E+00
    0.9000000000E+05    0.6366769637E+00    0.9631136750E-01    0.1957980617E-02    0.4233470684E-01    0.5381004676E+00
    0.1100000000E+06    0.6368589883E+00    0.8968515241E-01    0.1805682409E-02    0.4236204059E-01    0.5485122417E+00
    0.1300000000E+06    0.6369827529E+00    0.8439775834E-01    0.1685505084E-02    0.4238297752E-01    0.5567929017E+00
    0.1500000000E+06    0.6370719174E+00    0.8003808921E-01    0.1587330693E-02    0.4239980955E-01    0.5636034108E+00
    0.1700000000E+06    0.6371389080E+00    0.7635504165E-01    0.1505050291E-02    0.4241381247E-01    0.5693453579E+00
    0.1900000000E+06    0.6371908667E+00    0.7318477439E-01    0.1434716352E-02    0.4242576113E-01    0.5742797040E+00
    0.2100000000E+06    0.6372321846E+00    0.7041490288E-01    0.1373643600E-02    0.4243615769E-01    0.5785848662E+00
    0.2300000000E+06    0.6372657072E+00    0.6796525120E-01    0.1319930274E-02    0.4244534432E-01    0.5823877850E+00
    0.2500000000E+06    0.6372933569E+00    0.6577677880E-01    0.1272185010E-02    0.4245356372E-01    0.5857817251E+00
    0.2700000000E+06    0.6373164786E+00    0.6380485668E-01    0.1229362199E-02    0.4246099372E-01    0.5888370484E+00
    0.2900000000E+06    0.6373360401E+00    0.6201500035E-01    0.1190658192E-02    0.4246776818E-01    0.5916080304E+00
    0.3100000000E+06    0.6373527554E+00    0.6038006050E-01    0.1155443357E-02    0.4247399024E-01    0.5941373379E+00
    0.3300000000E+06    0.6373671621E+00    0.5887831486E-01    0.1123216180E-02    0.4247974088E-01    0.5964590636E+00
    0.3500000000E+06    0.6373796726E+00    0.5749213700E-01    0.1093571404E-02    0.4248508481E-01    0.5986008386E+00
    0.3700000000E+06    0.6373906082E+00    0.5620704591E-01    0.1066177382E-02    0.4249007447E-01    0.6005853390E+00
    0.3900000000E+06    0.6374002228E+00    0.5501101336E-01    0.1040759643E-02    0.4249475293E-01    0.6024313815E+00
    0.4100000000E+06    0.6374087196E+00    0.5389395007E-01    0.1017088747E-02    0.4249915597E-01    0.6041547354E+00
    0.4300000000E+06    0.6374162632E+00    0.5284731831E-01    0.9949711660E-03    0.4250331364E-01    0.6057687340E+00
    0.4500000000E+06    0.6374229880E+00    0.5186383556E-01    0.9742423265E-03    0.4250725135E-01    0.6072847416E+00
    0.4700000000E+06    0.6374290048E+00    0.5093724495E-01    0.9547612442E-03    0.4251099085E-01    0.6087125154E+00
    0.4900000000E+06    0.6374344061E+00    0.5006213525E-01    0.9364063260E-03    0.4251455083E-01    0.6100604880E+00
    0.1000000000E+06    0.6367774865E+00    0.9279553498E-01    0.1876939597E-02    0.4234938249E-01    0.5436298122E+00
    0.3000000000E+06    0.6373447165E+00    0.6117963287E-01    0.1172648548E-02    0.4247094276E-01    0.5929005900E+00
    0.5000000000E+06    0.6374369005E+00    0.4964239027E-01    0.9276176525E-03    0.4251626864E-01    0.6107068781E+00
    0.7000000000E+06    0.6374679862E+00    0.4307354387E-01    0.7914092730E-03    0.4254420165E-01    0.6208091178E+00
    0.9000000000E+06    0.6374806547E+00    0.3866529458E-01    0.7014829369E-03    0.4256438460E-01    0.6275746526E+00
    0.1100000000E+07    0.6374858059E+00    0.3543304495E-01    0.6363616581E-03    0.4258018196E-01    0.6325284043E+00
    0.1300000000E+07    0.6374873626E+00    0.3292691576E-01    0.5863750338E-03    0.4259315874E-01    0.6363653298E+00
    0.1500000000E+07    0.6374870324E+00    0.3090733463E-01    0.5464316626E-03    0.4260416935E-01    0.6394548400E+00
    0.1700000000E+07    0.6374856552E+00    0.2923310999E-01    0.5135588625E-03    0.4261373118E-01    0.6420143478E+00
    0.1900000000E+07    0.6374836803E+00    0.2781476859E-01    0.4858877434E-03    0.4262218122E-01    0.6441814783E+00
    0.2100000000E+07    0.6374813631E+00    0.2659242426E-01    0.4621760314E-03    0.4262975114E-01    0.6460482639E+00
    0.2300000000E+07    0.6374788555E+00    0.2552424228E-01    0.4415611993E-03    0.4263660705E-01    0.6476789476E+00
    0.2500000000E+07    0.6374762506E+00    0.2457997483E-01    0.4234230238E-03    0.4264287211E-01    0.6491199490E+00
    0.2700000000E+07    0.6374736069E+00    0.2373712369E-01    0.4073024738E-03    0.4264864012E-01    0.6504057755E+00
    0.2900000000E+07    0.6374709618E+00    0.2297855319E-01    0.3928515171E-03    0.4265398421E-01    0.6515626965E+00
    0.3100000000E+07    0.6374683390E+00    0.2229094621E-01    0.3798008099E-03    0.4265896246E-01    0.6526111183E+00
    0.3300000000E+07    0.6374657539E+00    0.2166377206E-01    0.3679381910E-03    0.4266362179E-01    0.6535671710E+00
    0.3500000000E+07    0.6374632159E+00    0.2108857675E-01    0.3570939545E-03    0.4266800064E-01    0.6544437993E+00
    0.3700000000E+07    0.6374607308E+00    0.2055848283E-01    0.3471305102E-03    0.4267213089E-01    0.6552515304E+00
    0.3900000000E+07    0.6374583019E+00    0.2006782934E-01    0.3379349656E-03    0.4267603926E-01    0.6559990266E+00
    0.4100000000E+07    0.6374559305E+00    0.1961190759E-01    0.3294137008E-03    0.4267974841E-01    0.6566934913E+00
    0.4300000000E+07    0.6374536169E+00    0.1918676401E-01    0.3214883333E-03    0.4268327769E-01    0.6573409711E+00
    0.4500000000E+07    0.6374513608E+00    0.1878905078E-01    0.3140926698E-03    0.4268664374E-01    0.6579465848E+00
    0.4700000000E+07    0.6374491610E+00    0.1841591116E-01    0.3071703715E-03    0.4268986101E-01    0.6585146995E+00
    0.4900000000E+07    0.6374470162E+00    0.1806489033E-01    0.3006731447E-03    0.4269294211E-01    0.6590490671E+00
    0.1000000000E+07    0.6374838457E+00    0.3693732848E-01    0.6665800343E-03    0.4257270997E-01    0.6302236585E+00
    0.3000000000E+07    0.6374696465E+00    0.2262659317E-01    0.3861655341E-03    0.4265651590E-01    0.6520993761E+00
    0.5000000000E+07    0.6374459639E+00    0.1789699965E-01    0.2975706855E-03    0.4269443511E-01    0.6593046268E+00
    0.7000000000E+07    0.6374273831E+00    0.1530909321E-01    0.2501882871E-03    0.4271924302E-01    0.6632418769E+00
    0.9000000000E+07    0.6374124379E+00    0.1361303565E-01    0.2196177964E-03    0.4273771675E-01    0.6658201814E+00
    0.1100000000E+08    0.6374000002E+00    0.1238956262E-01    0.1978282231E-03    0.4275244384E-01    0.6676790207E+00
    0.1300000000E+08    0.6373893677E+00    0.1145241085E-01    0.1812994577E-03    0.4276469193E-01    0.6691022347E+00
    0.1500000000E+08    0.6373800897E+00    0.1070437299E-01    0.1682137017E-03    0.4277517738E-01    0.6702378577E+00
    0.1700000000E+08    0.6373718630E+00    0.1008904321E-01    0.1575253011E-03    0.4278434479E-01    0.6711717451E+00
    0.1900000000E+08    0.6373644752E+00    0.9571120557E-02    0.1485846900E-03    0.4279248920E-01    0.6719576069E+00
    0.2100000000E+08    0.6373577718E+00    0.9127220519E-02    0.1409643570E-03    0.4279981646E-01    0.6726310102E+00
    0.2300000000E+08    0.6373516373E+00    0.8741149888E-02    0.1343699615E-03    0.4280647589E-01    0.6732165771E+00
    0.2500000000E+08    0.6373459828E+00    0.8401288616E-02    0.1285913798E-03    0.4281257929E-01    0.6737319717E+00
    0.2700000000E+08    0.6373407388E+00    0.8099050708E-02    0.1234740821E-03    0.4281821253E-01    0.6741902432E+00
