  Pressure (Pa) 22mC5-400 (mol/kg) 2mC6-400 (mol/kg) 33mC5-400 (mol/kg) 23mC5-400 (mol/kg) C7-400 (mol/kg)
    0.1000000000E+01    0.4227165791E-02    0.1576990029E-02    0.6420348224E-04    0.2783422392E-03    0.1019949026E-01
    0.3000000000E+01    0.1247681722E-01    0.4557069488E-02    0.1855581342E-03    0.8215603508E-03    0.2960333282E-01
    0.5000000000E+01    0.2046557633E-01    0.7323263452E-02    0.2982387720E-03    0.1347613608E-02    0.4778666576E-01
    0.7000000000E+01    0.2820696984E-01    0.9894897949E-02    0.4030288054E-03    0.1857391785E-02    0.6486316462E-01
    0.9000000000E+01    0.3571358554E-01    0.1228906443E-01    0.5006209143E-03    0.2351722903E-02    0.8093275124E-01
    0.1100000000E+02    0.4299715213E-01    0.1452093719E-01    0.5916299588E-03    0.2831378479E-02    0.9608361550E-01
    0.1300000000E+02    0.5006861094E-01    0.1660403757E-01    0.6766037208E-03    0.3297078241E-02    0.1103938904E+00
    0.1500000000E+02    0.5693818081E-01    0.1855045511E-01    0.7560318945E-03    0.3749494399E-02    0.1239330479E+00
    0.1700000000E+02    0.6361541660E-01    0.2037103371E-01    0.8303536514E-03    0.4189255489E-02    0.1367630688E+00
    0.1900000000E+02    0.7010926214E-01    0.2207552912E-01    0.8999640411E-03    0.4616949857E-02    0.1489394275E+00
    0.2100000000E+02    0.7642809832E-01    0.2367274293E-01    0.9652194312E-03    0.5033128822E-02    0.1605119255E+00
    0.2300000000E+02    0.8257978659E-01    0.2517063695E-01    0.1026442154E-02    0.5438309538E-02    0.1715253999E+00
    0.2500000000E+02    0.8857170866E-01    0.2657643135E-01    0.1083924493E-02    0.5832977602E-02    0.1820203282E+00
    0.2700000000E+02    0.9441080256E-01    0.2789668927E-01    0.1137932112E-02    0.6217589428E-02    0.1920333465E+00
    0.2900000000E+02    0.1001035955E+00    0.2913738995E-01    0.1188707027E-02    0.6592574409E-02    0.2015976961E+00
    0.3100000000E+02    0.1056562340E+00    0.3030399216E-01    0.1236470181E-02    0.6958336891E-02    0.2107436083E+00
    0.3300000000E+02    0.1110745111E+00    0.3140148960E-01    0.1281423684E-02    0.7315257982E-02    0.2194986387E+00
    0.3500000000E+02    0.1163638918E+00    0.3243445918E-01    0.1323752779E-02    0.7663697198E-02    0.2278879573E+00
    0.3700000000E+02    0.1215295358E+00    0.3340710342E-01    0.1363627557E-02    0.8003993982E-02    0.2359346022E+00
    0.3900000000E+02    0.1265763187E+00    0.3432328774E-01    0.1401204468E-02    0.8336469087E-02    0.2436597009E+00
    0.4100000000E+02    0.1315088516E+00    0.3518657337E-01    0.1436627655E-02    0.8661425861E-02    0.2510826652E+00
    0.4300000000E+02    0.1363314985E+00    0.3600024638E-01    0.1470030132E-02    0.8979151410E-02    0.2582213624E+00
    0.4500000000E+02    0.1410483932E+00    0.3676734351E-01    0.1501534828E-02    0.9289917683E-02    0.2650922661E+00
    0.4700000000E+02    0.1456634539E+00    0.3749067512E-01    0.1531255519E-02    0.9593982469E-02    0.2717105902E+00
    0.4900000000E+02    0.1501803979E+00    0.3817284557E-01    0.1559297649E-02    0.9891590309E-02    0.2780904075E+00
    0.1000000000E+02    0.3938254848E-01    0.1342440648E-01    0.5469126241E-03    0.2593338989E-02    0.8861792223E-01
    0.3000000000E+02    0.1028970640E+00    0.2972963095E-01    0.1212952025E-02    0.6776584118E-02    0.2062211755E+00
    0.5000000000E+02    0.1524031858E+00    0.3849925745E-01    0.1572720111E-02    0.1003804588E-01    0.2811949879E+00
    0.7000000000E+02    0.1924769381E+00    0.4336928759E-01    0.1773408986E-02    0.1267876921E-01    0.3334705970E+00
    0.9000000000E+02    0.2258347634E+00    0.4603639497E-01    0.1883776121E-02    0.1487747374E-01    0.3721793153E+00
    0.1100000000E+03    0.2541978908E+00    0.4738755865E-01    0.1939854488E-02    0.1674740908E-01    0.4021064211E+00
    0.1300000000E+03    0.2787156800E+00    0.4792350952E-01    0.1962060042E-02    0.1836420258E-01    0.4260077113E+00
    0.1500000000E+03    0.3001893922E+00    0.4794295718E-01    0.1962628706E-02    0.1978057981E-01    0.4455854640E+00
    0.1700000000E+03    0.3191980189E+00    0.4763155696E-01    0.1949207820E-02    0.2103464244E-01    0.4619498008E+00
    0.1900000000E+03    0.3361727695E+00    0.4710833919E-01    0.1926731821E-02    0.2215476868E-01    0.4758566798E+00
    0.2100000000E+03    0.3514431307E+00    0.4645143957E-01    0.1898463257E-02    0.2316264357E-01    0.4878393947E+00
    0.2300000000E+03    0.3652664362E+00    0.4571305894E-01    0.1866599347E-02    0.2407520446E-01    0.4982853835E+00
    0.2500000000E+03    0.3778474819E+00    0.4492850805E-01    0.1832639751E-02    0.2490593162E-01    0.5074832026E+00
    0.2700000000E+03    0.3893519190E+00    0.4412185624E-01    0.1797617035E-02    0.2566572936E-01    0.5156523864E+00
    0.2900000000E+03    0.3999156344E+00    0.4330955680E-01    0.1762245188E-02    0.2636354335E-01    0.5229630645E+00
    0.3100000000E+03    0.4096514748E+00    0.4250282794E-01    0.1727017599E-02    0.2700680296E-01    0.5295492224E+00
    0.3300000000E+03    0.4186541649E+00    0.4170924759E-01    0.1692273030E-02    0.2760174494E-01    0.5355178909E+00
    0.3500000000E+03    0.4270039733E+00    0.4093383979E-01    0.1658240797E-02    0.2815365460E-01    0.5409556556E+00
    0.3700000000E+03    0.4347694898E+00    0.4017982545E-01    0.1625072192E-02    0.2866704858E-01    0.5459333575E+00
    0.3900000000E+03    0.4420097626E+00    0.3944914758E-01    0.1592862613E-02    0.2914581551E-01    0.5505095481E+00
    0.4100000000E+03    0.4487759652E+00    0.3874284260E-01    0.1561667315E-02    0.2959332564E-01    0.5547330677E+00
    0.4300000000E+03    0.4551127123E+00    0.3806130514E-01    0.1531512735E-02    0.3001251752E-01    0.5586449976E+00
    0.4500000000E+03    0.4610591115E+00    0.3740447818E-01    0.1502404691E-02    0.3040596712E-01    0.5622801569E+00
    0.4700000000E+03    0.4666496115E+00    0.3677199041E-01    0.1474334355E-02    0.3077594375E-01    0.5656682639E+00
    0.4900000000E+03    0.4719146932E+00    0.3616325582E-01    0.1447282635E-02    0.3112445545E-01    0.5688348462E+00
    0.1000000000E+03    0.2405586904E+00    0.4683894524E-01    0.1917073384E-02    0.1584814381E-01    0.3880358344E+00
    0.3000000000E+03    0.4048807420E+00    0.4290495182E-01    0.1744589175E-02    0.2669157786E-01    0.5263394741E+00
    0.5000000000E+03    0.4744337845E+00    0.3586757236E-01    0.1434130790E-02    0.3129122737E-01    0.5703420778E+00
    0.7000000000E+03    0.5129436780E+00    0.3099694098E-01    0.1216662575E-02    0.3384322990E-01    0.5929096110E+00
    0.9000000000E+03    0.5372085687E+00    0.2758031440E-01    0.1063824398E-02    0.3545459338E-01    0.6069261257E+00
    0.1100000000E+04    0.5537991318E+00    0.2506446034E-01    0.9517117220E-03    0.3655866066E-01    0.6165987079E+00
    0.1300000000E+04    0.5658109332E+00    0.2312957817E-01    0.8660811407E-03    0.3735973757E-01    0.6237362922E+00
    0.1500000000E+04    0.5748852851E+00    0.2158834168E-01    0.7984446102E-03    0.3796622800E-01    0.6292538993E+00
    0.1700000000E+04    0.5819692189E+00    0.2032581982E-01    0.7435411063E-03    0.3844072535E-01    0.6336674858E+00
    0.1900000000E+04    0.5876454580E+00    0.1926809749E-01    0.6979678061E-03    0.3882177182E-01    0.6372916416E+00
    0.2100000000E+04    0.5922912425E+00    0.1836559872E-01    0.6594363876E-03    0.3913433653E-01    0.6403298615E+00
    0.2300000000E+04    0.5961610628E+00    0.1758384352E-01    0.6263546004E-03    0.3939527599E-01    0.6429200236E+00
    0.2500000000E+04    0.5994325624E+00    0.1689809257E-01    0.5975812629E-03    0.3961636515E-01    0.6451591040E+00
    0.2700000000E+04    0.6022333586E+00    0.1629011361E-01    0.5722772202E-03    0.3980606915E-01    0.6471174417E+00
    0.2900000000E+04    0.6046574077E+00    0.1574615517E-01    0.5498114655E-03    0.3997062485E-01    0.6488473894E+00
    0.3100000000E+04    0.6067753650E+00    0.1525563426E-01    0.5297001363E-03    0.4011472580E-01    0.6503887768E+00
    0.3300000000E+04    0.6086413539E+00    0.1481026139E-01    0.5115657532E-03    0.4024197001E-01    0.6517724849E+00
    0.3500000000E+04    0.6102975136E+00    0.1440344178E-01    0.4951093015E-03    0.4035516086E-01    0.6530228532E+00
    0.3700000000E+04    0.6117771290E+00    0.1402985611E-01    0.4800906786E-03    0.4045651430E-01    0.6541593454E+00
    0.3900000000E+04    0.6131068309E+00    0.1368516077E-01    0.4663147257E-03    0.4054780464E-01    0.6551977259E+00
    0.4100000000E+04    0.6143081741E+00    0.1336576963E-01    0.4536210672E-03    0.4063046902E-01    0.6561509100E+00
    0.4300000000E+04    0.6153987870E+00    0.1306869241E-01    0.4418765996E-03    0.4070568370E-01    0.6570295874E+00
    0.4500000000E+04    0.6163932244E+00    0.1279141322E-01    0.4309698561E-03    0.4077442055E-01    0.6578426880E+00
    0.4700000000E+04    0.6173036069E+00    0.1253179795E-01    0.4208067207E-03    0.4083748953E-01    0.6585977343E+00
    0.4900000000E+04    0.6181401077E+00    0.1228802281E-01    0.4113071300E-03    0.4089557097E-01    0.6593011119E+00
    0.1000000000E+04    0.5462215828E+00    0.2623386967E-01    0.1003743045E-02    0.3605409954E-01    0.6121618894E+00
    0.3000000000E+04    0.6057509394E+00    0.1549477879E-01    0.5394872069E-03    0.4004498570E-01    0.6496395460E+00
    0.5000000000E+04    0.6185333933E+00    0.1217157625E-01    0.4067843424E-03    0.4092292478E-01    0.6596351622E+00
    0.7000000000E+04    0.6240448570E+00    0.1038736239E-01    0.3387271653E-03    0.4131032553E-01    0.6645899611E+00
    0.9000000000E+04    0.6271069452E+00    0.9226795892E-02    0.2957458854E-03    0.4153047086E-01    0.6676388926E+00
    0.1100000000E+05    0.6290531674E+00    0.8392677738E-02    0.2654985903E-03    0.4167351832E-01    0.6697406461E+00
    0.1300000000E+05    0.6303984559E+00    0.7755064677E-02    0.2427462634E-03    0.4177456293E-01    0.6712951859E+00
    0.1500000000E+05    0.6313833892E+00    0.7246748469E-02    0.2248399342E-03    0.4185013102E-01    0.6725015746E+00
    0.1700000000E+05    0.6321353447E+00    0.6828946070E-02    0.2102783245E-03    0.4190904105E-01    0.6734710255E+00
    0.1900000000E+05    0.6327280412E+00    0.6477473639E-02    0.1981390434E-03    0.4195643614E-01    0.6742709906E+00
    0.2100000000E+05    0.6332070889E+00    0.6176351023E-02    0.1878201322E-03    0.4199552275E-01    0.6749449769E+00
    0.2300000000E+05    0.6336022143E+00    0.5914532081E-02    0.1789099055E-03    0.4202840659E-01    0.6755224251E+00
    0.2500000000E+05    0.6339336176E+00    0.5684100619E-02    0.1711160552E-03    0.4205652939E-01    0.6760240376E+00
    0.2700000000E+05    0.6342155041E+00    0.5479213163E-02    0.1642245685E-03    0.4208091257E-01    0.6764648382E+00
    0.2900000000E+05    0.6344581530E+00    0.5295448357E-02    0.1580746944E-03    0.4210230080E-01    0.6768560205E+00
    0.3100000000E+05    0.6346691860E+00    0.5129390044E-02    0.1525430422E-03    0.4212125027E-01    0.6772061126E+00
    0.3300000000E+05    0.6348543730E+00    0.4978350797E-02    0.1475331201E-03    0.4213818514E-01    0.6775217377E+00
    0.3500000000E+05    0.6350181623E+00    0.4840183169E-02    0.1429682431E-03    0.4215343482E-01    0.6778081256E+00
    0.3700000000E+05    0.6351640382E+00    0.4713147512E-02    0.1387865993E-03    0.4216725918E-01    0.6780694670E+00
    0.3900000000E+05    0.6352947686E+00    0.4595817362E-02    0.1349377390E-03    0.4217986616E-01    0.6783091630E+00
    0.4100000000E+05    0.6354125800E+00    0.4487010369E-02    0.1313800254E-03    0.4219142420E-01    0.6785300062E+00
    0.4300000000E+05    0.6355192834E+00    0.4385736995E-02    0.1280787514E-03    0.4220207131E-01    0.6787343132E+00
    0.4500000000E+05    0.6356163672E+00    0.4291161820E-02    0.1250047257E-03    0.4221192170E-01    0.6789240232E+00
    0.4700000000E+05    0.6357050656E+00    0.4202573949E-02    0.1221331953E-03    0.4222107076E-01    0.6791007738E+00
    0.4900000000E+05    0.6357864109E+00    0.4119364078E-02    0.1194430155E-03    0.4222959879E-01    0.6792659580E+00
    0.1000000000E+05    0.6281777206E+00    0.8779180516E-02    0.2794465543E-03    0.4160878756E-01    0.6687762619E+00
    0.3000000000E+05    0.6345672247E+00    0.5210388385E-02    0.1552381558E-03    0.4211205128E-01    0.6770357512E+00
    0.5000000000E+05    0.6358246033E+00    0.4079608763E-02    0.1181601484E-03    0.4223365164E-01    0.6793445925E+00
    0.7000000000E+05    0.6363558604E+00    0.3470339428E-02    0.9870272078E-04    0.4229427988E-01    0.6805266092E+00
    0.9000000000E+05    0.6366469024E+00    0.3074608007E-02    0.8628124598E-04    0.4233263365E-01    0.6812711784E+00
    0.1100000000E+06    0.6368295207E+00    0.2790886285E-02    0.7748968391E-04    0.4235999845E-01    0.6817938117E+00
    0.1300000000E+06    0.6369541562E+00    0.2574548076E-02    0.7085477897E-04    0.4238098582E-01    0.6821860609E+00
    0.1500000000E+06    0.6370442380E+00    0.2402479217E-02    0.6562264533E-04    0.4239787215E-01    0.6824941874E+00
    0.1700000000E+06    0.6371121136E+00    0.2261344567E-02    0.6136256894E-04    0.4241192782E-01    0.6827443744E+00
    0.1900000000E+06    0.6371648993E+00    0.2142836884E-02    0.5780841714E-04    0.4242392586E-01    0.6829526828E+00
    0.2100000000E+06    0.6372069806E+00    0.2041474089E-02    0.5478579725E-04    0.4243436795E-01    0.6831295758E+00
    0.2300000000E+06    0.6372412048E+00    0.1953472181E-02    0.5217507725E-04    0.4244359637E-01    0.6832821973E+00
    0.2500000000E+06    0.6372694994E+00    0.1876123323E-02    0.4989111950E-04    0.4245185406E-01    0.6834156114E+00
    0.2700000000E+06    0.6372932146E+00    0.1807431549E-02    0.4787148034E-04    0.4245931919E-01    0.6835335200E+00
    0.2900000000E+06    0.6373133239E+00    0.1745888737E-02    0.4606919215E-04    0.4246612596E-01    0.6836386997E+00
    0.3100000000E+06    0.6373305460E+00    0.1690331178E-02    0.4444816425E-04    0.4247237779E-01    0.6837332791E+00
    0.3300000000E+06    0.6373454231E+00    0.1639844550E-02    0.4298014963E-04    0.4247815595E-01    0.6838189207E+00
    0.3500000000E+06    0.6373583714E+00    0.1593699109E-02    0.4164268444E-04    0.4248352539E-01    0.6838969441E+00
    0.3700000000E+06    0.6373697156E+00    0.1551304353E-02    0.4041765201E-04    0.4248853876E-01    0.6839684120E+00
    0.3900000000E+06    0.6373797127E+00    0.1512176595E-02    0.3929025954E-04    0.4249323932E-01    0.6840341909E+00
    0.4100000000E+06    0.6373885685E+00    0.1475915325E-02    0.3824829431E-04    0.4249766302E-01    0.6840949954E+00
    0.4300000000E+06    0.6373964498E+00    0.1442185660E-02    0.3728157349E-04    0.4250184002E-01    0.6841514205E+00
    0.4500000000E+06    0.6374034928E+00    0.1410705127E-02    0.3638153072E-04    0.4250579589E-01    0.6842039664E+00
    0.4700000000E+06    0.6374098105E+00    0.1381233560E-02    0.3554090106E-04    0.4250955247E-01    0.6842530569E+00
    0.4900000000E+06    0.6374154964E+00    0.1353565279E-02    0.3475347778E-04    0.4251312854E-01    0.6842990539E+00
    0.1000000000E+06    0.6367476612E+00    0.2922263657E-02    0.8154828135E-04    0.4234732064E-01    0.6815529659E+00
    0.3000000000E+06    0.6373222585E+00    0.1717423916E-02    0.4523794207E-04    0.4246931572E-01    0.6836872013E+00
    0.5000000000E+06    0.6374181276E+00    0.1340350992E-02    0.3437802068E-04    0.4251485406E-01    0.6843209913E+00
    0.7000000000E+06    0.6374513676E+00    0.1138226316E-02    0.2868725340E-04    0.4254290583E-01    0.6846540722E+00
    0.9000000000E+06    0.6374654902E+00    0.1007333525E-02    0.2505880529E-04    0.4256316539E-01    0.6848672971E+00
    0.1100000000E+07    0.6374717091E+00    0.9136762630E-03    0.2249321195E-04    0.4257901652E-01    0.6850186720E+00
    0.1300000000E+07    0.6374740937E+00    0.8423659439E-03    0.2055850842E-04    0.4259203313E-01    0.6851332603E+00
    0.1500000000E+07    0.6374744305E+00    0.7857109447E-03    0.1903383174E-04    0.4260307440E-01    0.6852238869E+00
    0.1700000000E+07    0.6374736060E+00    0.7392824741E-03    0.1779309095E-04    0.4261266048E-01    0.6852978823E+00
    0.1900000000E+07    0.6374720992E+00    0.7003258594E-03    0.1675842752E-04    0.4262113009E-01    0.6853597798E+00
    0.2100000000E+07    0.6374701853E+00    0.6670255542E-03    0.1587885192E-04    0.4262871607E-01    0.6854125525E+00
    0.2300000000E+07    0.6374680299E+00    0.6381297065E-03    0.1511940399E-04    0.4263558533E-01    0.6854582424E+00
    0.2500000000E+07    0.6374657363E+00    0.6127432985E-03    0.1445521555E-04    0.4264186158E-01    0.6854983041E+00
    0.2700000000E+07    0.6374633704E+00    0.5902071202E-03    0.1386805488E-04    0.4264763906E-01    0.6855338059E+00
    0.2900000000E+07    0.6374609752E+00    0.5700234239E-03    0.1334421405E-04    0.4265299120E-01    0.6855655520E+00
    0.3100000000E+07    0.6374585790E+00    0.5518083648E-03    0.1287316331E-04    0.4265797635E-01    0.6855941615E+00
    0.3300000000E+07    0.6374562005E+00    0.5352605206E-03    0.1244666401E-04    0.4266264160E-01    0.6856201190E+00
    0.3500000000E+07    0.6374538519E+00    0.5201394351E-03    0.1205816615E-04    0.4266702554E-01    0.6856438107E+00
    0.3700000000E+07    0.6374515414E+00    0.5062506183E-03    0.1170238871E-04    0.4267116017E-01    0.6856655484E+00
    0.3900000000E+07    0.6374492740E+00    0.4934348258E-03    0.1137502064E-04    0.4267507232E-01    0.6856855867E+00
    0.4100000000E+07    0.6374470527E+00    0.4815602447E-03    0.1107250366E-04    0.4267878473E-01    0.6857041362E+00
    0.4300000000E+07    0.6374448791E+00    0.4705166989E-03    0.1079187153E-04    0.4268231680E-01    0.6857213728E+00
    0.4500000000E+07    0.6374427538E+00    0.4602112838E-03    0.1053062942E-04    0.4268568524E-01    0.6857374444E+00
    0.4700000000E+07    0.6374406768E+00    0.4505650320E-03    0.1028666190E-04    0.4268890456E-01    0.6857524768E+00
    0.4900000000E+07    0.6374386474E+00    0.4415103337E-03    0.1005816202E-04    0.4269198740E-01    0.6857665774E+00
    0.1000000000E+07    0.6374692519E+00    0.9570250046E-03    0.2367733414E-04    0.4257151980E-01    0.6849487327E+00
    0.3000000000E+07    0.6374597759E+00    0.5606902956E-03    0.1310265038E-04    0.4265552648E-01    0.6855802159E+00
    0.5000000000E+07    0.6374376504E+00    0.4371862885E-03    0.9949218215E-05    0.4269348116E-01    0.6857733076E+00
    0.7000000000E+07    0.6374199203E+00    0.3710819988E-03    0.8298680725E-05    0.4271829424E-01    0.6858759214E+00
    0.9000000000E+07    0.6374055316E+00    0.3283093031E-03    0.7247004105E-05    0.4273676276E-01    0.6859420380E+00
    0.1100000000E+08    0.6373934945E+00    0.2977210212E-03    0.6503728015E-05    0.4275148022E-01    0.6859891831E+00
    0.1300000000E+08    0.6373831680E+00    0.2744404095E-03    0.5943415675E-05    0.4276371663E-01    0.6860249869E+00
    0.1500000000E+08    0.6373741335E+00    0.2559499061E-03    0.5501967558E-05    0.4277418943E-01    0.6860533749E+00
    0.1700000000E+08    0.6373661066E+00    0.2408006963E-03    0.5142804868E-05    0.4278334377E-01    0.6860766003E+00
    0.1900000000E+08    0.6373588864E+00    0.2280920106E-03    0.4843348719E-05    0.4279147500E-01    0.6860960609E+00
    0.2100000000E+08    0.6373523261E+00    0.2172303748E-03    0.4588816363E-05    0.4279878912E-01    0.6861126760E+00
    0.2300000000E+08    0.6373463156E+00    0.2078066952E-03    0.4369074661E-05    0.4280543557E-01    0.6861270786E+00
    0.2500000000E+08    0.6373407699E+00    0.1995285592E-03    0.4176917087E-05    0.4281152618E-01    0.6861397204E+00
    0.2700000000E+08    0.6373356224E+00    0.1921806409E-03    0.4007061221E-05    0.4281714687E-01    0.6861509336E+00
