  Pressure (Pa) 22mC5-400 (mol/kg) 2mC6-400 (mol/kg) 33mC5-400 (mol/kg) 23mC5-400 (mol/kg) C7-400 (mol/kg)
    0.1000000000E+01    0.4224504780E-02    0.2363014192E-02    0.6413646867E-04    0.1854447243E-03    0.1018984624E-01
    0.3000000000E+01    0.1245395655E-01    0.6814968430E-02    0.1849983992E-03    0.5467037310E-03    0.2952272982E-01
    0.5000000000E+01    0.2040491538E-01    0.1093159085E-01    0.2967927677E-03    0.8957471137E-03    0.4757823910E-01
    0.7000000000E+01    0.2809331201E-01    0.1474500213E-01    0.4003878164E-03    0.1233273518E-02    0.6448201116E-01
    0.9000000000E+01    0.3553385488E-01    0.1828338912E-01    0.4965453025E-03    0.1559927991E-02    0.8034363164E-01
    0.1100000000E+02    0.4274014486E-01    0.2157159458E-01    0.5859364871E-03    0.1876307012E-02    0.9525912339E-01
    0.1300000000E+02    0.4972477732E-01    0.2463160298E-01    0.6691552977E-03    0.2182962968E-02    0.1093129858E+00
    0.1500000000E+02    0.5649943330E-01    0.2748294297E-01    0.7467292369E-03    0.2480408149E-02    0.1225798764E+00
    0.1700000000E+02    0.6307496083E-01    0.3014302316E-01    0.8191284756E-03    0.2769118321E-02    0.1351260067E+00
    0.1900000000E+02    0.6946144793E-01    0.3262741366E-01    0.8867734798E-03    0.3049535918E-02    0.1470103064E+00
    0.2100000000E+02    0.7566828802E-01    0.3495008355E-01    0.9500414391E-03    0.3322072912E-02    0.1582854000E+00
    0.2300000000E+02    0.8170423870E-01    0.3712360208E-01    0.1009271714E-02    0.3587113398E-02    0.1689984305E+00
    0.2500000000E+02    0.8757747479E-01    0.3915931005E-01    0.1064770475E-02    0.3845015909E-02    0.1791917571E+00
    0.2700000000E+02    0.9329563607E-01    0.4106746641E-01    0.1116814668E-02    0.4096115517E-02    0.1889035485E+00
    0.2900000000E+02    0.9886587049E-01    0.4285737416E-01    0.1165655418E-02    0.4340725725E-02    0.1981682905E+00
    0.3100000000E+02    0.1042948732E+00    0.4453748895E-01    0.1211520974E-02    0.4579140181E-02    0.2070172210E+00
    0.3300000000E+02    0.1095889222E+00    0.4611551316E-01    0.1254619244E-02    0.4811634230E-02    0.2154787047E+00
    0.3500000000E+02    0.1147539101E+00    0.4759847754E-01    0.1295140006E-02    0.5038466328E-02    0.2235785576E+00
    0.3700000000E+02    0.1197953738E+00    0.4899281249E-01    0.1333256837E-02    0.5259879323E-02    0.2313403278E+00
    0.3900000000E+02    0.1247185209E+00    0.5030441037E-01    0.1369128793E-02    0.5476101624E-02    0.2387855400E+00
    0.4100000000E+02    0.1295282540E+00    0.5153868013E-01    0.1402901888E-02    0.5687348262E-02    0.2459339096E+00
    0.4300000000E+02    0.1342291928E+00    0.5270059550E-01    0.1434710391E-02    0.5893821869E-02    0.2528035291E+00
    0.4500000000E+02    0.1388256948E+00    0.5379473740E-01    0.1464677978E-02    0.6095713561E-02    0.2594110328E+00
    0.4700000000E+02    0.1433218731E+00    0.5482533151E-01    0.1492918742E-02    0.6293203757E-02    0.2657717413E+00
    0.4900000000E+02    0.1477216141E+00    0.5579628164E-01    0.1519538095E-02    0.6486462919E-02    0.2718997895E+00
    0.1000000000E+02    0.3916547182E-01    0.1995732860E-01    0.5420478871E-03    0.1719366424E-02    0.8791411358E-01
    0.3000000000E+02    0.1015976241E+00    0.4371065763E-01    0.1188946652E-02    0.4460689801E-02    0.2026428961E+00
    0.5000000000E+02    0.1498864770E+00    0.5626052950E-01    0.1532270509E-02    0.6581556580E-02    0.2748806870E+00
    0.7000000000E+02    0.1889154673E+00    0.6316113632E-01    0.1721972341E-02    0.8296157927E-02    0.3249820564E+00
    0.9000000000E+02    0.2214693592E+00    0.6692132268E-01    0.1825853730E-02    0.9726643397E-02    0.3620197362E+00
    0.1100000000E+03    0.2492610540E+00    0.6882381693E-01    0.1878659217E-02    0.1094815098E-01    0.3906664016E+00
    0.1300000000E+03    0.2734091242E+00    0.6958163797E-01    0.1899767256E-02    0.1200975034E-01    0.4135819184E+00
    0.1500000000E+03    0.2946803858E+00    0.6961564222E-01    0.1900665919E-02    0.1294508182E-01    0.4323962118E+00
    0.1700000000E+03    0.3136220649E+00    0.6918560015E-01    0.1888483611E-02    0.1377815345E-01    0.4481663008E+00
    0.1900000000E+03    0.3306380576E+00    0.6845739828E-01    0.1867800465E-02    0.1452668584E-01    0.4616091892E+00
    0.2100000000E+03    0.3460350871E+00    0.6753975863E-01    0.1841639365E-02    0.1520413692E-01    0.4732293465E+00
    0.2300000000E+03    0.3600518055E+00    0.6650534992E-01    0.1812036770E-02    0.1582097841E-01    0.4833926302E+00
    0.2500000000E+03    0.3728777990E+00    0.6540344083E-01    0.1780385694E-02    0.1638552953E-01    0.4923712372E+00
    0.2700000000E+03    0.3846663901E+00    0.6426775062E-01    0.1747649135E-02    0.1690451859E-01    0.5003721483E+00
    0.2900000000E+03    0.3955434995E+00    0.6312146378E-01    0.1714496899E-02    0.1738347175E-01    0.5075557486E+00
    0.3100000000E+03    0.4056139328E+00    0.6198051335E-01    0.1681395545E-02    0.1782698879E-01    0.5140483786E+00
    0.3300000000E+03    0.4149659390E+00    0.6085577639E-01    0.1648668817E-02    0.1823894308E-01    0.5199510122E+00
    0.3500000000E+03    0.4236745827E+00    0.5975456893E-01    0.1616539000E-02    0.1862262952E-01    0.5253453924E+00
    0.3700000000E+03    0.4318042826E+00    0.5868167986E-01    0.1585155691E-02    0.1898087591E-01    0.5302984568E+00
    0.3900000000E+03    0.4394107556E+00    0.5764009556E-01    0.1554616083E-02    0.1931612823E-01    0.5348655865E+00
    0.4100000000E+03    0.4465425266E+00    0.5663151354E-01    0.1524979451E-02    0.1963051686E-01    0.5390930294E+00
    0.4300000000E+03    0.4532421177E+00    0.5565671013E-01    0.1496277591E-02    0.1992590880E-01    0.5430197332E+00
    0.4500000000E+03    0.4595469961E+00    0.5471580571E-01    0.1468522413E-02    0.2020394919E-01    0.5466787508E+00
    0.4700000000E+03    0.4654903385E+00    0.5380845736E-01    0.1441711509E-02    0.2046609489E-01    0.5500983312E+00
    0.4900000000E+03    0.4711016539E+00    0.5293399938E-01    0.1415832246E-02    0.2071364180E-01    0.5533027733E+00
    0.1000000000E+03    0.2358802173E+00    0.6805114890E-01    0.1857185056E-02    0.1035999845E-01    0.3771937820E+00
    0.3000000000E+03    0.4006736913E+00    0.6254954344E-01    0.1697916839E-02    0.1760940262E-01    0.5108816114E+00
    0.5000000000E+03    0.4737911480E+00    0.5250883392E-01    0.1403236002E-02    0.2083230727E-01    0.5548310006E+00
    0.7000000000E+03    0.5152717779E+00    0.4547015899E-01    0.1193675121E-02    0.2266416859E-01    0.5779749706E+00
    0.9000000000E+03    0.5417204542E+00    0.4050028805E-01    0.1045131810E-02    0.2383442452E-01    0.5926492905E+00
    0.1100000000E+04    0.5599058423E+00    0.3682930604E-01    0.9356585014E-03    0.2464063071E-01    0.6029461816E+00
    0.1300000000E+04    0.5731034177E+00    0.3400216861E-01    0.8518307158E-03    0.2522687835E-01    0.6106507649E+00
    0.1500000000E+04    0.5830796655E+00    0.3174903875E-01    0.7855280803E-03    0.2567092878E-01    0.6166776408E+00
    0.1700000000E+04    0.5908649591E+00    0.2990315862E-01    0.7316701112E-03    0.2601816948E-01    0.6215484168E+00
    0.1900000000E+04    0.5970977253E+00    0.2835681617E-01    0.6869506445E-03    0.2629674142E-01    0.6255843712E+00
    0.2100000000E+04    0.6021930981E+00    0.2703758214E-01    0.6491373233E-03    0.2652495530E-01    0.6289952323E+00
    0.2300000000E+04    0.6064319026E+00    0.2589500912E-01    0.6166726110E-03    0.2671520595E-01    0.6319242843E+00
    0.2500000000E+04    0.6100104822E+00    0.2489287434E-01    0.5884381738E-03    0.2687616523E-01    0.6344730714E+00
    0.2700000000E+04    0.6130700060E+00    0.2400447473E-01    0.5636106676E-03    0.2701407233E-01    0.6367157602E+00
    0.2900000000E+04    0.6157144385E+00    0.2320966962E-01    0.5415704953E-03    0.2713352526E-01    0.6387079075E+00
    0.3100000000E+04    0.6180219542E+00    0.2249296166E-01    0.5218423181E-03    0.2723798375E-01    0.6404920340E+00
    0.3300000000E+04    0.6200524155E+00    0.2184221531E-01    0.5040552098E-03    0.2733009895E-01    0.6421012902E+00
    0.3500000000E+04    0.6218524046E+00    0.2124777931E-01    0.4879153139E-03    0.2741193527E-01    0.6435619412E+00
    0.3700000000E+04    0.6234586909E+00    0.2070187181E-01    0.4731866688E-03    0.2748512339E-01    0.6448950927E+00
    0.3900000000E+04    0.6249006709E+00    0.2019814072E-01    0.4596774946E-03    0.2755096791E-01    0.6461179182E+00
    0.4100000000E+04    0.6262021183E+00    0.1973134356E-01    0.4472302117E-03    0.2761052462E-01    0.6472445482E+00
    0.4300000000E+04    0.6273824596E+00    0.1929711046E-01    0.4357140572E-03    0.2766465690E-01    0.6482867268E+00
    0.4500000000E+04    0.6284577201E+00    0.1889176599E-01    0.4250195436E-03    0.2771407742E-01    0.6492543026E+00
    0.4700000000E+04    0.6294412328E+00    0.1851219338E-01    0.4150542440E-03    0.2775937958E-01    0.6501556032E+00
    0.4900000000E+04    0.6303441790E+00    0.1815572986E-01    0.4057395468E-03    0.2780106135E-01    0.6509977224E+00
    0.1000000000E+04    0.5515919135E+00    0.3853654272E-01    0.9865103047E-03    0.2427185586E-01    0.5982038025E+00
    0.3000000000E+04    0.6169062087E+00    0.2284237892E-01    0.5314426687E-03    0.2718744717E-01    0.6396237155E+00
    0.5000000000E+04    0.6307684496E+00    0.1798543554E-01    0.4013047522E-03    0.2782067872E-01    0.6513985247E+00
    0.7000000000E+04    0.6366955981E+00    0.1537416579E-01    0.3345602175E-03    0.2809754878E-01    0.6574133572E+00
    0.9000000000E+04    0.6399721717E+00    0.1367290335E-01    0.2923821423E-03    0.2825399314E-01    0.6611870495E+00
    0.1100000000E+05    0.6420480108E+00    0.1244841047E-01    0.2626779095E-03    0.2835526009E-01    0.6638253162E+00
    0.1300000000E+05    0.6434797587E+00    0.1151122222E-01    0.2403175369E-03    0.2842659532E-01    0.6657981238E+00
    0.1500000000E+05    0.6445263868E+00    0.1076327970E-01    0.2227075230E-03    0.2847983396E-01    0.6673427049E+00
    0.1700000000E+05    0.6453245716E+00    0.1014795134E-01    0.2083778342E-03    0.2852126950E-01    0.6685931110E+00
    0.1900000000E+05    0.6459532150E+00    0.9629894037E-02    0.1964250365E-03    0.2855456241E-01    0.6696314168E+00
    0.2100000000E+05    0.6464610355E+00    0.9185734870E-02    0.1862593448E-03    0.2858198970E-01    0.6705109897E+00
    0.2300000000E+05    0.6468797333E+00    0.8799305098E-02    0.1774772515E-03    0.2860504395E-01    0.6712681962E+00
    0.2500000000E+05    0.6472308202E+00    0.8459009074E-02    0.1697921468E-03    0.2862474547E-01    0.6719287672E+00
    0.2700000000E+05    0.6475294065E+00    0.8156281531E-02    0.1629941106E-03    0.2864181617E-01    0.6725114790E+00
    0.2900000000E+05    0.6477864159E+00    0.7884637671E-02    0.1569254077E-03    0.2865678173E-01    0.6730303902E+00
    0.3100000000E+05    0.6480099408E+00    0.7639064105E-02    0.1514649188E-03    0.2867003440E-01    0.6734962601E+00
    0.3300000000E+05    0.6482061034E+00    0.7415614762E-02    0.1465178955E-03    0.2868187304E-01    0.6739174791E+00
    0.3500000000E+05    0.6483796207E+00    0.7211134848E-02    0.1420090135E-03    0.2869252956E-01    0.6743006977E+00
    0.3700000000E+05    0.6485341852E+00    0.7023067457E-02    0.1378775382E-03    0.2870218678E-01    0.6746512632E+00
    0.3900000000E+05    0.6486727292E+00    0.6849315067E-02    0.1340738840E-03    0.2871099090E-01    0.6749735300E+00
    0.4100000000E+05    0.6487976100E+00    0.6688138382E-02    0.1305571155E-03    0.2871906027E-01    0.6752710840E+00
    0.4300000000E+05    0.6489107449E+00    0.6538081174E-02    0.1272931007E-03    0.2872649182E-01    0.6755469081E+00
    0.4500000000E+05    0.6490137087E+00    0.6397913567E-02    0.1242531241E-03    0.2873336572E-01    0.6758035065E+00
    0.4700000000E+05    0.6491078072E+00    0.6266588636E-02    0.1214128304E-03    0.2873974890E-01    0.6760429984E+00
    0.4900000000E+05    0.6491941320E+00    0.6143208774E-02    0.1187514091E-03    0.2874569767E-01    0.6762671914E+00
    0.1000000000E+05    0.6411149213E+00    0.1301600313E-01    0.2763782314E-03    0.2830947510E-01    0.6626107790E+00
    0.3000000000E+05    0.6479019428E+00    0.7758860021E-02    0.1541255823E-03    0.2866360167E-01    0.6732693839E+00
    0.5000000000E+05    0.6492346724E+00    0.6084251966E-02    0.1174820822E-03    0.2874852438E-01    0.6763740444E+00
    0.7000000000E+05    0.6497995793E+00    0.5179939489E-02    0.9821580447E-04    0.2879078315E-01    0.6779905509E+00
    0.9000000000E+05    0.6501104064E+00    0.4591783832E-02    0.8590177495E-04    0.2881749267E-01    0.6790192785E+00
    0.1100000000E+06    0.6503063916E+00    0.4169713351E-02    0.7717902280E-04    0.2883654016E-01    0.6797465343E+00
    0.1300000000E+06    0.6504408468E+00    0.3847663165E-02    0.7059193570E-04    0.2885114419E-01    0.6802952911E+00
    0.1500000000E+06    0.6505385565E+00    0.3591376719E-02    0.6539495103E-04    0.2886289218E-01    0.6807281887E+00
    0.1700000000E+06    0.6506125970E+00    0.3381073522E-02    0.6116179333E-04    0.2887266948E-01    0.6810809032E+00
    0.1900000000E+06    0.6506705148E+00    0.3204422601E-02    0.5762891305E-04    0.2888101463E-01    0.6813754296E+00
    0.2100000000E+06    0.6507169668E+00    0.3053281887E-02    0.5462352266E-04    0.2888827702E-01    0.6816261587E+00
    0.2300000000E+06    0.6507549812E+00    0.2922028585E-02    0.5202704006E-04    0.2889469494E-01    0.6818429513E+00
    0.2500000000E+06    0.6507866111E+00    0.2806637330E-02    0.4975504316E-04    0.2890043751E-01    0.6820328194E+00
    0.2700000000E+06    0.6508132970E+00    0.2704139906E-02    0.4774559271E-04    0.2890562874E-01    0.6822009034E+00
    0.2900000000E+06    0.6508360790E+00    0.2612292854E-02    0.4595208688E-04    0.2891036202E-01    0.6823510681E+00
    0.3100000000E+06    0.6508557267E+00    0.2529364550E-02    0.4433870667E-04    0.2891470931E-01    0.6824862830E+00
    0.3300000000E+06    0.6508728212E+00    0.2453994115E-02    0.4287741110E-04    0.2891872715E-01    0.6826088718E+00
    0.3500000000E+06    0.6508878098E+00    0.2385095139E-02    0.4154589535E-04    0.2892246074E-01    0.6827206827E+00
    0.3700000000E+06    0.6509010417E+00    0.2321788317E-02    0.4032616746E-04    0.2892594669E-01    0.6828232062E+00
    0.3900000000E+06    0.6509127940E+00    0.2263353263E-02    0.3920353383E-04    0.2892921510E-01    0.6829176598E+00
    0.4100000000E+06    0.6509232890E+00    0.2209193358E-02    0.3816586159E-04    0.2893229098E-01    0.6830050485E+00
    0.4300000000E+06    0.6509327070E+00    0.2158809664E-02    0.3720303294E-04    0.2893519531E-01    0.6830862109E+00
    0.4500000000E+06    0.6509411960E+00    0.2111781263E-02    0.3630653499E-04    0.2893794586E-01    0.6831618522E+00
    0.4700000000E+06    0.6509488782E+00    0.2067750225E-02    0.3546914718E-04    0.2894055783E-01    0.6832325711E+00
    0.4900000000E+06    0.6509558557E+00    0.2026409974E-02    0.3468469990E-04    0.2894304428E-01    0.6832988789E+00
    0.1000000000E+06    0.6502184182E+00    0.4365193821E-02    0.8120661592E-04    0.2882771654E-01    0.6794108474E+00
    0.3000000000E+06    0.6508462546E+00    0.2569806303E-02    0.4512478833E-04    0.2891258007E-01    0.6824203862E+00
    0.5000000000E+06    0.6509591076E+00    0.2006664848E-02    0.3431064110E-04    0.2894424404E-01    0.6833305187E+00
    0.7000000000E+06    0.6510022238E+00    0.1704552483E-02    0.2863941293E-04    0.2896374828E-01    0.6838121677E+00
    0.9000000000E+06    0.6510232591E+00    0.1508816389E-02    0.2502177749E-04    0.2897783458E-01    0.6841217620E+00
    0.1100000000E+07    0.6510347798E+00    0.1368717132E-02    0.2246304089E-04    0.2898885577E-01    0.6843421672E+00
    0.1300000000E+07    0.6510414582E+00    0.1262020888E-02    0.2053306956E-04    0.2899790620E-01    0.6845093568E+00
    0.1500000000E+07    0.6510454002E+00    0.1177236777E-02    0.1901185351E-04    0.2900558323E-01    0.6846417998E+00
    0.1700000000E+07    0.6510476814E+00    0.1107746399E-02    0.1777375239E-04    0.2901224851E-01    0.6847500804E+00
    0.1900000000E+07    0.6510489014E+00    0.1049432161E-02    0.1674116814E-04    0.2901813753E-01    0.6848407570E+00
    0.2100000000E+07    0.6510494175E+00    0.9995797050E-03    0.1586327213E-04    0.2902341218E-01    0.6849181387E+00
    0.2300000000E+07    0.6510494534E+00    0.9563171182E-03    0.1510520898E-04    0.2902818851E-01    0.6849851888E+00
    0.2500000000E+07    0.6510491547E+00    0.9183058736E-03    0.1444218165E-04    0.2903255254E-01    0.6850440214E+00
    0.2700000000E+07    0.6510486196E+00    0.8845599797E-03    0.1385600840E-04    0.2903656977E-01    0.6850961902E+00
    0.2900000000E+07    0.6510479160E+00    0.8543348640E-03    0.1333301744E-04    0.2904029128E-01    0.6851428666E+00
    0.3100000000E+07    0.6510470917E+00    0.8270562833E-03    0.1286270580E-04    0.2904375761E-01    0.6851849524E+00
    0.3300000000E+07    0.6510461813E+00    0.8022732614E-03    0.1243685509E-04    0.2904700152E-01    0.6852231549E+00
    0.3500000000E+07    0.6510452098E+00    0.7796260080E-03    0.1204893093E-04    0.2905004983E-01    0.6852580374E+00
    0.3700000000E+07    0.6510441959E+00    0.7588234907E-03    0.1169366450E-04    0.2905292480E-01    0.6852900552E+00
    0.3900000000E+07    0.6510431535E+00    0.7396274017E-03    0.1136675449E-04    0.2905564509E-01    0.6853195806E+00
    0.4100000000E+07    0.6510420932E+00    0.7218404727E-03    0.1106465039E-04    0.2905822649E-01    0.6853469216E+00
    0.4300000000E+07    0.6510410229E+00    0.7052978070E-03    0.1078439233E-04    0.2906068250E-01    0.6853723352E+00
    0.4500000000E+07    0.6510399486E+00    0.6898603503E-03    0.1052349066E-04    0.2906302474E-01    0.6853960381E+00
    0.4700000000E+07    0.6510388750E+00    0.6754099029E-03    0.1027983429E-04    0.2906526329E-01    0.6854182142E+00
    0.4900000000E+07    0.6510378057E+00    0.6618452606E-03    0.1005161988E-04    0.2906740694E-01    0.6854390211E+00
    0.1000000000E+07    0.6510298257E+00    0.1433565952E-02    0.2364408032E-04    0.2898364334E-01    0.6842402699E+00
    0.3000000000E+07    0.6510475165E+00    0.8403578986E-03    0.1309183577E-04    0.2904205413E-01    0.6851644353E+00
    0.5000000000E+07    0.6510372735E+00    0.6553673802E-03    0.9942810152E-05    0.2906844563E-01    0.6854489541E+00
    0.7000000000E+07    0.6510272392E+00    0.5563260962E-03    0.8294142250E-05    0.2908569964E-01    0.6856005465E+00
    0.9000000000E+07    0.6510185516E+00    0.4922315387E-03    0.7243496883E-05    0.2909854211E-01    0.6856983709E+00
    0.1100000000E+08    0.6510110447E+00    0.4463904010E-03    0.6500873387E-05    0.2910877633E-01    0.6857681993E+00
    0.1300000000E+08    0.6510044772E+00    0.4114982044E-03    0.5941010767E-05    0.2911728537E-01    0.6858212717E+00
    0.1500000000E+08    0.6509986554E+00    0.3837835971E-03    0.5499891156E-05    0.2912456807E-01    0.6858633781E+00
    0.1700000000E+08    0.6509934337E+00    0.3610760108E-03    0.5140978821E-05    0.2913093397E-01    0.6858978448E+00
    0.1900000000E+08    0.6509887029E+00    0.3420258333E-03    0.4841719723E-05    0.2913658844E-01    0.6859267370E+00
    0.2100000000E+08    0.6509843803E+00    0.3257438112E-03    0.4587346453E-05    0.2914167472E-01    0.6859514141E+00
    0.2300000000E+08    0.6509804019E+00    0.3116169304E-03    0.4367735846E-05    0.2914629671E-01    0.6859728121E+00
    0.2500000000E+08    0.6509767175E+00    0.2992069991E-03    0.4175688142E-05    0.2915053220E-01    0.6859915995E+00
    0.2700000000E+08    0.6509732869E+00    0.2881913296E-03    0.4005925675E-05    0.2915444091E-01    0.6860082682E+00
