  Pressure (Pa) 22mC5-400 (mol/kg) 2mC6-400 (mol/kg) 33mC5-400 (mol/kg) 23mC5-400 (mol/kg) C7-400 (mol/kg)
    0.1000000000E+01    0.4225837613E-02    0.1592555854E-02    0.3889736919E-03    0.2782548266E-03    0.1720547046E-02
    0.3000000000E+01    0.1246536807E-01    0.4690801680E-02    0.1145578852E-02    0.8208068288E-03    0.5111693295E-02
    0.5000000000E+01    0.2043509337E-01    0.7678332497E-02    0.1874975198E-02    0.1345607356E-02    0.8437953105E-02
    0.7000000000E+01    0.2814966372E-01    0.1056089577E-01    0.2578567255E-02    0.1853620107E-02    0.1170130507E-01
    0.9000000000E+01    0.3562266363E-01    0.1334383936E-01    0.3257662289E-02    0.2345738684E-02    0.1490364686E-01
    0.1100000000E+02    0.4286670677E-01    0.1603214627E-01    0.3913478749E-02    0.2822792837E-02    0.1804679936E-01
    0.1300000000E+02    0.4989352097E-01    0.1863046576E-01    0.4547153837E-02    0.3285554046E-02    0.2113251054E-01
    0.1500000000E+02    0.5671402446E-01    0.2114314136E-01    0.5159750301E-02    0.3734740545E-02    0.2416245906E-01
    0.1700000000E+02    0.6333839445E-01    0.2357423605E-01    0.5752262558E-02    0.4171021821E-02    0.2713825772E-01
    0.1900000000E+02    0.6977612888E-01    0.2592755495E-01    0.6325622211E-02    0.4595022688E-02    0.3006145666E-01
    0.2100000000E+02    0.7603610214E-01    0.2820666584E-01    0.6880703040E-02    0.5007326942E-02    0.3293354641E-01
    0.2300000000E+02    0.8212661546E-01    0.3041491775E-01    0.7418325506E-02    0.5408480677E-02    0.3575596073E-01
    0.2500000000E+02    0.8805544243E-01    0.3255545778E-01    0.7939260851E-02    0.5798995282E-02    0.3853007931E-01
    0.2700000000E+02    0.9382987037E-01    0.3463124636E-01    0.8444234808E-02    0.6179350161E-02    0.4125723030E-01
    0.2900000000E+02    0.9945673785E-01    0.3664507117E-01    0.8933930979E-02    0.6549995197E-02    0.4393869272E-01
    0.3100000000E+02    0.1049424688E+00    0.3859955979E-01    0.9408993918E-02    0.6911353000E-02    0.4657569874E-01
    0.3300000000E+02    0.1102931035E+00    0.4049719127E-01    0.9870031934E-02    0.7263820948E-02    0.4916943579E-01
    0.3500000000E+02    0.1155143271E+00    0.4234030665E-01    0.1031761966E-01    0.7607773051E-02    0.5172104859E-01
    0.3700000000E+02    0.1206114953E+00    0.4413111861E-01    0.1075230040E-01    0.7943561650E-02    0.5423164110E-01
    0.3900000000E+02    0.1255896580E+00    0.4587172035E-01    0.1117458828E-01    0.8271518978E-02    0.5670227827E-01
    0.4100000000E+02    0.1304535811E+00    0.4756409364E-01    0.1158497022E-01    0.8591958576E-02    0.5913398783E-01
    0.4300000000E+02    0.1352077663E+00    0.4921011634E-01    0.1198390775E-01    0.8905176606E-02    0.6152776184E-01
    0.4500000000E+02    0.1398564691E+00    0.5081156917E-01    0.1237183866E-01    0.9211453044E-02    0.6388455830E-01
    0.4700000000E+02    0.1444037159E+00    0.5237014210E-01    0.1274917856E-01    0.9511052779E-02    0.6620530258E-01
    0.4900000000E+02    0.1488533189E+00    0.5388744010E-01    0.1311632231E-01    0.9804226631E-02    0.6849088878E-01
    0.1000000000E+02    0.3927255198E-01    0.1469952434E-01    0.3588407444E-02    0.2586099292E-02    0.1648251086E-01
    0.3000000000E+02    0.1022168592E+00    0.3762957421E-01    0.9173252765E-02    0.6731809598E-02    0.4526267754E-01
    0.5000000000E+02    0.1510426404E+00    0.5463109066E-01    0.1329618865E-01    0.9948478613E-02    0.6962076880E-01
    0.7000000000E+02    0.1904873129E+00    0.6767048418E-01    0.1644029637E-01    0.1254777596E-01    0.9056827850E-01
    0.9000000000E+02    0.2233116151E+00    0.7792806456E-01    0.1889644949E-01    0.1471133964E-01    0.1088256786E+00
    0.1100000000E+03    0.2512409604E+00    0.8615847274E-01    0.2085115072E-01    0.1655269697E-01    0.1249205775E+00
    0.1300000000E+03    0.2754155724E+00    0.9286796462E-01    0.2242982625E-01    0.1814687559E-01    0.1392485723E+00
    0.1500000000E+03    0.2966240598E+00    0.9840923673E-01    0.2372003701E-01    0.1954576936E-01    0.1521123712E+00
    0.1700000000E+03    0.3154328456E+00    0.1030355991E+00    0.2478477137E-01    0.2078665336E-01    0.1637477407E+00
    0.1900000000E+03    0.3322618789E+00    0.1069336034E+00    0.2567047128E-01    0.2189716503E-01    0.1743411885E+00
    0.2100000000E+03    0.3474309902E+00    0.1102435632E+00    0.2641209232E-01    0.2289835407E-01    0.1840423015E+00
    0.2300000000E+03    0.3611894041E+00    0.1130729307E+00    0.2703641036E-01    0.2380662416E-01    0.1929725381E+00
    0.2500000000E+03    0.3737351770E+00    0.1155052855E+00    0.2756424861E-01    0.2463501196E-01    0.2012316111E+00
    0.2700000000E+03    0.3852283875E+00    0.1176065328E+00    0.2801201663E-01    0.2539405496E-01    0.2089022000E+00
    0.2900000000E+03    0.3958003261E+00    0.1194292735E+00    0.2839279779E-01    0.2609239619E-01    0.2160534820E+00
    0.3100000000E+03    0.4055600513E+00    0.1210159467E+00    0.2871713262E-01    0.2673721557E-01    0.2227438157E+00
    0.3300000000E+03    0.4145991664E+00    0.1224011279E+00    0.2899359281E-01    0.2733454429E-01    0.2290228043E+00
    0.3500000000E+03    0.4229953673E+00    0.1236132360E+00    0.2922920817E-01    0.2788949819E-01    0.2349329020E+00
    0.3700000000E+03    0.4308151228E+00    0.1246758190E+00    0.2942978854E-01    0.2840645421E-01    0.2405106762E+00
    0.3900000000E+03    0.4381157323E+00    0.1256085330E+00    0.2960016942E-01    0.2888918574E-01    0.2457878100E+00
    0.4100000000E+03    0.4449469273E+00    0.1264278980E+00    0.2974440157E-01    0.2934096801E-01    0.2507919047E+00
    0.4300000000E+03    0.4513521336E+00    0.1271478857E+00    0.2986589866E-01    0.2976466122E-01    0.2555471279E+00
    0.4500000000E+03    0.4573694797E+00    0.1277803816E+00    0.2996755349E-01    0.3016277680E-01    0.2600747413E+00
    0.4700000000E+03    0.4630326084E+00    0.1283355519E+00    0.3005183010E-01    0.3053753092E-01    0.2643935326E+00
    0.4900000000E+03    0.4683713388E+00    0.1288221364E+00    0.3012083741E-01    0.3089088798E-01    0.2685201723E+00
    0.1000000000E+03    0.2378066023E+00    0.8226057949E-01    0.1992754773E-01    0.1566692780E-01    0.1171161604E+00
    0.3000000000E+03    0.4007756276E+00    0.1202497957E+00    0.2856144472E-01    0.2642109530E-01    0.2194529827E+00
    0.5000000000E+03    0.4709274632E+00    0.1290421090E+00    0.3015019185E-01    0.3106009660E-01    0.2705161399E+00
    0.7000000000E+03    0.5101442322E+00    0.1312211391E+00    0.3026392806E-01    0.3365863271E-01    0.3032197947E+00
    0.9000000000E+03    0.5349782539E+00    0.1311280674E+00    0.2992809983E-01    0.3530748499E-01    0.3268563412E+00
    0.1100000000E+04    0.5520007516E+00    0.1300977615E+00    0.2943737758E-01    0.3644001532E-01    0.3451880151E+00
    0.1300000000E+04    0.5643395903E+00    0.1286517542E+00    0.2889758868E-01    0.3726264961E-01    0.3600719327E+00
    0.1500000000E+04    0.5736646570E+00    0.1270248750E+00    0.2835170719E-01    0.3788567078E-01    0.3725490970E+00
    0.1700000000E+04    0.5809439164E+00    0.1253325728E+00    0.2781819586E-01    0.3837304975E-01    0.3832572468E+00
    0.1900000000E+04    0.5867748187E+00    0.1236346563E+00    0.2730491012E-01    0.3876429829E-01    0.3926135618E+00
    0.2100000000E+04    0.5915449430E+00    0.1219628588E+00    0.2681479626E-01    0.3908506638E-01    0.4009050487E+00
    0.2300000000E+04    0.5955161153E+00    0.1203339203E+00    0.2634844195E-01    0.3935269377E-01    0.4083371967E+00
    0.2500000000E+04    0.5988712625E+00    0.1187562453E+00    0.2590529324E-01    0.3957930352E-01    0.4150619664E+00
    0.2700000000E+04    0.6017418690E+00    0.1172334796E+00    0.2548426210E-01    0.3977361560E-01    0.4211947770E+00
    0.2900000000E+04    0.6042247660E+00    0.1157665140E+00    0.2508403850E-01    0.3994205636E-01    0.4268252815E+00
    0.3100000000E+04    0.6063927787E+00    0.1143546437E+00    0.2470325277E-01    0.4008946239E-01    0.4320244609E+00
    0.3300000000E+04    0.6083016912E+00    0.1129962554E+00    0.2434055939E-01    0.4021954117E-01    0.4368494433E+00
    0.3500000000E+04    0.6099949301E+00    0.1116892423E+00    0.2399467851E-01    0.4033518098E-01    0.4413468689E+00
    0.3700000000E+04    0.6115067901E+00    0.1104312572E+00    0.2366441460E-01    0.4043866439E-01    0.4455552954E+00
    0.3900000000E+04    0.6128647033E+00    0.1092198670E+00    0.2334866250E-01    0.4053181850E-01    0.4495069533E+00
    0.4100000000E+04    0.6140908663E+00    0.1080526469E+00    0.2304640674E-01    0.4061612282E-01    0.4532290508E+00
    0.4300000000E+04    0.6152034268E+00    0.1069272367E+00    0.2275671738E-01    0.4069278784E-01    0.4567447600E+00
    0.4500000000E+04    0.6162173628E+00    0.1058413726E+00    0.2247874417E-01    0.4076281338E-01    0.4600739731E+00
    0.4700000000E+04    0.6171451431E+00    0.1047929046E+00    0.2221171013E-01    0.4082703236E-01    0.4632338898E+00
    0.4900000000E+04    0.6179972295E+00    0.1037798036E+00    0.2195490506E-01    0.4088614413E-01    0.4662394792E+00
    0.1000000000E+04    0.5442224149E+00    0.1306874823E+00    0.2969324980E-01    0.3592222174E-01    0.3365425273E+00
    0.3000000000E+04    0.6053443106E+00    0.1150537774E+00    0.2489130120E-01    0.4001813474E-01    0.4294749367E+00
    0.5000000000E+04    0.6183977050E+00    0.1032859152E+00    0.2183013316E-01    0.4091397330E-01    0.4676885611E+00
    0.7000000000E+04    0.6239993839E+00    0.9486388971E-01    0.1974051878E-01    0.4130734221E-01    0.4910371595E+00
    0.9000000000E+04    0.6271013760E+00    0.8844812385E-01    0.1819065218E-01    0.4153013126E-01    0.5074779099E+00
    0.1100000000E+05    0.6290681574E+00    0.8333141055E-01    0.1697716326E-01    0.4167454319E-01    0.5199684596E+00
    0.1300000000E+05    0.6304250602E+00    0.7911391093E-01    0.1599083548E-01    0.4177636030E-01    0.5299242382E+00
    0.1500000000E+05    0.6314169465E+00    0.7555106884E-01    0.1516693810E-01    0.4185239219E-01    0.5381279309E+00
    0.1700000000E+05    0.6321732146E+00    0.7248358786E-01    0.1446423114E-01    0.4191159101E-01    0.5450555046E+00
    0.1900000000E+05    0.6327686339E+00    0.6980244849E-01    0.1385496306E-01    0.4195916940E-01    0.5510167130E+00
    0.2100000000E+05    0.6332494018E+00    0.6743003999E-01    0.1331964323E-01    0.4199837272E-01    0.5562236906E+00
    0.2300000000E+05    0.6336455925E+00    0.6530931264E-01    0.1284410486E-01    0.4203132972E-01    0.5608276269E+00
    0.2500000000E+05    0.6339776212E+00    0.6339720408E-01    0.1241775668E-01    0.4205949638E-01    0.5649397877E+00
    0.2700000000E+05    0.6342598313E+00    0.6166047758E-01    0.1203249203E-01    0.4208390330E-01    0.5686442469E+00
    0.2900000000E+05    0.6345025934E+00    0.6007298840E-01    0.1168198091E-01    0.4210530120E-01    0.5720059530E+00
    0.3100000000E+05    0.6347135913E+00    0.5861383116E-01    0.1136119515E-01    0.4212425041E-01    0.5750760323E+00
    0.3300000000E+05    0.6348986379E+00    0.5726604988E-01    0.1106608077E-01    0.4214117794E-01    0.5778953879E+00
    0.3500000000E+05    0.6350622118E+00    0.5601571844E-01    0.1079332625E-01    0.4215641523E-01    0.5804972095E+00
    0.3700000000E+05    0.6352078192E+00    0.5485127155E-01    0.1054019520E-01    0.4217022358E-01    0.5829087637E+00
    0.3900000000E+05    0.6353382436E+00    0.5376300895E-01    0.1030440305E-01    0.4218281200E-01    0.5851526989E+00
    0.4100000000E+05    0.6354557231E+00    0.5274272202E-01    0.1008402483E-01    0.4219434970E-01    0.5872480126E+00
    0.4300000000E+05    0.6355620773E+00    0.5178340846E-01    0.9877425038E-02    0.4220497526E-01    0.5892107813E+00
    0.4500000000E+05    0.6356588009E+00    0.5087905137E-01    0.9683203578E-02    0.4221480332E-01    0.5910547181E+00
    0.4700000000E+05    0.6357471330E+00    0.5002444616E-01    0.9500153660E-02    0.4222392958E-01    0.5927916049E+00
    0.4900000000E+05    0.6358281093E+00    0.4921506347E-01    0.9327228554E-02    0.4223243460E-01    0.5944316311E+00
    0.1000000000E+05    0.6281839762E+00    0.8575721863E-01    0.1755009977E-01    0.4160923241E-01    0.5141076020E+00
    0.3000000000E+05    0.6346116631E+00    0.5932850837E-01    0.1151814548E-01    0.4211505259E-01    0.5735746836E+00
    0.5000000000E+05    0.6358661172E+00    0.4882607234E-01    0.9244272845E-02    0.4223647591E-01    0.5952181377E+00
    0.7000000000E+05    0.6363939206E+00    0.4267530158E-01    0.7945987012E-02    0.4229688743E-01    0.6075139383E+00
    0.9000000000E+05    0.6366821573E+00    0.3848403052E-01    0.7076280772E-02    0.4233506503E-01    0.6157489413E+00
    0.1100000000E+06    0.6368625281E+00    0.3538036020E-01    0.6440507948E-02    0.4236228911E-01    0.6217763606E+00
    0.1300000000E+06    0.6369853294E+00    0.3295696267E-01    0.5949207206E-02    0.4238316215E-01    0.6264423795E+00
    0.1500000000E+06    0.6370738833E+00    0.3099366468E-01    0.5554620855E-02    0.4239995368E-01    0.6301972450E+00
    0.1700000000E+06    0.6371404623E+00    0.2935928469E-01    0.5228580491E-02    0.4241392928E-01    0.6333060824E+00
    0.1900000000E+06    0.6371921301E+00    0.2796999109E-01    0.4953237589E-02    0.4242585863E-01    0.6359367587E+00
    0.2100000000E+06    0.6372332348E+00    0.2676929504E-01    0.4716653245E-02    0.4243624102E-01    0.6382015372E+00
    0.2300000000E+06    0.6372665962E+00    0.2571751620E-01    0.4510495113E-02    0.4244541695E-01    0.6401787786E+00
    0.2500000000E+06    0.6372941212E+00    0.2478583073E-01    0.4328745458E-02    0.4245362806E-01    0.6419250970E+00
    0.2700000000E+06    0.6373171444E+00    0.2395271423E-01    0.4166933900E-02    0.4246105150E-01    0.6434825707E+00
    0.2900000000E+06    0.6373366266E+00    0.2320171614E-01    0.4021660078E-02    0.4246782068E-01    0.6448832258E+00
    0.3100000000E+06    0.6373532771E+00    0.2252001314E-01    0.3890284962E-02    0.4247403842E-01    0.6461519353E+00
    0.3300000000E+06    0.6373676302E+00    0.2189743784E-01    0.3770724567E-02    0.4247978548E-01    0.6473083551E+00
    0.3500000000E+06    0.6373800958E+00    0.2132580836E-01    0.3661308185E-02    0.4248512641E-01    0.6483682552E+00
    0.3700000000E+06    0.6373909933E+00    0.2079845434E-01    0.3560678533E-02    0.4249011352E-01    0.6493444573E+00
    0.3900000000E+06    0.6374005755E+00    0.2030987454E-01    0.3467719923E-02    0.4249478980E-01    0.6502475093E+00
    0.4100000000E+06    0.6374090444E+00    0.1985548501E-01    0.3381505586E-02    0.4249919097E-01    0.6510861799E+00
    0.4300000000E+06    0.6374165638E+00    0.1943143065E-01    0.3301258404E-02    0.4250334701E-01    0.6518678279E+00
    0.4500000000E+06    0.6374232674E+00    0.1903444218E-01    0.3226321185E-02    0.4250728330E-01    0.6525986816E+00
    0.4700000000E+06    0.6374292656E+00    0.1866172600E-01    0.3156133849E-02    0.4251102154E-01    0.6532840529E+00
    0.4900000000E+06    0.6374346504E+00    0.1831087847E-01    0.3090215714E-02    0.4251458040E-01    0.6539285045E+00
    0.1000000000E+06    0.6367817323E+00    0.3682792682E-01    0.6736137590E-02    0.4234967784E-01    0.6189724541E+00
    0.3000000000E+06    0.6373452690E+00    0.2285289145E-01    0.3954376530E-02    0.4247099300E-01    0.6455327410E+00
    0.5000000000E+06    0.6374371374E+00    0.1814299401E-01    0.3058725608E-02    0.4251629770E-01    0.6542366391E+00
    0.7000000000E+06    0.6374681320E+00    0.1554904028E-01    0.2576694531E-02    0.4254422446E-01    0.6589774935E+00
    0.9000000000E+06    0.6374807613E+00    0.1384295617E-01    0.2264623419E-02    0.4256440462E-01    0.6620748107E+00
    0.1100000000E+07    0.6374858917E+00    0.1260939031E-01    0.2041690627E-02    0.4258020043E-01    0.6643037799E+00
    0.1300000000E+07    0.6374874358E+00    0.1166293528E-01    0.1872309999E-02    0.4259317621E-01    0.6660078496E+00
    0.1500000000E+07    0.6374870972E+00    0.1090651598E-01    0.1738048011E-02    0.4260418613E-01    0.6673658722E+00
    0.1700000000E+07    0.6374857140E+00    0.1028366827E-01    0.1628276974E-02    0.4261374745E-01    0.6684814435E+00
    0.1900000000E+07    0.6374837348E+00    0.9758988846E-02    0.1536383218E-02    0.4262219708E-01    0.6694192991E+00
    0.2100000000E+07    0.6374814142E+00    0.9308990188E-02    0.1458007746E-02    0.4262976667E-01    0.6702222648E+00
    0.2300000000E+07    0.6374789038E+00    0.8917387533E-02    0.1390145845E-02    0.4263662230E-01    0.6709199617E+00
    0.2500000000E+07    0.6374762967E+00    0.8572482858E-02    0.1330650367E-02    0.4264288711E-01    0.6715336229E+00
    0.2700000000E+07    0.6374736512E+00    0.8265624742E-02    0.1277940895E-02    0.4264865491E-01    0.6720789229E+00
    0.2900000000E+07    0.6374710044E+00    0.7990257146E-02    0.1230824993E-02    0.4265399882E-01    0.6725677196E+00
    0.3100000000E+07    0.6374683803E+00    0.7741308041E-02    0.1188383843E-02    0.4265897690E-01    0.6730091736E+00
    0.3300000000E+07    0.6374657939E+00    0.7514783029E-02    0.1149896542E-02    0.4266363608E-01    0.6734104891E+00
    0.3500000000E+07    0.6374632549E+00    0.7307487331E-02    0.1114788502E-02    0.4266801480E-01    0.6737774211E+00
    0.3700000000E+07    0.6374607689E+00    0.7116830773E-02    0.1082595396E-02    0.4267214491E-01    0.6741146300E+00
    0.3900000000E+07    0.6374583391E+00    0.6940687983E-02    0.1052937387E-02    0.4267605317E-01    0.6744259361E+00
    0.4100000000E+07    0.6374559669E+00    0.6777296207E-02    0.1025500357E-02    0.4267976221E-01    0.6747145046E+00
    0.4300000000E+07    0.6374536527E+00    0.6625179338E-02    0.1000021990E-02    0.4268329138E-01    0.6749829837E+00
    0.4500000000E+07    0.6374513959E+00    0.6483090547E-02    0.9762812925E-03    0.4268665733E-01    0.6752336083E+00
    0.4700000000E+07    0.6374491955E+00    0.6349968369E-02    0.9540905943E-03    0.4268987451E-01    0.6754682794E+00
    0.4900000000E+07    0.6374470501E+00    0.6224902661E-02    0.9332893598E-03    0.4269295553E-01    0.6756886259E+00
    0.1000000000E+07    0.6374839405E+00    0.1318167451E-01    0.2144819461E-02    0.4257272912E-01    0.6632708117E+00
    0.3000000000E+07    0.6374696884E+00    0.7862751439E-02    0.1209069072E-02    0.4265653043E-01    0.6727938752E+00
    0.5000000000E+07    0.6374459975E+00    0.6165141251E-02    0.9233658314E-03    0.4269444849E-01    0.6757938741E+00
    0.7000000000E+07    0.6374274129E+00    0.5248579709E-02    0.7725471205E-03    0.4271925573E-01    0.6774045433E+00
    0.9000000000E+07    0.6374124653E+00    0.4652560703E-02    0.6759805725E-03    0.4273772899E-01    0.6784482011E+00
    0.1100000000E+08    0.6374000258E+00    0.4224897457E-02    0.6075081495E-03    0.4275245570E-01    0.6791951251E+00
    0.1300000000E+08    0.6373893919E+00    0.3898605268E-02    0.5557668717E-03    0.4276470350E-01    0.6797638522E+00
    0.1500000000E+08    0.6373801128E+00    0.3638956616E-02    0.5149261953E-03    0.4277518870E-01    0.6802156734E+00
    0.1700000000E+08    0.6373718852E+00    0.3425901977E-02    0.4816485202E-03    0.4278435590E-01    0.6805858998E+00
    0.1900000000E+08    0.6373644967E+00    0.3246944142E-02    0.4538685706E-03    0.4279250012E-01    0.6808965031E+00
    0.2100000000E+08    0.6373577926E+00    0.3093832061E-02    0.4302314444E-03    0.4279982721E-01    0.6811619683E+00
    0.2300000000E+08    0.6373516574E+00    0.2960868120E-02    0.4098068195E-03    0.4280648649E-01    0.6813922847E+00
    0.2500000000E+08    0.6373460024E+00    0.2843973645E-02    0.3919321045E-03    0.4281258976E-01    0.6815945953E+00
    0.2700000000E+08    0.6373407580E+00    0.2740141268E-02    0.3761210039E-03    0.4281822287E-01    0.6817741615E+00
