  Pressure (Pa) 22mC5-400 (mol/kg) 2mC6-400 (mol/kg) 33mC5-400 (mol/kg) 23mC5-400 (mol/kg) C7-400 (mol/kg)
    0.1000000000E+01    0.4227780217E-02    0.1576982414E-02    0.1926101035E-03    0.9279421499E-04    0.1019793864E-01
    0.3000000000E+01    0.1248219558E-01    0.4557072053E-02    0.5566799559E-03    0.2739713483E-03    0.2959035017E-01
    0.5000000000E+01    0.2048011518E-01    0.7323439000E-02    0.8947521982E-03    0.4495232414E-03    0.4775306122E-01
    0.7000000000E+01    0.2823471602E-01    0.9895523540E-02    0.1209190909E-02    0.6197388223E-03    0.6480165670E-01
    0.9000000000E+01    0.3575826788E-01    0.1229049520E-01    0.1502083560E-02    0.7848871286E-03    0.8083760767E-01
    0.1100000000E+02    0.4306220979E-01    0.1452357892E-01    0.1775280816E-02    0.9452189840E-03    0.9595036473E-01
    0.1300000000E+02    0.5015721892E-01    0.1660832587E-01    0.2030429567E-02    0.1100968509E-02    0.1102190894E+00
    0.1500000000E+02    0.5705327286E-01    0.1855683976E-01    0.2269000529E-02    0.1252354487E-02    0.1237140945E+00
    0.1700000000E+02    0.6375970585E-01    0.2037996692E-01    0.2492311418E-02    0.1399581595E-02    0.1364980492E+00
    0.1900000000E+02    0.7028525975E-01    0.2208745683E-01    0.2701546517E-02    0.1542841521E-02    0.1486269917E+00
    0.2100000000E+02    0.7663813025E-01    0.2368809842E-01    0.2897773292E-02    0.1682313980E-02    0.1601511858E+00
    0.2300000000E+02    0.8282600888E-01    0.2518983628E-01    0.3081956541E-02    0.1818167632E-02    0.1711158472E+00
    0.2500000000E+02    0.8885612114E-01    0.2659987021E-01    0.3254970530E-02    0.1950560921E-02    0.1815617632E+00
    0.2700000000E+02    0.9473526140E-01    0.2792474088E-01    0.3417609416E-02    0.2079642834E-02    0.1915258234E+00
    0.2900000000E+02    0.1004698245E+00    0.2917040378E-01    0.3570596253E-02    0.2205553603E-02    0.2010414749E+00
    0.3100000000E+02    0.1060658350E+00    0.3034229333E-01    0.3714590797E-02    0.2328425336E-02    0.2101391163E+00
    0.3300000000E+02    0.1115289733E+00    0.3144537870E-01    0.3850196297E-02    0.2448382599E-02    0.2188464381E+00
    0.3500000000E+02    0.1168646002E+00    0.3248421249E-01    0.3977965416E-02    0.2565542952E-02    0.2271887182E+00
    0.3700000000E+02    0.1220777793E+00    0.3346297339E-01    0.4098405423E-02    0.2680017431E-02    0.2351890802E+00
    0.3900000000E+02    0.1271732971E+00    0.3438550367E-01    0.4211982751E-02    0.2791911002E-02    0.2428687185E+00
    0.4100000000E+02    0.1321556819E+00    0.3525534222E-01    0.4319127009E-02    0.2901322968E-02    0.2502470962E+00
    0.4300000000E+02    0.1370292212E+00    0.3607575368E-01    0.4420234531E-02    0.3008347354E-02    0.2573421188E+00
    0.4500000000E+02    0.1417979776E+00    0.3684975436E-01    0.4515671519E-02    0.3113073248E-02    0.2641702877E+00
    0.4700000000E+02    0.1464658031E+00    0.3758013514E-01    0.4605776829E-02    0.3215585129E-02    0.2707468351E+00
    0.4900000000E+02    0.1510363535E+00    0.3826948199E-01    0.4690864461E-02    0.3315963163E-02    0.2770858449E+00
    0.1000000000E+02    0.3943700566E-01    0.1342638972E-01    0.1641036753E-02    0.8656401053E-03    0.8850421484E-01
    0.3000000000E+02    0.1032847861E+00    0.2976524935E-01    0.3643678608E-02    0.2267361393E-02    0.2056407564E+00
    0.5000000000E+02    0.1532862421E+00    0.3859952429E-01    0.4731618526E-02    0.3365375927E-02    0.2801703867E+00
    0.7000000000E+02    0.1939341914E+00    0.4354515141E-01    0.5343892200E-02    0.4258208369E-02    0.3320949730E+00
    0.9000000000E+02    0.2279044349E+00    0.4628656899E-01    0.5685196718E-02    0.5004541085E-02    0.3705363856E+00
    0.1100000000E+03    0.2568965192E+00    0.4770497037E-01    0.5862856556E-02    0.5641648581E-02    0.4002611354E+00
    0.1300000000E+03    0.2820473234E+00    0.4829888953E-01    0.5937797697E-02    0.6194466266E-02    0.4240089299E+00
    0.1500000000E+03    0.3041504548E+00    0.4836666739E-01    0.5946642474E-02    0.6680401404E-02    0.4434698880E+00
    0.1700000000E+03    0.3237799755E+00    0.4809446707E-01    0.5912365717E-02    0.7112046328E-02    0.4597452086E+00
    0.1900000000E+03    0.3413638146E+00    0.4760220432E-01    0.5849858742E-02    0.7498788371E-02    0.4735843149E+00
    0.2100000000E+03    0.3572292431E+00    0.4696902076E-01    0.5769019008E-02    0.7847807150E-02    0.4855156773E+00
    0.2300000000E+03    0.3716321054E+00    0.4624811450E-01    0.5676552347E-02    0.8164715647E-02    0.4959231347E+00
    0.2500000000E+03    0.3847762259E+00    0.4547572375E-01    0.5577067409E-02    0.8453985838E-02    0.5050925261E+00
    0.2700000000E+03    0.3968266656E+00    0.4467675051E-01    0.5473762927E-02    0.8719239433E-02    0.5132413097E+00
    0.2900000000E+03    0.4079190092E+00    0.4386837969E-01    0.5368871643E-02    0.8963451570E-02    0.5205380116E+00
    0.3100000000E+03    0.4181660207E+00    0.4306246350E-01    0.5263954018E-02    0.9189096783E-02    0.5271153660E+00
    0.3300000000E+03    0.4276625105E+00    0.4226712422E-01    0.5160096601E-02    0.9398255769E-02    0.5330794178E+00
    0.3500000000E+03    0.4364889621E+00    0.4148785012E-01    0.5058048405E-02    0.9592694917E-02    0.5385159693E+00
    0.3700000000E+03    0.4447142783E+00    0.4072825614E-01    0.4958316096E-02    0.9773926560E-02    0.5434952339E+00
    0.3900000000E+03    0.4523978941E+00    0.3999061850E-01    0.4861231327E-02    0.9943255311E-02    0.5480752571E+00
    0.4100000000E+03    0.4595914235E+00    0.3927625453E-01    0.4766998911E-02    0.1010181419E-01    0.5523044681E+00
    0.4300000000E+03    0.4663399603E+00    0.3858579513E-01    0.4675731615E-02    0.1025059315E-01    0.5562236125E+00
    0.4500000000E+03    0.4726831166E+00    0.3791938150E-01    0.4587475515E-02    0.1039046187E-01    0.5598672339E+00
    0.4700000000E+03    0.4786558610E+00    0.3727680827E-01    0.4502228575E-02    0.1052218814E-01    0.5632648228E+00
    0.4900000000E+03    0.4842892022E+00    0.3665762801E-01    0.4419954361E-02    0.1064645283E-01    0.5664417184E+00
    0.1000000000E+03    0.2429417018E+00    0.4712381795E-01    0.5789925758E-02    0.5334970434E-02    0.3862847089E+00
    0.3000000000E+03    0.4131418825E+00    0.4346453452E-01    0.5316338946E-02    0.9078456810E-02    0.5239094399E+00
    0.5000000000E+03    0.4869873439E+00    0.3635662350E-01    0.4379913789E-02    0.1070597918E-01    0.5679543684E+00
    0.7000000000E+03    0.5284681662E+00    0.3137981617E-01    0.3714530167E-02    0.1162197983E-01    0.5906472330E+00
    0.9000000000E+03    0.5548300111E+00    0.2787571397E-01    0.3244096552E-02    0.1220525568E-01    0.6047909778E+00
    0.1100000000E+04    0.5729494335E+00    0.2529412489E-01    0.2898201928E-02    0.1260695838E-01    0.6145785490E+00
    0.1300000000E+04    0.5861119799E+00    0.2331046386E-01    0.2633863258E-02    0.1289935693E-01    0.6218175178E+00
    0.1500000000E+04    0.5960772292E+00    0.2173271909E-01    0.2425148725E-02    0.1312118140E-01    0.6274242945E+00
    0.1700000000E+04    0.6038677823E+00    0.2044247059E-01    0.2255869661E-02    0.1329495545E-01    0.6319166463E+00
    0.1900000000E+04    0.6101161742E+00    0.1936335700E-01    0.2115509547E-02    0.1343462057E-01    0.6356108212E+00
    0.2100000000E+04    0.6152334899E+00    0.1844410304E-01    0.1996977578E-02    0.1354924343E-01    0.6387117062E+00
    0.2300000000E+04    0.6194978660E+00    0.1764903933E-01    0.1895332319E-02    0.1364496262E-01    0.6413583180E+00
    0.2500000000E+04    0.6231038859E+00    0.1695258279E-01    0.1807029407E-02    0.1372607559E-01    0.6436485580E+00
    0.2700000000E+04    0.6261915771E+00    0.1633589324E-01    0.1729461800E-02    0.1379567699E-01    0.6456535191E+00
    0.2900000000E+04    0.6288641699E+00    0.1578477440E-01    0.1660669256E-02    0.1385604982E-01    0.6474261713E+00
    0.3100000000E+04    0.6311993744E+00    0.1528831287E-01    0.1599149103E-02    0.1390891387E-01    0.6490068538E+00
    0.3300000000E+04    0.6332567665E+00    0.1483797028E-01    0.1543729616E-02    0.1395558850E-01    0.6504268710E+00
    0.3500000000E+04    0.6350827600E+00    0.1442696194E-01    0.1493483176E-02    0.1399710231E-01    0.6517109175E+00
    0.3700000000E+04    0.6367140344E+00    0.1404982178E-01    0.1447665426E-02    0.1403426874E-01    0.6528787560E+00
    0.3900000000E+04    0.6381799480E+00    0.1370209159E-01    0.1405671779E-02    0.1406773932E-01    0.6539464056E+00
    0.4100000000E+04    0.6395042701E+00    0.1338009478E-01    0.1367005773E-02    0.1409804192E-01    0.6549269991E+00
    0.4300000000E+04    0.6407064449E+00    0.1308076900E-01    0.1331255689E-02    0.1412560865E-01    0.6558314134E+00
    0.4500000000E+04    0.6418025290E+00    0.1280154041E-01    0.1298076997E-02    0.1415079660E-01    0.6566687406E+00
    0.4700000000E+04    0.6428058952E+00    0.1254022794E-01    0.1267179022E-02    0.1417390339E-01    0.6574466443E+00
    0.4900000000E+04    0.6437277691E+00    0.1229496948E-01    0.1238314673E-02    0.1419517901E-01    0.6581716336E+00
    0.1000000000E+04    0.5646644639E+00    0.2649395233E-01    0.3058782880E-02    0.1242318343E-01    0.6100859678E+00
    0.3000000000E+04    0.6300698647E+00    0.1553029239E-01    0.1629079949E-02    0.1388333008E-01    0.6482383733E+00
    0.5000000000E+04    0.6441611707E+00    0.1217785136E-01    0.1224577810E-02    0.1420519753E-01    0.6585160570E+00
    0.7000000000E+04    0.6502331665E+00    0.1038611519E-01    0.1018300686E-02    0.1434697403E-01    0.6636334251E+00
    0.9000000000E+04    0.6536054997E+00    0.9223071829E-02    0.8884291483E-03    0.1442742472E-01    0.6667911531E+00
    0.1100000000E+05    0.6557488594E+00    0.8388100912E-02    0.7972065161E-03    0.1447964397E-01    0.6689721835E+00
    0.1300000000E+05    0.6572307284E+00    0.7750255385E-02    0.7286733607E-03    0.1451649952E-01    0.6705877616E+00
    0.1500000000E+05    0.6583160659E+00    0.7241965735E-02    0.6747840909E-03    0.1454404458E-01    0.6718429972E+00
    0.1700000000E+05    0.6591450872E+00    0.6824300997E-02    0.6309887782E-03    0.1456550633E-01    0.6728526741E+00
    0.1900000000E+05    0.6597989100E+00    0.6473011490E-02    0.5944964819E-03    0.1458276552E-01    0.6736865047E+00
    0.2100000000E+05    0.6603277083E+00    0.6172086221E-02    0.5634881192E-03    0.1459699394E-01    0.6743895065E+00
    0.2300000000E+05    0.6607641770E+00    0.5910464285E-02    0.5367208533E-03    0.1460896071E-01    0.6749921723E+00
    0.2500000000E+05    0.6611305304E+00    0.5680222506E-02    0.5133129564E-03    0.1461919218E-01    0.6755159631E+00
    0.2700000000E+05    0.6614423891E+00    0.5475514332E-02    0.4926193066E-03    0.1462806108E-01    0.6759764651E+00
    0.2900000000E+05    0.6617110563E+00    0.5291917329E-02    0.4741556074E-03    0.1463583906E-01    0.6763852988E+00
    0.3100000000E+05    0.6619449131E+00    0.5126015279E-02    0.4575502949E-03    0.1464272895E-01    0.6767513229E+00
    0.3300000000E+05    0.6621503044E+00    0.4975121209E-02    0.4425129231E-03    0.1464888538E-01    0.6770814214E+00
    0.3500000000E+05    0.6623321224E+00    0.4837088359E-02    0.4288127467E-03    0.1465442840E-01    0.6773810326E+00
    0.3700000000E+05    0.6624941994E+00    0.4710177857E-02    0.4162638301E-03    0.1465945270E-01    0.6776545164E+00
    0.3900000000E+05    0.6626395801E+00    0.4592964028E-02    0.4047144563E-03    0.1466403405E-01    0.6779054127E+00
    0.4100000000E+05    0.6627707138E+00    0.4484265278E-02    0.3940394412E-03    0.1466823378E-01    0.6781366293E+00
    0.4300000000E+05    0.6628895935E+00    0.4383092777E-02    0.3841344570E-03    0.1467210215E-01    0.6783505790E+00
    0.4500000000E+05    0.6629978570E+00    0.4288611757E-02    0.3749117714E-03    0.1467568075E-01    0.6785492827E+00
    0.4700000000E+05    0.6630968630E+00    0.4200111915E-02    0.3662970050E-03    0.1467900430E-01    0.6787344470E+00
    0.4900000000E+05    0.6631877478E+00    0.4116984481E-02    0.3582266290E-03    0.1468210204E-01    0.6789075244E+00
    0.1000000000E+05    0.6547847061E+00    0.8774914025E-02    0.8392553183E-03    0.1445602011E-01    0.6679709714E+00
    0.3000000000E+05    0.6618318997E+00    0.5206936911E-02    0.4656404171E-03    0.1463938441E-01    0.6765731927E+00
    0.5000000000E+05    0.6632304501E+00    0.4077268441E-02    0.3543782127E-03    0.1468357412E-01    0.6789899265E+00
    0.7000000000E+05    0.6638271706E+00    0.3468584879E-02    0.2960160153E-03    0.1470559032E-01    0.6802293643E+00
    0.9000000000E+05    0.6641574377E+00    0.3073208228E-02    0.2587635034E-03    0.1471951324E-01    0.6810108456E+00
    0.1100000000E+06    0.6643668606E+00    0.2789723297E-02    0.2323988754E-03    0.1472944523E-01    0.6815597145E+00
    0.1300000000E+06    0.6645113379E+00    0.2573554049E-02    0.2125022939E-03    0.1473706174E-01    0.6819718204E+00
    0.1500000000E+06    0.6646169162E+00    0.2401611694E-02    0.1968124808E-03    0.1474318955E-01    0.6822956383E+00
    0.1700000000E+06    0.6646973671E+00    0.2260575253E-02    0.1840376514E-03    0.1474828993E-01    0.6825586220E+00
    0.1900000000E+06    0.6647606539E+00    0.2142145990E-02    0.1733796834E-03    0.1475264353E-01    0.6827776201E+00
    0.2100000000E+06    0.6648117005E+00    0.2040847243E-02    0.1643156025E-03    0.1475643248E-01    0.6829636137E+00
    0.2300000000E+06    0.6648537149E+00    0.1952898620E-02    0.1564866631E-03    0.1475978100E-01    0.6831241024E+00
    0.2500000000E+06    0.6648888760E+00    0.1875594778E-02    0.1496375647E-03    0.1476277728E-01    0.6832644041E+00
    0.2700000000E+06    0.6649187155E+00    0.1806941531E-02    0.1435810609E-03    0.1476548597E-01    0.6833884071E+00
    0.2900000000E+06    0.6649443413E+00    0.1745432064E-02    0.1381763139E-03    0.1476795576E-01    0.6834990284E+00
    0.3100000000E+06    0.6649665748E+00    0.1689903642E-02    0.1333151023E-03    0.1477022421E-01    0.6835985044E+00
    0.3300000000E+06    0.6649860373E+00    0.1639442692E-02    0.1289127248E-03    0.1477232079E-01    0.6836885823E+00
    0.3500000000E+06    0.6650032078E+00    0.1593320050E-02    0.1249018216E-03    0.1477426907E-01    0.6837706491E+00
    0.3700000000E+06    0.6650184612E+00    0.1550945669E-02    0.1212280683E-03    0.1477608815E-01    0.6838458218E+00
    0.3900000000E+06    0.6650320952E+00    0.1511836231E-02    0.1178471074E-03    0.1477779374E-01    0.6839150112E+00
    0.4100000000E+06    0.6650443493E+00    0.1475591518E-02    0.1147223177E-03    0.1477939887E-01    0.6839789687E+00
    0.4300000000E+06    0.6650554181E+00    0.1441876890E-02    0.1118231652E-03    0.1478091450E-01    0.6840383199E+00
    0.4500000000E+06    0.6650654613E+00    0.1410410074E-02    0.1091239626E-03    0.1478234990E-01    0.6840935907E+00
    0.4700000000E+06    0.6650746116E+00    0.1380951070E-02    0.1066029250E-03    0.1478371298E-01    0.6841452269E+00
    0.4900000000E+06    0.6650829796E+00    0.1353294338E-02    0.1042414409E-03    0.1478501058E-01    0.6841936088E+00
    0.1000000000E+06    0.6642727110E+00    0.2920993050E-02    0.2445698975E-03    0.1472484402E-01    0.6813067462E+00
    0.3000000000E+06    0.6649558394E+00    0.1716982286E-02    0.1356835277E-03    0.1476911315E-01    0.6835500407E+00
    0.5000000000E+06    0.6650869000E+00    0.1340085482E-02    0.1031154402E-03    0.1478563669E-01    0.6842166835E+00
    0.7000000000E+06    0.6651406781E+00    0.1138037035E-02    0.8604840495E-04    0.1479581565E-01    0.6845670161E+00
    0.9000000000E+06    0.6651691987E+00    0.1007186704E-02    0.7516604377E-04    0.1480316737E-01    0.6847912528E+00
    0.1100000000E+07    0.6651864702E+00    0.9135564691E-03    0.6747117861E-04    0.1480891954E-01    0.6849504192E+00
    0.1300000000E+07    0.6651978111E+00    0.8422648499E-03    0.6166839881E-04    0.1481364323E-01    0.6850708859E+00
    0.1500000000E+07    0.6652056708E+00    0.7856235499E-03    0.5709534606E-04    0.1481765015E-01    0.6851661467E+00
    0.1700000000E+07    0.6652113286E+00    0.7392055426E-03    0.5337387098E-04    0.1482112904E-01    0.6852439145E+00
    0.1900000000E+07    0.6652155147E+00    0.7002571777E-03    0.5027047021E-04    0.1482420281E-01    0.6853089584E+00
    0.2100000000E+07    0.6652186749E+00    0.6669635422E-03    0.4763221998E-04    0.1482695593E-01    0.6853644065E+00
    0.2300000000E+07    0.6652210955E+00    0.6380731973E-03    0.4535426923E-04    0.1482944896E-01    0.6854124068E+00
    0.2500000000E+07    0.6652229685E+00    0.6126914055E-03    0.4336203347E-04    0.1483172681E-01    0.6854544894E+00
    0.2700000000E+07    0.6652244269E+00    0.5901591549E-03    0.4160083164E-04    0.1483382365E-01    0.6854917779E+00
    0.2900000000E+07    0.6652255653E+00    0.5699788404E-03    0.4002955017E-04    0.1483576615E-01    0.6855251184E+00
    0.3100000000E+07    0.6652264531E+00    0.5517667232E-03    0.3861660746E-04    0.1483757547E-01    0.6855551616E+00
    0.3300000000E+07    0.6652271417E+00    0.5352214615E-03    0.3733729328E-04    0.1483926869E-01    0.6855824174E+00
    0.3500000000E+07    0.6652276703E+00    0.5201026608E-03    0.3617196208E-04    0.1484085983E-01    0.6856072918E+00
    0.3700000000E+07    0.6652280691E+00    0.5062158797E-03    0.3510477427E-04    0.1484236049E-01    0.6856301127E+00
    0.3900000000E+07    0.6652283616E+00    0.4934019121E-03    0.3412279951E-04    0.1484378042E-01    0.6856511477E+00
    0.4100000000E+07    0.6652285663E+00    0.4815289764E-03    0.3321536514E-04    0.1484512785E-01    0.6856706185E+00
    0.4300000000E+07    0.6652286982E+00    0.4704869214E-03    0.3237357429E-04    0.1484640984E-01    0.6856887097E+00
    0.4500000000E+07    0.6652287693E+00    0.4601828634E-03    0.3158994391E-04    0.1484763245E-01    0.6857055770E+00
    0.4700000000E+07    0.6652287894E+00    0.4505378521E-03    0.3085812897E-04    0.1484880094E-01    0.6857213524E+00
    0.4900000000E+07    0.6652287663E+00    0.4414842919E-03    0.3017270962E-04    0.1484991989E-01    0.6857361489E+00
    0.1000000000E+07    0.6651788070E+00    0.9568930493E-03    0.7102268219E-04    0.1480619906E-01    0.6848768833E+00
    0.3000000000E+07    0.6652260370E+00    0.5606472325E-03    0.3930496747E-04    0.1483668631E-01    0.6855405175E+00
    0.5000000000E+07    0.6652287408E+00    0.4371607814E-03    0.2984591591E-04    0.1485046207E-01    0.6857432111E+00
    0.7000000000E+07    0.6652270961E+00    0.3710639491E-03    0.2489482690E-04    0.1485946852E-01    0.6858508539E+00
    0.9000000000E+07    0.6652246253E+00    0.3282953685E-03    0.2174008335E-04    0.1486617231E-01    0.6859201766E+00
    0.1100000000E+08    0.6652220590E+00    0.2977096913E-03    0.1951043493E-04    0.1487151466E-01    0.6859695886E+00
    0.1300000000E+08    0.6652195918E+00    0.2744308746E-03    0.1782962103E-04    0.1487595649E-01    0.6860071021E+00
    0.1500000000E+08    0.6652172745E+00    0.2559416824E-03    0.1650536609E-04    0.1487975819E-01    0.6860368377E+00
    0.1700000000E+08    0.6652151128E+00    0.2407934718E-03    0.1542794581E-04    0.1488308134E-01    0.6860611599E+00
    0.1900000000E+08    0.6652130979E+00    0.2280855724E-03    0.1452963045E-04    0.1488603312E-01    0.6860815353E+00
    0.2100000000E+08    0.6652112167E+00    0.2172245715E-03    0.1376607606E-04    0.1488868830E-01    0.6860989285E+00
    0.2300000000E+08    0.6652094555E+00    0.2078014149E-03    0.1310688598E-04    0.1489110113E-01    0.6861140029E+00
    0.2500000000E+08    0.6652078019E+00    0.1995237173E-03    0.1253044250E-04    0.1489331220E-01    0.6861272325E+00
    0.2700000000E+08    0.6652062447E+00    0.1921761715E-03    0.1202089967E-04    0.1489535269E-01    0.6861389655E+00
