  Pressure (Pa) 22mC5-400 (mol/kg) 2mC6-400 (mol/kg) 33mC5-400 (mol/kg) 23mC5-400 (mol/kg) C7-400 (mol/kg)
    0.1000000000E+01    0.4220789079E-02    0.3172130702E-02    0.3228323849E-03    0.9264084021E-04    0.3426204329E-02
    0.3000000000E+01    0.1242213317E-01    0.9268924910E-02    0.9432598844E-03    0.2726536544E-03    0.1009331082E-01
    0.5000000000E+01    0.2032071287E-01    0.1505457808E-01    0.1531952014E-02    0.4460261107E-03    0.1652501172E-01
    0.7000000000E+01    0.2793596347E-01    0.2054995389E-01    0.2091031741E-02    0.6131844017E-03    0.2273438272E-01
    0.9000000000E+01    0.3528564609E-01    0.2577414174E-01    0.2622441734E-02    0.7745180106E-03    0.2873353465E-01
    0.1100000000E+02    0.4238602403E-01    0.3074463947E-01    0.3127962920E-02    0.9303835795E-03    0.3453370132E-01
    0.1300000000E+02    0.4925201751E-01    0.3547751403E-01    0.3609230797E-02    0.1081108300E-02    0.4014531787E-01
    0.1500000000E+02    0.5589733955E-01    0.3998754324E-01    0.4067749834E-02    0.1226992893E-02    0.4557809088E-01
    0.1700000000E+02    0.6233461584E-01    0.4428834105E-01    0.4504906194E-02    0.1368314237E-02    0.5084106120E-01
    0.1900000000E+02    0.6857549061E-01    0.4839246860E-01    0.4921979014E-02    0.1505327691E-02    0.5594266035E-01
    0.2100000000E+02    0.7463072037E-01    0.5231153290E-01    0.5320150423E-02    0.1638269146E-02    0.6089076130E-01
    0.2300000000E+02    0.8051025722E-01    0.5605627460E-01    0.5700514466E-02    0.1767356855E-02    0.6569272424E-01
    0.2500000000E+02    0.8622332292E-01    0.5963664637E-01    0.6064085062E-02    0.1892793058E-02    0.7035543789E-01
    0.2700000000E+02    0.9177847494E-01    0.6306188300E-01    0.6411803124E-02    0.2014765424E-02    0.7488535691E-01
    0.2900000000E+02    0.9718366552E-01    0.6634056409E-01    0.6744542932E-02    0.2133448353E-02    0.7928853572E-01
    0.3100000000E+02    0.1024462945E+00    0.6948067041E-01    0.7063117859E-02    0.2249004133E-02    0.8357065930E-01
    0.3300000000E+02    0.1075732570E+00    0.7248963459E-01    0.7368285517E-02    0.2361583978E-02    0.8773707108E-01
    0.3500000000E+02    0.1125709854E+00    0.7537438669E-01    0.7660752394E-02    0.2471328963E-02    0.9179279843E-01
    0.3700000000E+02    0.1174454886E+00    0.7814139541E-01    0.7941178040E-02    0.2578370870E-02    0.9574257579E-01
    0.3900000000E+02    0.1222023860E+00    0.8079670535E-01    0.8210178847E-02    0.2682832943E-02    0.9959086589E-01
    0.4100000000E+02    0.1268469391E+00    0.8334597063E-01    0.8468331478E-02    0.2784830575E-02    0.1033418791E+00
    0.4300000000E+02    0.1313840797E+00    0.8579448551E-01    0.8716175972E-02    0.2884471931E-02    0.1069995912E+00
    0.4500000000E+02    0.1358184358E+00    0.8814721214E-01    0.8954218563E-02    0.2981858509E-02    0.1105677593E+00
    0.4700000000E+02    0.1401543544E+00    0.9040880578E-01    0.9182934249E-02    0.3077085655E-02    0.1140499375E+00
    0.4900000000E+02    0.1443959235E+00    0.9258363781E-01    0.9402769128E-02    0.3170243022E-02    0.1174494896E+00
    0.1000000000E+02    0.3886603583E-01    0.2829006589E-01    0.2878332978E-02    0.8531131971E-03    0.3165782108E-01
    0.3000000000E+02    0.9983235798E-01    0.6792746227E-01    0.6905552405E-02    0.2191607438E-02    0.8144438776E-01
    0.5000000000E+02    0.1464825382E+00    0.9363981184E-01    0.9509488297E-02    0.3216072105E-02    0.1191192833E+00
    0.7000000000E+02    0.1840857552E+00    0.1110851102E+00    0.1126715001E-01    0.4042069065E-02    0.1488689026E+00
    0.9000000000E+02    0.2155048920E+00    0.1232918723E+00    0.1248786251E-01    0.4732390055E-02    0.1731247116E+00
    0.1100000000E+03    0.2424405141E+00    0.1320146413E+00    0.1335111828E-01    0.5324335574E-02    0.1933997765E+00
    0.1300000000E+03    0.2659746407E+00    0.1383326598E+00    0.1396750807E-01    0.5841639871E-02    0.2106874756E+00
    0.1500000000E+03    0.2868345461E+00    0.1429416470E+00    0.1440844172E-01    0.6300256439E-02    0.2256685512E+00
    0.1700000000E+03    0.3055315009E+00    0.1463072748E+00    0.1472179542E-01    0.6711400925E-02    0.2388261602E+00
    0.1900000000E+03    0.3224386123E+00    0.1487509718E+00    0.1494066793E-01    0.7083258413E-02    0.2505134050E+00
    0.2100000000E+03    0.3378368781E+00    0.1505003457E+00    0.1508853156E-01    0.7421993550E-02    0.2609948170E+00
    0.2300000000E+03    0.3519436736E+00    0.1517200720E+00    0.1518239115E-01    0.7732375397E-02    0.2704728311E+00
    0.2500000000E+03    0.3649310566E+00    0.1525314939E+00    0.1523479103E-01    0.8018178932E-02    0.2791052459E+00
    0.2700000000E+03    0.3769379227E+00    0.1530254391E+00    0.1525512906E-01    0.8282451695E-02    0.2870170675E+00
    0.2900000000E+03    0.3880783163E+00    0.1532708223E+00    0.1525053990E-01    0.8527696067E-02    0.2943087456E+00
    0.3100000000E+03    0.3984472590E+00    0.1533205526E+00    0.1522650240E-01    0.8755997142E-02    0.3010620265E+00
    0.3300000000E+03    0.4081249342E+00    0.1532156713E+00    0.1518726573E-01    0.8969114509E-02    0.3073441944E+00
    0.3500000000E+03    0.4171797549E+00    0.1529883033E+00    0.1513615379E-01    0.9168549537E-02    0.3132111978E+00
    0.3700000000E+03    0.4256706542E+00    0.1526637937E+00    0.1507578600E-01    0.9355595634E-02    0.3187099907E+00
    0.3900000000E+03    0.4336488270E+00    0.1522622793E+00    0.1500823986E-01    0.9531376444E-02    0.3238803106E+00
    0.4100000000E+03    0.4411590750E+00    0.1517998567E+00    0.1493517207E-01    0.9696875351E-02    0.3287560461E+00
    0.4300000000E+03    0.4482408601E+00    0.1512894618E+00    0.1485790988E-01    0.9852958583E-02    0.3333663010E+00
    0.4500000000E+03    0.4549291406E+00    0.1507415394E+00    0.1477752065E-01    0.1000039356E-01    0.3377362318E+00
    0.4700000000E+03    0.4612550440E+00    0.1501645561E+00    0.1469486538E-01    0.1013986366E-01    0.3418877127E+00
    0.4900000000E+03    0.4672464127E+00    0.1495653987E+00    0.1461064015E-01    0.1027198016E-01    0.3458398686E+00
    0.1000000000E+03    0.2294549547E+00    0.1280098268E+00    0.1295608875E-01    0.5038944713E-02    0.1836886041E+00
    0.3000000000E+03    0.3933539002E+00    0.1533173401E+00    0.1524066185E-01    0.8643847800E-02    0.2977481826E+00
    0.5000000000E+03    0.4701245613E+00    0.1492593027E+00    0.1456811938E-01    0.1033545460E-01    0.3477465324E+00
    0.7000000000E+03    0.5150396681E+00    0.1428910447E+00    0.1372566348E-01    0.1132681578E-01    0.3785955642E+00
    0.9000000000E+03    0.5441601710E+00    0.1369633005E+00    0.1297989776E-01    0.1197066226E-01    0.4005196487E+00
    0.1100000000E+04    0.5643629798E+00    0.1317699499E+00    0.1234596136E-01    0.1241812644E-01    0.4173481456E+00
    0.1300000000E+04    0.5790927301E+00    0.1272366034E+00    0.1180544785E-01    0.1274495858E-01    0.4309047646E+00
    0.1500000000E+04    0.5902508376E+00    0.1232470505E+00    0.1133910439E-01    0.1299299806E-01    0.4421931933E+00
    0.1700000000E+04    0.5989639446E+00    0.1197002205E+00    0.1093157712E-01    0.1318705091E-01    0.4518221634E+00
    0.1900000000E+04    0.6059376403E+00    0.1165163541E+00    0.1057124205E-01    0.1334266194E-01    0.4601875665E+00
    0.2100000000E+04    0.6116341049E+00    0.1136336563E+00    0.1024933676E-01    0.1347001956E-01    0.4675607829E+00
    0.2300000000E+04    0.6163675565E+00    0.1110040524E+00    0.9959189172E-02    0.1357605466E-01    0.4741356407E+00
    0.2500000000E+04    0.6203584274E+00    0.1085897153E+00    0.9695644833E-02    0.1366563242E-01    0.4800552147E+00
    0.2700000000E+04    0.6237655573E+00    0.1063604809E+00    0.9454660436E-02    0.1374226077E-01    0.4854280068E+00
    0.2900000000E+04    0.6267060839E+00    0.1042919730E+00    0.9233017168E-02    0.1380852826E-01    0.4903381766E+00
    0.3100000000E+04    0.6292681537E+00    0.1023642429E+00    0.9028117203E-02    0.1386638399E-01    0.4948522605E+00
    0.3300000000E+04    0.6315192849E+00    0.1005607749E+00    0.8837837416E-02    0.1391732189E-01    0.4990237322E+00
    0.3500000000E+04    0.6335120151E+00    0.9886775008E-01    0.8660422740E-02    0.1396250515E-01    0.5028961816E+00
    0.3700000000E+04    0.6352878027E+00    0.9727349534E-01    0.8494407287E-02    0.1400285224E-01    0.5065055875E+00
    0.3900000000E+04    0.6368797770E+00    0.9576806381E-01    0.8338555166E-02    0.1403909761E-01    0.5098819748E+00
    0.4100000000E+04    0.6383147136E+00    0.9434291286E-01    0.8191815493E-02    0.1407183521E-01    0.5130506459E+00
    0.4300000000E+04    0.6396144767E+00    0.9299065310E-01    0.8053287749E-02    0.1410155038E-01    0.5160331112E+00
    0.4500000000E+04    0.6407970877E+00    0.9170485097E-01    0.7922194789E-02    0.1412864341E-01    0.5188478022E+00
    0.4700000000E+04    0.6418775280E+00    0.9047987157E-01    0.7797861594E-02    0.1415344728E-01    0.5215106256E+00
    0.4900000000E+04    0.6428683498E+00    0.8931075247E-01    0.7679698360E-02    0.1417624117E-01    0.5240353985E+00
    0.1000000000E+04    0.5551110741E+00    0.1342770494E+00    0.1264994729E-01    0.1221311093E-01    0.4094297239E+00
    0.3000000000E+04    0.6280297991E+00    0.1033116138E+00    0.9128616685E-02    0.1383840524E-01    0.4926411236E+00
    0.5000000000E+04    0.6433335300E+00    0.8874574808E-01    0.7622766068E-02    0.1418695952E-01    0.5252498492E+00
    0.7000000000E+04    0.6498037006E+00    0.7953597930E-01    0.6709938641E-02    0.1433750724E-01    0.5445570239E+00
    0.9000000000E+04    0.6533539767E+00    0.7295372522E-01    0.6074041570E-02    0.1442188019E-01    0.5578459212E+00
    0.1100000000E+05    0.6555916444E+00    0.6791403345E-01    0.5595876071E-02    0.1447617935E-01    0.5677671272E+00
    0.1300000000E+05    0.6571292139E+00    0.6387912141E-01    0.5218293383E-02    0.1451426398E-01    0.5755654680E+00
    0.1500000000E+05    0.6582500035E+00    0.6054524782E-01    0.4909765952E-02    0.1454259173E-01    0.5819181132E+00
    0.1700000000E+05    0.6591028547E+00    0.5772512590E-01    0.4651197960E-02    0.1456457987E-01    0.5872310399E+00
    0.1900000000E+05    0.6597733723E+00    0.5529570238E-01    0.4430220230E-02    0.1458220803E-01    0.5917651769E+00
    0.2100000000E+05    0.6603142513E+00    0.5317212622E-01    0.4238403315E-02    0.1459670362E-01    0.5956972623E+00
    0.2300000000E+05    0.6607596902E+00    0.5129361811E-01    0.4069769017E-02    0.1460886890E-01    0.5991520280E+00
    0.2500000000E+05    0.6611328451E+00    0.4961527831E-01    0.3919938940E-02    0.1461925098E-01    0.6022204642E+00
    0.2700000000E+05    0.6614499501E+00    0.4810308106E-01    0.3785620097E-02    0.1462823616E-01    0.6049707796E+00
    0.2900000000E+05    0.6617227218E+00    0.4673068157E-01    0.3664280001E-02    0.1463610519E-01    0.6074552869E+00
    0.3100000000E+05    0.6619598274E+00    0.4547730484E-01    0.3553933665E-02    0.1464306721E-01    0.6097148947E+00
    0.3300000000E+05    0.6621678155E+00    0.4432630657E-01    0.3452999526E-02    0.1464928136E-01    0.6117821337E+00
    0.3500000000E+05    0.6623517256E+00    0.4326416621E-01    0.3360199304E-02    0.1465487094E-01    0.6136832527E+00
    0.3700000000E+05    0.6625154989E+00    0.4227976607E-01    0.3274486774E-02    0.1465993305E-01    0.6154397047E+00
    0.3900000000E+05    0.6626622618E+00    0.4136386493E-01    0.3194996026E-02    0.1466454525E-01    0.6170692234E+00
    0.4100000000E+05    0.6627945261E+00    0.4050870665E-01    0.3121003218E-02    0.1466877026E-01    0.6185866174E+00
    0.4300000000E+05    0.6629143327E+00    0.3970772475E-01    0.3051897823E-02    0.1467265941E-01    0.6200043658E+00
    0.4500000000E+05    0.6630233570E+00    0.3895531596E-01    0.2987160704E-02    0.1467625511E-01    0.6213330712E+00
    0.4700000000E+05    0.6631229873E+00    0.3824666473E-01    0.2926347180E-02    0.1467959272E-01    0.6225818093E+00
    0.4900000000E+05    0.6632143835E+00    0.3757760534E-01    0.2869073783E-02    0.1468270202E-01    0.6237584020E+00
    0.1000000000E+05    0.6545870002E+00    0.7028230999E-01    0.5819659376E-02    0.1445166235E-01    0.5631308359E+00
    0.3000000000E+05    0.6618452822E+00    0.4609023896E-01    0.3607839572E-02    0.1463968865E-01    0.6086110018E+00
    0.5000000000E+05    0.6632573051E+00    0.3725677113E-01    0.2841658915E-02    0.1468417908E-01    0.6243217992E+00
    0.7000000000E+05    0.6638555763E+00    0.3224352004E-01    0.2417568311E-02    0.1470623175E-01    0.6330581392E+00
    0.9000000000E+05    0.6641852987E+00    0.2888880207E-01    0.2138498651E-02    0.1472014435E-01    0.6388358196E+00
    0.1100000000E+06    0.6643937266E+00    0.2643485914E-01    0.1936931415E-02    0.1473005578E-01    0.6430285525E+00
    0.1300000000E+06    0.6645371572E+00    0.2453596098E-01    0.1782537072E-02    0.1473765038E-01    0.6462538893E+00
    0.1500000000E+06    0.6646417466E+00    0.2300829548E-01    0.1659381518E-02    0.1474375741E-01    0.6488367760E+00
    0.1700000000E+06    0.6647212931E+00    0.2174370349E-01    0.1558179107E-02    0.1474883877E-01    0.6509669275E+00
    0.1900000000E+06    0.6647837609E+00    0.2067374496E-01    0.1473101933E-02    0.1475317516E-01    0.6527636477E+00
    0.2100000000E+06    0.6648340669E+00    0.1975267351E-01    0.1400281964E-02    0.1475694856E-01    0.6543062761E+00
    0.2300000000E+06    0.6648754100E+00    0.1894857177E-01    0.1337037224E-02    0.1476028301E-01    0.6556499319E+00
    0.2500000000E+06    0.6649099606E+00    0.1823838878E-01    0.1281441535E-02    0.1476326651E-01    0.6568342766E+00
    0.2700000000E+06    0.6649392425E+00    0.1760499738E-01    0.1232070919E-02    0.1476596355E-01    0.6578886855E+00
    0.2900000000E+06    0.6649643570E+00    0.1703536541E-01    0.1187846840E-02    0.1476842268E-01    0.6588354475E+00
    0.3100000000E+06    0.6649861195E+00    0.1651937400E-01    0.1147935399E-02    0.1477068132E-01    0.6596918256E+00
    0.3300000000E+06    0.6650051467E+00    0.1604902820E-01    0.1111680312E-02    0.1477276886E-01    0.6604714288E+00
    0.3500000000E+06    0.6650219133E+00    0.1561791472E-01    0.1078557048E-02    0.1477470876E-01    0.6611851512E+00
    0.3700000000E+06    0.6650367906E+00    0.1522082012E-01    0.1048140660E-02    0.1477652007E-01    0.6618418328E+00
    0.3900000000E+06    0.6650500735E+00    0.1485345604E-01    0.1020082727E-02    0.1477821841E-01    0.6624487323E+00
    0.4100000000E+06    0.6650619987E+00    0.1451225780E-01    0.9940944993E-03    0.1477981677E-01    0.6630118741E+00
    0.4300000000E+06    0.6650727585E+00    0.1419423422E-01    0.9699343757E-03    0.1478132604E-01    0.6635363060E+00
    0.4500000000E+06    0.6650825109E+00    0.1389685389E-01    0.9473984442E-03    0.1478275547E-01    0.6640262942E+00
    0.4700000000E+06    0.6650913868E+00    0.1361795788E-01    0.9263132478E-03    0.1478411294E-01    0.6644854725E+00
    0.4900000000E+06    0.6650994952E+00    0.1335569198E-01    0.9065301764E-03    0.1478540523E-01    0.6649169583E+00
    0.1000000000E+06    0.6643000945E+00    0.2757626518E-01    0.2030407202E-02    0.1472546532E-01    0.6410818633E+00
    0.3000000000E+06    0.6649756148E+00    0.1677120680E-01    0.1167396602E-02    0.1476957507E-01    0.6592740110E+00
    0.5000000000E+06    0.6651032910E+00    0.1323028584E-01    0.8970861895E-03    0.1478602881E-01    0.6651231722E+00
    0.7000000000E+06    0.6651551121E+00    0.1130005398E-01    0.7530605398E-03    0.1479616825E-01    0.6682884063E+00
    0.9000000000E+06    0.6651823154E+00    0.1003795307E-01    0.6603509854E-03    0.1480349391E-01    0.6703490398E+00
    0.1100000000E+07    0.6651986201E+00    0.9129003532E-02    0.5943774543E-03    0.1480922734E-01    0.6718286180E+00
    0.1300000000E+07    0.6652092112E+00    0.8433626864E-02    0.5443932665E-03    0.1481393677E-01    0.6729579838E+00
    0.1500000000E+07    0.6652164664E+00    0.7879116325E-02    0.5048590859E-03    0.1481793242E-01    0.6738569547E+00
    0.1700000000E+07    0.6652216229E+00    0.7423345019E-02    0.4725931356E-03    0.1482140214E-01    0.6745947636E+00
    0.1900000000E+07    0.6652253840E+00    0.7039979961E-02    0.4456212113E-03    0.1482446828E-01    0.6752145916E+00
    0.2100000000E+07    0.6652281778E+00    0.6711594864E-02    0.4226452737E-03    0.1482721494E-01    0.6757449622E+00
    0.2300000000E+07    0.6652302780E+00    0.6426132836E-02    0.4027723785E-03    0.1482970243E-01    0.6762055796E+00
    0.2500000000E+07    0.6652318675E+00    0.6174948468E-02    0.3853655381E-03    0.1483197546E-01    0.6766105535E+00
    0.2700000000E+07    0.6652330727E+00    0.5951657916E-02    0.3699565987E-03    0.1483406809E-01    0.6769702905E+00
    0.2900000000E+07    0.6652339831E+00    0.5751430140E-02    0.3561928017E-03    0.1483600686E-01    0.6772926575E+00
    0.3100000000E+07    0.6652346640E+00    0.5570532197E-02    0.3438026520E-03    0.1483781285E-01    0.6775837276E+00
    0.3300000000E+07    0.6652351638E+00    0.5406027477E-02    0.3325733579E-03    0.1483950310E-01    0.6778482742E+00
    0.3500000000E+07    0.6652355191E+00    0.5255569547E-02    0.3223354784E-03    0.1484109156E-01    0.6780901084E+00
    0.3700000000E+07    0.6652357581E+00    0.5117257737E-02    0.3129522045E-03    0.1484258979E-01    0.6783123152E+00
    0.3900000000E+07    0.6652359025E+00    0.4989533726E-02    0.3043117101E-03    0.1484400751E-01    0.6785174222E+00
    0.4100000000E+07    0.6652359696E+00    0.4871106038E-02    0.2963215841E-03    0.1484535294E-01    0.6787075228E+00
    0.4300000000E+07    0.6652359730E+00    0.4760893957E-02    0.2889047067E-03    0.1484663308E-01    0.6788843680E+00
    0.4500000000E+07    0.6652359239E+00    0.4657985219E-02    0.2819961470E-03    0.1484785400E-01    0.6790494350E+00
    0.4700000000E+07    0.6652358310E+00    0.4561603650E-02    0.2755407965E-03    0.1484902093E-01    0.6792039798E+00
    0.4900000000E+07    0.6652357017E+00    0.4471084098E-02    0.2694915403E-03    0.1485013844E-01    0.6793490786E+00
    0.1000000000E+07    0.6651914069E+00    0.9550317488E-02    0.6248705122E-03    0.1480651554E-01    0.6711432763E+00
    0.3000000000E+07    0.6652343489E+00    0.5658764359E-02    0.3498404888E-03    0.1483692531E-01    0.6774417805E+00
    0.5000000000E+07    0.6652356253E+00    0.4427840154E-02    0.2666063017E-03    0.1485067995E-01    0.6794183807E+00
    0.7000000000E+07    0.6652331941E+00    0.3765407227E-02    0.2228076272E-03    0.1485967691E-01    0.6804786633E+00
    0.9000000000E+07    0.6652302051E+00    0.3335441974E-02    0.1948149427E-03    0.1486637573E-01    0.6811654813E+00
    0.1100000000E+08    0.6652272633E+00    0.3027312274E-02    0.1749903197E-03    0.1487171535E-01    0.6816569769E+00
    0.1300000000E+08    0.6652245074E+00    0.2792434540E-02    0.1600231558E-03    0.1487615574E-01    0.6820312153E+00
    0.1500000000E+08    0.6652219590E+00    0.2605661315E-02    0.1482173374E-03    0.1487995678E-01    0.6823285417E+00
    0.1700000000E+08    0.6652196068E+00    0.2452491516E-02    0.1386030801E-03    0.1488327978E-01    0.6825721927E+00
    0.1900000000E+08    0.6652174311E+00    0.2323894997E-02    0.1305808426E-03    0.1488623176E-01    0.6827766238E+00
    0.2100000000E+08    0.6652154118E+00    0.2213914435E-02    0.1237575986E-03    0.1488888739E-01    0.6829513636E+00
    0.2300000000E+08    0.6652135305E+00    0.2118438804E-02    0.1178636534E-03    0.1489130084E-01    0.6831029829E+00
    0.2500000000E+08    0.6652117710E+00    0.2034526851E-02    0.1127070295E-03    0.1489351265E-01    0.6832361799E+00
    0.2700000000E+08    0.6652101194E+00    0.1960010930E-02    0.1081468953E-03    0.1489555399E-01    0.6833544149E+00
