  Pressure (Pa) 22mC5-400 (mol/kg) 2mC6-400 (mol/kg) 33mC5-400 (mol/kg) 23mC5-400 (mol/kg) C7-400 (mol/kg)
    0.1000000000E+01    0.4218056361E-02    0.3945514572E-02    0.6424965129E-04    0.1851617869E-03    0.6814025466E-02
    0.3000000000E+01    0.1239876103E-01    0.1141846073E-01    0.1859487830E-03    0.5442818836E-03    0.1985769799E-01
    0.5000000000E+01    0.2025894384E-01    0.1837588923E-01    0.2992622309E-03    0.8893421468E-03    0.3217891614E-01
    0.7000000000E+01    0.2782064673E-01    0.2486312399E-01    0.4049263962E-03    0.1221309303E-02    0.4383892793E-01
    0.9000000000E+01    0.3510387872E-01    0.3092048806E-01    0.5035964207E-03    0.1541060926E-02    0.5489217324E-01
    0.1100000000E+02    0.4212684516E-01    0.3658396777E-01    0.5958569815E-03    0.1849395491E-02    0.6538720745E-01
    0.1300000000E+02    0.4890614663E-01    0.4188577395E-01    0.6822314165E-03    0.2147041096E-02    0.7536747850E-01
    0.1500000000E+02    0.5545695230E-01    0.4685481873E-01    0.7631894721E-03    0.2434663064E-02    0.8487198376E-01
    0.1700000000E+02    0.6179315120E-01    0.5151712206E-01    0.8391539112E-03    0.2712870576E-02    0.9393582796E-01
    0.1900000000E+02    0.6792748491E-01    0.5589615993E-01    0.9105061714E-03    0.2982222490E-02    0.1025906991E+00
    0.2100000000E+02    0.7387166400E-01    0.6001316365E-01    0.9775912290E-03    0.3243232448E-02    0.1108652762E+00
    0.2300000000E+02    0.7963647066E-01    0.6388737813E-01    0.1040721796E-02    0.3496373375E-02    0.1187855795E+00
    0.2500000000E+02    0.8523184933E-01    0.6753628555E-01    0.1100181952E-02    0.3742081456E-02    0.1263752736E+00
    0.2700000000E+02    0.9066698689E-01    0.7097579956E-01    0.1156230302E-02    0.3980759648E-02    0.1336559289E+00
    0.2900000000E+02    0.9595038391E-01    0.7422043463E-01    0.1209102727E-02    0.4212780812E-02    0.1406472499E+00
    0.3100000000E+02    0.1010899179E+00    0.7728345404E-01    0.1259014786E-02    0.4438490481E-02    0.1473672736E+00
    0.3300000000E+02    0.1060929000E+00    0.8017699958E-01    0.1306163824E-02    0.4658209340E-02    0.1538325433E+00
    0.3500000000E+02    0.1109661248E+00    0.8291220563E-01    0.1350730826E-02    0.4872235435E-02    0.1600582606E+00
    0.3700000000E+02    0.1157159164E+00    0.8549929964E-01    0.1392882049E-02    0.5080846158E-02    0.1660584204E+00
    0.3900000000E+02    0.1203481679E+00    0.8794769098E-01    0.1432770461E-02    0.5284300015E-02    0.1718459280E+00
    0.4100000000E+02    0.1248683786E+00    0.9026604955E-01    0.1470537025E-02    0.5482838226E-02    0.1774327046E+00
    0.4300000000E+02    0.1292816863E+00    0.9246237568E-01    0.1506311827E-02    0.5676686161E-02    0.1828297797E+00
    0.4500000000E+02    0.1335928969E+00    0.9454406224E-01    0.1540215087E-02    0.5866054634E-02    0.1880473735E+00
    0.4700000000E+02    0.1378065113E+00    0.9651795005E-01    0.1572358062E-02    0.6051141075E-02    0.1930949701E+00
    0.4900000000E+02    0.1419267492E+00    0.9839037741E-01    0.1602843847E-02    0.6232130587E-02    0.1979813836E+00
    0.1000000000E+02    0.3864682213E-01    0.3379936776E-01    0.5504938347E-03    0.1696608279E-02    0.6020663976E-01
    0.3000000000E+02    0.9853766420E-01    0.7577386255E-01    0.1234416064E-02    0.4326403985E-02    0.1440401069E+00
    0.5000000000E+02    0.1439530992E+00    0.9929039773E-01    0.1617495456E-02    0.6321143709E-02    0.2003667323E+00
    0.7000000000E+02    0.1804215404E+00    0.1131866194E+00    0.1843417018E-02    0.7923327985E-02    0.2413291664E+00
    0.9000000000E+02    0.2108582362E+00    0.1215850513E+00    0.1979283942E-02    0.9260840567E-02    0.2727695465E+00
    0.1100000000E+03    0.2369590157E+00    0.1266359270E+00    0.2060154857E-02    0.1040807649E-01    0.2978614943E+00
    0.1300000000E+03    0.2597867506E+00    0.1295541195E+00    0.2105880199E-02    0.1141166531E-01    0.3184853192E+00
    0.1500000000E+03    0.2800480378E+00    0.1310684078E+00    0.2128398369E-02    0.1230260745E-01    0.3358302639E+00
    0.1700000000E+03    0.2982356564E+00    0.1316366863E+00    0.2135232312E-02    0.1310252330E-01    0.3506878547E+00
    0.1900000000E+03    0.3147071733E+00    0.1315573525E+00    0.2131300539E-02    0.1382710138E-01    0.3636069407E+00
    0.2100000000E+03    0.3297308291E+00    0.1310306273E+00    0.2119915022E-02    0.1448811138E-01    0.3749811153E+00
    0.2300000000E+03    0.3435136134E+00    0.1301940551E+00    0.2103359592E-02    0.1509463577E-01    0.3851006813E+00
    0.2500000000E+03    0.3562191393E+00    0.1291439337E+00    0.2083239589E-02    0.1565385397E-01    0.3941849234E+00
    0.2700000000E+03    0.3679794235E+00    0.1279487150E+00    0.2060700895E-02    0.1617155922E-01    0.4024029078E+00
    0.2900000000E+03    0.3789028865E+00    0.1266576412E+00    0.2036571361E-02    0.1665250948E-01    0.4098873191E+00
    0.3100000000E+03    0.3890799336E+00    0.1253064569E+00    0.2011454558E-02    0.1710067235E-01    0.4167439223E+00
    0.3300000000E+03    0.3985869422E+00    0.1239212724E+00    0.1985793350E-02    0.1751939994E-01    0.4230581905E+00
    0.3500000000E+03    0.4074891730E+00    0.1225212284E+00    0.1959913867E-02    0.1791155664E-01    0.4289000470E+00
    0.3700000000E+03    0.4158429377E+00    0.1211203667E+00    0.1934056465E-02    0.1827961420E-01    0.4343273225E+00
    0.3900000000E+03    0.4236972423E+00    0.1197289623E+00    0.1908397844E-02    0.1862572379E-01    0.4393883191E+00
    0.4100000000E+03    0.4310950531E+00    0.1183544854E+00    0.1883067088E-02    0.1895177163E-01    0.4441237408E+00
    0.4300000000E+03    0.4380742876E+00    0.1170023043E+00    0.1858157417E-02    0.1925942236E-01    0.4485681664E+00
    0.4500000000E+03    0.4446686002E+00    0.1156762041E+00    0.1833734899E-02    0.1955015357E-01    0.4527511893E+00
    0.4700000000E+03    0.4509080131E+00    0.1143787731E+00    0.1809844968E-02    0.1982528348E-01    0.4566983069E+00
    0.4900000000E+03    0.4568194295E+00    0.1131116931E+00    0.1786517338E-02    0.2008599342E-01    0.4604316250E+00
    0.1000000000E+03    0.2243735080E+00    0.1244379830E+00    0.2025108875E-02    0.9854860350E-02    0.2859704552E+00
    0.3000000000E+03    0.3840796481E+00    0.1259877411E+00    0.2024105515E-02    0.1688046710E-01    0.4133883420E+00
    0.5000000000E+03    0.4596597987E+00    0.1124898674E+00    0.1775070313E-02    0.2021127726E-01    0.4622242302E+00
    0.7000000000E+03    0.5040203725E+00    0.1016782760E+00    0.1576242477E-02    0.2216953332E-01    0.4904521822E+00
    0.9000000000E+03    0.5327850621E+00    0.9347033646E-01    0.1425968360E-02    0.2344149486E-01    0.5096029672E+00
    0.1100000000E+04    0.5527200062E+00    0.8708719806E-01    0.1310009861E-02    0.2432456078E-01    0.5237688593E+00
    0.1300000000E+04    0.5672330328E+00    0.8196904255E-01    0.1217932168E-02    0.2496861442E-01    0.5348328039E+00
    0.1500000000E+04    0.5782096210E+00    0.7775253048E-01    0.1142873693E-02    0.2545663425E-01    0.5438036579E+00
    0.1700000000E+04    0.5867677234E+00    0.7419987806E-01    0.1080308583E-02    0.2583785029E-01    0.5512794286E+00
    0.1900000000E+04    0.5936073481E+00    0.7115089107E-01    0.1027175738E-02    0.2614310665E-01    0.5576411544E+00
    0.2100000000E+04    0.5991867159E+00    0.6849416510E-01    0.9813440761E-03    0.2639260591E-01    0.5631451922E+00
    0.2300000000E+04    0.6038170725E+00    0.6614987986E-01    0.9412882485E-03    0.2660007897E-01    0.5679714939E+00
    0.2500000000E+04    0.6077165429E+00    0.6405929383E-01    0.9058885611E-03    0.2677515452E-01    0.5722507595E+00
    0.2700000000E+04    0.6110421371E+00    0.6217814427E-01    0.8743043602E-03    0.2692476777E-01    0.5760806125E+00
    0.2900000000E+04    0.6139095206E+00    0.6047237855E-01    0.8458917427E-03    0.2705403087E-01    0.5795356991E+00
    0.3100000000E+04    0.6164056404E+00    0.5891531598E-01    0.8201486809E-03    0.2716678913E-01    0.5826742426E+00
    0.3300000000E+04    0.6185970291E+00    0.5748571230E-01    0.7966775423E-03    0.2726598688E-01    0.5855424399E+00
    0.3500000000E+04    0.6205354071E+00    0.5616640879E-01    0.7751589222E-03    0.2735391440E-01    0.5881774950E+00
    0.3700000000E+04    0.6222615497E+00    0.5494336950E-01    0.7553330055E-03    0.2743237849E-01    0.5906097628E+00
    0.3900000000E+04    0.6238080116E+00    0.5380498191E-01    0.7369860455E-03    0.2750282262E-01    0.5928642980E+00
    0.4100000000E+04    0.6252010822E+00    0.5274154019E-01    0.7199403931E-03    0.2756641321E-01    0.5949619943E+00
    0.4300000000E+04    0.6264622114E+00    0.5174485728E-01    0.7040470296E-03    0.2762410260E-01    0.5969204369E+00
    0.4500000000E+04    0.6276090656E+00    0.5080796957E-01    0.6891798984E-03    0.2767667566E-01    0.5987545502E+00
    0.4700000000E+04    0.6286563207E+00    0.4992490921E-01    0.6752315462E-03    0.2772478484E-01    0.6004770967E+00
    0.4900000000E+04    0.6296162645E+00    0.4909052626E-01    0.6621097327E-03    0.2776897679E-01    0.6020990649E+00
    0.1000000000E+04    0.5435941195E+00    0.9009119709E-01    0.1364451332E-02    0.2392011269E-01    0.5171621276E+00
    0.3000000000E+04    0.6151994276E+00    0.5967669644E-01    0.8327134653E-03    0.2711227131E-01    0.5811414104E+00
    0.5000000000E+04    0.6300667979E+00    0.4869016799E-01    0.6558334448E-03    0.2778975084E-01    0.6028753579E+00
    0.7000000000E+04    0.6363226247E+00    0.4240803029E-01    0.5590357045E-03    0.2808110080E-01    0.6148813976E+00
    0.9000000000E+04    0.6397459777E+00    0.3816900402E-01    0.4954956676E-03    0.2824401508E-01    0.6227866406E+00
    0.1100000000E+05    0.6418997353E+00    0.3504618254E-01    0.4495917160E-03    0.2834871818E-01    0.6285042042E+00
    0.1300000000E+05    0.6433776610E+00    0.3261558675E-01    0.4143911921E-03    0.2842209064E-01    0.6328907524E+00
    0.1500000000E+05    0.6444538251E+00    0.3065072452E-01    0.3862731731E-03    0.2847663280E-01    0.6363956927E+00
    0.1700000000E+05    0.6452719878E+00    0.2901763716E-01    0.3631334820E-03    0.2851895035E-01    0.6392807535E+00
    0.1900000000E+05    0.6459147333E+00    0.2763114171E-01    0.3436530829E-03    0.2855286608E-01    0.6417101736E+00
    0.2100000000E+05    0.6464328486E+00    0.2643404200E-01    0.3269568027E-03    0.2858074819E-01    0.6437929705E+00
    0.2300000000E+05    0.6468592678E+00    0.2538626729E-01    0.3124377074E-03    0.2860414369E-01    0.6456047546E+00
    0.2500000000E+05    0.6472162765E+00    0.2445877003E-01    0.2996596886E-03    0.2862410701E-01    0.6471998497E+00
    0.2700000000E+05    0.6475194892E+00    0.2362989437E-01    0.2883001277E-03    0.2864138233E-01    0.6486184351E+00
    0.2900000000E+05    0.6477801699E+00    0.2288311162E-01    0.2781144841E-03    0.2865651034E-01    0.6498909589E+00
    0.3100000000E+05    0.6480066474E+00    0.2220555200E-01    0.2689135314E-03    0.2866989370E-01    0.6510409759E+00
    0.3300000000E+05    0.6482052120E+00    0.2158702108E-01    0.2605482229E-03    0.2868183871E-01    0.6520870347E+00
    0.3500000000E+05    0.6483807026E+00    0.2101932198E-01    0.2528993344E-03    0.2869258265E-01    0.6530439693E+00
    0.3700000000E+05    0.6485369025E+00    0.2049577695E-01    0.2458701970E-03    0.2870231236E-01    0.6539238045E+00
    0.3900000000E+05    0.6486768117E+00    0.2001088219E-01    0.2393814860E-03    0.2871117702E-01    0.6547364058E+00
    0.4100000000E+05    0.6488028398E+00    0.1956005423E-01    0.2333674103E-03    0.2871929730E-01    0.6554899541E+00
    0.4300000000E+05    0.6489169443E+00    0.1913944036E-01    0.2277728790E-03    0.2872677191E-01    0.6561912990E+00
    0.4500000000E+05    0.6490207316E+00    0.1874577485E-01    0.2225513611E-03    0.2873368240E-01    0.6568462250E+00
    0.4700000000E+05    0.6491155325E+00    0.1837626836E-01    0.2176632469E-03    0.2874009680E-01    0.6574596555E+00
    0.4900000000E+05    0.6492024587E+00    0.1802852183E-01    0.2130745772E-03    0.2874607234E-01    0.6580358117E+00
    0.1000000000E+05    0.6409331665E+00    0.3650117655E-01    0.4708843295E-03    0.2830145660E-01    0.6258516239E+00
    0.3000000000E+05    0.6478972512E+00    0.2253636966E-01    0.2734010388E-03    0.2866339907E-01    0.6504800215E+00
    0.5000000000E+05    0.6492432671E+00    0.1786214860E-01    0.2108832172E-03    0.2874891097E-01    0.6583110698E+00
    0.7000000000E+05    0.6498108785E+00    0.1529381477E-01    0.1773953470E-03    0.2879129080E-01    0.6625281600E+00
    0.9000000000E+05    0.6501222733E+00    0.1360695218E-01    0.1557688953E-03    0.2881802655E-01    0.6652654081E+00
    0.1100000000E+06    0.6503182097E+00    0.1238849545E-01    0.1403445036E-03    0.2883707281E-01    0.6672267555E+00
    0.1300000000E+06    0.6504524136E+00    0.1145434227E-01    0.1286387802E-03    0.2885166651E-01    0.6687215567E+00
    0.1500000000E+06    0.6505498088E+00    0.1070820840E-01    0.1193682112E-03    0.2886340126E-01    0.6699099863E+00
    0.1700000000E+06    0.6506235239E+00    0.1009413855E-01    0.1117939996E-03    0.2887316478E-01    0.6708844183E+00
    0.1900000000E+06    0.6506811258E+00    0.9577073555E-02    0.1054569637E-03    0.2888149651E-01    0.6717023772E+00
    0.2100000000E+06    0.6507272794E+00    0.9133768152E-02    0.1000547664E-03    0.2888874620E-01    0.6724018115E+00
    0.2300000000E+06    0.6507650150E+00    0.8748113923E-02    0.9537917600E-04    0.2889515225E-01    0.6730089072E+00
    0.2500000000E+06    0.6507963857E+00    0.8408544761E-02    0.9128149658E-04    0.2890088379E-01    0.6735423974E+00
    0.2700000000E+06    0.6508228309E+00    0.8106510249E-02    0.8765234597E-04    0.2890606478E-01    0.6740160872E+00
    0.2900000000E+06    0.6508453893E+00    0.7835533221E-02    0.8440923836E-04    0.2891078855E-01    0.6744404048E+00
    0.3100000000E+06    0.6508648289E+00    0.7590604299E-02    0.8148864493E-04    0.2891512700E-01    0.6748233952E+00
    0.3300000000E+06    0.6508817295E+00    0.7367779595E-02    0.7884074174E-04    0.2891913661E-01    0.6751713778E+00
    0.3500000000E+06    0.6508965368E+00    0.7163905579E-02    0.7642583226E-04    0.2892286250E-01    0.6754893957E+00
    0.3700000000E+06    0.6509095990E+00    0.6976426164E-02    0.7421184833E-04    0.2892634126E-01    0.6757815288E+00
    0.3900000000E+06    0.6509211920E+00    0.6803244428E-02    0.7217256519E-04    0.2892960293E-01    0.6760511184E+00
    0.4100000000E+06    0.6509315371E+00    0.6642621592E-02    0.7028630165E-04    0.2893267247E-01    0.6763009309E+00
    0.4300000000E+06    0.6509408139E+00    0.6493101910E-02    0.6853495672E-04    0.2893557083E-01    0.6765332790E+00
    0.4500000000E+06    0.6509491694E+00    0.6353455985E-02    0.6690328459E-04    0.2893831575E-01    0.6767501132E+00
    0.4700000000E+06    0.6509567253E+00    0.6222637378E-02    0.6537834119E-04    0.2894092239E-01    0.6769530917E+00
    0.4900000000E+06    0.6509635831E+00    0.6099748975E-02    0.6394905639E-04    0.2894340380E-01    0.6771436342E+00
    0.1000000000E+06    0.6502303013E+00    0.1295364157E-01    0.1474773087E-03    0.2882825162E-01    0.6663186819E+00
    0.3000000000E+06    0.6508554591E+00    0.7710080501E-02    0.8291201425E-04    0.2891300210E-01    0.6746366365E+00
    0.5000000000E+06    0.6509667774E+00    0.6041032477E-02    0.6326725512E-04    0.2894460113E-01    0.6772346313E+00
    0.7000000000E+06    0.6510089819E+00    0.5140865434E-02    0.5290992955E-04    0.2896406722E-01    0.6786260581E+00
    0.9000000000E+06    0.6510293974E+00    0.4555883559E-02    0.4628302524E-04    0.2897812787E-01    0.6795266537E+00
    0.1100000000E+07    0.6510404609E+00    0.4136325199E-02    0.4158633132E-04    0.2898913035E-01    0.6801708175E+00
    0.1300000000E+07    0.6510467835E+00    0.3816321909E-02    0.3803851121E-04    0.2899816637E-01    0.6806611453E+00
    0.1500000000E+07    0.6510504381E+00    0.3561743127E-02    0.3523888830E-04    0.2900583188E-01    0.6810506171E+00
    0.1700000000E+07    0.6510524805E+00    0.3352892095E-02    0.3295820599E-04    0.2901248769E-01    0.6813697288E+00
    0.1900000000E+07    0.6510534979E+00    0.3177495552E-02    0.3105465354E-04    0.2901836875E-01    0.6816374436E+00
    0.2100000000E+07    0.6510538391E+00    0.3027452536E-02    0.2943522505E-04    0.2902363661E-01    0.6818662569E+00
    0.2300000000E+07    0.6510537218E+00    0.2897170370E-02    0.2803607533E-04    0.2902840704E-01    0.6820647830E+00
    0.2500000000E+07    0.6510532876E+00    0.2782646306E-02    0.2681174239E-04    0.2903276590E-01    0.6822391796E+00
    0.2700000000E+07    0.6510526313E+00    0.2680929477E-02    0.2572886652E-04    0.2903677856E-01    0.6823939816E+00
    0.2900000000E+07    0.6510518185E+00    0.2589789973E-02    0.2476234560E-04    0.2904049598E-01    0.6825326126E+00
    0.3100000000E+07    0.6510508951E+00    0.2507506931E-02    0.2389288395E-04    0.2904395864E-01    0.6826577123E+00
    0.3300000000E+07    0.6510498941E+00    0.2432728136E-02    0.2310537476E-04    0.2904719923E-01    0.6827713537E+00
    0.3500000000E+07    0.6510488395E+00    0.2364374242E-02    0.2238780077E-04    0.2905024452E-01    0.6828751900E+00
    0.3700000000E+07    0.6510477489E+00    0.2301571772E-02    0.2173046793E-04    0.2905311673E-01    0.6829705586E+00
    0.3900000000E+07    0.6510466355E+00    0.2243605191E-02    0.2112545898E-04    0.2905583448E-01    0.6830585541E+00
    0.4100000000E+07    0.6510455090E+00    0.2189881960E-02    0.2056623623E-04    0.2905841354E-01    0.6831400828E+00
    0.4300000000E+07    0.6510443770E+00    0.2139906599E-02    0.2004734762E-04    0.2906086739E-01    0.6832159020E+00
    0.4500000000E+07    0.6510432449E+00    0.2093261142E-02    0.1956420580E-04    0.2906320762E-01    0.6832866502E+00
    0.4700000000E+07    0.6510421170E+00    0.2049590196E-02    0.1911291975E-04    0.2906544430E-01    0.6833528701E+00
    0.4900000000E+07    0.6510409965E+00    0.2008589383E-02    0.1869016471E-04    0.2906758621E-01    0.6834150266E+00
    0.1000000000E+07    0.6510357199E+00    0.4330617949E-02    0.4375517479E-04    0.2898392661E-01    0.6798726949E+00
    0.3000000000E+07    0.6510513683E+00    0.2547633255E-02    0.2431650986E-04    0.2904225695E-01    0.6825967130E+00
    0.5000000000E+07    0.6510404398E+00    0.1989006839E-02    0.1848857674E-04    0.2906862408E-01    0.6834447083E+00
    0.7000000000E+07    0.6510300265E+00    0.1689417370E-02    0.1543225880E-04    0.2908586581E-01    0.6838983947E+00
    0.9000000000E+07    0.6510210884E+00    0.1495349005E-02    0.1348269541E-04    0.2909870090E-01    0.6841918713E+00
    0.1100000000E+08    0.6510133993E+00    0.1356458052E-02    0.1210380570E-04    0.2910893025E-01    0.6844017045E+00
    0.1300000000E+08    0.6510066917E+00    0.1250689633E-02    0.1106377207E-04    0.2911743590E-01    0.6845613821E+00
    0.1500000000E+08    0.6510007573E+00    0.1166647219E-02    0.1024402261E-04    0.2912471615E-01    0.6846881884E+00
    0.1700000000E+08    0.6509954425E+00    0.1097767518E-02    0.9576845701E-05    0.2913108026E-01    0.6847920686E+00
    0.1900000000E+08    0.6509906332E+00    0.1039967585E-02    0.9020421777E-05    0.2913673339E-01    0.6848792050E+00
    0.2100000000E+08    0.6509862430E+00    0.9905560866E-03    0.8547358329E-05    0.2914181867E-01    0.6849536707E+00
    0.2300000000E+08    0.6509822056E+00    0.9476770916E-03    0.8138871352E-05    0.2914643993E-01    0.6850182728E+00
    0.2500000000E+08    0.6509784691E+00    0.9100035632E-03    0.7781597544E-05    0.2915067488E-01    0.6850750177E+00
    0.2700000000E+08    0.6509749921E+00    0.8765580115E-03    0.7465738727E-05    0.2915458320E-01    0.6851253828E+00
