  Pressure (Pa) 22mC5-400 (mol/kg) 2mC6-400 (mol/kg) 33mC5-400 (mol/kg) 23mC5-400 (mol/kg) C7-400 (mol/kg)
    0.1000000000E+01    0.4741992552E-02    0.3951592046E-02    0.1286929974E-03    0.9251616019E-04    0.5122825061E-02
    0.3000000000E+01    0.1392011247E-01    0.1147001642E-01    0.3735393207E-03    0.2715855117E-03    0.1499811763E-01
    0.5000000000E+01    0.2271575529E-01    0.1851110555E-01    0.6028267458E-03    0.4431982337E-03    0.2441031932E-01
    0.7000000000E+01    0.3115668216E-01    0.2511375931E-01    0.8178208474E-03    0.6078954592E-03    0.3339312076E-01
    0.9000000000E+01    0.3926795598E-01    0.3131290897E-01    0.1019658179E-02    0.7661657310E-03    0.4197698011E-01
    0.1100000000E+02    0.4707226148E-01    0.3714000250E-01    0.1209362048E-02    0.9184512396E-03    0.5018950326E-01
    0.1300000000E+02    0.5459018095E-01    0.4262342108E-01    0.1387856053E-02    0.1065153197E-02    0.5805577150E-01
    0.1500000000E+02    0.6184043261E-01    0.4778883785E-01    0.1555975746E-02    0.1206636483E-02    0.6559862498E-01
    0.1700000000E+02    0.6884007734E-01    0.5265952793E-01    0.1714478710E-02    0.1343233672E-02    0.7283890873E-01
    0.1900000000E+02    0.7560469861E-01    0.5725663724E-01    0.1864053293E-02    0.1475248544E-02    0.7979568691E-01
    0.2100000000E+02    0.8214855953E-01    0.6159941631E-01    0.2005326213E-02    0.1602959140E-02    0.8648642999E-01
    0.2300000000E+02    0.8848474028E-01    0.6570542430E-01    0.2138869185E-02    0.1726620446E-02    0.9292717874E-01
    0.2500000000E+02    0.9462525883E-01    0.6959070743E-01    0.2265204725E-02    0.1846466742E-02    0.9913268835E-01
    0.2700000000E+02    0.1005811772E+00    0.7326995556E-01    0.2384811237E-02    0.1962713674E-02    0.1051165554E+00
    0.2900000000E+02    0.1063626951E+00    0.7675663991E-01    0.2498127490E-02    0.2075560081E-02    0.1108913302E+00
    0.3100000000E+02    0.1119792330E+00    0.8006313454E-01    0.2605556569E-02    0.2185189612E-02    0.1164686157E+00
    0.3300000000E+02    0.1174395058E+00    0.8320082369E-01    0.2707469360E-02    0.2291772161E-02    0.1218591565E+00
    0.3500000000E+02    0.1227515879E+00    0.8618019690E-01    0.2804207649E-02    0.2395465138E-02    0.1270729166E+00
    0.3700000000E+02    0.1279229718E+00    0.8901093354E-01    0.2896086865E-02    0.2496414612E-02    0.1321191498E+00
    0.3900000000E+02    0.1329606200E+00    0.9170197798E-01    0.2983398523E-02    0.2594756314E-02    0.1370064623E+00
    0.4100000000E+02    0.1378710112E+00    0.9426160667E-01    0.3066412408E-02    0.2690616556E-02    0.1417428689E+00
    0.4300000000E+02    0.1426601829E+00    0.9669748806E-01    0.3145378523E-02    0.2784113036E-02    0.1463358430E+00
    0.4500000000E+02    0.1473337679E+00    0.9901673626E-01    0.3220528832E-02    0.2875355572E-02    0.1507923619E+00
    0.4700000000E+02    0.1518970285E+00    0.1012259592E+00    0.3292078826E-02    0.2964446757E-02    0.1551189481E+00
    0.4900000000E+02    0.1563548871E+00    0.1033313020E+00    0.3360228932E-02    0.3051482555E-02    0.1593217053E+00
    0.1000000000E+02    0.4320714706E-01    0.3427112151E-01    0.1115966879E-02    0.8430306022E-03    0.4612803548E-01
    0.3000000000E+02    0.1091910261E+00    0.7843167740E-01    0.2552554029E-02    0.2130766031E-02    0.1137039684E+00
    0.5000000000E+02    0.1585457426E+00    0.1043468217E+00    0.3393087856E-02    0.3094257991E-02    0.1613784495E+00
    0.7000000000E+02    0.1978067962E+00    0.1204012936E+00    0.3910858826E-02    0.3860917567E-02    0.1972259568E+00
    0.9000000000E+02    0.2303387093E+00    0.1306588638E+00    0.4238529649E-02    0.4496341283E-02    0.2254233197E+00
    0.1100000000E+03    0.2580674746E+00    0.1372990641E+00    0.4447382575E-02    0.5038081341E-02    0.2483579494E+00
    0.1300000000E+03    0.2821873875E+00    0.1415807966E+00    0.4578674865E-02    0.5509424668E-02    0.2674987341E+00
    0.1500000000E+03    0.3034869760E+00    0.1442733912E+00    0.4657674913E-02    0.5925746970E-02    0.2838021393E+00
    0.1700000000E+03    0.3225138891E+00    0.1458681991E+00    0.4700558026E-02    0.6297727417E-02    0.2979196556E+00
    0.1900000000E+03    0.3396646334E+00    0.1466902860E+00    0.4718050144E-02    0.6633098200E-02    0.3103116127E+00
    0.2100000000E+03    0.3552363903E+00    0.1469609399E+00    0.4717469418E-02    0.6937654834E-02    0.3213133202E+00
    0.2300000000E+03    0.3694584502E+00    0.1468343730E+00    0.4703926589E-02    0.7215869059E-02    0.3311753720E+00
    0.2500000000E+03    0.3825120983E+00    0.1464201533E+00    0.4681059781E-02    0.7471276564E-02    0.3400892036E+00
    0.2700000000E+03    0.3945436570E+00    0.1457973887E+00    0.4651499927E-02    0.7706731296E-02    0.3482038579E+00
    0.2900000000E+03    0.4056733172E+00    0.1450239592E+00    0.4617174308E-02    0.7924577656E-02    0.3556373102E+00
    0.3100000000E+03    0.4160012887E+00    0.1441426794E+00    0.4579509581E-02    0.8126770419E-02    0.3624843148E+00
    0.3300000000E+03    0.4256121925E+00    0.1431855029E+00    0.4539570596E-02    0.8314960376E-02    0.3688219660E+00
    0.3500000000E+03    0.4345782700E+00    0.1421764460E+00    0.4498157157E-02    0.8490556915E-02    0.3747137171E+00
    0.3700000000E+03    0.4429617769E+00    0.1411336545E+00    0.4455872606E-02    0.8654774685E-02    0.3802123385E+00
    0.3900000000E+03    0.4508168010E+00    0.1400708882E+00    0.4413173190E-02    0.8808669053E-02    0.3853621284E+00
    0.4100000000E+03    0.4581906679E+00    0.1389986001E+00    0.4370404044E-02    0.8953163505E-02    0.3902005898E+00
    0.4300000000E+03    0.4651250434E+00    0.1379247308E+00    0.4327825755E-02    0.9089071147E-02    0.3947597195E+00
    0.4500000000E+03    0.4716568114E+00    0.1368552993E+00    0.4285634156E-02    0.9217111814E-02    0.3990670100E+00
    0.4700000000E+03    0.4778187804E+00    0.1357948465E+00    0.4243975234E-02    0.9337925855E-02    0.4031462373E+00
    0.4900000000E+03    0.4836402602E+00    0.1347467711E+00    0.4202956439E-02    0.9452085372E-02    0.4070180868E+00
    0.1000000000E+03    0.2447166177E+00    0.1343374476E+00    0.4354739979E-02    0.4777228005E-02    0.2374412605E+00
    0.3000000000E+03    0.4109319022E+00    0.1445945882E+00    0.4598685599E-02    0.8027521263E-02    0.3591289394E+00
    0.5000000000E+03    0.4864316378E+00    0.1342281890E+00    0.4182712301E-02    0.9506832115E-02    0.4088819893E+00
    0.7000000000E+03    0.5295306525E+00    0.1248288720E+00    0.3820588731E-02    0.1035289468E-01    0.4386719966E+00
    0.9000000000E+03    0.5569745146E+00    0.1172580340E+00    0.3534847224E-02    0.1089267831E-01    0.4594082394E+00
    0.1100000000E+04    0.5757684544E+00    0.1111095970E+00    0.3306931686E-02    0.1126306676E-01    0.4750627054E+00
    0.1300000000E+04    0.5893417958E+00    0.1060027387E+00    0.3120769306E-02    0.1153111684E-01    0.4874973115E+00
    0.1500000000E+04    0.5995516726E+00    0.1016689579E+00    0.2965212111E-02    0.1173316762E-01    0.4977251971E+00
    0.1700000000E+04    0.6074817800E+00    0.9792393204E-01    0.2832675364E-02    0.1189043843E-01    0.5063551019E+00
    0.1900000000E+04    0.6138025802E+00    0.9463895835E-01    0.2717905936E-02    0.1201606612E-01    0.5137796510E+00
    0.2100000000E+04    0.6189489628E+00    0.9172179512E-01    0.2617170795E-02    0.1211857761E-01    0.5202659384E+00
    0.2300000000E+04    0.6232142515E+00    0.8910456306E-01    0.2527747379E-02    0.1220372805E-01    0.5260033683E+00
    0.2500000000E+04    0.6268028833E+00    0.8673608290E-01    0.2447601866E-02    0.1227553135E-01    0.5311308036E+00
    0.2700000000E+04    0.6298613778E+00    0.8457692354E-01    0.2375181893E-02    0.1233686630E-01    0.5357528727E+00
    0.2900000000E+04    0.6324972994E+00    0.8259612142E-01    0.2309279753E-02    0.1238984777E-01    0.5399502299E+00
    0.3100000000E+04    0.6347912815E+00    0.8076895212E-01    0.2248939865E-02    0.1243606226E-01    0.5437862639E+00
    0.3300000000E+04    0.6368048871E+00    0.7907538039E-01    0.2193394737E-02    0.1247672193E-01    0.5473116294E+00
    0.3500000000E+04    0.6385858860E+00    0.7749895832E-01    0.2142019690E-02    0.1251276802E-01    0.5505673942E+00
    0.3700000000E+04    0.6401718833E+00    0.7602602620E-01    0.2094300210E-02    0.1254494204E-01    0.5535872781E+00
    0.3900000000E+04    0.6415928663E+00    0.7464512249E-01    0.2049807992E-02    0.1257383570E-01    0.5563992793E+00
    0.4100000000E+04    0.6428730270E+00    0.7334654099E-01    0.2008183064E-02    0.1259992674E-01    0.5590268781E+00
    0.4300000000E+04    0.6440320880E+00    0.7212199338E-01    0.1969120258E-02    0.1262360490E-01    0.5614899431E+00
    0.4500000000E+04    0.6450862824E+00    0.7096434874E-01    0.1932358832E-02    0.1264519121E-01    0.5638054228E+00
    0.4700000000E+04    0.6460490880E+00    0.6986742990E-01    0.1897674400E-02    0.1266495243E-01    0.5659878803E+00
    0.4900000000E+04    0.6469317847E+00    0.6882585245E-01    0.1864872602E-02    0.1268311196E-01    0.5680499133E+00
    0.1000000000E+04    0.5671871156E+00    0.1140326130E+00    0.3414792603E-02    0.1109385424E-01    0.4677261057E+00
    0.3000000000E+04    0.6336828099E+00    0.8166468009E-01    0.2278466299E-02    0.1241371776E-01    0.5419099902E+00
    0.5000000000E+04    0.6473461235E+00    0.6832431870E-01    0.1849123903E-02    0.1269165118E-01    0.5690392529E+00
    0.7000000000E+04    0.6531049369E+00    0.6030843083E-01    0.1601363451E-02    0.1281164826E-01    0.5845465081E+00
    0.9000000000E+04    0.6562627750E+00    0.5474941857E-01    0.1433766797E-02    0.1287902503E-01    0.5949779907E+00
    0.1100000000E+05    0.6582530106E+00    0.5058027530E-01    0.1310270250E-02    0.1292248856E-01    0.6026378019E+00
    0.1300000000E+05    0.6596207766E+00    0.4729333579E-01    0.1214214695E-02    0.1295304787E-01    0.6085823014E+00
    0.1500000000E+05    0.6606180132E+00    0.4461004793E-01    0.1136652037E-02    0.1297583299E-01    0.6133755235E+00
    0.1700000000E+05    0.6613770310E+00    0.4236239172E-01    0.1072272639E-02    0.1299356010E-01    0.6173505639E+00
    0.1900000000E+05    0.6619739186E+00    0.4044188757E-01    0.1017693355E-02    0.1300780397E-01    0.6207188439E+00
    0.2100000000E+05    0.6624555135E+00    0.3877480174E-01    0.9706397560E-03    0.1301954177E-01    0.6236220506E+00
    0.2300000000E+05    0.6628522151E+00    0.3730895410E-01    0.9295172471E-03    0.1302941285E-01    0.6261592621E+00
    0.2500000000E+05    0.6631846092E+00    0.3600619582E-01    0.8931694538E-03    0.1303785359E-01    0.6284021731E+00
    0.2700000000E+05    0.6634671297E+00    0.3483787745E-01    0.8607341467E-03    0.1304517240E-01    0.6304041449E+00
    0.2900000000E+05    0.6637101957E+00    0.3378199305E-01    0.8315532612E-03    0.1305159366E-01    0.6322058419E+00
    0.3100000000E+05    0.6639215153E+00    0.3282131197E-01    0.8051144974E-03    0.1305728466E-01    0.6338388803E+00
    0.3300000000E+05    0.6641069135E+00    0.3194211731E-01    0.7810121620E-03    0.1306237280E-01    0.6353282705E+00
    0.3500000000E+05    0.6642708733E+00    0.3113333064E-01    0.7589201707E-03    0.1306695689E-01    0.6366940964E+00
    0.3700000000E+05    0.6644169015E+00    0.3038589014E-01    0.7385729792E-03    0.1307111482E-01    0.6379527008E+00
    0.3900000000E+05    0.6645477799E+00    0.2969229965E-01    0.7197518252E-03    0.1307490884E-01    0.6391175384E+00
    0.4100000000E+05    0.6646657440E+00    0.2904629550E-01    0.7022746157E-03    0.1307838935E-01    0.6401998024E+00
    0.4300000000E+05    0.6647726103E+00    0.2844259641E-01    0.6859883680E-03    0.1308159763E-01    0.6412088924E+00
    0.4500000000E+05    0.6648698703E+00    0.2787671294E-01    0.6707634756E-03    0.1308456779E-01    0.6421527684E+00
    0.4700000000E+05    0.6649587597E+00    0.2734480041E-01    0.6564892985E-03    0.1308732834E-01    0.6430382237E+00
    0.4900000000E+05    0.6650403115E+00    0.2684354397E-01    0.6430707313E-03    0.1308990326E-01    0.6438710960E+00
    0.1000000000E+05    0.6573594313E+00    0.5253041838E-01    0.1367804508E-02    0.1290285097E-01    0.5990718670E+00
    0.3000000000E+05    0.6638194230E+00    0.3329068001E-01    0.8180186053E-03    0.1305452170E-01    0.6330417480E+00
    0.5000000000E+05    0.6650786130E+00    0.2660349804E-01    0.6366561518E-03    0.1309112760E-01    0.6442694184E+00
    0.7000000000E+05    0.6656127118E+00    0.2287922181E-01    0.5381153897E-03    0.1310950267E-01    0.6504059650E+00
    0.9000000000E+05    0.6659072909E+00    0.2041426536E-01    0.4739667556E-03    0.1312120148E-01    0.6544236441E+00
    0.1100000000E+06    0.6660936150E+00    0.1862456289E-01    0.4279707085E-03    0.1312959414E-01    0.6573193757E+00
    0.1300000000E+06    0.6662218991E+00    0.1724725684E-01    0.3929284312E-03    0.1313606064E-01    0.6595358394E+00
    0.1500000000E+06    0.6663154850E+00    0.1614394091E-01    0.3650931227E-03    0.1314128393E-01    0.6613039362E+00
    0.1700000000E+06    0.6663866908E+00    0.1523376991E-01    0.3422967733E-03    0.1314564619E-01    0.6627575780E+00
    0.1900000000E+06    0.6664426291E+00    0.1446588532E-01    0.3231863450E-03    0.1314938062E-01    0.6639805301E+00
    0.2100000000E+06    0.6664876923E+00    0.1380645529E-01    0.3068679692E-03    0.1315263894E-01    0.6650282556E+00
    0.2300000000E+06    0.6665247385E+00    0.1323197035E-01    0.2927242760E-03    0.1315552491E-01    0.6659391450E+00
    0.2500000000E+06    0.6665557076E+00    0.1272551047E-01    0.2803133546E-03    0.1315811237E-01    0.6667407355E+00
    0.2700000000E+06    0.6665819619E+00    0.1227454164E-01    0.2693094587E-03    0.1316045558E-01    0.6674533672E+00
    0.2900000000E+06    0.6666044860E+00    0.1186955190E-01    0.2594664951E-03    0.1316259547E-01    0.6680924361E+00
    0.3100000000E+06    0.6666240093E+00    0.1150317306E-01    0.2505946238E-03    0.1316456369E-01    0.6686698412E+00
    0.3300000000E+06    0.6666410832E+00    0.1116959581E-01    0.2425447439E-03    0.1316638511E-01    0.6691949448E+00
    0.3500000000E+06    0.6666561325E+00    0.1086416902E-01    0.2351979077E-03    0.1316807967E-01    0.6696752289E+00
    0.3700000000E+06    0.6666694894E+00    0.1058311831E-01    0.2284579120E-03    0.1316966355E-01    0.6701167549E+00
    0.3900000000E+06    0.6666814178E+00    0.1032334396E-01    0.2222459992E-03    0.1317115005E-01    0.6705244929E+00
    0.4100000000E+06    0.6666921296E+00    0.1008227315E-01    0.2164969927E-03    0.1317255027E-01    0.6709025624E+00
    0.4300000000E+06    0.6667017970E+00    0.9857749885E-02    0.2111564289E-03    0.1317387351E-01    0.6712544110E+00
    0.4500000000E+06    0.6667105613E+00    0.9647951852E-02    0.2061783964E-03    0.1317512767E-01    0.6715829492E+00
    0.4700000000E+06    0.6667185397E+00    0.9451326717E-02    0.2015238851E-03    0.1317631950E-01    0.6718906533E+00
    0.4900000000E+06    0.6667258301E+00    0.9266542687E-02    0.1971595077E-03    0.1317745483E-01    0.6721796458E+00
    0.1000000000E+06    0.6660099002E+00    0.1945562157E-01    0.4492661970E-03    0.1312570072E-01    0.6559769347E+00
    0.3000000000E+06    0.6666145849E+00    0.1168193033E-01    0.2549193036E-03    0.1316359935E-01    0.6683882109E+00
    0.5000000000E+06    0.6667292435E+00    0.9178225485E-02    0.1950769727E-03    0.1317800291E-01    0.6723177072E+00
    0.7000000000E+06    0.6667758935E+00    0.7822094713E-02    0.1633908606E-03    0.1318693561E-01    0.6744326495E+00
    0.9000000000E+06    0.6668004380E+00    0.6938627659E-02    0.1430676050E-03    0.1319341081E-01    0.6758053880E+00
    0.1100000000E+07    0.6668151832E+00    0.6303939408E-02    0.1286402269E-03    0.1319848896E-01    0.6767891064E+00
    0.1300000000E+07    0.6668247846E+00    0.5819263938E-02    0.1177288697E-03    0.1320266592E-01    0.6775389263E+00
    0.1500000000E+07    0.6668313793E+00    0.5433316236E-02    0.1091105852E-03    0.1320621334E-01    0.6781351458E+00
    0.1700000000E+07    0.6668360799E+00    0.5116452395E-02    0.1020845375E-03    0.1320929617E-01    0.6786240696E+00
    0.1900000000E+07    0.6668395200E+00    0.4850177564E-02    0.9621667381E-04    0.1321202202E-01    0.6790345330E+00
    0.2100000000E+07    0.6668420849E+00    0.4622271523E-02    0.9122203330E-04    0.1321446501E-01    0.6793855587E+00
    0.2300000000E+07    0.6668440217E+00    0.4424290417E-02    0.8690483376E-04    0.1321667835E-01    0.6796902742E+00
    0.2500000000E+07    0.6668454953E+00    0.4250186352E-02    0.8312556366E-04    0.1321870152E-01    0.6799580711E+00
    0.2700000000E+07    0.6668466199E+00    0.4095497863E-02    0.7978178535E-04    0.1322056462E-01    0.6801958708E+00
    0.2900000000E+07    0.6668474765E+00    0.3956851582E-02    0.7679637494E-04    0.1322229116E-01    0.6804089023E+00
    0.3100000000E+07    0.6668481240E+00    0.3831642897E-02    0.7411001879E-04    0.1322389978E-01    0.6806011997E+00
    0.3300000000E+07    0.6668486064E+00    0.3717824228E-02    0.7167625896E-04    0.1322540557E-01    0.6807759321E+00
    0.3500000000E+07    0.6668489568E+00    0.3613760511E-02    0.6945812403E-04    0.1322682091E-01    0.6809356288E+00
    0.3700000000E+07    0.6668492007E+00    0.3518128049E-02    0.6742577905E-04    0.1322815604E-01    0.6810823359E+00
    0.3900000000E+07    0.6668493579E+00    0.3429842127E-02    0.6555484933E-04    0.1322941958E-01    0.6812177295E+00
    0.4100000000E+07    0.6668494441E+00    0.3348004199E-02    0.6382520122E-04    0.1323061882E-01    0.6813431973E+00
    0.4300000000E+07    0.6668494717E+00    0.3271862685E-02    0.6222003969E-04    0.1323175999E-01    0.6814598994E+00
    0.4500000000E+07    0.6668494507E+00    0.3200783412E-02    0.6072522972E-04    0.1323284845E-01    0.6815688144E+00
    0.4700000000E+07    0.6668493892E+00    0.3134227013E-02    0.5932877891E-04    0.1323388888E-01    0.6816707742E+00
    0.4900000000E+07    0.6668492940E+00    0.3071731436E-02    0.5802043788E-04    0.1323488533E-01    0.6817664912E+00
    0.1000000000E+07    0.6668086557E+00    0.6597965473E-02    0.1353049635E-03    0.1319608606E-01    0.6763336448E+00
    0.3000000000E+07    0.6668478234E+00    0.3892706619E-02    0.7541897447E-04    0.1322310919E-01    0.6805074275E+00
    0.5000000000E+07    0.6668492355E+00    0.3041879770E-02    0.5739650394E-04    0.1323536819E-01    0.6818122039E+00
    0.7000000000E+07    0.6668472141E+00    0.2584948998E-02    0.4793212998E-04    0.1324339301E-01    0.6825113042E+00
    0.9000000000E+07    0.6668446432E+00    0.2288721599E-02    0.4189027029E-04    0.1324937013E-01    0.6829639061E+00
    0.1100000000E+08    0.6668420873E+00    0.2076603447E-02    0.3761472518E-04    0.1325413544E-01    0.6832876895E+00
    0.1300000000E+08    0.6668396809E+00    0.1915007228E-02    0.3438863058E-04    0.1325809874E-01    0.6835341775E+00
    0.1500000000E+08    0.6668374488E+00    0.1786565398E-02    0.3184507731E-04    0.1326149168E-01    0.6837299824E+00
    0.1700000000E+08    0.6668353842E+00    0.1681270794E-02    0.2977443385E-04    0.1326445808E-01    0.6838904250E+00
    0.1900000000E+08    0.6668334717E+00    0.1592895535E-02    0.2804717785E-04    0.1326709339E-01    0.6840250335E+00
    0.2100000000E+08    0.6668316944E+00    0.1517333046E-02    0.2657844249E-04    0.1326946422E-01    0.6841400870E+00
    0.2300000000E+08    0.6668300370E+00    0.1451750656E-02    0.2531001576E-04    0.1327161890E-01    0.6842399148E+00
    0.2500000000E+08    0.6668284856E+00    0.1394122445E-02    0.2420047485E-04    0.1327359361E-01    0.6843276118E+00
    0.2700000000E+08    0.6668270284E+00    0.1342955815E-02    0.2321944176E-04    0.1327541614E-01    0.6844054572E+00
