  Pressure (Pa) 22mC5-400 (mol/kg) 2mC6-400 (mol/kg) 33mC5-400 (mol/kg) 23mC5-400 (mol/kg) C7-400 (mol/kg)
    0.1000000000E+01    0.4741695852E-02    0.3959368475E-02    0.1934144692E-03    0.9251037441E-04    0.3423460602E-02
    0.3000000000E+01    0.1391758992E-01    0.1153670719E-01    0.5635236761E-03    0.2715363202E-03    0.1006963071E-01
    0.5000000000E+01    0.2270912644E-01    0.1868783191E-01    0.9127560270E-03    0.4430689647E-03    0.1646187897E-01
    0.7000000000E+01    0.3114437419E-01    0.2544456096E-01    0.1242666346E-02    0.6076554383E-03    0.2261552082E-01
    0.9000000000E+01    0.3924865721E-01    0.3183568721E-01    0.1554661831E-02    0.7657893753E-03    0.2854464520E-01
    0.1100000000E+02    0.4704488235E-01    0.3788732717E-01    0.1850019077E-02    0.9179172973E-03    0.3426223559E-01
    0.1300000000E+02    0.5455382122E-01    0.4362322297E-01    0.2129898796E-02    0.1064444107E-02    0.3978027690E-01
    0.1500000000E+02    0.6179435363E-01    0.4906500442E-01    0.2395358598E-02    0.1205737836E-02    0.4510985020E-01
    0.1700000000E+02    0.6878367862E-01    0.5423241719E-01    0.2647364119E-02    0.1342133752E-02    0.5026121685E-01
    0.1900000000E+02    0.7553749789E-01    0.5914352209E-01    0.2886798736E-02    0.1473937939E-02    0.5524389335E-01
    0.2100000000E+02    0.8207017584E-01    0.6381486973E-01    0.3114472091E-02    0.1601430417E-02    0.6006671816E-01
    0.2300000000E+02    0.8839487951E-01    0.6826165380E-01    0.3331127564E-02    0.1724867862E-02    0.6473791136E-01
    0.2500000000E+02    0.9452370137E-01    0.7249784628E-01    0.3537448870E-02    0.1844486009E-02    0.6926512820E-01
    0.2700000000E+02    0.1004677673E+00    0.7653631672E-01    0.3734065877E-02    0.1960501750E-02    0.7365550709E-01
    0.2900000000E+02    0.1062373320E+00    0.8038893789E-01    0.3921559764E-02    0.2073114994E-02    0.7791571279E-01
    0.3100000000E+02    0.1118418629E+00    0.8406667959E-01    0.4100467594E-02    0.2182510306E-02    0.8205197534E-01
    0.3300000000E+02    0.1172901151E+00    0.8757969206E-01    0.4271286387E-02    0.2288858368E-02    0.8607012516E-01
    0.3500000000E+02    0.1225901976E+00    0.9093738033E-01    0.4434476748E-02    0.2392317262E-02    0.8997562485E-01
    0.3700000000E+02    0.1277496323E+00    0.9414847069E-01    0.4590466112E-02    0.2493033631E-02    0.9377359796E-01
    0.3900000000E+02    0.1327754068E+00    0.9722107020E-01    0.4739651644E-02    0.2591143699E-02    0.9746885506E-01
    0.4100000000E+02    0.1376740216E+00    0.1001627200E+00    0.4882402852E-02    0.2686774194E-02    0.1010659175E+00
    0.4300000000E+02    0.1424515318E+00    0.1029804434E+00    0.5019063918E-02    0.2780043168E-02    0.1045690391E+00
    0.4500000000E+02    0.1471135858E+00    0.1056807888E+00    0.5149955816E-02    0.2871060737E-02    0.1079822254E+00
    0.4700000000E+02    0.1516654588E+00    0.1082698689E+00    0.5275378209E-02    0.2959929748E-02    0.1113092523E+00
    0.4900000000E+02    0.1561120838E+00    0.1107533961E+00    0.5395611172E-02    0.3046746372E-02    0.1145536820E+00
    0.1000000000E+02    0.4318393177E-01    0.3490240669E-01    0.1704345132E-02    0.8425778652E-03    0.3142911085E-01
    0.3000000000E+02    0.1090596636E+00    0.8224901599E-01    0.4012054979E-02    0.2128203914E-02    0.7999896358E-01
    0.5000000000E+02    0.1582973831E+00    0.1119572607E+00    0.5453864169E-02    0.3089413403E-02    0.1161459813E+00
    0.7000000000E+02    0.1974567943E+00    0.1316227350E+00    0.6401899421E-02    0.3854089610E-02    0.1443807615E+00
    0.9000000000E+02    0.2299057273E+00    0.1451142602E+00    0.7046028520E-02    0.4487893735E-02    0.1672362175E+00
    0.1100000000E+03    0.2575684982E+00    0.1545942459E+00    0.7492559450E-02    0.5028345391E-02    0.1862496570E+00
    0.1300000000E+03    0.2816367796E+00    0.1613569377E+00    0.7805230685E-02    0.5498680422E-02    0.2024112404E+00
    0.1500000000E+03    0.3028965967E+00    0.1662187029E+00    0.8024315095E-02    0.5914225773E-02    0.2163893812E+00
    0.1700000000E+03    0.3218934607E+00    0.1697162677E+00    0.8176333464E-02    0.6285618942E-02    0.2286528109E+00
    0.1900000000E+03    0.3390221138E+00    0.1722145199E+00    0.8279342555E-02    0.6620557729E-02    0.2395407570E+00
    0.2100000000E+03    0.3545782969E+00    0.1739684500E+00    0.8345977086E-02    0.6924809563E-02    0.2493053214E+00
    0.2300000000E+03    0.3687901255E+00    0.1751603914E+00    0.8385280979E-02    0.7202823272E-02    0.2581381451E+00
    0.2500000000E+03    0.3818379237E+00    0.1759232776E+00    0.8403852575E-02    0.7458115802E-02    0.2661877821E+00
    0.2700000000E+03    0.3938672250E+00    0.1763556437E+00    0.8406584385E-02    0.7693525710E-02    0.2735713646E+00
    0.2900000000E+03    0.4049975700E+00    0.1765315740E+00    0.8397154414E-02    0.7911384712E-02    0.2803826433E+00
    0.3100000000E+03    0.4153286303E+00    0.1765074600E+00    0.8378360459E-02    0.8113637082E-02    0.2866976575E+00
    0.3300000000E+03    0.4249445803E+00    0.1763266879E+00    0.8352352415E-02    0.8301924898E-02    0.2925788163E+00
    0.3500000000E+03    0.4339172899E+00    0.1760229523E+00    0.8320796725E-02    0.8477650293E-02    0.2980778888E+00
    0.3700000000E+03    0.4423087045E+00    0.1756226361E+00    0.8284994739E-02    0.8642021863E-02    0.3032382328E+00
    0.3900000000E+03    0.4501726531E+00    0.1751465459E+00    0.8245969134E-02    0.8796089920E-02    0.3080964781E+00
    0.4100000000E+03    0.4575562445E+00    0.1746111937E+00    0.8204527867E-02    0.8940773721E-02    0.3126838174E+00
    0.4300000000E+03    0.4645009635E+00    0.1740297552E+00    0.8161312047E-02    0.9076882832E-02    0.3170270060E+00
    0.4500000000E+03    0.4710435422E+00    0.1734127933E+00    0.8116832148E-02    0.9205134125E-02    0.3211491462E+00
    0.4700000000E+03    0.4772166622E+00    0.1727688104E+00    0.8071495684E-02    0.9326165472E-02    0.3250703090E+00
    0.4900000000E+03    0.4830495273E+00    0.1721046733E+00    0.8025628517E-02    0.9440546902E-02    0.3288080305E+00
    0.1000000000E+03    0.2442486761E+00    0.1502603445E+00    0.7289300448E-02    0.4768097987E-02    0.1771518114E+00
    0.3000000000E+03    0.4102574287E+00    0.1765415503E+00    0.8388780576E-02    0.8014352835E-02    0.2835980028E+00
    0.5000000000E+03    0.4858466571E+00    0.1717668281E+00    0.8002579581E-02    0.9495405777E-02    0.3306129878E+00
    0.7000000000E+03    0.5290582434E+00    0.1648488890E+00    0.7554576369E-02    0.1034366401E-01    0.3599941090E+00
    0.9000000000E+03    0.5565956892E+00    0.1584769237E+00    0.7164565264E-02    0.1088527417E-01    0.3811105500E+00
    0.1100000000E+04    0.5754619837E+00    0.1528944795E+00    0.6834538898E-02    0.1125707543E-01    0.3974732245E+00
    0.1300000000E+04    0.5890907292E+00    0.1480058568E+00    0.6553146976E-02    0.1152620770E-01    0.4107610098E+00
    0.1500000000E+04    0.5993433811E+00    0.1436856518E+00    0.6309897995E-02    0.1172909422E-01    0.4219025585E+00
    0.1700000000E+04    0.6073069638E+00    0.1398282821E+00    0.6096743564E-02    0.1188701923E-01    0.4314640349E+00
    0.1900000000E+04    0.6136543469E+00    0.1363513502E+00    0.5907699589E-02    0.1201316654E-01    0.4398155200E+00
    0.2100000000E+04    0.6188221394E+00    0.1331912334E+00    0.5738297084E-02    0.1211609661E-01    0.4472119308E+00
    0.2300000000E+04    0.6231048990E+00    0.1302984257E+00    0.5585149391E-02    0.1220158868E-01    0.4538361694E+00
    0.2500000000E+04    0.6267079585E+00    0.1276338942E+00    0.5445645793E-02    0.1227367416E-01    0.4598238259E+00
    0.2700000000E+04    0.6297784970E+00    0.1251664212E+00    0.5317739441E-02    0.1233524470E-01    0.4652781418E+00
    0.2900000000E+04    0.6324245713E+00    0.1228706927E+00    0.5199800076E-02    0.1238842480E-01    0.4702795001E+00
    0.3100000000E+04    0.6347271876E+00    0.1207259185E+00    0.5090510469E-02    0.1243480825E-01    0.4748916793E+00
    0.3300000000E+04    0.6367481947E+00    0.1187148240E+00    0.4988792433E-02    0.1247561277E-01    0.4791661091E+00
    0.3500000000E+04    0.6385355845E+00    0.1168229051E+00    0.4893753095E-02    0.1251178395E-01    0.4831448472E+00
    0.3700000000E+04    0.6401271366E+00    0.1150378679E+00    0.4804645260E-02    0.1254406671E-01    0.4868627124E+00
    0.3900000000E+04    0.6415529768E+00    0.1133492029E+00    0.4720837697E-02    0.1257305548E-01    0.4903488448E+00
    0.4100000000E+04    0.6428374081E+00    0.1117478568E+00    0.4641792577E-02    0.1259923014E-01    0.4936278683E+00
    0.4300000000E+04    0.6440002429E+00    0.1102259755E+00    0.4567048087E-02    0.1262298221E-01    0.4967207707E+00
    0.4500000000E+04    0.6450577876E+00    0.1087767024E+00    0.4496204884E-02    0.1264463415E-01    0.4996455802E+00
    0.4700000000E+04    0.6460235804E+00    0.1073940163E+00    0.4428915422E-02    0.1266445389E-01    0.5024178923E+00
    0.4900000000E+04    0.6469089511E+00    0.1060726018E+00    0.4364875447E-02    0.1268266582E-01    0.5050512846E+00
    0.1000000000E+04    0.5668468840E+00    0.1555909913E+00    0.6992731634E-02    0.1108720363E-01    0.3897563729E+00
    0.3000000000E+04    0.6336145692E+00    0.1217805886E+00    0.5144146332E-02    0.1241238260E-01    0.4726307732E+00
    0.5000000000E+04    0.6473245228E+00    0.1054333767E+00    0.4333989064E-02    0.1269122919E-01    0.5063196597E+00
    0.7000000000E+04    0.6530987470E+00    0.9495764080E-01    0.3835986240E-02    0.1281152848E-01    0.5266338050E+00
    0.9000000000E+04    0.6562633373E+00    0.8740680381E-01    0.3485952965E-02    0.1287903791E-01    0.5407850776E+00
    0.1100000000E+05    0.6582570131E+00    0.8158995886E-01    0.3221045216E-02    0.1292256917E-01    0.5514441093E+00
    0.1300000000E+05    0.6596266961E+00    0.7691060859E-01    0.3010820012E-02    0.1295316634E-01    0.5598806884E+00
    0.1500000000E+05    0.6606250608E+00    0.7302928678E-01    0.2838352704E-02    0.1297597382E-01    0.5667921787E+00
    0.1700000000E+05    0.6613847626E+00    0.6973543644E-01    0.2693329714E-02    0.1299371458E-01    0.5725999132E+00
    0.1900000000E+05    0.6619820687E+00    0.6689004416E-01    0.2569037106E-02    0.1300796686E-01    0.5775764535E+00
    0.2100000000E+05    0.6624639160E+00    0.6439686166E-01    0.2460880131E-02    0.1301970981E-01    0.5819074478E+00
    0.2300000000E+05    0.6628607625E+00    0.6218670265E-01    0.2365588360E-02    0.1302958390E-01    0.5857245544E+00
    0.2500000000E+05    0.6631932300E+00    0.6020829882E-01    0.2280758951E-02    0.1303802625E-01    0.5891242291E+00
    0.2700000000E+05    0.6634757757E+00    0.5842269140E-01    0.2204579643E-02    0.1304534571E-01    0.5921790564E+00
    0.2900000000E+05    0.6637188334E+00    0.5679964168E-01    0.2135653200E-02    0.1305176696E-01    0.5949448980E+00
    0.3100000000E+05    0.6639301219E+00    0.5531525068E-01    0.2072881960E-02    0.1305745749E-01    0.5974655755E+00
    0.3300000000E+05    0.6641154729E+00    0.5395033215E-01    0.2015389530E-02    0.1306254484E-01    0.5997760367E+00
    0.3500000000E+05    0.6642793746E+00    0.5268927140E-01    0.1962466234E-02    0.1306712792E-01    0.6019045557E+00
    0.3700000000E+05    0.6644253370E+00    0.5151920657E-01    0.1913530207E-02    0.1307128468E-01    0.6038742971E+00
    0.3900000000E+05    0.6645561447E+00    0.5042942941E-01    0.1868099087E-02    0.1307507743E-01    0.6057044537E+00
    0.4100000000E+05    0.6646740348E+00    0.4941093914E-01    0.1825769046E-02    0.1307855661E-01    0.6074110861E+00
    0.4300000000E+05    0.6647808253E+00    0.4845610476E-01    0.1786198990E-02    0.1308176350E-01    0.6090077556E+00
    0.4500000000E+05    0.6648780086E+00    0.4755840619E-01    0.1749098504E-02    0.1308473226E-01    0.6105060056E+00
    0.4700000000E+05    0.6649668212E+00    0.4671223295E-01    0.1714218516E-02    0.1308749141E-01    0.6119157348E+00
    0.4900000000E+05    0.6650482964E+00    0.4591272602E-01    0.1681343987E-02    0.1309006493E-01    0.6132454882E+00
    0.1000000000E+05    0.6573619774E+00    0.8432727557E-01    0.3345205602E-02    0.1290290288E-01    0.5464528260E+00
    0.3000000000E+05    0.6638280476E+00    0.5604140817E-01    0.2103557409E-02    0.1305469481E-01    0.5962335195E+00
    0.5000000000E+05    0.6650865599E+00    0.4552912801E-01    0.1665599430E-02    0.1309128857E-01    0.6138827320E+00
    0.7000000000E+05    0.6656199679E+00    0.3951729438E-01    0.1421320619E-02    0.1310965093E-01    0.6238068677E+00
    0.9000000000E+05    0.6659140006E+00    0.3547537015E-01    0.1259820638E-02    0.1312133969E-01    0.6304151518E+00
    0.1100000000E+06    0.6660998917E+00    0.3250894543E-01    0.1142789102E-02    0.1312972444E-01    0.6352337720E+00
    0.1300000000E+06    0.6662278246E+00    0.3020773231E-01    0.1052924652E-02    0.1313618455E-01    0.6389541244E+00
    0.1500000000E+06    0.6663211190E+00    0.2835272966E-01    0.9811022023E-03    0.1314140257E-01    0.6419420692E+00
    0.1700000000E+06    0.6663920781E+00    0.2681467301E-01    0.9219879014E-03    0.1314576041E-01    0.6444121518E+00
    0.1900000000E+06    0.6664478041E+00    0.2551156146E-01    0.8722258295E-03    0.1314949106E-01    0.6464997750E+00
    0.2100000000E+06    0.6664926820E+00    0.2438846901E-01    0.8295840489E-03    0.1315274610E-01    0.6482952548E+00
    0.2300000000E+06    0.6665295649E+00    0.2340700477E-01    0.7925122841E-03    0.1315562920E-01    0.6498614971E+00
    0.2500000000E+06    0.6665603884E+00    0.2253939932E-01    0.7598954441E-03    0.1315821412E-01    0.6512438674E+00
    0.2700000000E+06    0.6665865118E+00    0.2176499135E-01    0.7309080648E-03    0.1316055505E-01    0.6524760315E+00
    0.2900000000E+06    0.6666089174E+00    0.2106804035E-01    0.7049241877E-03    0.1316269291E-01    0.6535835784E+00
    0.3100000000E+06    0.6666283328E+00    0.2043631116E-01    0.6814593216E-03    0.1316465927E-01    0.6545863584E+00
    0.3300000000E+06    0.6666453078E+00    0.1986012718E-01    0.6601318004E-03    0.1316647901E-01    0.6555000419E+00
    0.3500000000E+06    0.6666602659E+00    0.1933171920E-01    0.6406363129E-03    0.1316817203E-01    0.6563371902E+00
    0.3700000000E+06    0.6666735387E+00    0.1884476628E-01    0.6227253139E-03    0.1316975450E-01    0.6571080075E+00
    0.3900000000E+06    0.6666853889E+00    0.1839406513E-01    0.6061956869E-03    0.1317123970E-01    0.6578208822E+00
    0.4100000000E+06    0.6666960277E+00    0.1797528754E-01    0.5908789872E-03    0.1317263871E-01    0.6584827834E+00
    0.4300000000E+06    0.6667056269E+00    0.1758479922E-01    0.5766341842E-03    0.1317396082E-01    0.6590995560E+00
    0.4500000000E+06    0.6667143273E+00    0.1721952267E-01    0.5633421786E-03    0.1317521393E-01    0.6596761440E+00
    0.4700000000E+06    0.6667222456E+00    0.1687683173E-01    0.5509016024E-03    0.1317640479E-01    0.6602167622E+00
    0.4900000000E+06    0.6667294792E+00    0.1655446969E-01    0.5392255635E-03    0.1317753921E-01    0.6607250290E+00
    0.1000000000E+06    0.6660163815E+00    0.3388975994E-01    0.1197102325E-02    0.1312583475E-01    0.6329940306E+00
    0.3000000000E+06    0.6666189611E+00    0.2074467901E-01    0.6929027855E-03    0.1316369584E-01    0.6540970013E+00
    0.5000000000E+06    0.6667328655E+00    0.1640029165E-01    0.5336504099E-03    0.1317808685E-01    0.6609680246E+00
    0.7000000000E+06    0.6667790933E+00    0.1402425075E-01    0.4485229406E-03    0.1318701297E-01    0.6647049712E+00
    0.9000000000E+06    0.6668033574E+00    0.1246763337E-01    0.3936218148E-03    0.1319348406E-01    0.6671451611E+00
    0.1100000000E+07    0.6668178984E+00    0.1134508654E-01    0.3545024651E-03    0.1319855942E-01    0.6689009551E+00
    0.1300000000E+07    0.6668273423E+00    0.1048545389E-01    0.3248354601E-03    0.1320273435E-01    0.6702432806E+00
    0.1500000000E+07    0.6668338105E+00    0.9799433231E-02    0.3013531228E-03    0.1320628025E-01    0.6713131077E+00
    0.1700000000E+07    0.6668384066E+00    0.9235217053E-02    0.2821762229E-03    0.1320936190E-01    0.6721920466E+00
    0.1900000000E+07    0.6668417583E+00    0.8760388526E-02    0.2661376127E-03    0.1321208683E-01    0.6729310769E+00
    0.2100000000E+07    0.6668442472E+00    0.8353477434E-02    0.2524692752E-03    0.1321452909E-01    0.6735639164E+00
    0.2300000000E+07    0.6668461177E+00    0.7999618525E-02    0.2406425180E-03    0.1321674183E-01    0.6741138830E+00
    0.2500000000E+07    0.6668475328E+00    0.7688146202E-02    0.2302799743E-03    0.1321876452E-01    0.6745976900E+00
    0.2700000000E+07    0.6668486052E+00    0.7411180734E-02    0.2211041564E-03    0.1322062724E-01    0.6750276743E+00
    0.2900000000E+07    0.6668494149E+00    0.7162756269E-02    0.2129058804E-03    0.1322235346E-01    0.6754131691E+00
    0.3100000000E+07    0.6668500199E+00    0.6938261073E-02    0.2055240861E-03    0.1322396182E-01    0.6757613842E+00
    0.3300000000E+07    0.6668504636E+00    0.6734065852E-02    0.1988324927E-03    0.1322546741E-01    0.6760779897E+00
    0.3500000000E+07    0.6668507785E+00    0.6547269717E-02    0.1927305123E-03    0.1322688257E-01    0.6763675154E+00
    0.3700000000E+07    0.6668509897E+00    0.6375522145E-02    0.1871369049E-03    0.1322821757E-01    0.6766336295E+00
    0.3900000000E+07    0.6668511167E+00    0.6216895440E-02    0.1819852474E-03    0.1322948101E-01    0.6768793392E+00
    0.4100000000E+07    0.6668511748E+00    0.6069791586E-02    0.1772206350E-03    0.1323068017E-01    0.6771071361E+00
    0.4300000000E+07    0.6668511763E+00    0.5932873027E-02    0.1727972373E-03    0.1323182129E-01    0.6773191048E+00
    0.4500000000E+07    0.6668511308E+00    0.5805010437E-02    0.1686764593E-03    0.1323290973E-01    0.6775170049E+00
    0.4700000000E+07    0.6668510465E+00    0.5685242762E-02    0.1648255374E-03    0.1323395013E-01    0.6777023330E+00
    0.4900000000E+07    0.6668509297E+00    0.5572746251E-02    0.1612164554E-03    0.1323494658E-01    0.6778763718E+00
    0.1000000000E+07    0.6668114657E+00    0.1186556221E-01    0.3725887910E-03    0.1319615780E-01    0.6680872816E+00
    0.3000000000E+07    0.6668497400E+00    0.7047763941E-02    0.2091215080E-03    0.1322317136E-01    0.6755915515E+00
    0.5000000000E+07    0.6668508609E+00    0.5518998723E-02    0.1594949347E-03    0.1323542945E-01    0.6779595094E+00
    0.7000000000E+07    0.6668486811E+00    0.4695300385E-02    0.1333504726E-03    0.1324345479E-01    0.6792325469E+00
    0.9000000000E+07    0.6668460071E+00    0.4160293713E-02    0.1166296981E-03    0.1324943287E-01    0.6800583004E+00
    0.1100000000E+08    0.6668433772E+00    0.3776708007E-02    0.1047825088E-03    0.1325419930E-01    0.6806497864E+00
    0.1300000000E+08    0.6668409144E+00    0.3484211700E-02    0.9583512088E-04    0.1325816376E-01    0.6811004899E+00
    0.1500000000E+08    0.6668386375E+00    0.3251558199E-02    0.8877573886E-04    0.1326155787E-01    0.6814587765E+00
    0.1700000000E+08    0.6668365363E+00    0.3060721398E-02    0.8302560141E-04    0.1326452541E-01    0.6817525255E+00
    0.1900000000E+08    0.6668345931E+00    0.2900472072E-02    0.7822678361E-04    0.1326716185E-01    0.6819990923E+00
    0.2100000000E+08    0.6668327898E+00    0.2763399974E-02    0.7414458356E-04    0.1326953378E-01    0.6822099237E+00
    0.2300000000E+08    0.6668311097E+00    0.2644390191E-02    0.7061791058E-04    0.1327168952E-01    0.6823929168E+00
    0.2500000000E+08    0.6668295386E+00    0.2539782464E-02    0.6753207182E-04    0.1327366526E-01    0.6825537206E+00
    0.2700000000E+08    0.6668280640E+00    0.2446878761E-02    0.6480291540E-04    0.1327548879E-01    0.6826964975E+00
