  Pressure (Pa) 22mC5-400 (mol/kg) 2mC6-400 (mol/kg) 33mC5-400 (mol/kg) 23mC5-400 (mol/kg) C7-400 (mol/kg)
    0.1000000000E+01    0.4741649357E-02    0.3951605787E-02    0.6434662442E-04    0.1850189461E-03    0.5123216805E-02
    0.3000000000E+01    0.1391714865E-01    0.1147011812E-01    0.1867704369E-03    0.5430555229E-03    0.1500145806E-01
    0.5000000000E+01    0.2270784579E-01    0.1851133397E-01    0.3014146598E-03    0.8860882313E-03    0.2441912277E-01
    0.7000000000E+01    0.3114177098E-01    0.2511411312E-01    0.4089114401E-03    0.1215209822E-02    0.3340951259E-01
    0.9000000000E+01    0.3924422098E-01    0.3131335614E-01    0.5098285700E-03    0.1531406491E-02    0.4200275359E-01
    0.1100000000E+02    0.4703808427E-01    0.3714048789E-01    0.6046773439E-03    0.1835570561E-02    0.5022616747E-01
    0.1300000000E+02    0.5454412116E-01    0.4262387251E-01    0.6939193024E-03    0.2128511392E-02    0.5810459192E-01
    0.1500000000E+02    0.6178120575E-01    0.4778917094E-01    0.7779720426E-03    0.2410964816E-02    0.6566065781E-01
    0.1700000000E+02    0.6876653574E-01    0.5265964998E-01    0.8572142404E-03    0.2683601315E-02    0.7291503017E-01
    0.1900000000E+02    0.7551581497E-01    0.5725645034E-01    0.9319900065E-03    0.2947033137E-02    0.7988661813E-01
    0.2100000000E+02    0.8204341264E-01    0.6159881979E-01    0.1002612676E-02    0.3201820501E-02    0.8659275841E-01
    0.2300000000E+02    0.8836250266E-01    0.6570431667E-01    0.1069368115E-02    0.3448477028E-02    0.9304937638E-01
    0.2500000000E+02    0.9448518593E-01    0.6958898793E-01    0.1132517615E-02    0.3687474512E-02    0.9927112752E-01
    0.2700000000E+02    0.1004225980E+00    0.7326752533E-01    0.1192300430E-02    0.3919247108E-02    0.1052715223E+00
    0.2900000000E+02    0.1061850039E+00    0.7675340295E-01    0.1248936012E-02    0.4144195043E-02    0.1110630363E+00
    0.3100000000E+02    0.1117818824E+00    0.8005899834E-01    0.1302625982E-02    0.4362687877E-02    0.1166572085E+00
    0.3300000000E+02    0.1172219999E+00    0.8319569980E-01    0.1353555870E-02    0.4575067417E-02    0.1220647274E+00
    0.3500000000E+02    0.1225134773E+00    0.8617400128E-01    0.1401896662E-02    0.4781650288E-02    0.1272955091E+00
    0.3700000000E+02    0.1276638483E+00    0.8900358682E-01    0.1447806167E-02    0.4982730234E-02    0.1323587660E+00
    0.3900000000E+02    0.1326801124E+00    0.9169340562E-01    0.1491430241E-02    0.5178580167E-02    0.1372630685E+00
    0.4100000000E+02    0.1375687819E+00    0.9425173900E-01    0.1532903877E-02    0.5369454000E-02    0.1420164006E+00
    0.4300000000E+02    0.1423359237E+00    0.9668626034E-01    0.1572352173E-02    0.5555588293E-02    0.1466262091E+00
    0.4500000000E+02    0.1469871976E+00    0.9900408865E-01    0.1609891211E-02    0.5737203728E-02    0.1510994489E+00
    0.4700000000E+02    0.1515278902E+00    0.1012118367E+00    0.1645628831E-02    0.5914506435E-02    0.1554426230E+00
    0.4900000000E+02    0.1559629456E+00    0.1033156542E+00    0.1679665342E-02    0.6087689191E-02    0.1596618189E+00
    0.1000000000E+02    0.4317838157E-01    0.3427159588E-01    0.5579815613E-03    0.1684940189E-02    0.4615908179E-01
    0.3000000000E+02    0.1090035703E+00    0.7842800214E-01    0.1276137244E-02    0.4254226366E-02    0.1138841031E+00
    0.5000000000E+02    0.1581423175E+00    0.1043303939E+00    0.1696075125E-02    0.6172792446E-02    0.1617267220E+00
    0.7000000000E+02    0.1971652395E+00    0.1203676588E+00    0.1954526541E-02    0.7696828858E-02    0.1977272511E+00
    0.9000000000E+02    0.2294493973E+00    0.1306071917E+00    0.2117896020E-02    0.8958017163E-02    0.2260564917E+00
    0.1100000000E+03    0.2569260385E+00    0.1372306877E+00    0.2221870134E-02    0.1003166649E-01    0.2491030535E+00
    0.1300000000E+03    0.2807921102E+00    0.1414981496E+00    0.2287102631E-02    0.1096445403E-01    0.2683386433E+00
    0.1500000000E+03    0.3018377782E+00    0.1441793519E+00    0.2326239914E-02    0.1178719505E-01    0.2847225779E+00
    0.1700000000E+03    0.3206118878E+00    0.1457657104E+00    0.2347374016E-02    0.1252129460E-01    0.2989088203E+00
    0.1900000000E+03    0.3375119123E+00    0.1465821467E+00    0.2355867696E-02    0.1318225479E-01    0.3113597376E+00
    0.2100000000E+03    0.3528358487E+00    0.1468496987E+00    0.2355377220E-02    0.1378169856E-01    0.3224122894E+00
    0.2300000000E+03    0.3668136826E+00    0.1467222835E+00    0.2348453797E-02    0.1432859657E-01    0.3323184000E+00
    0.2500000000E+03    0.3796272863E+00    0.1463091648E+00    0.2336911724E-02    0.1483004318E-01    0.3412705806E+00
    0.2700000000E+03    0.3914234692E+00    0.1456891569E+00    0.2322061562E-02    0.1529176538E-01    0.3494187475E+00
    0.2900000000E+03    0.4023228167E+00    0.1449198675E+00    0.2304862179E-02    0.1571846744E-01    0.3568815893E+00
    0.3100000000E+03    0.4124258479E+00    0.1440438651E+00    0.2286022410E-02    0.1611407105E-01    0.3637544475E+00
    0.3300000000E+03    0.4218174164E+00    0.1430928851E+00    0.2266070549E-02    0.1648188695E-01    0.3701149022E+00
    0.3500000000E+03    0.4305699280E+00    0.1420907521E+00    0.2245402758E-02    0.1682474041E-01    0.3760268123E+00
    0.3700000000E+03    0.4387457426E+00    0.1410554466E+00    0.2224317364E-02    0.1714506485E-01    0.3815432880E+00
    0.3900000000E+03    0.4463990010E+00    0.1400005859E+00    0.2203039523E-02    0.1744497315E-01    0.3867089144E+00
    0.4100000000E+03    0.4535770374E+00    0.1389365017E+00    0.2181739192E-02    0.1772631268E-01    0.3915614383E+00
    0.4300000000E+03    0.4603214893E+00    0.1378710319E+00    0.2160544379E-02    0.1799070859E-01    0.3961330645E+00
    0.4500000000E+03    0.4666691812E+00    0.1368101092E+00    0.2139551013E-02    0.1823959830E-01    0.4004514640E+00
    0.4700000000E+03    0.4726528372E+00    0.1357582023E+00    0.2118830362E-02    0.1847425925E-01    0.4045405668E+00
    0.4900000000E+03    0.4783016621E+00    0.1347186503E+00    0.2098434662E-02    0.1869583160E-01    0.4084211914E+00
    0.1000000000E+03    0.2437015892E+00    0.1342771684E+00    0.2175771364E-02    0.9514888856E-02    0.2381327258E+00
    0.3000000000E+03    0.4074682438E+00    0.1444930073E+00    0.2295610742E-02    0.1591993696E-01    0.3603865548E+00
    0.5000000000E+03    0.4810087968E+00    0.1342043057E+00    0.2088370868E-02    0.1880203297E-01    0.4102891057E+00
    0.7000000000E+03    0.5226855467E+00    0.1248808029E+00    0.1908507106E-02    0.2043855285E-01    0.4401230367E+00
    0.9000000000E+03    0.5491049523E+00    0.1173637867E+00    0.1766647998E-02    0.2147803283E-01    0.4608652587E+00
    0.1100000000E+04    0.5671465193E+00    0.1112504654E+00    0.1653444296E-02    0.2218934391E-01    0.4765095927E+00
    0.1300000000E+04    0.5801530343E+00    0.1061656376E+00    0.1560905240E-02    0.2270322578E-01    0.4889267142E+00
    0.1500000000E+04    0.5899250620E+00    0.1018451511E+00    0.1483512181E-02    0.2309014964E-01    0.4991337660E+00
    0.1700000000E+04    0.5975092158E+00    0.9810763756E-01    0.1417516915E-02    0.2339110668E-01    0.5077414745E+00
    0.1900000000E+04    0.6035511792E+00    0.9482633919E-01    0.1360324895E-02    0.2363140303E-01    0.5151435024E+00
    0.2100000000E+04    0.6084688860E+00    0.9191029338E-01    0.1310092210E-02    0.2382743012E-01    0.5216074994E+00
    0.2300000000E+04    0.6125437762E+00    0.8929246911E-01    0.1265473490E-02    0.2399023386E-01    0.5273231678E+00
    0.2500000000E+04    0.6159717670E+00    0.8692225627E-01    0.1225463090E-02    0.2412750903E-01    0.5324295246E+00
    0.2700000000E+04    0.6188931411E+00    0.8476061009E-01    0.1189292888E-02    0.2424476929E-01    0.5370312703E+00
    0.2900000000E+04    0.6214108104E+00    0.8277683209E-01    0.1156364854E-02    0.2434606241E-01    0.5412090834E+00
    0.3100000000E+04    0.6236018774E+00    0.8094638130E-01    0.1126205453E-02    0.2443442324E-01    0.5450263489E+00
    0.3300000000E+04    0.6255251836E+00    0.7924935030E-01    0.1098434080E-02    0.2451216954E-01    0.5485337022E+00
    0.3500000000E+04    0.6272263717E+00    0.7766938057E-01    0.1072740740E-02    0.2458110052E-01    0.5517721826E+00
    0.3700000000E+04    0.6287413630E+00    0.7619287496E-01    0.1048869934E-02    0.2464263324E-01    0.5547754769E+00
    0.3900000000E+04    0.6300987961E+00    0.7480841564E-01    0.1026608844E-02    0.2469789830E-01    0.5575715484E+00
    0.4100000000E+04    0.6313217714E+00    0.7350632662E-01    0.1005778502E-02    0.2474780838E-01    0.5601838425E+00
    0.4300000000E+04    0.6324291195E+00    0.7227834023E-01    0.9862271040E-03    0.2479310800E-01    0.5626321934E+00
    0.4500000000E+04    0.6334363380E+00    0.7111733927E-01    0.9678248796E-03    0.2483441039E-01    0.5649335165E+00
    0.4700000000E+04    0.6343562932E+00    0.7001715531E-01    0.9504601019E-03    0.2487222506E-01    0.5671023436E+00
    0.4900000000E+04    0.6351997530E+00    0.6897240905E-01    0.9340359515E-03    0.2490697872E-01    0.5691512427E+00
    0.1000000000E+04    0.5589136090E+00    0.1141578920E+00    0.1707027831E-02    0.2186456781E-01    0.4691793611E+00
    0.3000000000E+04    0.6225431323E+00    0.8184377916E-01    0.1140964742E-02    0.2439170039E-01    0.5431593634E+00
    0.5000000000E+04    0.6355956908E+00    0.6846932789E-01    0.9261498081E-03    0.2492332242E-01    0.5701341927E+00
    0.7000000000E+04    0.6411000074E+00    0.6042744934E-01    0.8020395088E-03    0.2515310458E-01    0.5855338802E+00
    0.9000000000E+04    0.6441193288E+00    0.5484995000E-01    0.7180523152E-03    0.2528223949E-01    0.5958852533E+00
    0.1100000000E+05    0.6460225261E+00    0.5066722400E-01    0.6561564875E-03    0.2536559797E-01    0.6034823516E+00
    0.1300000000E+05    0.6473304642E+00    0.4736993416E-01    0.6080124262E-03    0.2542423764E-01    0.6093759584E+00
    0.1500000000E+05    0.6482839735E+00    0.4467851026E-01    0.5691377670E-03    0.2546797723E-01    0.6141267571E+00
    0.1700000000E+05    0.6490095740E+00    0.4242429368E-01    0.5368717590E-03    0.2550201830E-01    0.6180656944E+00
    0.1900000000E+05    0.6495800447E+00    0.4049838794E-01    0.5095186722E-03    0.2552937786E-01    0.6214027408E+00
    0.2100000000E+05    0.6500401946E+00    0.3882677683E-01    0.4859383438E-03    0.2555192882E-01    0.6242785628E+00
    0.2300000000E+05    0.6504191115E+00    0.3735708242E-01    0.4653313473E-03    0.2557089697E-01    0.6267914967E+00
    0.2500000000E+05    0.6507364951E+00    0.3605101340E-01    0.4471179264E-03    0.2558711923E-01    0.6290126828E+00
    0.2700000000E+05    0.6510061593E+00    0.3487981511E-01    0.4308657878E-03    0.2560118723E-01    0.6309950583E+00
    0.2900000000E+05    0.6512380759E+00    0.3382140230E-01    0.4162449987E-03    0.2561353150E-01    0.6327789565E+00
    0.3100000000E+05    0.6514396225E+00    0.3285848334E-01    0.4029987096E-03    0.2562447308E-01    0.6343957314E+00
    0.3300000000E+05    0.6516163742E+00    0.3197729375E-01    0.3909235227E-03    0.2563425654E-01    0.6358701819E+00
    0.3500000000E+05    0.6517726219E+00    0.3116671735E-01    0.3798559564E-03    0.2564307158E-01    0.6372222194E+00
    0.3700000000E+05    0.6519117219E+00    0.3041766208E-01    0.3696628833E-03    0.2565106772E-01    0.6384680444E+00
    0.3900000000E+05    0.6520363365E+00    0.2972260717E-01    0.3602346325E-03    0.2565836452E-01    0.6396209928E+00
    0.4100000000E+05    0.6521486051E+00    0.2907526878E-01    0.3514799188E-03    0.2566505880E-01    0.6406921581E+00
    0.4300000000E+05    0.6522502660E+00    0.2847034892E-01    0.3433220524E-03    0.2567122980E-01    0.6416908549E+00
    0.4500000000E+05    0.6523427464E+00    0.2790334421E-01    0.3356960636E-03    0.2567694310E-01    0.6426249709E+00
    0.4700000000E+05    0.6524272288E+00    0.2737039821E-01    0.3285464920E-03    0.2568225345E-01    0.6435012370E+00
    0.4900000000E+05    0.6525047012E+00    0.2686818609E-01    0.3218256656E-03    0.2568720692E-01    0.6443254367E+00
    0.1000000000E+05    0.6451680135E+00    0.5262366940E-01    0.6849928653E-03    0.2532792919E-01    0.5999460170E+00
    0.3000000000E+05    0.6513422618E+00    0.3332893724E-01    0.4094638246E-03    0.2561916084E-01    0.6336065533E+00
    0.5000000000E+05    0.6525410740E+00    0.2662768878E-01    0.3186129246E-03    0.2568956229E-01    0.6447196016E+00
    0.7000000000E+05    0.6530471382E+00    0.2289693758E-01    0.2692644427E-03    0.2572491734E-01    0.6507913346E+00
    0.9000000000E+05    0.6533248551E+00    0.2042824856E-01    0.2371452878E-03    0.2574743122E-01    0.6547658685E+00
    0.1100000000E+06    0.6534996071E+00    0.1863611524E-01    0.2141182021E-03    0.2576358431E-01    0.6576302026E+00
    0.1300000000E+06    0.6536192893E+00    0.1725709913E-01    0.1965767143E-03    0.2577603095E-01    0.6598224876E+00
    0.1500000000E+06    0.6537061306E+00    0.1615251426E-01    0.1826440270E-03    0.2578608508E-01    0.6615712188E+00
    0.1700000000E+06    0.6537718435E+00    0.1524136405E-01    0.1712342995E-03    0.2579448208E-01    0.6630088954E+00
    0.1900000000E+06    0.6538231796E+00    0.1447270080E-01    0.1616699342E-03    0.2580167067E-01    0.6642183906E+00
    0.2100000000E+06    0.6538643015E+00    0.1381263671E-01    0.1535033213E-03    0.2580794284E-01    0.6652545723E+00
    0.2300000000E+06    0.6538979137E+00    0.1323762543E-01    0.1464253320E-03    0.2581349831E-01    0.6661554168E+00
    0.2500000000E+06    0.6539258481E+00    0.1273072160E-01    0.1402147065E-03    0.2581847916E-01    0.6669481629E+00
    0.2700000000E+06    0.6539493894E+00    0.1227937325E-01    0.1347083567E-03    0.2582298984E-01    0.6676529291E+00
    0.2900000000E+06    0.6539694643E+00    0.1187405537E-01    0.1297830794E-03    0.2582710916E-01    0.6682849434E+00
    0.3100000000E+06    0.6539867581E+00    0.1150738997E-01    0.1253438382E-03    0.2583089799E-01    0.6688559746E+00
    0.3300000000E+06    0.6540017883E+00    0.1117356031E-01    0.1213159940E-03    0.2583440425E-01    0.6693752823E+00
    0.3500000000E+06    0.6540149524E+00    0.1086790950E-01    0.1176400045E-03    0.2583766629E-01    0.6698502662E+00
    0.3700000000E+06    0.6540265612E+00    0.1058665863E-01    0.1142677144E-03    0.2584071527E-01    0.6702869209E+00
    0.3900000000E+06    0.6540368606E+00    0.1032670437E-01    0.1111597021E-03    0.2584357680E-01    0.6706901619E+00
    0.4100000000E+06    0.6540460482E+00    0.1008547095E-01    0.1082833447E-03    0.2584627223E-01    0.6710640631E+00
    0.4300000000E+06    0.6540542840E+00    0.9860800016E-02    0.1056113824E-03    0.2584881946E-01    0.6714120340E+00
    0.4500000000E+06    0.6540616992E+00    0.9650867280E-02    0.1031208362E-03    0.2585123371E-01    0.6717369529E+00
    0.4700000000E+06    0.6540684023E+00    0.9454118774E-02    0.1007921820E-03    0.2585352799E-01    0.6720412688E+00
    0.4900000000E+06    0.6540744837E+00    0.9269221334E-02    0.9860870992E-04    0.2585571349E-01    0.6723270806E+00
    0.1000000000E+06    0.6534212043E+00    0.1946827338E-01    0.2247790741E-03    0.2575609061E-01    0.6563023461E+00
    0.3000000000E+06    0.6539784232E+00    0.1168628583E-01    0.1275077757E-03    0.2582904163E-01    0.6685774531E+00
    0.5000000000E+06    0.6540773156E+00    0.9180850794E-02    0.9756683966E-04    0.2585676854E-01    0.6724636231E+00
    0.7000000000E+06    0.6541146611E+00    0.7823970917E-02    0.8171537963E-04    0.2587396376E-01    0.6745553533E+00
    0.9000000000E+06    0.6541326393E+00    0.6940085945E-02    0.7154912495E-04    0.2588642815E-01    0.6759131036E+00
    0.1100000000E+07    0.6541423216E+00    0.6305131227E-02    0.6433251623E-04    0.2589620317E-01    0.6768861339E+00
    0.1300000000E+07    0.6541478071E+00    0.5820271114E-02    0.5887483179E-04    0.2590424338E-01    0.6776278437E+00
    0.1500000000E+07    0.6541509362E+00    0.5434187965E-02    0.5456422887E-04    0.2591107173E-01    0.6782176411E+00
    0.1700000000E+07    0.6541526450E+00    0.5117220548E-02    0.5105009514E-04    0.2591700573E-01    0.6787013185E+00
    0.1900000000E+07    0.6541534534E+00    0.4850863965E-02    0.4811529222E-04    0.2592225257E-01    0.6791073927E+00
    0.2100000000E+07    0.6541536698E+00    0.4622891767E-02    0.4561727064E-04    0.2592695493E-01    0.6794546771E+00
    0.2300000000E+07    0.6541534863E+00    0.4424856034E-02    0.4345809444E-04    0.2593121521E-01    0.6797561546E+00
    0.2500000000E+07    0.6541530276E+00    0.4250706106E-02    0.4156797747E-04    0.2593510943E-01    0.6800211139E+00
    0.2700000000E+07    0.6541523771E+00    0.4095978567E-02    0.3989567962E-04    0.2593869555E-01    0.6802564006E+00
    0.2900000000E+07    0.6541515924E+00    0.3957298643E-02    0.3840262355E-04    0.2594201877E-01    0.6804671864E+00
    0.3100000000E+07    0.6541507137E+00    0.3832060672E-02    0.3705914109E-04    0.2594511503E-01    0.6806574615E+00
    0.3300000000E+07    0.6541497698E+00    0.3718216281E-02    0.3584199469E-04    0.2594801335E-01    0.6808303605E+00
    0.3500000000E+07    0.6541487816E+00    0.3614129795E-02    0.3473269204E-04    0.2595073755E-01    0.6809883850E+00
    0.3700000000E+07    0.6541477644E+00    0.3518477037E-02    0.3371631050E-04    0.2595330737E-01    0.6811335592E+00
    0.3900000000E+07    0.6541467296E+00    0.3430172911E-02    0.3278065863E-04    0.2595573938E-01    0.6812675408E+00
    0.4100000000E+07    0.6541456857E+00    0.3348318564E-02    0.3191566635E-04    0.2595804763E-01    0.6813917026E+00
    0.4300000000E+07    0.6541446390E+00    0.3272162167E-02    0.3111293345E-04    0.2596024410E-01    0.6815071921E+00
    0.4500000000E+07    0.6541435942E+00    0.3201069341E-02    0.3036539025E-04    0.2596233913E-01    0.6816149774E+00
    0.4700000000E+07    0.6541425550E+00    0.3134500550E-02    0.2966703874E-04    0.2596434168E-01    0.6817158813E+00
    0.4900000000E+07    0.6541415241E+00    0.3071993598E-02    0.2901275273E-04    0.2596625958E-01    0.6818106087E+00
    0.1000000000E+07    0.6541381811E+00    0.6599277244E-02    0.6766619548E-04    0.2589157780E-01    0.6764356147E+00
    0.3000000000E+07    0.6541511628E+00    0.3893138546E-02    0.3771376591E-04    0.2594359332E-01    0.6805646748E+00
    0.5000000000E+07    0.6541410124E+00    0.3042136588E-02    0.2870073158E-04    0.2596718896E-01    0.6818558494E+00
    0.7000000000E+07    0.6541314802E+00    0.2585131174E-02    0.2396779421E-04    0.2598263447E-01    0.6825477781E+00
    0.9000000000E+07    0.6541233367E+00    0.2288862495E-02    0.2094645554E-04    0.2599413857E-01    0.6829957910E+00
    0.1100000000E+08    0.6541163483E+00    0.2076718174E-02    0.1880842680E-04    0.2600331022E-01    0.6833163213E+00
    0.1300000000E+08    0.6541102613E+00    0.1915103899E-02    0.1719520439E-04    0.2601093820E-01    0.6835603515E+00
    0.1500000000E+08    0.6541048820E+00    0.1786648867E-02    0.1592330072E-04    0.2601746838E-01    0.6837542165E+00
    0.1700000000E+08    0.6541000683E+00    0.1681344194E-02    0.1488788278E-04    0.2602317759E-01    0.6839130784E+00
    0.1900000000E+08    0.6540957153E+00    0.1592961005E-02    0.1402417946E-04    0.2602824957E-01    0.6840463673E+00
    0.2100000000E+08    0.6540917438E+00    0.1517392111E-02    0.1328975127E-04    0.2603281250E-01    0.6841602980E+00
    0.2300000000E+08    0.6540880931E+00    0.1451804440E-02    0.1265548827E-04    0.2603695941E-01    0.6842591554E+00
    0.2500000000E+08    0.6540847158E+00    0.1394171802E-02    0.1210067638E-04    0.2604075993E-01    0.6843460030E+00
    0.2700000000E+08    0.6540815740E+00    0.1343001408E-02    0.1161012475E-04    0.2604426754E-01    0.6844230971E+00
