  Pressure (Pa) 22mC5-400 (mol/kg) 2mC6-400 (mol/kg) 33mC5-400 (mol/kg) 23mC5-400 (mol/kg) C7-400 (mol/kg)
    0.1000000000E+01    0.5268825834E-02    0.3163265557E-02    0.1287730207E-03    0.9251523059E-04    0.5127702661E-02
    0.3000000000E+01    0.1546598917E-01    0.9192823908E-02    0.3742140310E-03    0.2715717058E-03    0.1503980390E-01
    0.5000000000E+01    0.2523673076E-01    0.1485273773E-01    0.6045850913E-03    0.4431463776E-03    0.2452041906E-01
    0.7000000000E+01    0.3461131364E-01    0.2017184069E-01    0.8210586590E-03    0.6077701318E-03    0.3359855028E-01
    0.9000000000E+01    0.4361712907E-01    0.2517616122E-01    0.1024693262E-02    0.7659234824E-03    0.4230062767E-01
    0.1100000000E+02    0.5227902875E-01    0.2988924938E-01    0.1216446771E-02    0.9180423973E-03    0.5065078923E-01
    0.1300000000E+02    0.6061961217E-01    0.3433245960E-01    0.1397187874E-02    0.1064523338E-02    0.5867112506E-01
    0.1500000000E+02    0.6865947598E-01    0.3852519591E-01    0.1567706038E-02    0.1205727636E-02    0.6638189081E-01
    0.1700000000E+02    0.7641743115E-01    0.4248512551E-01    0.1728720172E-02    0.1341985296E-02    0.7380169506E-01
    0.1900000000E+02    0.8391069257E-01    0.4622836508E-01    0.1880886199E-02    0.1473598329E-02    0.8094766412E-01
    0.2100000000E+02    0.9115504511E-01    0.4976964394E-01    0.2024803673E-02    0.1600843659E-02    0.8783558734E-01
    0.2300000000E+02    0.9816498947E-01    0.5312244722E-01    0.2161021597E-02    0.1723975682E-02    0.9448004574E-01
    0.2500000000E+02    0.1049538706E+00    0.5629914190E-01    0.2290043538E-02    0.1843228524E-02    0.1008945259E+00
    0.2700000000E+02    0.1115339910E+00    0.5931108797E-01    0.2412332140E-02    0.1958818021E-02    0.1070915214E+00
    0.2900000000E+02    0.1179167112E+00    0.6216873679E-01    0.2528313119E-02    0.2070943484E-02    0.1130826228E+00
    0.3100000000E+02    0.1241125386E+00    0.6488171821E-01    0.2638378801E-02    0.2179789261E-02    0.1188785984E+00
    0.3300000000E+02    0.1301312067E+00    0.6745891803E-01    0.2742891266E-02    0.2285526121E-02    0.1244894662E+00
    0.3500000000E+02    0.1359817455E+00    0.6990854694E-01    0.2842185147E-02    0.2388312493E-02    0.1299245587E+00
    0.3700000000E+02    0.1416725445E+00    0.7223820201E-01    0.2936570132E-02    0.2488295571E-02    0.1351925803E+00
    0.3900000000E+02    0.1472114091E+00    0.7445492167E-01    0.3026333189E-02    0.2585612300E-02    0.1403016603E+00
    0.4100000000E+02    0.1526056111E+00    0.7656523498E-01    0.3111740575E-02    0.2680390263E-02    0.1452593994E+00
    0.4300000000E+02    0.1578619337E+00    0.7857520582E-01    0.3193039625E-02    0.2772748477E-02    0.1500729127E+00
    0.4500000000E+02    0.1629867131E+00    0.8049047258E-01    0.3270460368E-02    0.2862798106E-02    0.1547488675E+00
    0.4700000000E+02    0.1679858742E+00    0.8231628400E-01    0.3344216979E-02    0.2950643113E-02    0.1592935188E+00
    0.4900000000E+02    0.1728649648E+00    0.8405753136E-01    0.3414509093E-02    0.3036380834E-02    0.1637127406E+00
    0.1000000000E+02    0.4798960622E-01    0.2756772628E-01    0.1121998894E-02    0.8427115938E-03    0.4651827194E-01
    0.3000000000E+02    0.1210373609E+00    0.6354273897E-01    0.2584062067E-02    0.2125765357E-02    0.1160043584E+00
    0.5000000000E+02    0.1752611216E+00    0.8489788155E-01    0.3448414667E-02    0.3078488201E-02    0.1658770541E+00
    0.7000000000E+02    0.2179855334E+00    0.9822434418E-01    0.3983810703E-02    0.3829390986E-02    0.2037579424E+00
    0.9000000000E+02    0.2530206024E+00    0.1067864180E+00    0.4323642028E-02    0.4445325066E-02    0.2337316021E+00
    0.1100000000E+03    0.2825643381E+00    0.1123595783E+00    0.4540635692E-02    0.4964859639E-02    0.2581917184E+00
    0.1300000000E+03    0.3079885012E+00    0.1159786877E+00    0.4677287798E-02    0.5412066782E-02    0.2786383291E+00
    0.1500000000E+03    0.3302037813E+00    0.1182797244E+00    0.4759779606E-02    0.5802928414E-02    0.2960618649E+00
    0.1700000000E+03    0.3498455718E+00    0.1196701380E+00    0.4804924446E-02    0.6148595823E-02    0.3111442531E+00
    0.1900000000E+03    0.3673755256E+00    0.1204198291E+00    0.4823883689E-02    0.6457171588E-02    0.3243714230E+00
    0.2100000000E+03    0.3831404441E+00    0.1207125139E+00    0.4824268497E-02    0.6734742871E-02    0.3360997183E+00
    0.2300000000E+03    0.3974081569E+00    0.1206760810E+00    0.4811384483E-02    0.6986011008E-02    0.3465968894E+00
    0.2500000000E+03    0.4103903292E+00    0.1204012330E+00    0.4788997665E-02    0.7214691717E-02    0.3560683653E+00
    0.2700000000E+03    0.4222575031E+00    0.1199533090E+00    0.4759821413E-02    0.7423779028E-02    0.3646746416E+00
    0.2900000000E+03    0.4331493418E+00    0.1193799954E+00    0.4725834773E-02    0.7615725051E-02    0.3725431153E+00
    0.3100000000E+03    0.4431818098E+00    0.1187164750E+00    0.4688495603E-02    0.7792565969E-02    0.3797763380E+00
    0.3300000000E+03    0.4524523338E+00    0.1179889397E+00    0.4648886301E-02    0.7956012605E-02    0.3864578965E+00
    0.3500000000E+03    0.4610435981E+00    0.1172170300E+00    0.4607815279E-02    0.8107517023E-02    0.3926566843E+00
    0.3700000000E+03    0.4690263917E+00    0.1164155565E+00    0.4565888769E-02    0.8248322492E-02    0.3984300575E+00
    0.3900000000E+03    0.4764617841E+00    0.1155957340E+00    0.4523562358E-02    0.8379501663E-02    0.4038262022E+00
    0.4100000000E+03    0.4834028136E+00    0.1147660749E+00    0.4481178445E-02    0.8501986207E-02    0.4088859362E+00
    0.4300000000E+03    0.4898958181E+00    0.1139330463E+00    0.4438993779E-02    0.8616590158E-02    0.4136440972E+00
    0.4500000000E+03    0.4959814960E+00    0.1131015555E+00    0.4397199899E-02    0.8724028544E-02    0.4181306247E+00
    0.4700000000E+03    0.5016957628E+00    0.1122753141E+00    0.4355938449E-02    0.8824932416E-02    0.4223714122E+00
    0.4900000000E+03    0.5070704501E+00    0.1114571124E+00    0.4315312741E-02    0.8919861113E-02    0.4263889856E+00
    0.1000000000E+03    0.2683792946E+00    0.1098697587E+00    0.4444340024E-02    0.4715394643E-02    0.2465418944E+00
    0.3000000000E+03    0.4382665235E+00    0.1190576961E+00    0.4707509167E-02    0.7705919972E-02    0.3762335208E+00
    0.5000000000E+03    0.5096394256E+00    0.1110516988E+00    0.4295262305E-02    0.8965242476E-02    0.4283203218E+00
    0.7000000000E+03    0.5486533592E+00    0.1036395016E+00    0.3936113236E-02    0.9655180516E-02    0.4589266579E+00
    0.9000000000E+03    0.5729050392E+00    0.9757604893E-01    0.3651110922E-02    0.1008505447E-01    0.4799073355E+00
    0.1100000000E+04    0.5892880795E+00    0.9258590763E-01    0.3422068144E-02    0.1037614546E-01    0.4955496498E+00
    0.1300000000E+04    0.6010283975E+00    0.8839604073E-01    0.3233584526E-02    0.1058525405E-01    0.5078459967E+00
    0.1500000000E+04    0.6098207584E+00    0.8480994989E-01    0.3075033510E-02    0.1074224479E-01    0.5178711682E+00
    0.1700000000E+04    0.6166338550E+00    0.8169037355E-01    0.2939172409E-02    0.1086420122E-01    0.5262656934E+00
    0.1900000000E+04    0.6220584559E+00    0.7893989734E-01    0.2820959483E-02    0.1096155030E-01    0.5334395868E+00
    0.2100000000E+04    0.6264739044E+00    0.7648764767E-01    0.2716788244E-02    0.1104099273E-01    0.5396698327E+00
    0.2300000000E+04    0.6301342271E+00    0.7428075621E-01    0.2624009628E-02    0.1110701929E-01    0.5451515914E+00
    0.2500000000E+04    0.6332155656E+00    0.7227887596E-01    0.2540630562E-02    0.1116274639E-01    0.5500270997E+00
    0.2700000000E+04    0.6358436989E+00    0.7045058750E-01    0.2465119342E-02    0.1121040127E-01    0.5544029417E+00
    0.2900000000E+04    0.6381107260E+00    0.6877098608E-01    0.2396276651E-02    0.1125161609E-01    0.5583608616E+00
    0.3100000000E+04    0.6400855631E+00    0.6722002156E-01    0.2333147886E-02    0.1128761322E-01    0.5619648006E+00
    0.3300000000E+04    0.6418207638E+00    0.6578132974E-01    0.2274962153E-02    0.1131932558E-01    0.5652656291E+00
    0.3500000000E+04    0.6433570763E+00    0.6444139230E-01    0.2221088872E-02    0.1134747713E-01    0.5683044191E+00
    0.3700000000E+04    0.6447265649E+00    0.6318892115E-01    0.2171006321E-02    0.1137263804E-01    0.5711147621E+00
    0.3900000000E+04    0.6459547945E+00    0.6201439951E-01    0.2124278409E-02    0.1139526329E-01    0.5737244479E+00
    0.4100000000E+04    0.6470623902E+00    0.6090973448E-01    0.2080537258E-02    0.1141572027E-01    0.5761567014E+00
    0.4300000000E+04    0.6480661702E+00    0.5986799014E-01    0.2039469949E-02    0.1143430880E-01    0.5784311107E+00
    0.4500000000E+04    0.6489799815E+00    0.5888318003E-01    0.2000808300E-02    0.1145127596E-01    0.5805643328E+00
    0.4700000000E+04    0.6498153253E+00    0.5795010383E-01    0.1964320890E-02    0.1146682715E-01    0.5825706388E+00
    0.4900000000E+04    0.6505818322E+00    0.5706421742E-01    0.1929806762E-02    0.1148113451E-01    0.5844623386E+00
    0.1000000000E+04    0.5818277879E+00    0.9496573349E-01    0.3530682127E-02    0.1024350554E-01    0.4882406835E+00
    0.3000000000E+04    0.6391310622E+00    0.6798052221E-01    0.2364049936E-02    0.1127020287E-01    0.5602036369E+00
    0.5000000000E+04    0.6509418611E+00    0.5663770369E-01    0.1913233953E-02    0.1148786807E-01    0.5853686058E+00
    0.7000000000E+04    0.6559632504E+00    0.4982925543E-01    0.1652488442E-02    0.1158294681E-01    0.5994586981E+00
    0.9000000000E+04    0.6587332246E+00    0.4512226339E-01    0.1476310653E-02    0.1163679582E-01    0.6088140133E+00
    0.1100000000E+05    0.6604863880E+00    0.4160303550E-01    0.1346731016E-02    0.1167176561E-01    0.6156199566E+00
    0.1300000000E+05    0.6616949939E+00    0.3883615446E-01    0.1246136720E-02    0.1169648652E-01    0.6208643713E+00
    0.1500000000E+05    0.6625783039E+00    0.3658288029E-01    0.1165055523E-02    0.1171500276E-01    0.6250691352E+00
    0.1700000000E+05    0.6632518904E+00    0.3469942385E-01    0.1097866784E-02    0.1172946563E-01    0.6285398646E+00
    0.1900000000E+05    0.6637824154E+00    0.3309311279E-01    0.1040991313E-02    0.1174112725E-01    0.6314692021E+00
    0.2100000000E+05    0.6642110157E+00    0.3170107068E-01    0.9920249721E-03    0.1175076725E-01    0.6339854989E+00
    0.2300000000E+05    0.6645644465E+00    0.3047887854E-01    0.9492839031E-03    0.1175889723E-01    0.6361780586E+00
    0.2500000000E+05    0.6648608584E+00    0.2939411570E-01    0.9115482702E-03    0.1176586731E-01    0.6381112206E+00
    0.2700000000E+05    0.6651129974E+00    0.2842247255E-01    0.8779094744E-03    0.1177192552E-01    0.6398326866E+00
    0.2900000000E+05    0.6653300765E+00    0.2754530406E-01    0.8476747716E-03    0.1177725269E-01    0.6413786825E+00
    0.3100000000E+05    0.6655189197E+00    0.2674803121E-01    0.8203053991E-03    0.1178198393E-01    0.6427772864E+00
    0.3300000000E+05    0.6656846894E+00    0.2601906292E-01    0.7953751149E-03    0.1178622232E-01    0.6440506466E+00
    0.3500000000E+05    0.6658313623E+00    0.2534904896E-01    0.7725416319E-03    0.1179004792E-01    0.6452165032E+00
    0.3700000000E+05    0.6659620518E+00    0.2473034979E-01    0.7515264546E-03    0.1179352396E-01    0.6462892575E+00
    0.3900000000E+05    0.6660792296E+00    0.2415665252E-01    0.7321003430E-03    0.1179670104E-01    0.6472807398E+00
    0.4100000000E+05    0.6661848834E+00    0.2362268747E-01    0.7140726343E-03    0.1179962021E-01    0.6482007721E+00
    0.4300000000E+05    0.6662806292E+00    0.2312401567E-01    0.6972832682E-03    0.1180231510E-01    0.6490575870E+00
    0.4500000000E+05    0.6663677948E+00    0.2265686706E-01    0.6815967402E-03    0.1180481356E-01    0.6498581439E+00
    0.4700000000E+05    0.6664474810E+00    0.2221801576E-01    0.6668974558E-03    0.1180713890E-01    0.6506083724E+00
    0.4900000000E+05    0.6665206080E+00    0.2180468268E-01    0.6530861164E-03    0.1180931072E-01    0.6513133600E+00
    0.1000000000E+05    0.6596984832E+00    0.4324789210E-01    0.1407068127E-02    0.1165594012E-01    0.6124582659E+00
    0.3000000000E+05    0.6654276725E+00    0.2713746512E-01    0.8336608120E-03    0.1177968574E-01    0.6420949057E+00
    0.5000000000E+05    0.6665549591E+00    0.2160681992E-01    0.6464861390E-03    0.1181034438E-01    0.6516502853E+00
    0.7000000000E+05    0.6670343981E+00    0.1854350432E-01    0.5452935953E-03    0.1182594043E-01    0.6568216018E+00
    0.9000000000E+05    0.6672991820E+00    0.1652278804E-01    0.4796228406E-03    0.1183595939E-01    0.6601875785E+00
    0.1100000000E+06    0.6674667941E+00    0.1505904579E-01    0.4326380873E-03    0.1184319456E-01    0.6626038598E+00
    0.1300000000E+06    0.6675822564E+00    0.1393455802E-01    0.3969015152E-03    0.1184879776E-01    0.6644478106E+00
    0.1500000000E+06    0.6676665202E+00    0.1303500645E-01    0.3685516912E-03    0.1185334223E-01    0.6659153025E+00
    0.1700000000E+06    0.6677306512E+00    0.1229376142E-01    0.3453587038E-03    0.1185715030E-01    0.6671195050E+00
    0.1900000000E+06    0.6677810425E+00    0.1166898111E-01    0.3259331314E-03    0.1186041941E-01    0.6681309950E+00
    0.2100000000E+06    0.6678216438E+00    0.1113287256E-01    0.3093583099E-03    0.1186327850E-01    0.6689963863E+00
    0.2300000000E+06    0.6678550265E+00    0.1066614681E-01    0.2950018573E-03    0.1186581604E-01    0.6697478754E+00
    0.2500000000E+06    0.6678829361E+00    0.1025493636E-01    0.2824115708E-03    0.1186809513E-01    0.6704085149E+00
    0.2700000000E+06    0.6679065988E+00    0.9888978188E-02    0.2712544116E-03    0.1187016228E-01    0.6709953048E+00
    0.2900000000E+06    0.6679269010E+00    0.9560490327E-02    0.2612789745E-03    0.1187205267E-01    0.6715210948E+00
    0.3100000000E+06    0.6679444994E+00    0.9263449188E-02    0.2522914578E-03    0.1187379352E-01    0.6719958034E+00
    0.3300000000E+06    0.6679598908E+00    0.8993108819E-02    0.2441397459E-03    0.1187540631E-01    0.6724272259E+00
    0.3500000000E+06    0.6679734575E+00    0.8745671797E-02    0.2367025560E-03    0.1187690825E-01    0.6728215854E+00
    0.3700000000E+06    0.6679854992E+00    0.8518058237E-02    0.2298818484E-03    0.1187831335E-01    0.6731839185E+00
    0.3900000000E+06    0.6679962532E+00    0.8307740109E-02    0.2235974010E-03    0.1187963314E-01    0.6735183518E+00
    0.4100000000E+06    0.6680059106E+00    0.8112620085E-02    0.2177828548E-03    0.1188087726E-01    0.6738283028E+00
    0.4300000000E+06    0.6680146266E+00    0.7930941411E-02    0.2123827817E-03    0.1188205378E-01    0.6741166294E+00
    0.4500000000E+06    0.6680225285E+00    0.7761219843E-02    0.2073504751E-03    0.1188316959E-01    0.6743857426E+00
    0.4700000000E+06    0.6680297220E+00    0.7602191510E-02    0.2026462634E-03    0.1188423056E-01    0.6746376926E+00
    0.4900000000E+06    0.6680362951E+00    0.7452772490E-02    0.1982362054E-03    0.1188524179E-01    0.6748742353E+00
    0.1000000000E+06    0.6673914736E+00    0.1573838423E-01    0.4543805125E-03    0.1183983299E-01    0.6614847049E+00
    0.3000000000E+06    0.6679360040E+00    0.9408361045E-02    0.2566720638E-03    0.1187294033E-01    0.6717643047E+00
    0.5000000000E+06    0.6680393727E+00    0.7381369006E-02    0.1961321882E-03    0.1188573014E-01    0.6749872103E+00
    0.7000000000E+06    0.6680814336E+00    0.6285852010E-02    0.1641445392E-03    0.1189370530E-01    0.6767154741E+00
    0.9000000000E+06    0.6681035618E+00    0.5573074234E-02    0.1436532030E-03    0.1189950273E-01    0.6778348300E+00
    0.1100000000E+07    0.6681168532E+00    0.5061453402E-02    0.1291187150E-03    0.1190405727E-01    0.6786358032E+00
    0.1300000000E+07    0.6681255061E+00    0.4671007174E-02    0.1181331684E-03    0.1190780799E-01    0.6792456711E+00
    0.1500000000E+07    0.6681314478E+00    0.4360248984E-02    0.1094604777E-03    0.1191099617E-01    0.6797302000E+00
    0.1700000000E+07    0.6681356818E+00    0.4105218394E-02    0.1023928360E-03    0.1191376861E-01    0.6801272627E+00
    0.1900000000E+07    0.6681387793E+00    0.3890976286E-02    0.9649214885E-04    0.1191622129E-01    0.6804604177E+00
    0.2100000000E+07    0.6681410878E+00    0.3707657185E-02    0.9147095075E-04    0.1191842037E-01    0.6807451929E+00
    0.2300000000E+07    0.6681428302E+00    0.3548447407E-02    0.8713182505E-04    0.1192041341E-01    0.6809922953E+00
    0.2500000000E+07    0.6681441552E+00    0.3408468577E-02    0.8333414829E-04    0.1192223574E-01    0.6812093805E+00
    0.2700000000E+07    0.6681451656E+00    0.3284123196E-02    0.7997470020E-04    0.1192391431E-01    0.6814020869E+00
    0.2900000000E+07    0.6681459345E+00    0.3172691975E-02    0.7697579005E-04    0.1192547016E-01    0.6815746721E+00
    0.3100000000E+07    0.6681465151E+00    0.3072075880E-02    0.7427768366E-04    0.1192692003E-01    0.6817304193E+00
    0.3300000000E+07    0.6681469469E+00    0.2980625186E-02    0.7183360452E-04    0.1192827744E-01    0.6818719068E+00
    0.3500000000E+07    0.6681472599E+00    0.2897022815E-02    0.6960633548E-04    0.1192955348E-01    0.6820011915E+00
    0.3700000000E+07    0.6681474770E+00    0.2820202713E-02    0.6756584900E-04    0.1193075738E-01    0.6821199368E+00
    0.3900000000E+07    0.6681476161E+00    0.2749291454E-02    0.6568761733E-04    0.1193189684E-01    0.6822295050E+00
    0.4100000000E+07    0.6681476912E+00    0.2683565636E-02    0.6395138371E-04    0.1193297844E-01    0.6823310235E+00
    0.4300000000E+07    0.6681477136E+00    0.2622420272E-02    0.6234025286E-04    0.1193400776E-01    0.6824254347E+00
    0.4500000000E+07    0.6681476923E+00    0.2565344955E-02    0.6084000738E-04    0.1193498963E-01    0.6825135332E+00
    0.4700000000E+07    0.6681476346E+00    0.2511905641E-02    0.5943858654E-04    0.1193592824E-01    0.6825959946E+00
    0.4900000000E+07    0.6681475466E+00    0.2461730547E-02    0.5812568379E-04    0.1193682724E-01    0.6826733970E+00
    0.1000000000E+07    0.6681109695E+00    0.5298421099E-02    0.1358316617E-03    0.1190190134E-01    0.6782650743E+00
    0.3000000000E+07    0.6681462456E+00    0.3121144100E-02    0.7559231768E-04    0.1192620743E-01    0.6816544753E+00
    0.5000000000E+07    0.6681474927E+00    0.2437765158E-02    0.5749960675E-04    0.1193726291E-01    0.6827103596E+00
    0.7000000000E+07    0.6681456524E+00    0.2071036374E-02    0.4800530257E-04    0.1194450523E-01    0.6832753646E+00
    0.9000000000E+07    0.6681433213E+00    0.1833389528E-02    0.4194689270E-04    0.1194990150E-01    0.6836408732E+00
    0.1100000000E+08    0.6681410065E+00    0.1663268544E-02    0.3766085690E-04    0.1195420469E-01    0.6839022151E+00
    0.1300000000E+08    0.6681388285E+00    0.1533694498E-02    0.3442752399E-04    0.1195778417E-01    0.6841010907E+00
    0.1500000000E+08    0.6681368090E+00    0.1430722073E-02    0.3187867832E-04    0.1196084888E-01    0.6842590253E+00
    0.1700000000E+08    0.6681349415E+00    0.1346318225E-02    0.2980399842E-04    0.1196352853E-01    0.6843884049E+00
    0.1900000000E+08    0.6681332119E+00    0.1275484758E-02    0.2807356333E-04    0.1196590927E-01    0.6844969295E+00
    0.2100000000E+08    0.6681316049E+00    0.1214926534E-02    0.2660226003E-04    0.1196805120E-01    0.6845896721E+00
    0.2300000000E+08    0.6681301064E+00    0.1162370947E-02    0.2533171619E-04    0.1196999793E-01    0.6846701292E+00
    0.2500000000E+08    0.6681287039E+00    0.1116192851E-02    0.2422040019E-04    0.1197178213E-01    0.6847407997E+00
    0.2700000000E+08    0.6681273868E+00    0.1075195052E-02    0.2323785759E-04    0.1197342889E-01    0.6848035239E+00
