  Pressure (Pa) 22mC5-400 (mol/kg) 2mC6-400 (mol/kg) 33mC5-400 (mol/kg) 23mC5-400 (mol/kg) C7-400 (mol/kg)
    0.1000000000E+01    0.5274781741E-02    0.1591237922E-02    0.2590965317E-03    0.2778593196E-03    0.1720812088E-02
    0.3000000000E+01    0.1551659762E-01    0.4679532337E-02    0.7618421170E-03    0.8173801228E-03    0.5114028488E-02
    0.5000000000E+01    0.2536960455E-01    0.7648566497E-02    0.1245019348E-02    0.1336436306E-02    0.8444304673E-02
    0.7000000000E+01    0.3485773477E-01    0.1050537594E-01    0.1709774274E-02    0.1836287248E-02    0.1171349752E-01
    0.9000000000E+01    0.4400295579E-01    0.1325643308E-01    0.2157161684E-02    0.2318088953E-02    0.1492339041E-01
    0.1100000000E+02    0.5282546728E-01    0.1590770338E-01    0.2588154199E-02    0.2782904407E-02    0.1807569689E-01
    0.1300000000E+02    0.6134387490E-01    0.1846469492E-01    0.3003650281E-02    0.3231712719E-02    0.2117206405E-01
    0.1500000000E+02    0.6957534417E-01    0.2093250220E-01    0.3404481328E-02    0.3665417225E-02    0.2421407572E-01
    0.1700000000E+02    0.7753573696E-01    0.2331584502E-01    0.3791417957E-02    0.4084852661E-02    0.2720325553E-01
    0.1900000000E+02    0.8523973285E-01    0.2561910302E-01    0.4165175592E-02    0.4490791555E-02    0.3014106976E-01
    0.2100000000E+02    0.9270093726E-01    0.2784634639E-01    0.4526419438E-02    0.4883949913E-02    0.3302893000E-01
    0.2300000000E+02    0.9993197804E-01    0.3000136339E-01    0.4875768926E-02    0.5264992297E-02    0.3586819572E-01
    0.2500000000E+02    0.1069445918E+00    0.3208768486E-01    0.5213801682E-02    0.5634536376E-02    0.3866017665E-01
    0.2700000000E+02    0.1137497014E+00    0.3410860625E-01    0.5541057094E-02    0.5993156996E-02    0.4140613505E-01
    0.2900000000E+02    0.1203574855E+00    0.3606720738E-01    0.5858039509E-02    0.6341389842E-02    0.4410728789E-01
    0.3100000000E+02    0.1267774410E+00    0.3796637022E-01    0.6165221112E-02    0.6679734728E-02    0.4676480882E-01
    0.3300000000E+02    0.1330184397E+00    0.3980879498E-01    0.6463044524E-02    0.7008658565E-02    0.4937983014E-01
    0.3500000000E+02    0.1390887788E+00    0.4159701451E-01    0.6751925146E-02    0.7328598039E-02    0.5195344458E-01
    0.3700000000E+02    0.1449962274E+00    0.4333340747E-01    0.7032253280E-02    0.7639962037E-02    0.5448670706E-01
    0.3900000000E+02    0.1507480680E+00    0.4502021016E-01    0.7304396055E-02    0.7943133836E-02    0.5698063630E-01
    0.4100000000E+02    0.1563511342E+00    0.4665952733E-01    0.7568699171E-02    0.8238473097E-02    0.5943621637E-01
    0.4300000000E+02    0.1618118452E+00    0.4825334197E-01    0.7825488487E-02    0.8526317673E-02    0.6185439816E-01
    0.4500000000E+02    0.1671362369E+00    0.4980352421E-01    0.8075071471E-02    0.8806985250E-02    0.6423610080E-01
    0.4700000000E+02    0.1723299909E+00    0.5131183949E-01    0.8317738512E-02    0.9080774853E-02    0.6658221295E-01
    0.4900000000E+02    0.1773984597E+00    0.5277995598E-01    0.8553764132E-02    0.9347968207E-02    0.6889359408E-01
    0.1000000000E+02    0.4845335191E-01    0.1459418715E-01    0.2374649499E-02    0.2552556901E-02    0.1650663749E-01
    0.3000000000E+02    0.1235903733E+00    0.3702404574E-01    0.6012827084E-02    0.6511768360E-02    0.4544143063E-01
    0.5000000000E+02    0.1798873009E+00    0.5349943606E-01    0.8669368132E-02    0.9479174910E-02    0.7003652141E-01
    0.7000000000E+02    0.2241721568E+00    0.6611998412E-01    0.1068903596E-01    0.1181414018E-01    0.9126036988E-01
    0.9000000000E+02    0.2602290076E+00    0.7608346452E-01    0.1226944035E-01    0.1371583824E-01    0.1098092197E+00
    0.1100000000E+03    0.2903389992E+00    0.8412995940E-01    0.1353316948E-01    0.1530434598E-01    0.1261969287E+00
    0.1300000000E+03    0.3159703263E+00    0.9074461780E-01    0.1456083150E-01    0.1665695308E-01    0.1408113497E+00
    0.1500000000E+03    0.3381185977E+00    0.9626021997E-01    0.1540783478E-01    0.1782607486E-01    0.1539509623E+00
    0.1700000000E+03    0.3574881367E+00    0.1009133471E+00    0.1611361606E-01    0.1884879426E-01    0.1658493919E+00
    0.1900000000E+03    0.3745948011E+00    0.1048771363E+00    0.1670704419E-01    0.1975227352E-01    0.1766922516E+00
    0.2100000000E+03    0.3898274303E+00    0.1082813731E+00    0.1720974787E-01    0.2055698844E-01    0.1866289766E+00
    0.2300000000E+03    0.4034862403E+00    0.1112253371E+00    0.1763825100E-01    0.2127874933E-01    0.1957813096E+00
    0.2500000000E+03    0.4158077522E+00    0.1137863032E+00    0.1800539041E-01    0.2193001321E-01    0.2042494947E+00
    0.2700000000E+03    0.4269815275E+00    0.1160253341E+00    0.1832128445E-01    0.2252076469E-01    0.2121168730E+00
    0.2900000000E+03    0.4371617339E+00    0.1179913256E+00    0.1859401116E-01    0.2305912484E-01    0.2194533413E+00
    0.3100000000E+03    0.4464753482E+00    0.1197238947E+00    0.1883009317E-01    0.2355178301E-01    0.2263179912E+00
    0.3300000000E+03    0.4550281061E+00    0.1212554800E+00    0.1903485089E-01    0.2400431004E-01    0.2327611460E+00
    0.3500000000E+03    0.4629089061E+00    0.1226128949E+00    0.1921266399E-01    0.2442139010E-01    0.2388259511E+00
    0.3700000000E+03    0.4701931276E+00    0.1238184941E+00    0.1936716776E-01    0.2480699537E-01    0.2445496278E+00
    0.3900000000E+03    0.4769451705E+00    0.1248910609E+00    0.1950140256E-01    0.2516451980E-01    0.2499644721E+00
    0.4100000000E+03    0.4832204273E+00    0.1258464910E+00    0.1961792889E-01    0.2549688288E-01    0.2550986557E+00
    0.4300000000E+03    0.4890668336E+00    0.1266983241E+00    0.1971891688E-01    0.2580661133E-01    0.2599768751E+00
    0.4500000000E+03    0.4945261018E+00    0.1274581632E+00    0.1980621668E-01    0.2609590403E-01    0.2646208805E+00
    0.4700000000E+03    0.4996347117E+00    0.1281360070E+00    0.1988141422E-01    0.2636668422E-01    0.2690499105E+00
    0.4900000000E+03    0.5044247148E+00    0.1287405157E+00    0.1994587588E-01    0.2662064178E-01    0.2732810511E+00
    0.1000000000E+03    0.2759216019E+00    0.8031154949E-01    0.1293511433E-01    0.1454367360E-01    0.1182465254E+00
    0.3000000000E+03    0.4419198166E+00    0.1188846127E+00    0.1871627549E-01    0.2331079533E-01    0.2229413133E+00
    0.5000000000E+03    0.5067092081E+00    0.1290176638E+00    0.1997445669E-01    0.2674178503E-01    0.2753272382E+00
    0.7000000000E+03    0.5410462304E+00    0.1321084143E+00    0.2019948873E-01    0.2856488382E-01    0.3088119915E+00
    0.9000000000E+03    0.5621265945E+00    0.1325830979E+00    0.2007450087E-01    0.2968708464E-01    0.3329440341E+00
    0.1100000000E+04    0.5763049859E+00    0.1319037058E+00    0.1981194293E-01    0.3044388333E-01    0.3516060443E+00
    0.1300000000E+04    0.5864587433E+00    0.1306743528E+00    0.1949437880E-01    0.3098732733E-01    0.3667173919E+00
    0.1500000000E+04    0.5940714241E+00    0.1291794855E+00    0.1915817312E-01    0.3139588279E-01    0.3793541318E+00
    0.1700000000E+04    0.5999819421E+00    0.1275645566E+00    0.1882050440E-01    0.3171396004E-01    0.3901751292E+00
    0.1900000000E+04    0.6046988380E+00    0.1259079680E+00    0.1848972559E-01    0.3196850428E-01    0.3996110017E+00
    0.2100000000E+04    0.6085476160E+00    0.1242532951E+00    0.1816983757E-01    0.3217677802E-01    0.4079576813E+00
    0.2300000000E+04    0.6117459443E+00    0.1226250158E+00    0.1786259325E-01    0.3235033526E-01    0.4154267984E+00
    0.2500000000E+04    0.6144447132E+00    0.1210367080E+00    0.1756855218E-01    0.3249719270E-01    0.4221746640E+00
    0.2700000000E+04    0.6167517199E+00    0.1194955459E+00    0.1728763482E-01    0.3262308271E-01    0.4283198559E+00
    0.2900000000E+04    0.6187459709E+00    0.1180048677E+00    0.1701942443E-01    0.3273221052E-01    0.4339543688E+00
    0.3100000000E+04    0.6204866584E+00    0.1165656902E+00    0.1676333539E-01    0.3282772959E-01    0.4391509503E+00
    0.3300000000E+04    0.6220189850E+00    0.1151776255E+00    0.1651870852E-01    0.3291205031E-01    0.4439680828E+00
    0.3500000000E+04    0.6233780532E+00    0.1138394473E+00    0.1628486515E-01    0.3298704622E-01    0.4484534582E+00
    0.3700000000E+04    0.6245915286E+00    0.1125494446E+00    0.1606113755E-01    0.3305419531E-01    0.4526464607E+00
    0.3900000000E+04    0.6256815049E+00    0.1113056469E+00    0.1584688534E-01    0.3311467897E-01    0.4565799770E+00
    0.4100000000E+04    0.6266658355E+00    0.1101059656E+00    0.1564150387E-01    0.3316945275E-01    0.4602817411E+00
    0.4300000000E+04    0.6275591015E+00    0.1089482846E+00    0.1544442761E-01    0.3321929781E-01    0.4637753500E+00
    0.4500000000E+04    0.6283733270E+00    0.1078305168E+00    0.1525513078E-01    0.3326485889E-01    0.4670810414E+00
    0.4700000000E+04    0.6291185144E+00    0.1067506383E+00    0.1507312640E-01    0.3330667285E-01    0.4702162977E+00
    0.4900000000E+04    0.6298030516E+00    0.1057067088E+00    0.1489796432E-01    0.3334519031E-01    0.4731963211E+00
    0.1000000000E+04    0.5698520080E+00    0.1323389485E+00    0.1995364936E-01    0.3009919175E-01    0.3428112702E+00
    0.3000000000E+04    0.6196449099E+00    0.1172788406E+00    0.1688990500E-01    0.3278150588E-01    0.4366034580E+00
    0.5000000000E+04    0.6301248344E+00    0.1051976443E+00    0.1481281798E-01    0.3336333427E-01    0.4746323419E+00
    0.7000000000E+04    0.6346308147E+00    0.9650891506E-01    0.1338403643E-01    0.3362071938E-01    0.4977046720E+00
    0.9000000000E+04    0.6371317668E+00    0.8988940007E-01    0.1232267204E-01    0.3376757041E-01    0.5138768834E+00
    0.1100000000E+05    0.6387204439E+00    0.8461479274E-01    0.1149166639E-01    0.3386339518E-01    0.5261229106E+00
    0.1300000000E+05    0.6398181301E+00    0.8027180219E-01    0.1081656066E-01    0.3393136465E-01    0.5358589731E+00
    0.1500000000E+05    0.6406215000E+00    0.7660685989E-01    0.1025300737E-01    0.3398240173E-01    0.5438652181E+00
    0.1700000000E+05    0.6412346397E+00    0.7345463715E-01    0.9772687913E-02    0.3402234278E-01    0.5506146140E+00
    0.1900000000E+05    0.6417177710E+00    0.7070197614E-01    0.9356525687E-02    0.3405459668E-01    0.5564141762E+00
    0.2100000000E+05    0.6421081456E+00    0.6826834602E-01    0.8991117044E-02    0.3408129187E-01    0.5614737061E+00
    0.2300000000E+05    0.6424300380E+00    0.6609458140E-01    0.8666718883E-02    0.3410382826E-01    0.5659424477E+00
    0.2500000000E+05    0.6426999413E+00    0.6413605028E-01    0.8376048169E-02    0.3412316577E-01    0.5699300530E+00
    0.2700000000E+05    0.6429294520E+00    0.6235832677E-01    0.8113531844E-02    0.3413998551E-01    0.5735192544E+00
    0.2900000000E+05    0.6431269608E+00    0.6073434852E-01    0.7874819705E-02    0.3415478475E-01    0.5767738792E+00
    0.3100000000E+05    0.6432986881E+00    0.5924249047E-01    0.7656457504E-02    0.3416793548E-01    0.5797441110E+00
    0.3300000000E+05    0.6434493426E+00    0.5786522398E-01    0.7455661334E-02    0.3417972178E-01    0.5824700553E+00
    0.3500000000E+05    0.6435825540E+00    0.5658816140E-01    0.7270158083E-02    0.3419036457E-01    0.5849842218E+00
    0.3700000000E+05    0.6437011649E+00    0.5539936114E-01    0.7098070164E-02    0.3420003840E-01    0.5873132942E+00
    0.3900000000E+05    0.6438074333E+00    0.5428881297E-01    0.6937830664E-02    0.3420888312E-01    0.5894794177E+00
    0.4100000000E+05    0.6439031753E+00    0.5324805055E-01    0.6788119826E-02    0.3421701219E-01    0.5915011535E+00
    0.4300000000E+05    0.6439898681E+00    0.5226985543E-01    0.6647816778E-02    0.3422451866E-01    0.5933941969E+00
    0.4500000000E+05    0.6440687253E+00    0.5134802803E-01    0.6515962359E-02    0.3423147967E-01    0.5951719269E+00
    0.4700000000E+05    0.6441407534E+00    0.5047720832E-01    0.6391730132E-02    0.3423795971E-01    0.5968458309E+00
    0.4900000000E+05    0.6442067940E+00    0.4965273373E-01    0.6274403532E-02    0.3424401315E-01    0.5984258379E+00
    0.1000000000E+05    0.6380059177E+00    0.8711477782E-01    0.1188398064E-01    0.3381998364E-01    0.5203811214E+00
    0.3000000000E+05    0.6432157233E+00    0.5997308331E-01    0.7763282439E-02    0.3416154670E-01    0.5782918347E+00
    0.5000000000E+05    0.6442377950E+00    0.4925658112E-01    0.6218131403E-02    0.3424689462E-01    0.5991833726E+00
    0.7000000000E+05    0.6446685374E+00    0.4300052112E-01    0.5338473476E-02    0.3429040005E-01    0.6110106232E+00
    0.9000000000E+05    0.6449039692E+00    0.3874610284E-01    0.4750302195E-02    0.3431837382E-01    0.6189158516E+00
    0.1100000000E+06    0.6450513735E+00    0.3560017037E-01    0.4320911871E-02    0.3433858564E-01    0.6246941218E+00
    0.1300000000E+06    0.6451517662E+00    0.3314643181E-01    0.3989433804E-02    0.3435424383E-01    0.6291629256E+00
    0.1500000000E+06    0.6452241794E+00    0.3116025820E-01    0.3723424464E-02    0.3436694655E-01    0.6327564359E+00
    0.1700000000E+06    0.6452786334E+00    0.2950799583E-01    0.3503771672E-02    0.3437759285E-01    0.6357299519E+00
    0.1900000000E+06    0.6453208981E+00    0.2810432835E-01    0.3318377571E-02    0.3438673376E-01    0.6382449383E+00
    0.2100000000E+06    0.6453545259E+00    0.2689182010E-01    0.3159156812E-02    0.3439472919E-01    0.6404092782E+00
    0.2300000000E+06    0.6453818215E+00    0.2583015778E-01    0.3020470659E-02    0.3440182614E-01    0.6422982172E+00
    0.2500000000E+06    0.6454043435E+00    0.2489007808E-01    0.2898249343E-02    0.3440820086E-01    0.6439660835E+00
    0.2700000000E+06    0.6454231830E+00    0.2404974169E-01    0.2789471273E-02    0.3441398325E-01    0.6454532338E+00
    0.2900000000E+06    0.6454391258E+00    0.2329246641E-01    0.2691839255E-02    0.3441927158E-01    0.6467903689E+00
    0.3100000000E+06    0.6454527519E+00    0.2260525464E-01    0.2603571234E-02    0.3442414190E-01    0.6480013221E+00
    0.3300000000E+06    0.6454644982E+00    0.2197780534E-01    0.2523260536E-02    0.3442865422E-01    0.6491049205E+00
    0.3500000000E+06    0.6454747000E+00    0.2140183237E-01    0.2449779864E-02    0.3443285663E-01    0.6501162641E+00
    0.3700000000E+06    0.6454836187E+00    0.2087058283E-01    0.2382213718E-02    0.3443678829E-01    0.6510476257E+00
    0.3900000000E+06    0.6454914610E+00    0.2037848927E-01    0.2319809786E-02    0.3444048144E-01    0.6519090993E+00
    0.4100000000E+06    0.6454983923E+00    0.1992091401E-01    0.2261943333E-02    0.3444396297E-01    0.6527090737E+00
    0.4300000000E+06    0.6455045464E+00    0.1949395787E-01    0.2208090639E-02    0.3444725549E-01    0.6534545876E+00
    0.4500000000E+06    0.6455100328E+00    0.1909431508E-01    0.2157808920E-02    0.3445037822E-01    0.6541515967E+00
    0.4700000000E+06    0.6455149420E+00    0.1871916156E-01    0.2110720908E-02    0.3445334762E-01    0.6548051798E+00
    0.4900000000E+06    0.6455193490E+00    0.1836606802E-01    0.2066502889E-02    0.3445617789E-01    0.6554196982E+00
    0.1000000000E+06    0.6449853373E+00    0.3706697212E-01    0.4520514152E-02    0.3432919389E-01    0.6220069172E+00
    0.3000000000E+06    0.6454461984E+00    0.2294080043E-01    0.2646630167E-02    0.3442175492E-01    0.6474103415E+00
    0.5000000000E+06    0.6455213844E+00    0.1819712538E-01    0.2045381255E-02    0.3445754476E-01    0.6557135065E+00
    0.7000000000E+06    0.6455467487E+00    0.1558817635E-01    0.1722225652E-02    0.3447986988E-01    0.6602328867E+00
    0.9000000000E+06    0.6455570794E+00    0.1387360546E-01    0.1513173980E-02    0.3449610275E-01    0.6631846279E+00
    0.1100000000E+07    0.6455612717E+00    0.1263457568E-01    0.1363913046E-02    0.3450885788E-01    0.6653085384E+00
    0.1300000000E+07    0.6455625285E+00    0.1168430752E-01    0.1250550840E-02    0.3451936342E-01    0.6669321887E+00
    0.1500000000E+07    0.6455622445E+00    0.1092507556E-01    0.1160719568E-02    0.3452829443E-01    0.6682260969E+00
    0.1700000000E+07    0.6455611059E+00    0.1030006743E-01    0.1087292275E-02    0.3453606168E-01    0.6692890054E+00
    0.1900000000E+07    0.6455594797E+00    0.9773676503E-02    0.1025835599E-02    0.3454293372E-01    0.6701826053E+00
    0.2100000000E+07    0.6455575746E+00    0.9322288505E-02    0.9734285181E-03    0.3454909574E-01    0.6709477032E+00
    0.2300000000E+07    0.6455555145E+00    0.8929535553E-02    0.9280580947E-03    0.3455468085E-01    0.6716125204E+00
    0.2500000000E+07    0.6455533754E+00    0.8583662839E-02    0.8882862394E-03    0.3455978793E-01    0.6721972855E+00
    0.2700000000E+07    0.6455512053E+00    0.8275978826E-02    0.8530546571E-03    0.3456449243E-01    0.6727169302E+00
    0.2900000000E+07    0.6455490344E+00    0.7999898328E-02    0.8215650032E-03    0.3456885324E-01    0.6731827505E+00
    0.3100000000E+07    0.6455468823E+00    0.7750327628E-02    0.7932022216E-03    0.3457291722E-01    0.6736034722E+00
    0.3300000000E+07    0.6455447613E+00    0.7523255858E-02    0.7674838088E-03    0.3457672224E-01    0.6739859576E+00
    0.3500000000E+07    0.6455426793E+00    0.7315475502E-02    0.7440252430E-03    0.3458029937E-01    0.6743356885E+00
    0.3700000000E+07    0.6455406409E+00    0.7124386387E-02    0.7225158260E-03    0.3458367439E-01    0.6746571042E+00
    0.3900000000E+07    0.6455386486E+00    0.6947855176E-02    0.7027014235E-03    0.3458686894E-01    0.6749538433E+00
    0.4100000000E+07    0.6455367037E+00    0.6784112698E-02    0.6843718921E-03    0.3458990137E-01    0.6752289209E+00
    0.4300000000E+07    0.6455348064E+00    0.6631677611E-02    0.6673517599E-03    0.3459278736E-01    0.6754848593E+00
    0.4500000000E+07    0.6455329562E+00    0.6489298780E-02    0.6514932097E-03    0.3459554042E-01    0.6757237874E+00
    0.4700000000E+07    0.6455311523E+00    0.6355911161E-02    0.6366707228E-03    0.3459817227E-01    0.6759475160E+00
    0.4900000000E+07    0.6455293936E+00    0.6230601613E-02    0.6227769376E-03    0.3460069315E-01    0.6761575966E+00
    0.1000000000E+07    0.6455596781E+00    0.1320932495E-01    0.1432953108E-02    0.3450281988E-01    0.6643242812E+00
    0.3000000000E+07    0.6455479551E+00    0.7872071542E-02    0.8070255496E-03    0.3457091979E-01    0.6733982827E+00
    0.5000000000E+07    0.6455285307E+00    0.6170725577E-02    0.6161489107E-03    0.3460191483E-01    0.6762579444E+00
    0.7000000000E+07    0.6455132973E+00    0.5252558240E-02    0.5154317171E-03    0.3462222657E-01    0.6777939032E+00
    0.9000000000E+07    0.6455010469E+00    0.4655646901E-02    0.4509602386E-03    0.3463736477E-01    0.6787894929E+00
    0.1100000000E+08    0.6454908531E+00    0.4227416162E-02    0.4052530161E-03    0.3464943901E-01    0.6795022217E+00
    0.1300000000E+08    0.6454821396E+00    0.3900731476E-02    0.3707184544E-03    0.3465948438E-01    0.6800450471E+00
    0.1500000000E+08    0.6454745366E+00    0.3640795311E-02    0.3434619980E-03    0.3466808635E-01    0.6804763852E+00
    0.1700000000E+08    0.6454677957E+00    0.3427521064E-02    0.3212546276E-03    0.3467560859E-01    0.6808298965E+00
    0.1900000000E+08    0.6454617424E+00    0.3248390056E-02    0.3027172204E-03    0.3468229252E-01    0.6811265287E+00
    0.2100000000E+08    0.6454562502E+00    0.3095137948E-02    0.2869451110E-03    0.3468830665E-01    0.6813800936E+00
    0.2300000000E+08    0.6454512242E+00    0.2962058462E-02    0.2733171786E-03    0.3469377328E-01    0.6816001178E+00
    0.2500000000E+08    0.6454465917E+00    0.2845067035E-02    0.2613910829E-03    0.3469878398E-01    0.6817934138E+00
    0.2700000000E+08    0.6454422958E+00    0.2741152156E-02    0.2508421978E-03    0.3470340910E-01    0.6819650005E+00
