  Pressure (Pa) 22mC5-400 (mol/kg) 2mC6-400 (mol/kg) 33mC5-400 (mol/kg) 23mC5-400 (mol/kg) C7-400 (mol/kg)
    0.1000000000E+01    0.5267785009E-02    0.3175781913E-02    0.1939136836E-03    0.1849939380E-03    0.1717647251E-02
    0.3000000000E+01    0.1545708660E-01    0.9301208541E-02    0.5678497651E-03    0.5428310122E-03    0.5086245532E-02
    0.5000000000E+01    0.2521319664E-01    0.1514263459E-01    0.9243352078E-03    0.8854669136E-03    0.8369004025E-02
    0.7000000000E+01    0.3456735938E-01    0.2071935521E-01    0.1264550255E-02    0.1213997840E-02    0.1156944787E-01
    0.9000000000E+01    0.4354780690E-01    0.2604890336E-01    0.1589567733E-02    0.1529414321E-02    0.1469090821E-01
    0.1100000000E+02    0.5218011296E-01    0.3114725114E-01    0.1900365299E-02    0.1832613625E-02    0.1773653538E-01
    0.1300000000E+02    0.6048749844E-01    0.3602898380E-01    0.2197836035E-02    0.2124410480E-02    0.2070931118E-01
    0.1500000000E+02    0.6849109574E-01    0.4070745071E-01    0.2482797633E-02    0.2405546345E-02    0.2361206000E-01
    0.1700000000E+02    0.7621017853E-01    0.4519489674E-01    0.2756000390E-02    0.2676697467E-02    0.2644745922E-01
    0.1900000000E+02    0.8366236194E-01    0.4950257696E-01    0.3018134196E-02    0.2938481911E-02    0.2921804864E-01
    0.2100000000E+02    0.9086377754E-01    0.5364085714E-01    0.3269834649E-02    0.3191465689E-02    0.3192623935E-01
    0.2300000000E+02    0.9782922673E-01    0.5761930210E-01    0.3511688438E-02    0.3436168150E-02    0.3457432179E-01
    0.2500000000E+02    0.1045723155E+00    0.6144675349E-01    0.3744238077E-02    0.3673066702E-02    0.3716447327E-01
    0.2700000000E+02    0.1111055734E+00    0.6513139857E-01    0.3967986101E-02    0.3902600982E-02    0.3969876493E-01
    0.2900000000E+02    0.1174405582E+00    0.6868083113E-01    0.4183398774E-02    0.4125176538E-02    0.4217916820E-01
    0.3100000000E+02    0.1235879490E+00    0.7210210567E-01    0.4390909391E-02    0.4341168092E-02    0.4460756076E-01
    0.3300000000E+02    0.1295576289E+00    0.7540178556E-01    0.4590921215E-02    0.4550922430E-02    0.4698573206E-01
    0.3500000000E+02    0.1353587580E+00    0.7858598607E-01    0.4783810099E-02    0.4754760981E-02    0.4931538856E-01
    0.3700000000E+02    0.1409998395E+00    0.8166041291E-01    0.4969926839E-02    0.4952982112E-02    0.5159815845E-01
    0.3900000000E+02    0.1464887774E+00    0.8463039674E-01    0.5149599276E-02    0.5145863180E-02    0.5383559617E-01
    0.4100000000E+02    0.1518329294E+00    0.8750092418E-01    0.5323134189E-02    0.5333662370E-02    0.5602918658E-01
    0.4300000000E+02    0.1570391536E+00    0.9027666576E-01    0.5490819001E-02    0.5516620339E-02    0.5818034879E-01
    0.4500000000E+02    0.1621138511E+00    0.9296200115E-01    0.5652923319E-02    0.5694961702E-02    0.6029043984E-01
    0.4700000000E+02    0.1670630035E+00    0.9556104190E-01    0.5809700320E-02    0.5868896362E-02    0.6236075810E-01
    0.4900000000E+02    0.1718922074E+00    0.9807765210E-01    0.5961388016E-02    0.6038620712E-02    0.6439254637E-01
    0.1000000000E+02    0.4790597444E-01    0.2862603509E-01    0.1746686319E-02    0.1682488380E-02    0.1622301076E-01
    0.3000000000E+02    0.1205370674E+00    0.7040706696E-01    0.4288115964E-02    0.4233973018E-02    0.4339975197E-01
    0.5000000000E+02    0.1742634801E+00    0.9930619026E-01    0.6035393890E-02    0.6121961970E-02    0.6539436569E-01
    0.7000000000E+02    0.2165041444E+00    0.1203274923E+00    0.7296296916E-02    0.7606786090E-02    0.8367220107E-01
    0.9000000000E+02    0.2510906008E+00    0.1361715850E+00    0.8237427854E-02    0.8822904222E-02    0.9918476959E-01
    0.1100000000E+03    0.2802227605E+00    0.1484354935E+00    0.8957557267E-02    0.9847521822E-02    0.1125781234E+00
    0.1300000000E+03    0.3052691488E+00    0.1581273009E+00    0.9519157677E-02    0.1072866973E-01    0.1243071652E+00
    0.1500000000E+03    0.3271363257E+00    0.1659152449E+00    0.9963703438E-02    0.1149816703E-01    0.1347020368E+00
    0.1700000000E+03    0.3464558731E+00    0.1722595150E+00    0.1031978480E-01    0.1217818267E-01    0.1440085347E+00
    0.1900000000E+03    0.3636862182E+00    0.1774869067E+00    0.1060771418E-01    0.1278480873E-01    0.1524137037E+00
    0.2100000000E+03    0.3791715033E+00    0.1818354416E+00    0.1084228525E-01    0.1333012631E-01    0.1600626004E+00
    0.2300000000E+03    0.3931773730E+00    0.1854822235E+00    0.1103449887E-01    0.1382346148E-01    0.1670695969E+00
    0.2500000000E+03    0.4059136847E+00    0.1885614621E+00    0.1119268204E-01    0.1427218232E-01    0.1735261973E+00
    0.2700000000E+03    0.4175494671E+00    0.1911764930E+00    0.1132323546E-01    0.1468222383E-01    0.1795065655E+00
    0.2900000000E+03    0.4282230993E+00    0.1934080030E+00    0.1143114586E-01    0.1505844524E-01    0.1850715127E+00
    0.3100000000E+03    0.4380494424E+00    0.1953197835E+00    0.1152034502E-01    0.1540488024E-01    0.1902714240E+00
    0.3300000000E+03    0.4471249624E+00    0.1969628362E+00    0.1159396621E-01    0.1572491682E-01    0.1951484420E+00
    0.3500000000E+03    0.4555314983E+00    0.1983783508E+00    0.1165453041E-01    0.1602142946E-01    0.1997381182E+00
    0.3700000000E+03    0.4633390880E+00    0.1995999011E+00    0.1170408378E-01    0.1629687840E-01    0.2040706800E+00
    0.3900000000E+03    0.4706081280E+00    0.2006550838E+00    0.1174430028E-01    0.1655338533E-01    0.2081720123E+00
    0.4100000000E+03    0.4773910493E+00    0.2015667592E+00    0.1177655943E-01    0.1679279233E-01    0.2120644280E+00
    0.4300000000E+03    0.4837336386E+00    0.2023540001E+00    0.1180200572E-01    0.1701670814E-01    0.2157672784E+00
    0.4500000000E+03    0.4896760920E+00    0.2030328247E+00    0.1182159459E-01    0.1722654520E-01    0.2192974408E+00
    0.4700000000E+03    0.4952538651E+00    0.2036167691E+00    0.1183612823E-01    0.1742354950E-01    0.2226697119E+00
    0.4900000000E+03    0.5004983670E+00    0.2041173378E+00    0.1184628379E-01    0.1760882491E-01    0.2258971270E+00
    0.1000000000E+03    0.2662390304E+00    0.1426779657E+00    0.8620590315E-02    0.9355660719E-02    0.1061143793E+00
    0.3000000000E+03    0.4332357713E+00    0.1944004115E+00    0.1147787226E-01    0.1523516090E-01    0.1877142923E+00
    0.5000000000E+03    0.5030044927E+00    0.2043394854E+00    0.1184990280E-01    0.1769737538E-01    0.2274601712E+00
    0.7000000000E+03    0.5410126363E+00    0.2061708746E+00    0.1179410506E-01    0.1904182815E-01    0.2533245101E+00
    0.9000000000E+03    0.5645887874E+00    0.2054314620E+00    0.1162656571E-01    0.1987775612E-01    0.2724332344E+00
    0.1100000000E+04    0.5804930562E+00    0.2036943280E+00    0.1142814999E-01    0.2044303593E-01    0.2875771221E+00
    0.1300000000E+04    0.5918791032E+00    0.2015445686E+00    0.1122514098E-01    0.2084873110E-01    0.3001195328E+00
    0.1500000000E+04    0.6004000422E+00    0.1992362171E+00    0.1102709376E-01    0.2115310722E-01    0.3108243048E+00
    0.1700000000E+04    0.6069992177E+00    0.1968901584E+00    0.1083750087E-01    0.2138944031E-01    0.3201613801E+00
    0.1900000000E+04    0.6122512346E+00    0.1945668379E+00    0.1065742177E-01    0.2157801576E-01    0.3284402323E+00
    0.2100000000E+04    0.6165247096E+00    0.1922968837E+00    0.1048688697E-01    0.2173185757E-01    0.3358754538E+00
    0.2300000000E+04    0.6200663032E+00    0.1900953387E+00    0.1032549135E-01    0.2185968798E-01    0.3426219872E+00
    0.2500000000E+04    0.6230469475E+00    0.1879687780E+00    0.1017265986E-01    0.2196755641E-01    0.3487954040E+00
    0.2700000000E+04    0.6255886420E+00    0.1859190712E+00    0.1002777034E-01    0.2205978410E-01    0.3544842406E+00
    0.2900000000E+04    0.6277806822E+00    0.1839454566E+00    0.9890210457E-02    0.2213953664E-01    0.3597578505E+00
    0.3100000000E+04    0.6296898639E+00    0.1820457217E+00    0.9759402920E-02    0.2220918395E-01    0.3646715952E+00
    0.3300000000E+04    0.6313671086E+00    0.1802168893E+00    0.9634815298E-02    0.2227053432E-01    0.3692703876E+00
    0.3500000000E+04    0.6328518895E+00    0.1784556233E+00    0.9515962151E-02    0.2232499066E-01    0.3735911782E+00
    0.3700000000E+04    0.6341752604E+00    0.1767584693E+00    0.9402403512E-02    0.2237365765E-01    0.3776647413E+00
    0.3900000000E+04    0.6353619761E+00    0.1751219953E+00    0.9293741708E-02    0.2241741663E-01    0.3815169857E+00
    0.4100000000E+04    0.6364320045E+00    0.1735428744E+00    0.9189617593E-02    0.2245697914E-01    0.3851699341E+00
    0.4300000000E+04    0.6374016256E+00    0.1720179292E+00    0.9089706695E-02    0.2249292583E-01    0.3886424673E+00
    0.4500000000E+04    0.6382842412E+00    0.1705441542E+00    0.8993715539E-02    0.2252573509E-01    0.3919508974E+00
    0.4700000000E+04    0.6390909815E+00    0.1691187239E+00    0.8901378279E-02    0.2255580460E-01    0.3951094159E+00
    0.4900000000E+04    0.6398311653E+00    0.1677389928E+00    0.8812453651E-02    0.2258346760E-01    0.3981304476E+00
    0.1000000000E+04    0.5732530339E+00    0.2046393488E+00    0.1152896475E-01    0.2018553480E-01    0.2803958797E+00
    0.3000000000E+04    0.6287671359E+00    0.1829865281E+00    0.9823997023E-02    0.2217549939E-01    0.3622566873E+00
    0.5000000000E+04    0.6401788036E+00    0.1670654857E+00    0.8769201729E-02    0.2259648631E-01    0.3995928765E+00
    0.7000000000E+04    0.6450252726E+00    0.1554787309E+00    0.8039373552E-02    0.2278027656E-01    0.4237062046E+00
    0.9000000000E+04    0.6476964820E+00    0.1465025082E+00    0.7489887225E-02    0.2288433519E-01    0.4413431916E+00
    0.1100000000E+05    0.6493858357E+00    0.1392367452E+00    0.7053762881E-02    0.2295189576E-01    0.4551342859E+00
    0.1300000000E+05    0.6505496050E+00    0.1331697664E+00    0.6694982198E-02    0.2299964709E-01    0.4663836472E+00
    0.1500000000E+05    0.6513995492E+00    0.1279858548E+00    0.6392070484E-02    0.2303540800E-01    0.4758330829E+00
    0.1700000000E+05    0.6520472483E+00    0.1234774187E+00    0.6131245468E-02    0.2306333692E-01    0.4839444433E+00
    0.1900000000E+05    0.6525570416E+00    0.1195010660E+00    0.5903161463E-02    0.2308585392E-01    0.4910244206E+00
    0.2100000000E+05    0.6529686208E+00    0.1159538101E+00    0.5701205009E-02    0.2310446564E-01    0.4972867910E+00
    0.2300000000E+05    0.6533077939E+00    0.1127593134E+00    0.5520533985E-02    0.2312016065E-01    0.5028863184E+00
    0.2500000000E+05    0.6535920643E+00    0.1098595004E+00    0.5357503127E-02    0.2313361543E-01    0.5079385121E+00
    0.2700000000E+05    0.6538337202E+00    0.1072092143E+00    0.5209303836E-02    0.2314530917E-01    0.5125317726E+00
    0.2900000000E+05    0.6540416412E+00    0.1047726862E+00    0.5073729290E-02    0.2315559122E-01    0.5167351903E+00
    0.3100000000E+05    0.6542224032E+00    0.1025211278E+00    0.4949016094E-02    0.2316472255E-01    0.5206037375E+00
    0.3300000000E+05    0.6543809791E+00    0.1004310444E+00    0.4833734484E-02    0.2317290224E-01    0.5241818322E+00
    0.3500000000E+05    0.6545211990E+00    0.9848302692E-01    0.4726710304E-02    0.2318028498E-01    0.5275058491E+00
    0.3700000000E+05    0.6546460608E+00    0.9666086721E-01    0.4626968373E-02    0.2318699284E-01    0.5306059293E+00
    0.3900000000E+05    0.6547579438E+00    0.9495089937E-01    0.4533690600E-02    0.2319312358E-01    0.5335073108E+00
    0.4100000000E+05    0.6548587609E+00    0.9334150120E-01    0.4446184480E-02    0.2319875642E-01    0.5362313242E+00
    0.4300000000E+05    0.6549500672E+00    0.9182271129E-01    0.4363859051E-02    0.2320395632E-01    0.5387961491E+00
    0.4500000000E+05    0.6550331399E+00    0.9038593125E-01    0.4286206290E-02    0.2320877709E-01    0.5412173973E+00
    0.4700000000E+05    0.6551090376E+00    0.8902369130E-01    0.4212786550E-02    0.2321326369E-01    0.5435085681E+00
    0.4900000000E+05    0.6551786452E+00    0.8772946382E-01    0.4143217027E-02    0.2321745400E-01    0.5456814071E+00
    0.1000000000E+05    0.6486267628E+00    0.1426939027E+00    0.7260368054E-02    0.2292132307E-01    0.4486195927E+00
    0.3000000000E+05    0.6541350750E+00    0.1036253622E+00    0.5010111164E-02    0.2316028707E-01    0.5187083327E+00
    0.5000000000E+05    0.6552113279E+00    0.8710603505E-01    0.4109769706E-02    0.2321944829E-01    0.5467267150E+00
    0.7000000000E+05    0.6556661797E+00    0.7712240637E-01    0.3579883140E-02    0.2324953646E-01    0.5633536396E+00
    0.9000000000E+05    0.6559158413E+00    0.7017824433E-01    0.3217804844E-02    0.2326886349E-01    0.5748031423E+00
    0.1100000000E+06    0.6560729163E+00    0.6495867124E-01    0.2949264800E-02    0.2328282016E-01    0.5833524955E+00
    0.1300000000E+06    0.6561804586E+00    0.6083574345E-01    0.2739409600E-02    0.2329362884E-01    0.5900733763E+00
    0.1500000000E+06    0.6562584603E+00    0.5746427401E-01    0.2569333644E-02    0.2330239548E-01    0.5955491074E+00
    0.1700000000E+06    0.6563174580E+00    0.5463579389E-01    0.2427741663E-02    0.2330974179E-01    0.6001294326E+00
    0.1900000000E+06    0.6563635260E+00    0.5221557439E-01    0.2307399570E-02    0.2331604865E-01    0.6040391174E+00
    0.2100000000E+06    0.6564004096E+00    0.5011195801E-01    0.2203424185E-02    0.2332156473E-01    0.6074303819E+00
    0.2300000000E+06    0.6564305419E+00    0.4826002495E-01    0.2112380448E-02    0.2332646065E-01    0.6104106383E+00
    0.2500000000E+06    0.6564555710E+00    0.4661227322E-01    0.2031770232E-02    0.2333085813E-01    0.6130582312E+00
    0.2700000000E+06    0.6564766526E+00    0.4513300043E-01    0.1959726279E-02    0.2333484684E-01    0.6154318837E+00
    0.2900000000E+06    0.6564946202E+00    0.4379476158E-01    0.1894820386E-02    0.2333849464E-01    0.6175766294E+00
    0.3100000000E+06    0.6565100902E+00    0.4257605065E-01    0.1835938554E-02    0.2334185403E-01    0.6195276825E+00
    0.3300000000E+06    0.6565235276E+00    0.4145973435E-01    0.1782197060E-02    0.2334496642E-01    0.6213130444E+00
    0.3500000000E+06    0.6565352901E+00    0.4043196485E-01    0.1732884464E-02    0.2334786500E-01    0.6229553089E+00
    0.3700000000E+06    0.6565456569E+00    0.3948140697E-01    0.1687420562E-02    0.2335057680E-01    0.6244729418E+00
    0.3900000000E+06    0.6565548490E+00    0.3859867743E-01    0.1645326723E-02    0.2335312406E-01    0.6258812077E+00
    0.4100000000E+06    0.6565630440E+00    0.3777593042E-01    0.1606204043E-02    0.2335552533E-01    0.6271928537E+00
    0.4300000000E+06    0.6565703857E+00    0.3700654632E-01    0.1569716997E-02    0.2335779623E-01    0.6284186221E+00
    0.4500000000E+06    0.6565769918E+00    0.3628489442E-01    0.1535581016E-02    0.2335995001E-01    0.6295676404E+00
    0.4700000000E+06    0.6565829598E+00    0.3560614968E-01    0.1503552924E-02    0.2336199802E-01    0.6306477221E+00
    0.4900000000E+06    0.6565883710E+00    0.3496614949E-01    0.1473423483E-02    0.2336395005E-01    0.6316656016E+00
    0.1000000000E+06    0.6560024492E+00    0.6740147041E-01    0.3074550452E-02    0.2327633568E-01    0.5793571529E+00
    0.3000000000E+06    0.6565026354E+00    0.4317162385E-01    0.1864686312E-02    0.2334020758E-01    0.6185744726E+00
    0.5000000000E+06    0.6565908896E+00    0.3465953058E-01    0.1459013180E-02    0.2336489278E-01    0.6321530713E+00
    0.7000000000E+06    0.6566240003E+00    0.2989108339E-01    0.1237031148E-02    0.2338029021E-01    0.6397185071E+00
    0.9000000000E+06    0.6566398147E+00    0.2672259594E-01    0.1091879692E-02    0.2339148574E-01    0.6447294978E+00
    0.1100000000E+07    0.6566482447E+00    0.2441540424E-01    0.9874715370E-03    0.2340028273E-01    0.6483703571E+00
    0.1300000000E+07    0.6566529522E+00    0.2263582565E-01    0.9077340377E-03    0.2340752824E-01    0.6511740253E+00
    0.1500000000E+07    0.6566555775E+00    0.2120763990E-01    0.8442723097E-03    0.2341368783E-01    0.6534211861E+00
    0.1700000000E+07    0.6566569531E+00    0.2002766337E-01    0.7922152618E-03    0.2341904481E-01    0.6552758498E+00
    0.1900000000E+07    0.6566575402E+00    0.1903085151E-01    0.7485158994E-03    0.2342378439E-01    0.6568412335E+00
    0.2100000000E+07    0.6566576116E+00    0.1817385935E-01    0.7111573539E-03    0.2342803429E-01    0.6581860256E+00
    0.2300000000E+07    0.6566573370E+00    0.1742652043E-01    0.6787443033E-03    0.2343188631E-01    0.6593579756E+00
    0.2500000000E+07    0.6566568261E+00    0.1676709402E-01    0.6502765202E-03    0.2343540864E-01    0.6603914616E+00
    0.2700000000E+07    0.6566561521E+00    0.1617945542E-01    0.6250157511E-03    0.2343865332E-01    0.6613119590E+00
    0.2900000000E+07    0.6566553651E+00    0.1565135437E-01    0.6024036186E-03    0.2344166097E-01    0.6621388072E+00
    0.3100000000E+07    0.6566545004E+00    0.1517329201E-01    0.5820089308E-03    0.2344446390E-01    0.6628869914E+00
    0.3300000000E+07    0.6566535829E+00    0.1473777239E-01    0.5634927076E-03    0.2344708823E-01    0.6635683297E+00
    0.3500000000E+07    0.6566526306E+00    0.1433878898E-01    0.5465842866E-03    0.2344955538E-01    0.6641922868E+00
    0.3700000000E+07    0.6566516567E+00    0.1397146370E-01    0.5310645855E-03    0.2345188315E-01    0.6647665451E+00
    0.3900000000E+07    0.6566506709E+00    0.1363178762E-01    0.5167541186E-03    0.2345408644E-01    0.6652974151E+00
    0.4100000000E+07    0.6566496804E+00    0.1331643099E-01    0.5035042486E-03    0.2345617793E-01    0.6657901361E+00
    0.4300000000E+07    0.6566486905E+00    0.1302260181E-01    0.4911906908E-03    0.2345816841E-01    0.6662490993E+00
    0.4500000000E+07    0.6566477052E+00    0.1274793882E-01    0.4797086142E-03    0.2346006722E-01    0.6666780171E+00
    0.4700000000E+07    0.6566467275E+00    0.1249042947E-01    0.4689688952E-03    0.2346188243E-01    0.6670800525E+00
    0.4900000000E+07    0.6566457595E+00    0.1224834628E-01    0.4588952172E-03    0.2346362109E-01    0.6674579195E+00
    0.1000000000E+07    0.6566446521E+00    0.2548748327E-01    0.1035846245E-02    0.2339611843E-01    0.6466794008E+00
    0.3000000000E+07    0.6566549407E+00    0.1540657687E-01    0.5919521192E-03    0.2344308627E-01    0.6625219304E+00
    0.5000000000E+07    0.6566452797E+00    0.1213261505E-01    0.4540872273E-03    0.2346446370E-01    0.6676385351E+00
    0.7000000000E+07    0.6566363973E+00    0.1035323524E-01    0.3808382998E-03    0.2347847294E-01    0.6704131139E+00
    0.9000000000E+07    0.6566288626E+00    0.9191674943E-02    0.3337612827E-03    0.2348891398E-01    0.6722218211E+00
    0.1100000000E+08    0.6566224214E+00    0.8356028650E-02    0.3002947718E-03    0.2349724179E-01    0.6735217555E+00
    0.1300000000E+08    0.6566168248E+00    0.7717222636E-02    0.2749578380E-03    0.2350417026E-01    0.6745147337E+00
    0.1500000000E+08    0.6566118878E+00    0.7208121203E-02    0.2549292436E-03    0.2351010321E-01    0.6753056135E+00
    0.1700000000E+08    0.6566074759E+00    0.6789867739E-02    0.2385901313E-03    0.2351529144E-01    0.6759550330E+00
    0.1900000000E+08    0.6566034906E+00    0.6438194084E-02    0.2249368441E-03    0.2351990147E-01    0.6765008377E+00
    0.2100000000E+08    0.6565998579E+00    0.6137051383E-02    0.2133099023E-03    0.2352404954E-01    0.6769680409E+00
    0.2300000000E+08    0.6565965212E+00    0.5875342065E-02    0.2032558805E-03    0.2352781998E-01    0.6773739304E+00
    0.2500000000E+08    0.6565934363E+00    0.5645112434E-02    0.1944514714E-03    0.2353127595E-01    0.6777308910E+00
    0.2700000000E+08    0.6565905683E+00    0.5440491839E-02    0.1866591528E-03    0.2353446598E-01    0.6780480605E+00
