  Pressure (Pa) 22mC5-400 (mol/kg) 2mC6-400 (mol/kg) 33mC5-400 (mol/kg) 23mC5-400 (mol/kg) C7-400 (mol/kg)
    0.1000000000E+01    0.5279527666E-02    0.7933082103E-03    0.2583577265E-03    0.1854061249E-03    0.5141611078E-02
    0.3000000000E+01    0.1555730288E-01    0.2319454032E-02    0.7553489294E-03    0.5463488268E-03    0.1515962754E-01
    0.5000000000E+01    0.2547745190E-01    0.3769166827E-02    0.1227403252E-02    0.8947430041E-03    0.2483931879E-01
    0.7000000000E+01    0.3505951903E-01    0.5147143497E-02    0.1676046220E-02    0.1231274268E-02    0.3419792699E-01
    0.9000000000E+01    0.4432162875E-01    0.6457727876E-02    0.2102688949E-02    0.1556578427E-02    0.4325153582E-01
    0.1100000000E+02    0.5328061186E-01    0.7704942288E-02    0.2508638365E-02    0.1871245915E-02    0.5201516635E-01
    0.1300000000E+02    0.6195211862E-01    0.8892515829E-02    0.2895106372E-02    0.2175825757E-02    0.6050286350E-01
    0.1500000000E+02    0.7035072018E-01    0.1002390976E-01    0.3263218074E-02    0.2470829125E-02    0.6872777416E-01
    0.1700000000E+02    0.7848999989E-01    0.1110234039E-01    0.3614019181E-02    0.2756732544E-02    0.7670221803E-01
    0.1900000000E+02    0.8638263549E-01    0.1213079960E-01    0.3948482674E-02    0.3033980773E-02    0.8443775170E-01
    0.2100000000E+02    0.9404047329E-01    0.1311207352E-01    0.4267514829E-02    0.3302989406E-02    0.9194522702E-01
    0.2300000000E+02    0.1014745953E+00    0.1404875925E-01    0.4571960655E-02    0.3564147227E-02    0.9923484409E-01
    0.2500000000E+02    0.1086953798E+00    0.1494328013E-01    0.4862608821E-02    0.3817818336E-02    0.1063161996E+00
    0.2700000000E+02    0.1157125564E+00    0.1579789951E-01    0.5140196124E-02    0.4064344083E-02    0.1131983307E+00
    0.2900000000E+02    0.1225352565E+00    0.1661473327E-01    0.5405411546E-02    0.4304044819E-02    0.1198897556E+00
    0.3100000000E+02    0.1291720577E+00    0.1739576124E-01    0.5658899939E-02    0.4537221489E-02    0.1263985103E+00
    0.3300000000E+02    0.1356310265E+00    0.1814283754E-01    0.5901265384E-02    0.4764157089E-02    0.1327321819E+00
    0.3500000000E+02    0.1419197548E+00    0.1885770005E-01    0.6133074256E-02    0.4985117985E-02    0.1388979402E+00
    0.3700000000E+02    0.1480453954E+00    0.1954197904E-01    0.6354858016E-02    0.5200355125E-02    0.1449025657E+00
    0.3900000000E+02    0.1540146929E+00    0.2019720507E-01    0.6567115763E-02    0.5410105145E-02    0.1507524758E+00
    0.4100000000E+02    0.1598340127E+00    0.2082481619E-01    0.6770316580E-02    0.5614591378E-02    0.1564537488E+00
    0.4300000000E+02    0.1655093677E+00    0.2142616456E-01    0.6964901667E-02    0.5814024786E-02    0.1620121464E+00
    0.4500000000E+02    0.1710464421E+00    0.2200252254E-01    0.7151286314E-02    0.6008604808E-02    0.1674331334E+00
    0.4700000000E+02    0.1764506141E+00    0.2255508824E-01    0.7329861697E-02    0.6198520146E-02    0.1727218976E+00
    0.4900000000E+02    0.1817269763E+00    0.2308499064E-01    0.7500996544E-02    0.6383949479E-02    0.1778833661E+00
    0.1000000000E+02    0.4883800656E-01    0.7089016698E-02    0.2308172450E-02    0.1715206514E-02    0.4766869864E-01
    0.3000000000E+02    0.1258763788E+00    0.1700960427E-01    0.5533582948E-02    0.4421430570E-02    0.1231664824E+00
    0.5000000000E+02    0.1843187467E+00    0.2334177817E-01    0.7583883232E-02    0.6475035157E-02    0.1804178373E+00
    0.7000000000E+02    0.2304922032E+00    0.2751628777E-01    0.8925721754E-02    0.8098007227E-02    0.2254475853E+00
    0.9000000000E+02    0.2680847063E+00    0.3032621775E-01    0.9818604504E-02    0.9419750352E-02    0.2618774896E+00
    0.1100000000E+03    0.2994005028E+00    0.3223883527E-01    0.1041594389E-01    0.1052112289E-01    0.2920178705E+00
    0.1300000000E+03    0.3259606821E+00    0.3354294192E-01    0.1081287062E-01    0.1145550574E-01    0.3174133010E+00
    0.1500000000E+03    0.3488149708E+00    0.3442405116E-01    0.1107067557E-01    0.1225974087E-01    0.3391364927E+00
    0.1700000000E+03    0.3687146819E+00    0.3500516503E-01    0.1123010035E-01    0.1296019913E-01    0.3579563121E+00
    0.1900000000E+03    0.3862140548E+00    0.3537002649E-01    0.1131893770E-01    0.1357633577E-01    0.3744386704E+00
    0.2100000000E+03    0.4017324466E+00    0.3557694249E-01    0.1135656378E-01    0.1412287261E-01    0.3890096430E+00
    0.2300000000E+03    0.4155940392E+00    0.3566729619E-01    0.1135673813E-01    0.1461119127E-01    0.4019963631E+00
    0.2500000000E+03    0.4280540723E+00    0.3567094922E-01    0.1132938637E-01    0.1505025372E-01    0.4136543233E+00
    0.2700000000E+03    0.4393166998E+00    0.3560976096E-01    0.1128176530E-01    0.1544722883E-01    0.4241860859E+00
    0.2900000000E+03    0.4495474655E+00    0.3549993429E-01    0.1121924179E-01    0.1580793023E-01    0.4337544025E+00
    0.3100000000E+03    0.4588822223E+00    0.3535361094E-01    0.1114582407E-01    0.1613712928E-01    0.4424916037E+00
    0.3300000000E+03    0.4674336402E+00    0.3517997613E-01    0.1106453052E-01    0.1643878349E-01    0.4505064414E+00
    0.3500000000E+03    0.4752960424E+00    0.3498603589E-01    0.1097764981E-01    0.1671620626E-01    0.4578891569E+00
    0.3700000000E+03    0.4825490563E+00    0.3477717193E-01    0.1088692694E-01    0.1697219499E-01    0.4647152905E+00
    0.3900000000E+03    0.4892604112E+00    0.3455754304E-01    0.1079369808E-01    0.1720912933E-01    0.4710485833E+00
    0.4100000000E+03    0.4954881098E+00    0.3433037889E-01    0.1069898933E-01    0.1742904737E-01    0.4769432150E+00
    0.4300000000E+03    0.5012821330E+00    0.3409819736E-01    0.1060358991E-01    0.1763370551E-01    0.4824455479E+00
    0.4500000000E+03    0.5066857945E+00    0.3386296707E-01    0.1050810684E-01    0.1782462596E-01    0.4875955018E+00
    0.4700000000E+03    0.5117368249E+00    0.3362622986E-01    0.1041300619E-01    0.1800313488E-01    0.4924276459E+00
    0.4900000000E+03    0.5164682495E+00    0.3338919403E-01    0.1031864445E-01    0.1817039313E-01    0.4969720758E+00
    0.1000000000E+03    0.2844183394E+00    0.3137356654E-01    0.1014726573E-01    0.9994162955E-02    0.2776236509E+00
    0.3000000000E+03    0.4543193232E+00    0.3543070173E-01    0.1118368634E-01    0.1597620336E-01    0.4382196095E+00
    0.5000000000E+03    0.5187233221E+00    0.3327086844E-01    0.1027182814E-01    0.1825012711E-01    0.4991447566E+00
    0.7000000000E+03    0.5525291078E+00    0.3103047169E-01    0.9411839635E-02    0.1944695395E-01    0.5324297954E+00
    0.9000000000E+03    0.5732447670E+00    0.2912233117E-01    0.8708147207E-02    0.2018234701E-01    0.5538331473E+00
    0.1100000000E+04    0.5871917896E+00    0.2752000772E-01    0.8133181923E-02    0.2067881375E-01    0.5689425531E+00
    0.1300000000E+04    0.5972002722E+00    0.2616050428E-01    0.7655547411E-02    0.2103606304E-01    0.5802756687E+00
    0.1500000000E+04    0.6047218107E+00    0.2499103237E-01    0.7251671199E-02    0.2130528429E-01    0.5891463924E+00
    0.1700000000E+04    0.6105755517E+00    0.2397185766E-01    0.6904722080E-02    0.2151539068E-01    0.5963126879E+00
    0.1900000000E+04    0.6152578695E+00    0.2307343417E-01    0.6602612130E-02    0.2168391872E-01    0.6022449331E+00
    0.2100000000E+04    0.6190866590E+00    0.2227356794E-01    0.6336496445E-02    0.2182210974E-01    0.6072517529E+00
    0.2300000000E+04    0.6222747276E+00    0.2155532108E-01    0.6099766518E-02    0.2193749590E-01    0.6115447361E+00
    0.2500000000E+04    0.6249697947E+00    0.2090555026E-01    0.5887385001E-02    0.2203531048E-01    0.6152741971E+00
    0.2700000000E+04    0.6272775487E+00    0.2031389420E-01    0.5695441384E-02    0.2211930115E-01    0.6185501056E+00
    0.2900000000E+04    0.6292755691E+00    0.1977206549E-01    0.5520849753E-02    0.2219222143E-01    0.6214549290E+00
    0.3100000000E+04    0.6310220685E+00    0.1927334796E-01    0.5361138998E-02    0.2225613936E-01    0.6240518267E+00
    0.3300000000E+04    0.6325615686E+00    0.1881223392E-01    0.5214304289E-02    0.2231263807E-01    0.6263900591E+00
    0.3500000000E+04    0.6339286939E+00    0.1838415828E-01    0.5078699940E-02    0.2236294991E-01    0.6285086596E+00
    0.3700000000E+04    0.6351507720E+00    0.1798530057E-01    0.4952960795E-02    0.2240804843E-01    0.6304389926E+00
    0.3900000000E+04    0.6362496562E+00    0.1761243537E-01    0.4835943617E-02    0.2244871288E-01    0.6322065736E+00
    0.4100000000E+04    0.6372430286E+00    0.1726281800E-01    0.4726682751E-02    0.2248557435E-01    0.6338323906E+00
    0.4300000000E+04    0.6381453486E+00    0.1693409580E-01    0.4624356151E-02    0.2251914941E-01    0.6353338790E+00
    0.4500000000E+04    0.6389685537E+00    0.1662423876E-01    0.4528259014E-02    0.2254986492E-01    0.6367256539E+00
    0.4700000000E+04    0.6397225858E+00    0.1633148456E-01    0.4437783104E-02    0.2257807673E-01    0.6380200658E+00
    0.4900000000E+04    0.6404157908E+00    0.1605429465E-01    0.4352400358E-02    0.2260408382E-01    0.6392276293E+00
    0.1000000000E+04    0.5808411199E+00    0.2828697964E-01    0.8406706884E-02    0.2045258314E-01    0.5619767893E+00
    0.3000000000E+04    0.6301772070E+00    0.1951768688E-01    0.5439269076E-02    0.2222519720E-01    0.6227885137E+00
    0.5000000000E+04    0.6407418319E+00    0.1592110785E-01    0.4311472544E-02    0.2261634122E-01    0.6398017105E+00
    0.7000000000E+04    0.6453208198E+00    0.1381966752E-01    0.3674060263E-02    0.2279069953E-01    0.6483596356E+00
    0.9000000000E+04    0.6478744655E+00    0.1239533264E-01    0.3250967113E-02    0.2289060964E-01    0.6536635020E+00
    0.1100000000E+05    0.6495019877E+00    0.1134630727E-01    0.2944041709E-02    0.2295598682E-01    0.6573346022E+00
    0.1300000000E+05    0.6506293382E+00    0.1053128021E-01    0.2708385222E-02    0.2300245120E-01    0.6600567285E+00
    0.1500000000E+05    0.6514560906E+00    0.9873937076E-02    0.2520155142E-02    0.2303739194E-01    0.6621726355E+00
    0.1700000000E+05    0.6520881545E+00    0.9328905338E-02    0.2365360367E-02    0.2306476747E-01    0.6638747806E+00
    0.1900000000E+05    0.6525869391E+00    0.8867264980E-02    0.2235177767E-02    0.2308689446E-01    0.6652803250E+00
    0.2100000000E+05    0.6529904977E+00    0.8469582340E-02    0.2123731396E-02    0.2310522173E-01    0.6664650543E+00
    0.2300000000E+05    0.6533236646E+00    0.8122244022E-02    0.2026936863E-02    0.2312070347E-01    0.6674803656E+00
    0.2500000000E+05    0.6536033344E+00    0.7815387915E-02    0.1941855301E-02    0.2313399469E-01    0.6683624651E+00
    0.2700000000E+05    0.6538413996E+00    0.7541668544E-02    0.1866310991E-02    0.2314556059E-01    0.6691376655E+00
    0.2900000000E+05    0.6540464732E+00    0.7295485901E-02    0.1798654225E-02    0.2315574109E-01    0.6698255939E+00
    0.3100000000E+05    0.6542249465E+00    0.7072485063E-02    0.1737608425E-02    0.2316479065E-01    0.6704412185E+00
    0.3300000000E+05    0.6543816613E+00    0.6869220866E-02    0.1682168264E-02    0.2317290372E-01    0.6709961726E+00
    0.3500000000E+05    0.6545203525E+00    0.6682926863E-02    0.1631529842E-02    0.2318023161E-01    0.6714996491E+00
    0.3700000000E+05    0.6546439474E+00    0.6511352255E-02    0.1585041635E-02    0.2318689391E-01    0.6719590177E+00
    0.3900000000E+05    0.6547547727E+00    0.6352644349E-02    0.1542169297E-02    0.2319298650E-01    0.6723802628E+00
    0.4100000000E+05    0.6548547007E+00    0.6205262211E-02    0.1502469900E-02    0.2319858718E-01    0.6727682998E+00
    0.4300000000E+05    0.6549452553E+00    0.6067912197E-02    0.1465572784E-02    0.2320375980E-01    0.6731272073E+00
    0.4500000000E+05    0.6550276891E+00    0.5939499077E-02    0.1431165081E-02    0.2320855730E-01    0.6734604010E+00
    0.4700000000E+05    0.6551030415E+00    0.5819088482E-02    0.1398980635E-02    0.2321302395E-01    0.6737707655E+00
    0.4900000000E+05    0.6551721819E+00    0.5705877698E-02    0.1368791408E-02    0.2321719710E-01    0.6740607551E+00
    0.1000000000E+05    0.6487694274E+00    0.1183489771E-01    0.3086494176E-02    0.2292635052E-01    0.6556487229E+00
    0.3000000000E+05    0.6541387021E+00    0.7181321293E-02    0.1767373204E-02    0.2316039391E-01    0.6701416510E+00
    0.5000000000E+05    0.6552046563E+00    0.5651751632E-02    0.1354382475E-02    0.2321918371E-01    0.6741987786E+00
    0.7000000000E+05    0.6556573884E+00    0.4819369887E-02    0.1134884969E-02    0.2324919133E-01    0.6762712505E+00
    0.9000000000E+05    0.6559065792E+00    0.4276019263E-02    0.9938799168E-03    0.2326849710E-01    0.6775738655E+00
    0.1100000000E+06    0.6560636609E+00    0.3885259563E-02    0.8937001252E-03    0.2328245004E-01    0.6784864265E+00
    0.1300000000E+06    0.6561713688E+00    0.3586671659E-02    0.8178993984E-03    0.2329326109E-01    0.6791701561E+00
    0.1500000000E+06    0.6562495876E+00    0.3348811462E-02    0.7580115391E-03    0.2330203224E-01    0.6797064410E+00
    0.1700000000E+06    0.6563088131E+00    0.3153476562E-02    0.7091792495E-03    0.2330938373E-01    0.6801412983E+00
    0.1900000000E+06    0.6563551035E+00    0.2989298664E-02    0.6683918444E-03    0.2331569579E-01    0.6805029269E+00
    0.2100000000E+06    0.6563921979E+00    0.2848760627E-02    0.6336716399E-03    0.2332121685E-01    0.6808096808E+00
    0.2300000000E+06    0.6564225273E+00    0.2726665328E-02    0.6036592898E-03    0.2332611741E-01    0.6810740797E+00
    0.2500000000E+06    0.6564477399E+00    0.2619288694E-02    0.5773858287E-03    0.2333051917E-01    0.6813049909E+00
    0.2700000000E+06    0.6564689917E+00    0.2523882561E-02    0.5541396054E-03    0.2333451182E-01    0.6815088915E+00
    0.2900000000E+06    0.6564871175E+00    0.2438368430E-02    0.5333847208E-03    0.2333816323E-01    0.6816906360E+00
    0.3100000000E+06    0.6565027345E+00    0.2361141109E-02    0.5147089661E-03    0.2334152593E-01    0.6818539429E+00
    0.3300000000E+06    0.6565163090E+00    0.2290938465E-02    0.4977894342E-03    0.2334464135E-01    0.6820017147E+00
    0.3500000000E+06    0.6565281994E+00    0.2226752487E-02    0.4823691280E-03    0.2334754271E-01    0.6821362539E+00
    0.3700000000E+06    0.6565386858E+00    0.2167767018E-02    0.4682406403E-03    0.2335025706E-01    0.6822594135E+00
    0.3900000000E+06    0.6565479902E+00    0.2113313180E-02    0.4552345114E-03    0.2335280667E-01    0.6823727035E+00
    0.4100000000E+06    0.6565562906E+00    0.2062836845E-02    0.4432107588E-03    0.2335521011E-01    0.6824773684E+00
    0.4300000000E+06    0.6565637315E+00    0.2015874483E-02    0.4320526070E-03    0.2335748300E-01    0.6825744440E+00
    0.4500000000E+06    0.6565704313E+00    0.1972034950E-02    0.4216617721E-03    0.2335963863E-01    0.6826648005E+00
    0.4700000000E+06    0.6565764880E+00    0.1930985559E-02    0.4119548658E-03    0.2336168834E-01    0.6827491751E+00
    0.4900000000E+06    0.6565819831E+00    0.1892441296E-02    0.4028606183E-03    0.2336364196E-01    0.6828281966E+00
    0.1000000000E+06    0.6559931588E+00    0.4066320936E-02    0.9399855292E-03    0.2327596624E-01    0.6780660950E+00
    0.3000000000E+06    0.6564952075E+00    0.2398804642E-02    0.5238089107E-03    0.2333987786E-01    0.6817743965E+00
    0.5000000000E+06    0.6565845420E+00    0.1874030440E-02    0.3985237393E-03    0.2336458544E-01    0.6828658719E+00
    0.7000000000E+06    0.6566182876E+00    0.1592243516E-02    0.3327449315E-03    0.2337999333E-01    0.6834368513E+00
    0.9000000000E+06    0.6566345295E+00    0.1409591997E-02    0.2907613551E-03    0.2339119410E-01    0.6838012301E+00
    0.1100000000E+07    0.6566432718E+00    0.1278820894E-02    0.2610563761E-03    0.2339999365E-01    0.6840593055E+00
    0.1300000000E+07    0.6566482202E+00    0.1179209234E-02    0.2386456618E-03    0.2340724016E-01    0.6842542968E+00
    0.1500000000E+07    0.6566510386E+00    0.1100043319E-02    0.2209783910E-03    0.2341339981E-01    0.6844082717E+00
    0.1700000000E+07    0.6566525733E+00    0.1035150465E-02    0.2065973250E-03    0.2341875623E-01    0.6845338224E+00
    0.1900000000E+07    0.6566532945E+00    0.9806894768E-03    0.1946021887E-03    0.2342349483E-01    0.6846387238E+00
    0.2100000000E+07    0.6566534808E+00    0.9341277323E-03    0.1844031507E-03    0.2342774347E-01    0.6847280689E+00
    0.2300000000E+07    0.6566533061E+00    0.8937183890E-03    0.1755956666E-03    0.2343159402E-01    0.6848053512E+00
    0.2500000000E+07    0.6566528829E+00    0.8582121984E-03    0.1678918910E-03    0.2343511475E-01    0.6848730573E+00
    0.2700000000E+07    0.6566522869E+00    0.8266888365E-03    0.1610807432E-03    0.2343835772E-01    0.6849330112E+00
    0.2900000000E+07    0.6566515698E+00    0.7984532576E-03    0.1550034843E-03    0.2344136359E-01    0.6849865854E+00
    0.3100000000E+07    0.6566507681E+00    0.7729693734E-03    0.1495381567E-03    0.2344416469E-01    0.6850348348E+00
    0.3300000000E+07    0.6566499078E+00    0.7498161434E-03    0.1445893231E-03    0.2344678716E-01    0.6850785856E+00
    0.3500000000E+07    0.6566490078E+00    0.7286576396E-03    0.1400810964E-03    0.2344925244E-01    0.6851184951E+00
    0.3700000000E+07    0.6566480818E+00    0.7092221168E-03    0.1359522839E-03    0.2345157831E-01    0.6851550935E+00
    0.3900000000E+07    0.6566471402E+00    0.6912870496E-03    0.1321529263E-03    0.2345377971E-01    0.6851888143E+00
    0.4100000000E+07    0.6566461905E+00    0.6746682256E-03    0.1286417832E-03    0.2345586930E-01    0.6852200152E+00
    0.4300000000E+07    0.6566452385E+00    0.6592116557E-03    0.1253844726E-03    0.2345785789E-01    0.6852489949E+00
    0.4500000000E+07    0.6566442886E+00    0.6447874787E-03    0.1223520741E-03    0.2345975482E-01    0.6852760046E+00
    0.4700000000E+07    0.6566433438E+00    0.6312853057E-03    0.1195200631E-03    0.2346156815E-01    0.6853012577E+00
    0.4900000000E+07    0.6566424067E+00    0.6186106170E-03    0.1168674896E-03    0.2346330496E-01    0.6853249365E+00
    0.1000000000E+07    0.6566395340E+00    0.1339355630E-02    0.2747683494E-03    0.2339582831E-01    0.6839401340E+00
    0.3000000000E+07    0.6566511777E+00    0.7853959609E-03    0.1522008212E-03    0.2344278798E-01    0.6850113195E+00
    0.5000000000E+07    0.6566419416E+00    0.6125576746E-03    0.1156027616E-03    0.2346414663E-01    0.6853362354E+00
    0.7000000000E+07    0.6566332821E+00    0.5200082351E-03    0.9643866291E-04    0.2347813821E-01    0.6855082430E+00
    0.9000000000E+07    0.6566258877E+00    0.4601099828E-03    0.8422490170E-04    0.2348856323E-01    0.6856187903E+00
    0.1100000000E+08    0.6566195440E+00    0.4172678558E-03    0.7559142009E-04    0.2349687645E-01    0.6856974676E+00
    0.1300000000E+08    0.6566140194E+00    0.3846571711E-03    0.6908240097E-04    0.2350379153E-01    0.6857571279E+00
    0.1500000000E+08    0.6566091378E+00    0.3587540360E-03    0.6395375201E-04    0.2350971209E-01    0.6858043720E+00
    0.1700000000E+08    0.6566047698E+00    0.3375301949E-03    0.5978078670E-04    0.2351488876E-01    0.6858429830E+00
    0.1900000000E+08    0.6566008201E+00    0.3197244700E-03    0.5630132836E-04    0.2351948795E-01    0.6858753053E+00
    0.2100000000E+08    0.6565972168E+00    0.3045058492E-03    0.5334370903E-04    0.2352362579E-01    0.6859028789E+00
    0.2300000000E+08    0.6565939048E+00    0.2913014518E-03    0.5079024574E-04    0.2352738653E-01    0.6859267631E+00
    0.2500000000E+08    0.6565908409E+00    0.2797017644E-03    0.4855723844E-04    0.2353083328E-01    0.6859477134E+00
    0.2700000000E+08    0.6565879908E+00    0.2694052125E-03    0.4658333093E-04    0.2353401451E-01    0.6859662849E+00
