  Pressure (Pa) 22mC5-400 (mol/kg) 2mC6-400 (mol/kg) 33mC5-400 (mol/kg) 23mC5-400 (mol/kg) C7-400 (mol/kg)
    0.1000000000E+01    0.5276540315E-02    0.1581834574E-02    0.1931893783E-03    0.9265062623E-04    0.6832431900E-02
    0.3000000000E+01    0.1553176510E-01    0.4597880022E-02    0.5615460506E-03    0.2727261470E-03    0.2001403796E-01
    0.5000000000E+01    0.2541001844E-01    0.7429579731E-02    0.9073937213E-03    0.4461878168E-03    0.3258940612E-01
    0.7000000000E+01    0.3493378476E-01    0.1009068849E-01    0.1232407419E-02    0.6134300329E-03    0.4460054116E-01
    0.9000000000E+01    0.4412375881E-01    0.1259369878E-01    0.1538108534E-02    0.7748158043E-03    0.5608562986E-01
    0.1100000000E+02    0.5299901969E-01    0.1494997916E-01    0.1825881668E-02    0.9306798022E-03    0.6707946598E-01
    0.1300000000E+02    0.6157718498E-01    0.1716989498E-01    0.2096989339E-02    0.1081331065E-02    0.7761381967E-01
    0.1500000000E+02    0.6987454778E-01    0.1926291412E-01    0.2352584849E-02    0.1227055398E-02    0.8771775959E-01
    0.1700000000E+02    0.7790619866E-01    0.2123769963E-01    0.2593723567E-02    0.1368117519E-02    0.9741793473E-01
    0.1900000000E+02    0.8568613448E-01    0.2310219141E-01    0.2821372867E-02    0.1504762959E-02    0.1067388216E+00
    0.2100000000E+02    0.9322735574E-01    0.2486367816E-01    0.3036420887E-02    0.1637219773E-02    0.1157029418E+00
    0.2300000000E+02    0.1005419537E+00    0.2652886103E-01    0.3239684280E-02    0.1765700070E-02    0.1243310537E+00
    0.2500000000E+02    0.1076411884E+00    0.2810391007E-01    0.3431915073E-02    0.1890401381E-02    0.1326423223E+00
    0.2700000000E+02    0.1145355596E+00    0.2959451436E-01    0.3613806775E-02    0.2011507893E-02    0.1406544695E+00
    0.2900000000E+02    0.1212348693E+00    0.3100592665E-01    0.3785999805E-02    0.2129191564E-02    0.1483839082E+00
    0.3100000000E+02    0.1277482795E+00    0.3234300316E-01    0.3949086334E-02    0.2243613120E-02    0.1558458606E+00
    0.3300000000E+02    0.1340843636E+00    0.3361023923E-01    0.4103614623E-02    0.2354922966E-02    0.1630544654E+00
    0.3500000000E+02    0.1402511533E+00    0.3481180117E-01    0.4250092894E-02    0.2463262001E-02    0.1700228720E+00
    0.3700000000E+02    0.1462561807E+00    0.3595155488E-01    0.4388992818E-02    0.2568762366E-02    0.1767633268E+00
    0.3900000000E+02    0.1521065174E+00    0.3703309163E-01    0.4520752639E-02    0.2671548116E-02    0.1832872487E+00
    0.4100000000E+02    0.1578088085E+00    0.3805975117E-01    0.4645779997E-02    0.2771735835E-02    0.1896052986E+00
    0.4300000000E+02    0.1633693055E+00    0.3903464265E-01    0.4764454465E-02    0.2869435197E-02    0.1957274417E+00
    0.4500000000E+02    0.1687938948E+00    0.3996066355E-01    0.4877129852E-02    0.2964749469E-02    0.2016630028E+00
    0.4700000000E+02    0.1740881243E+00    0.4084051669E-01    0.4984136274E-02    0.3057775985E-02    0.2074207179E+00
    0.4900000000E+02    0.1792572277E+00    0.4167672580E-01    0.5085782043E-02    0.3148606566E-02    0.2130087797E+00
    0.1000000000E+02    0.4859959473E-01    0.1378951017E-01    0.1684154489E-02    0.8534181388E-03    0.6164190198E-01
    0.3000000000E+02    0.1245142627E+00    0.3168346785E-01    0.3868646134E-02    0.2186800474E-02    0.1521474123E+00
    0.5000000000E+02    0.1817964122E+00    0.4207920702E-01    0.5134685493E-02    0.3193225664E-02    0.2157416127E+00
    0.7000000000E+02    0.2270763729E+00    0.4833489956E-01    0.5892131271E-02    0.3989012818E-02    0.2631301024E+00
    0.9000000000E+02    0.2640769493E+00    0.5214698653E-01    0.6348531666E-02    0.4639477999E-02    0.2999710480E+00
    0.1100000000E+03    0.2950632660E+00    0.5444600672E-01    0.6618070236E-02    0.5184365349E-02    0.3295426988E+00
    0.1300000000E+03    0.3215030387E+00    0.5577466675E-01    0.6767561477E-02    0.5649429384E-02    0.3538793329E+00
    0.1500000000E+03    0.3443965037E+00    0.5646478413E-01    0.6837998189E-02    0.6052222828E-02    0.3743124092E+00
    0.1700000000E+03    0.3644539132E+00    0.5672692446E-01    0.6855483518E-02    0.6405210491E-02    0.3917513466E+00
    0.1900000000E+03    0.3821969798E+00    0.5669874820E-01    0.6837138949E-02    0.6717549023E-02    0.4068393647E+00
    0.2100000000E+03    0.3980198727E+00    0.5647244684E-01    0.6794465073E-02    0.6996157074E-02    0.4200448413E+00
    0.2300000000E+03    0.4122275131E+00    0.5611098040E-01    0.6735336047E-02    0.7246387193E-02    0.4317173489E+00
    0.2500000000E+03    0.4250605318E+00    0.5565803168E-01    0.6665225989E-02    0.7472463732E-02    0.4421233642E+00
    0.2700000000E+03    0.4367120734E+00    0.5514429376E-01    0.6587986128E-02    0.7677777686E-02    0.4514697783E+00
    0.2900000000E+03    0.4473394370E+00    0.5459154458E-01    0.6506350132E-02    0.7865090961E-02    0.4599198184E+00
    0.3100000000E+03    0.4570723472E+00    0.5401534652E-01    0.6422270081E-02    0.8036681493E-02    0.4676040995E+00
    0.3300000000E+03    0.4660189626E+00    0.5342686993E-01    0.6337144191E-02    0.8194448691E-02    0.4746284643E+00
    0.3500000000E+03    0.4742703283E+00    0.5283414580E-01    0.6251973807E-02    0.8339991570E-02    0.4810796531E+00
    0.3700000000E+03    0.4819037339E+00    0.5224293922E-01    0.6167473228E-02    0.8474667680E-02    0.4870294754E+00
    0.3900000000E+03    0.4889852868E+00    0.5165736644E-01    0.6084147557E-02    0.8599638261E-02    0.4925379278E+00
    0.4100000000E+03    0.4955719115E+00    0.5108033590E-01    0.6002348508E-02    0.8715903338E-02    0.4976555564E+00
    0.4300000000E+03    0.5017129229E+00    0.5051386669E-01    0.5922314827E-02    0.8824329331E-02    0.5024252710E+00
    0.4500000000E+03    0.5074512791E+00    0.4995932059E-01    0.5844201814E-02    0.8925671041E-02    0.5068837531E+00
    0.4700000000E+03    0.5128245881E+00    0.4941757250E-01    0.5768103069E-02    0.9020589325E-02    0.5110625618E+00
    0.4900000000E+03    0.5178659258E+00    0.4888913652E-01    0.5694066599E-02    0.9109665453E-02    0.5149890100E+00
    0.1000000000E+03    0.2802163542E+00    0.5344529004E-01    0.6501697461E-02    0.4923267067E-02    0.3155173473E+00
    0.3000000000E+03    0.4523104919E+00    0.5430559248E-01    0.6464517360E-02    0.7952725010E-02    0.4638505582E+00
    0.5000000000E+03    0.5202713695E+00    0.4862999616E-01    0.5657827273E-02    0.9152175526E-02    0.5168651486E+00
    0.7000000000E+03    0.5565128639E+00    0.4412907740E-01    0.5035294671E-02    0.9793418896E-02    0.5455578476E+00
    0.9000000000E+03    0.5788453892E+00    0.4068997623E-01    0.4568966108E-02    0.1018956877E-01    0.5640198098E+00
    0.1100000000E+04    0.5939024253E+00    0.3798344077E-01    0.4208506109E-02    0.1045735067E-01    0.5770989714E+00
    0.1300000000E+04    0.6047036217E+00    0.3578624029E-01    0.3920602413E-02    0.1064994640E-01    0.5869528194E+00
    0.1500000000E+04    0.6128117517E+00    0.3395594058E-01    0.3684249692E-02    0.1079490330E-01    0.5947014009E+00
    0.1700000000E+04    0.6191129294E+00    0.3239935815E-01    0.3485849460E-02    0.1090785461E-01    0.6009896582E+00
    0.1900000000E+04    0.6241454042E+00    0.3105324074E-01    0.3316267516E-02    0.1099830460E-01    0.6062178059E+00
    0.2100000000E+04    0.6282542395E+00    0.2987310903E-01    0.3169147647E-02    0.1107235159E-01    0.6106486790E+00
    0.2300000000E+04    0.6316704701E+00    0.2882669488E-01    0.3039925977E-02    0.1113408225E-01    0.6144627457E+00
    0.2500000000E+04    0.6345544140E+00    0.2788995091E-01    0.2925235190E-02    0.1118633485E-01    0.6177884479E+00
    0.2700000000E+04    0.6370206986E+00    0.2704453673E-01    0.2822531657E-02    0.1123114052E-01    0.6207199444E+00
    0.2900000000E+04    0.6391533947E+00    0.2627618246E-01    0.2729854319E-02    0.1126999030E-01    0.6233279960E+00
    0.3100000000E+04    0.6410155260E+00    0.2557359111E-01    0.2645664102E-02    0.1130400290E-01    0.6256669144E+00
    0.3300000000E+04    0.6426552456E+00    0.2492768265E-01    0.2568734096E-02    0.1133403384E-01    0.6277791515E+00
    0.3500000000E+04    0.6441099637E+00    0.2433106085E-01    0.2498072653E-02    0.1136074838E-01    0.6296984189E+00
    0.3700000000E+04    0.6454091760E+00    0.2377762947E-01    0.2432868402E-02    0.1138467150E-01    0.6314518625E+00
    0.3900000000E+04    0.6465764461E+00    0.2326231046E-01    0.2372450160E-02    0.1140622295E-01    0.6330616127E+00
    0.4100000000E+04    0.6476308208E+00    0.2278083375E-01    0.2316257234E-02    0.1142574237E-01    0.6345459102E+00
    0.4300000000E+04    0.6485878605E+00    0.2232957797E-01    0.2263817053E-02    0.1144350744E-01    0.6359199388E+00
    0.4500000000E+04    0.6494603998E+00    0.2190544811E-01    0.2214728098E-02    0.1145974742E-01    0.6371964510E+00
    0.4700000000E+04    0.6502591182E+00    0.2150578035E-01    0.2168646716E-02    0.1147465325E-01    0.6383862440E+00
    0.4900000000E+04    0.6509929729E+00    0.2112826727E-01    0.2125276795E-02    0.1148838521E-01    0.6394985273E+00
    0.1000000000E+04    0.5870458907E+00    0.3926144126E-01    0.4377945494E-02    0.1033532472E-01    0.5710623984E+00
    0.3000000000E+04    0.6401149790E+00    0.2591727876E-01    0.2686781289E-02    0.1128754260E-01    0.6245282078E+00
    0.5000000000E+04    0.6513379882E+00    0.2094718020E-01    0.2104527058E-02    0.1149485419E-01    0.6400281183E+00
    0.7000000000E+04    0.6561732640E+00    0.1811334047E-01    0.1784385447E-02    0.1158665214E-01    0.6479906571E+00
    0.9000000000E+04    0.6588612832E+00    0.1621373800E-01    0.1574615155E-02    0.1163905562E-01    0.6529990244E+00
    0.1100000000E+05    0.6605712607E+00    0.1482338998E-01    0.1423569807E-02    0.1167326333E-01    0.6565050589E+00
    0.1300000000E+05    0.6617543760E+00    0.1374746354E-01    0.1308153565E-02    0.1169753421E-01    0.6591286058E+00
    0.1500000000E+05    0.6626214149E+00    0.1288206597E-01    0.1216272280E-02    0.1171576308E-01    0.6611834435E+00
    0.1700000000E+05    0.6632840025E+00    0.1216594786E-01    0.1140896047E-02    0.1173003161E-01    0.6628472211E+00
    0.1900000000E+05    0.6638067605E+00    0.1156030380E-01    0.1077621958E-02    0.1174155594E-01    0.6642288569E+00
    0.2100000000E+05    0.6642296837E+00    0.1103917437E-01    0.1023532965E-02    0.1175109555E-01    0.6653992448E+00
    0.2300000000E+05    0.6645788481E+00    0.1058443802E-01    0.9766095981E-03    0.1175915004E-01    0.6664067312E+00
    0.2500000000E+05    0.6648719796E+00    0.1018300299E-01    0.9354034769E-03    0.1176606206E-01    0.6672855434E+00
    0.2700000000E+05    0.6651215475E+00    0.9825140228E-02    0.8988451601E-03    0.1177207473E-01    0.6680606684E+00
    0.2900000000E+05    0.6653365786E+00    0.9503446289E-02    0.8661255439E-03    0.1177736562E-01    0.6687508216E+00
    0.3100000000E+05    0.6655237677E+00    0.9212172777E-02    0.8366196867E-03    0.1178206754E-01    0.6693703301E+00
    0.3300000000E+05    0.6656881852E+00    0.8946778177E-02    0.8098362160E-03    0.1178628194E-01    0.6699303682E+00
    0.3500000000E+05    0.6658337413E+00    0.8703619835E-02    0.7853827476E-03    0.1179008771E-01    0.6704397949E+00
    0.3700000000E+05    0.6659634997E+00    0.8479736994E-02    0.7629416507E-03    0.1179354721E-01    0.6709057340E+00
    0.3900000000E+05    0.6660798951E+00    0.8272694678E-02    0.7422526912E-03    0.1179671039E-01    0.6713339866E+00
    0.4100000000E+05    0.6661848865E+00    0.8080469200E-02    0.7231003581E-03    0.1179961778E-01    0.6717293305E+00
    0.4300000000E+05    0.6662800682E+00    0.7901362779E-02    0.7053044494E-03    0.1180230262E-01    0.6720957402E+00
    0.4500000000E+05    0.6663667506E+00    0.7733938899E-02    0.6887129717E-03    0.1180479247E-01    0.6724365521E+00
    0.4700000000E+05    0.6664460206E+00    0.7576972692E-02    0.6731967095E-03    0.1180711038E-01    0.6727545901E+00
    0.4900000000E+05    0.6665187878E+00    0.7429412393E-02    0.6586450202E-03    0.1180927578E-01    0.6730522624E+00
    0.1000000000E+05    0.6598018840E+00    0.1547012556E-01    0.1493566031E-02    0.1165776484E-01    0.6548906397E+00
    0.3000000000E+05    0.6654333048E+00    0.9354314962E-02    0.8510042701E-03    0.1177978325E-01    0.6690686455E+00
    0.5000000000E+05    0.6665529772E+00    0.7358870524E-02    0.6517005674E-03    0.1181030655E-01    0.6731941192E+00
    0.7000000000E+05    0.6670306773E+00    0.6274512196E-02    0.5459755124E-03    0.1182587131E-01    0.6753386040E+00
    0.9000000000E+05    0.6672949542E+00    0.5567061295E-02    0.4781091857E-03    0.1183588088E-01    0.6767014919E+00
    0.1100000000E+06    0.6674624390E+00    0.5058413844E-02    0.4299103471E-03    0.1184311345E-01    0.6776639164E+00
    0.1300000000E+06    0.6675779140E+00    0.4669794984E-02    0.3934484477E-03    0.1184871656E-01    0.6783894491E+00
    0.1500000000E+06    0.6676622464E+00    0.4360235105E-02    0.3646445405E-03    0.1185326198E-01    0.6789613462E+00
    0.1700000000E+06    0.6677264677E+00    0.4106027492E-02    0.3411597111E-03    0.1185707139E-01    0.6794269926E+00
    0.1900000000E+06    0.6677769559E+00    0.3892370214E-02    0.3215447796E-03    0.1186034199E-01    0.6798155836E+00
    0.2100000000E+06    0.6678176543E+00    0.3709477535E-02    0.3048480493E-03    0.1186320260E-01    0.6801462094E+00
    0.2300000000E+06    0.6678511310E+00    0.3550584808E-02    0.2904155055E-03    0.1186574160E-01    0.6804319444E+00
    0.2500000000E+06    0.6678791301E+00    0.3410845200E-02    0.2777810231E-03    0.1186802209E-01    0.6806820810E+00
    0.2700000000E+06    0.6679028774E+00    0.3286682265E-02    0.2666022969E-03    0.1187009056E-01    0.6809034282E+00
    0.2900000000E+06    0.6679232592E+00    0.3175391201E-02    0.2566215811E-03    0.1187198220E-01    0.6811011034E+00
    0.3100000000E+06    0.6679409325E+00    0.3074883211E-02    0.2476406329E-03    0.1187372422E-01    0.6812790368E+00
    0.3300000000E+06    0.6679563942E+00    0.2983515957E-02    0.2395041657E-03    0.1187533810E-01    0.6814403028E+00
    0.3500000000E+06    0.6679700271E+00    0.2899977808E-02    0.2320885939E-03    0.1187684107E-01    0.6815873458E+00
    0.3700000000E+06    0.6679821310E+00    0.2823206783E-02    0.2252941824E-03    0.1187824713E-01    0.6817221367E+00
    0.3900000000E+06    0.6679929438E+00    0.2752332553E-02    0.2190394458E-03    0.1187956784E-01    0.6818462846E+00
    0.4100000000E+06    0.6680026566E+00    0.2686634102E-02    0.2132570743E-03    0.1188081280E-01    0.6819611175E+00
    0.4300000000E+06    0.6680114250E+00    0.2625508300E-02    0.2078909179E-03    0.1188199013E-01    0.6820677432E+00
    0.4500000000E+06    0.6680193766E+00    0.2568446201E-02    0.2028937187E-03    0.1188310670E-01    0.6821670933E+00
    0.4700000000E+06    0.6680266172E+00    0.2515014923E-02    0.1982253815E-03    0.1188416839E-01    0.6822599580E+00
    0.4900000000E+06    0.6680332351E+00    0.2464843614E-02    0.1938516379E-03    0.1188518030E-01    0.6823470125E+00
    0.1000000000E+06    0.6673871556E+00    0.5294088627E-02    0.4521777416E-03    0.1183975270E-01    0.6772197997E+00
    0.3000000000E+06    0.6679324002E+00    0.3123900869E-02    0.2520166961E-03    0.1187287045E-01    0.6811923287E+00
    0.5000000000E+06    0.6680363343E+00    0.2440878764E-02    0.1917658617E-03    0.1188566898E-01    0.6823885456E+00
    0.7000000000E+06    0.6680787384E+00    0.2074060499E-02    0.1601285265E-03    0.1189364924E-01    0.6830202824E+00
    0.9000000000E+06    0.6681011014E+00    0.1836264278E-02    0.1399338559E-03    0.1189945003E-01    0.6834257963E+00
    0.1100000000E+07    0.6681145663E+00    0.1665996171E-02    0.1256442029E-03    0.1190400697E-01    0.6837141968E+00
    0.1300000000E+07    0.6681233544E+00    0.1536289116E-02    0.1148627605E-03    0.1190775948E-01    0.6839327904E+00
    0.1500000000E+07    0.6681294053E+00    0.1433198788E-02    0.1063628445E-03    0.1191094905E-01    0.6841058409E+00
    0.1700000000E+07    0.6681337300E+00    0.1348690616E-02    0.9944363188E-04    0.1191372260E-01    0.6842472423E+00
    0.1900000000E+07    0.6681369043E+00    0.1277764472E-02    0.9367213541E-04    0.1191617618E-01    0.6843655982E+00
    0.2100000000E+07    0.6681392792E+00    0.1217123434E-02    0.8876466239E-04    0.1191837601E-01    0.6844665583E+00
    0.2300000000E+07    0.6681410795E+00    0.1164493385E-02    0.8452663002E-04    0.1192036968E-01    0.6845540060E+00
    0.2500000000E+07    0.6681424558E+00    0.1118247930E-02    0.8081958148E-04    0.1192219255E-01    0.6846307103E+00
    0.2700000000E+07    0.6681435120E+00    0.1077188852E-02    0.7754198123E-04    0.1192387157E-01    0.6846987057E+00
    0.2900000000E+07    0.6681443222E+00    0.1040411205E-02    0.7461746906E-04    0.1192542781E-01    0.6847595254E+00
    0.3100000000E+07    0.6681449402E+00    0.1007216982E-02    0.7198737648E-04    0.1192687802E-01    0.6848143494E+00
    0.3300000000E+07    0.6681454062E+00    0.9770579566E-03    0.6960579143E-04    0.1192823572E-01    0.6848641026E+00
    0.3500000000E+07    0.6681457505E+00    0.9494967128E-03    0.6743620611E-04    0.1192951202E-01    0.6849095221E+00
    0.3700000000E+07    0.6681459964E+00    0.9241793993E-03    0.6544918110E-04    0.1193071614E-01    0.6849512027E+00
    0.3900000000E+07    0.6681461622E+00    0.9008162491E-03    0.6362068087E-04    0.1193185581E-01    0.6849896314E+00
    0.4100000000E+07    0.6681462622E+00    0.8791673805E-03    0.6193086407E-04    0.1193293758E-01    0.6850252103E+00
    0.4300000000E+07    0.6681463077E+00    0.8590322640E-03    0.6036318886E-04    0.1193396705E-01    0.6850582753E+00
    0.4500000000E+07    0.6681463081E+00    0.8402417875E-03    0.5890374063E-04    0.1193494906E-01    0.6850891095E+00
    0.4700000000E+07    0.6681462708E+00    0.8226521937E-03    0.5754071973E-04    0.1193588779E-01    0.6851179532E+00
    0.4900000000E+07    0.6681462019E+00    0.8061403897E-03    0.5626404615E-04    0.1193678689E-01    0.6851450118E+00
    0.1000000000E+07    0.6681086018E+00    0.1744816018E-02    0.1322405094E-03    0.1190184994E-01    0.6835808955E+00
    0.3000000000E+07    0.6681446524E+00    0.1023403414E-02    0.7326874348E-04    0.1192616526E-01    0.6847876240E+00
    0.5000000000E+07    0.6681461572E+00    0.7982549226E-03    0.5565533240E-04    0.1193722260E-01    0.6851579280E+00
    0.7000000000E+07    0.6681444582E+00    0.6776807611E-03    0.4643125084E-04    0.1194446539E-01    0.6853549312E+00
    0.9000000000E+07    0.6681422198E+00    0.5996392588E-03    0.4055210694E-04    0.1194986163E-01    0.6854819353E+00
    0.1100000000E+08    0.6681399720E+00    0.5438174343E-03    0.3639614589E-04    0.1195416456E-01    0.6855725269E+00
    0.1300000000E+08    0.6681378452E+00    0.5013252492E-03    0.3326273970E-04    0.1195774368E-01    0.6856413409E+00
    0.1500000000E+08    0.6681358665E+00    0.4675721078E-03    0.3079376599E-04    0.1196080796E-01    0.6856959106E+00
    0.1700000000E+08    0.6681340326E+00    0.4399156712E-03    0.2878481962E-04    0.1196348717E-01    0.6857405613E+00
    0.1900000000E+08    0.6681323312E+00    0.4167128616E-03    0.2710970841E-04    0.1196586744E-01    0.6857779777E+00
    0.2100000000E+08    0.6681307483E+00    0.3968809938E-03    0.2568580188E-04    0.1196800889E-01    0.6858099255E+00
    0.2300000000E+08    0.6681292708E+00    0.3796736699E-03    0.2445645321E-04    0.1196995516E-01    0.6858376205E+00
    0.2500000000E+08    0.6681278868E+00    0.3645573291E-03    0.2338137245E-04    0.1197173889E-01    0.6858619307E+00
    0.2700000000E+08    0.6681265860E+00    0.3511390381E-03    0.2243102453E-04    0.1197338518E-01    0.6858834947E+00
