  Pressure (Pa) 22mC5-400 (mol/kg) 2mC6-400 (mol/kg) 33mC5-400 (mol/kg) 23mC5-400 (mol/kg) C7-400 (mol/kg)
    0.1000000000E+01    0.5270706971E-02    0.2384359593E-02    0.1294124330E-03    0.3701930518E-03    0.1719426856E-02
    0.3000000000E+01    0.1548179270E-01    0.6997708441E-02    0.3797468402E-03    0.1087396891E-02    0.5101839859E-02
    0.5000000000E+01    0.2527774942E-01    0.1141518170E-01    0.6193736090E-03    0.1775466840E-02    0.8411195144E-02
    0.7000000000E+01    0.3468650651E-01    0.1564927255E-01    0.8489715906E-03    0.2436362603E-02    0.1165002027E-01
    0.9000000000E+01    0.4373348450E-01    0.1971139496E-01    0.1069161252E-02    0.3071867867E-02    0.1482072553E-01
    0.1100000000E+02    0.5244186979E-01    0.2361200019E-01    0.1280510968E-02    0.3683609571E-02    0.1792561067E-01
    0.1300000000E+02    0.6083285424E-01    0.2736067851E-01    0.1483542514E-02    0.4273074722E-02    0.2096687128E-01
    0.1500000000E+02    0.6892584486E-01    0.3096624808E-01    0.1678735866E-02    0.4841625096E-02    0.2394660458E-01
    0.1700000000E+02    0.7673864763E-01    0.3443683300E-01    0.1866533414E-02    0.5390510142E-02    0.2686681495E-01
    0.1900000000E+02    0.8428762931E-01    0.3777993196E-01    0.2047343670E-02    0.5920878326E-02    0.2972941904E-01
    0.2100000000E+02    0.9158786004E-01    0.4100247877E-01    0.2221544540E-02    0.6433787144E-02    0.3253625054E-01
    0.2300000000E+02    0.9865323947E-01    0.4411089598E-01    0.2389486219E-02    0.6930211961E-02    0.3528906465E-01
    0.2500000000E+02    0.1054966085E+00    0.4711114235E-01    0.2551493758E-02    0.7411053860E-02    0.3798954231E-01
    0.2700000000E+02    0.1121298485E+00    0.5000875510E-01    0.2707869343E-02    0.7877146595E-02    0.4063929402E-01
    0.2900000000E+02    0.1185639696E+00    0.5280888757E-01    0.2858894337E-02    0.8329262798E-02    0.4323986361E-01
    0.3100000000E+02    0.1248091897E+00    0.5551634278E-01    0.3004831088E-02    0.8768119500E-02    0.4579273163E-01
    0.3300000000E+02    0.1308750047E+00    0.5813560356E-01    0.3145924562E-02    0.9194383078E-02    0.4829931861E-01
    0.3500000000E+02    0.1367702516E+00    0.6067085951E-01    0.3282403801E-02    0.9608673680E-02    0.5076098805E-01
    0.3700000000E+02    0.1425031653E+00    0.6312603127E-01    0.3414483235E-02    0.1001156919E-01    0.5317904933E-01
    0.3900000000E+02    0.1480814292E+00    0.6550479237E-01    0.3542363862E-02    0.1040360882E-01    0.5555476034E-01
    0.4100000000E+02    0.1535122211E+00    0.6781058892E-01    0.3666234319E-02    0.1078529629E-01    0.5788933005E-01
    0.4300000000E+02    0.1588022550E+00    0.7004665744E-01    0.3786271842E-02    0.1115710277E-01    0.6018392083E-01
    0.4500000000E+02    0.1639578176E+00    0.7221604100E-01    0.3902643143E-02    0.1151946945E-01    0.6243965076E-01
    0.4700000000E+02    0.1689848030E+00    0.7432160385E-01    0.4015505201E-02    0.1187280998E-01    0.6465759566E-01
    0.4900000000E+02    0.1738887428E+00    0.7636604474E-01    0.4125005983E-02    0.1221751256E-01    0.6683879115E-01
    0.1000000000E+02    0.4812863259E-01    0.2168126875E-01    0.1175907459E-02    0.3380613128E-02    0.1638125602E-01
    0.3000000000E+02    0.1217095826E+00    0.5417391248E-01    0.2932483043E-02    0.8550305805E-02    0.4452217016E-01
    0.5000000000E+02    0.1762962071E+00    0.7736614556E-01    0.4178539834E-02    0.1238673947E-01    0.6791592095E-01
    0.7000000000E+02    0.2190949654E+00    0.9470693135E-01    0.5102814696E-02    0.1539564222E-01    0.8775320755E-01
    0.9000000000E+02    0.2539468677E+00    0.1081071858E+00    0.5810298079E-02    0.1784658574E-01    0.1048512207E+00
    0.1100000000E+03    0.2831056971E+00    0.1187218571E+00    0.6364656564E-02    0.1989775715E-01    0.1197902344E+00
    0.1300000000E+03    0.3079950664E+00    0.1272942235E+00    0.6806967580E-02    0.2164908276E-01    0.1329941935E+00
    0.1500000000E+03    0.3295680664E+00    0.1343258079E+00    0.7164996365E-02    0.2316746641E-01    0.1447804094E+00
    0.1700000000E+03    0.3484933234E+00    0.1401677576E+00    0.7458201964E-02    0.2449984669E-01    0.1553913707E+00
    0.1900000000E+03    0.3652580970E+00    0.1450733649E+00    0.7700623921E-02    0.2568043245E-01    0.1650157650E+00
    0.2100000000E+03    0.3802287513E+00    0.1492298874E+00    0.7902636650E-02    0.2673494682E-01    0.1738027626E+00
    0.2300000000E+03    0.3936879716E+00    0.1527786672E+00    0.8072061826E-02    0.2768323927E-01    0.1818719576E+00
    0.2500000000E+03    0.4058586335E+00    0.1558283071E+00    0.8214898804E-02    0.2854096084E-01    0.1893204373E+00
    0.2700000000E+03    0.4169196699E+00    0.1584635583E+00    0.8335818443E-02    0.2932067784E-01    0.1962279055E+00
    0.2900000000E+03    0.4270169542E+00    0.1607514696E+00    0.8438505393E-02    0.3003263578E-01    0.2026604587E+00
    0.3100000000E+03    0.4362709744E+00    0.1627457341E+00    0.8525900468E-02    0.3068529791E-01    0.2086734131E+00
    0.3300000000E+03    0.4447823764E+00    0.1644898215E+00    0.8600375519E-02    0.3128573439E-01    0.2143134500E+00
    0.3500000000E+03    0.4526360556E+00    0.1660192739E+00    0.8663861694E-02    0.3183990950E-01    0.2196202647E+00
    0.3700000000E+03    0.4599042355E+00    0.1673634128E+00    0.8717944901E-02    0.3235289770E-01    0.2246278488E+00
    0.3900000000E+03    0.4666488226E+00    0.1685466273E+00    0.8763937804E-02    0.3282904900E-01    0.2293654972E+00
    0.4100000000E+03    0.4729232362E+00    0.1695893563E+00    0.8802934768E-02    0.3327211734E-01    0.2338586079E+00
    0.4300000000E+03    0.4787738484E+00    0.1705088477E+00    0.8835854252E-02    0.3368536177E-01    0.2381293220E+00
    0.4500000000E+03    0.4842411314E+00    0.1713197494E+00    0.8863471836E-02    0.3407162692E-01    0.2421970400E+00
    0.4700000000E+03    0.4893605810E+00    0.1720345753E+00    0.8886446196E-02    0.3443340789E-01    0.2460788424E+00
    0.4900000000E+03    0.4941634685E+00    0.1726640751E+00    0.8905339701E-02    0.3477290303E-01    0.2497898346E+00
    0.1000000000E+03    0.2691348787E+00    0.1137091349E+00    0.6103658545E-02    0.1891491067E-01    0.1125611350E+00
    0.3000000000E+03    0.4317426707E+00    0.1617823815E+00    0.8483954530E-02    0.3036590806E-01    0.2057162871E+00
    0.5000000000E+03    0.4964549722E+00    0.1729497788E+00    0.8913409660E-02    0.3493491004E-01    0.2515855278E+00
    0.7000000000E+03    0.5309447740E+00    0.1758822823E+00    0.8947753245E-02    0.3737626852E-01    0.2811135251E+00
    0.9000000000E+03    0.5521297801E+00    0.1759346924E+00    0.8860027018E-02    0.3887974174E-01    0.3026400189E+00
    0.1100000000E+04    0.5663605302E+00    0.1747717587E+00    0.8728879057E-02    0.3989235418E-01    0.3194860851E+00
    0.1300000000E+04    0.5765329599E+00    0.1730548656E+00    0.8583054125E-02    0.4061813781E-01    0.3332809477E+00
    0.1500000000E+04    0.5841445852E+00    0.1710866040E+00    0.8434503730E-02    0.4116269273E-01    0.3449364749E+00
    0.1700000000E+04    0.5900429238E+00    0.1690179943E+00    0.8288517609E-02    0.4158583592E-01    0.3550117697E+00
    0.1900000000E+04    0.5947416102E+00    0.1669285143E+00    0.8147446169E-02    0.4192385132E-01    0.3638733512E+00
    0.2100000000E+04    0.5985691467E+00    0.1648611399E+00    0.8012250262E-02    0.4219996550E-01    0.3717740871E+00
    0.2300000000E+04    0.6017449675E+00    0.1628391517E+00    0.7883206480E-02    0.4242970730E-01    0.3788956052E+00
    0.2500000000E+04    0.6044210012E+00    0.1608747662E+00    0.7760249516E-02    0.4262383806E-01    0.3853726773E+00
    0.2700000000E+04    0.6067056484E+00    0.1589738104E+00    0.7643146210E-02    0.4279004291E-01    0.3913080219E+00
    0.2900000000E+04    0.6086782564E+00    0.1571383593E+00    0.7531586809E-02    0.4293395236E-01    0.3967817046E+00
    0.3100000000E+04    0.6103981984E+00    0.1553682745E+00    0.7425233629E-02    0.4305978342E-01    0.4018573332E+00
    0.3300000000E+04    0.6119107607E+00    0.1536621231E+00    0.7323747017E-02    0.4317075549E-01    0.4065862745E+00
    0.3500000000E+04    0.6132510695E+00    0.1520177373E+00    0.7226798910E-02    0.4326936806E-01    0.4110106031E+00
    0.3700000000E+04    0.6144467789E+00    0.1504325602E+00    0.7134079501E-02    0.4335759069E-01    0.4151652137E+00
    0.3900000000E+04    0.6155199498E+00    0.1489038593E+00    0.7045300045E-02    0.4343699608E-01    0.4190793658E+00
    0.4100000000E+04    0.6164883913E+00    0.1474288596E+00    0.6960193526E-02    0.4350885501E-01    0.4227778340E+00
    0.4300000000E+04    0.6173666348E+00    0.1460048250E+00    0.6878514140E-02    0.4357420533E-01    0.4262817797E+00
    0.4500000000E+04    0.6181666523E+00    0.1446291065E+00    0.6800036179E-02    0.4363390291E-01    0.4296094204E+00
    0.4700000000E+04    0.6188983944E+00    0.1432991702E+00    0.6724552624E-02    0.4368865978E-01    0.4327765512E+00
    0.4900000000E+04    0.6195701988E+00    0.1420126113E+00    0.6651873652E-02    0.4373907311E-01    0.4357969555E+00
    0.1000000000E+04    0.5598867023E+00    0.1754513687E+00    0.8797489762E-02    0.3943136452E-01    0.3115227606E+00
    0.3000000000E+04    0.6095667035E+00    0.1562452132E+00    0.7477780826E-02    0.4299890687E-01    0.3993658178E+00
    0.5000000000E+04    0.6198858674E+00    0.1413848837E+00    0.6616530900E-02    0.4376281173E-01    0.4372559743E+00
    0.7000000000E+04    0.6242969378E+00    0.1306270078E+00    0.6021597608E-02    0.4409891768E-01    0.4610233355E+00
    0.9000000000E+04    0.6267368612E+00    0.1223621263E+00    0.5576511303E-02    0.4429011715E-01    0.4780653227E+00
    0.1100000000E+05    0.6282831314E+00    0.1157252738E+00    0.5225612337E-02    0.4441464812E-01    0.4911925150E+00
    0.1300000000E+05    0.6293496121E+00    0.1102230248E+00    0.4938751919E-02    0.4450286570E-01    0.5017723289E+00
    0.1500000000E+05    0.6301290152E+00    0.1055515831E+00    0.4697944455E-02    0.4456904457E-01    0.5105710021E+00
    0.1700000000E+05    0.6307231325E+00    0.1015119739E+00    0.4491668776E-02    0.4462079840E-01    0.5180597062E+00
    0.1900000000E+05    0.6311907694E+00    0.9796736589E-01    0.4312135119E-02    0.4466256808E-01    0.5245480170E+00
    0.2100000000E+05    0.6315682561E+00    0.9481992857E-01    0.4153849345E-02    0.4469712344E-01    0.5302497280E+00
    0.2300000000E+05    0.6318792422E+00    0.9199746691E-01    0.4012802718E-02    0.4472628462E-01    0.5353183483E+00
    0.2500000000E+05    0.6321397821E+00    0.8944529044E-01    0.3885987749E-02    0.4475129880E-01    0.5398676076E+00
    0.2700000000E+05    0.6323611550E+00    0.8712104717E-01    0.3771095039E-02    0.4477305038E-01    0.5439839640E+00
    0.2900000000E+05    0.6325515163E+00    0.8499131924E-01    0.3666315921E-02    0.4479218470E-01    0.5477345783E+00
    0.3100000000E+05    0.6327169083E+00    0.8302930869E-01    0.3570209694E-02    0.4480918430E-01    0.5511725883E+00
    0.3300000000E+05    0.6328619024E+00    0.8121322149E-01    0.3481611752E-02    0.4482441753E-01    0.5543407071E+00
    0.3500000000E+05    0.6329900204E+00    0.7952511257E-01    0.3399568456E-02    0.4483817078E-01    0.5572737448E+00
    0.3700000000E+05    0.6331040196E+00    0.7795004337E-01    0.3323289963E-02    0.4485067022E-01    0.5600004163E+00
    0.3900000000E+05    0.6332060887E+00    0.7647545599E-01    0.3252115416E-02    0.4486209703E-01    0.5625446645E+00
    0.4100000000E+05    0.6332979876E+00    0.7509070085E-01    0.3185486828E-02    0.4487259813E-01    0.5649266449E+00
    0.4300000000E+05    0.6333811472E+00    0.7378667493E-01    0.3122929186E-02    0.4488229405E-01    0.5671634719E+00
    0.4500000000E+05    0.6334567427E+00    0.7255554106E-01    0.3064035098E-02    0.4489128464E-01    0.5692697906E+00
    0.4700000000E+05    0.6335257482E+00    0.7139050766E-01    0.3008452790E-02    0.4489965336E-01    0.5712582219E+00
    0.4900000000E+05    0.6335889781E+00    0.7028565382E-01    0.2955876629E-02    0.4490747059E-01    0.5731397126E+00
    0.1000000000E+05    0.6275880582E+00    0.1188769320E+00    0.5391558027E-02    0.4435825487E-01    0.4850130511E+00
    0.3000000000E+05    0.6326370190E+00    0.8399081335E-01    0.3617257087E-02    0.4480092608E-01    0.5494897787E+00
    0.5000000000E+05    0.6336186458E+00    0.6975414698E-01    0.2930631067E-02    0.4491119144E-01    0.5740433879E+00
    0.7000000000E+05    0.6340296904E+00    0.6130484146E-01    0.2533470406E-02    0.4496735662E-01    0.5882893347E+00
    0.9000000000E+05    0.6342529847E+00    0.5549728204E-01    0.2265162390E-02    0.4500345869E-01    0.5979596672E+00
    0.1100000000E+06    0.6343919333E+00    0.5116963983E-01    0.2067818649E-02    0.4502953869E-01    0.6051066721E+00
    0.1300000000E+06    0.6344859747E+00    0.4777408849E-01    0.1914594868E-02    0.4504974068E-01    0.6106809967E+00
    0.1500000000E+06    0.6345533696E+00    0.4501241084E-01    0.1791062845E-02    0.4506612830E-01    0.6151939726E+00
    0.1700000000E+06    0.6346037119E+00    0.4270591541E-01    0.1688666017E-02    0.4507986220E-01    0.6189492979E+00
    0.1900000000E+06    0.6346425150E+00    0.4073987074E-01    0.1601958053E-02    0.4509165362E-01    0.6221406339E+00
    0.2100000000E+06    0.6346731668E+00    0.3903665688E-01    0.1527281861E-02    0.4510196709E-01    0.6248982762E+00
    0.2300000000E+06    0.6346978606E+00    0.3754156105E-01    0.1462076596E-02    0.4511112135E-01    0.6273136470E+00
    0.2500000000E+06    0.6347180769E+00    0.3621471898E-01    0.1404487372E-02    0.4511934385E-01    0.6294530984E+00
    0.2700000000E+06    0.6347348500E+00    0.3502628135E-01    0.1353132676E-02    0.4512680218E-01    0.6313661469E+00
    0.2900000000E+06    0.6347489234E+00    0.3395337989E-01    0.1306959222E-02    0.4513362316E-01    0.6330906170E+00
    0.3100000000E+06    0.6347608445E+00    0.3297814957E-01    0.1265147831E-02    0.4513990491E-01    0.6346559812E+00
    0.3300000000E+06    0.6347710253E+00    0.3208639733E-01    0.1227050378E-02    0.4514572484E-01    0.6360856004E+00
    0.3500000000E+06    0.6347797809E+00    0.3126668096E-01    0.1192146354E-02    0.4515114501E-01    0.6373982683E+00
    0.3700000000E+06    0.6347873566E+00    0.3050965637E-01    0.1160012215E-02    0.4515621591E-01    0.6386093037E+00
    0.3900000000E+06    0.6347939459E+00    0.2980760526E-01    0.1130299286E-02    0.4516097917E-01    0.6397313382E+00
    0.4100000000E+06    0.6347997035E+00    0.2915408704E-01    0.1102717533E-02    0.4516546945E-01    0.6407748957E+00
    0.4300000000E+06    0.6348047540E+00    0.2854367789E-01    0.1077023439E-02    0.4516971593E-01    0.6417488259E+00
    0.4500000000E+06    0.6348091995E+00    0.2797177236E-01    0.1053010818E-02    0.4517374342E-01    0.6426606331E+00
    0.4700000000E+06    0.6348131238E+00    0.2743443051E-01    0.1030503751E-02    0.4517757312E-01    0.6435167292E+00
    0.4900000000E+06    0.6348165966E+00    0.2692825859E-01    0.1009351099E-02    0.4518122336E-01    0.6443226306E+00
    0.1000000000E+06    0.6343297912E+00    0.5319098748E-01    0.2159711540E-02    0.4501742064E-01    0.6017745225E+00
    0.3000000000E+06    0.6347551246E+00    0.3345451659E-01    0.1285552201E-02    0.4513682619E-01    0.6338916048E+00
    0.5000000000E+06    0.6348181822E+00    0.2668592659E-01    0.9992411390E-03    0.4518298622E-01    0.6447082763E+00
    0.7000000000E+06    0.6348363298E+00    0.2293148078E-01    0.8440732219E-03    0.4521177873E-01    0.6506680564E+00
    0.9000000000E+06    0.6348415461E+00    0.2045152698E-01    0.7431950567E-03    0.4523271360E-01    0.6545893906E+00
    0.1100000000E+07    0.6348417843E+00    0.1865310056E-01    0.6709222600E-03    0.4524916313E-01    0.6574255262E+00
    0.1300000000E+07    0.6348398208E+00    0.1727019194E-01    0.6158915126E-03    0.4526271135E-01    0.6596020775E+00
    0.1500000000E+07    0.6348368219E+00    0.1616302347E-01    0.5721962119E-03    0.4527422892E-01    0.6613419434E+00
    0.1700000000E+07    0.6348333370E+00    0.1525006697E-01    0.5364218263E-03    0.4528424563E-01    0.6627748048E+00
    0.1900000000E+07    0.6348296453E+00    0.1448008938E-01    0.5064388822E-03    0.4529310781E-01    0.6639819902E+00
    0.2100000000E+07    0.6348258957E+00    0.1381903805E-01    0.4808413469E-03    0.4530105433E-01    0.6650174655E+00
    0.2300000000E+07    0.6348221694E+00    0.1324326575E-01    0.4586585473E-03    0.4530825684E-01    0.6659186539E+00
    0.2500000000E+07    0.6348185111E+00    0.1273576249E-01    0.4391959339E-03    0.4531484285E-01    0.6667124422E+00
    0.2700000000E+07    0.6348149449E+00    0.1228393327E-01    0.4219416900E-03    0.4532090969E-01    0.6674187176E+00
    0.2900000000E+07    0.6348114827E+00    0.1187822353E-01    0.4065092516E-03    0.4532653331E-01    0.6680525525E+00
    0.3100000000E+07    0.6348081294E+00    0.1151123441E-01    0.3926004841E-03    0.4533177412E-01    0.6686256092E+00
    0.3300000000E+07    0.6348048856E+00    0.1117713409E-01    0.3799812776E-03    0.4533668098E-01    0.6691470727E+00
    0.3500000000E+07    0.6348017496E+00    0.1087125458E-01    0.3684648983E-03    0.4534129394E-01    0.6696242903E+00
    0.3700000000E+07    0.6347987180E+00    0.1058980858E-01    0.3579003420E-03    0.4534564626E-01    0.6700632193E+00
    0.3900000000E+07    0.6347957867E+00    0.1032968642E-01    0.3481640040E-03    0.4534976585E-01    0.6704687483E+00
    0.4100000000E+07    0.6347929515E+00    0.1008830741E-01    0.3391536063E-03    0.4535367637E-01    0.6708449322E+00
    0.4300000000E+07    0.6347902076E+00    0.9863509317E-02    0.3307836916E-03    0.4535739804E-01    0.6711951668E+00
    0.4500000000E+07    0.6347875506E+00    0.9653464809E-02    0.3229822286E-03    0.4536094828E-01    0.6715223205E+00
    0.4700000000E+07    0.6347849760E+00    0.9456617465E-02    0.3156880187E-03    0.4536434221E-01    0.6718288355E+00
    0.4900000000E+07    0.6347824796E+00    0.9271632140E-02    0.3088486891E-03    0.4536759303E-01    0.6721168059E+00
    0.1000000000E+07    0.6348420560E+00    0.1948799803E-01    0.7043776363E-03    0.4524137631E-01    0.6561096733E+00
    0.3000000000E+07    0.6348097923E+00    0.1169028467E-01    0.3993803167E-03    0.4532919828E-01    0.6683460546E+00
    0.5000000000E+07    0.6347812595E+00    0.9183221249E-02    0.3055852577E-03    0.4536916845E-01    0.6722544115E+00
    0.7000000000E+07    0.6347601020E+00    0.7825839584E-02    0.2559366182E-03    0.4539536154E-01    0.6743649949E+00
    0.9000000000E+07    0.6347434532E+00    0.6941723124E-02    0.2240966755E-03    0.4541488296E-01    0.6757375405E+00
    0.1100000000E+08    0.6347297596E+00    0.6306634491E-02    0.2014953683E-03    0.4543045321E-01    0.6767223930E+00
    0.1300000000E+08    0.6347181393E+00    0.5821684892E-02    0.1844029102E-03    0.4544340712E-01    0.6774737866E+00
    0.1500000000E+08    0.6347080502E+00    0.5435535881E-02    0.1709029354E-03    0.4545449971E-01    0.6780716924E+00
    0.1700000000E+08    0.6346991373E+00    0.5118516664E-02    0.1598973367E-03    0.4546419993E-01    0.6785622843E+00
    0.1900000000E+08    0.6346911557E+00    0.4852117398E-02    0.1507060643E-03    0.4547281911E-01    0.6789743448E+00
    0.2100000000E+08    0.6346839295E+00    0.4624108841E-02    0.1428826804E-03    0.4548057457E-01    0.6793268778E+00
    0.2300000000E+08    0.6346773283E+00    0.4426041369E-02    0.1361204720E-03    0.4548762400E-01    0.6796330064E+00
    0.2500000000E+08    0.6346712527E+00    0.4251863227E-02    0.1302008870E-03    0.4549408549E-01    0.6799021249E+00
    0.2700000000E+08    0.6346656252E+00    0.4097110255E-02    0.1249634553E-03    0.4550004977E-01    0.6801411600E+00
