  Pressure (Pa) 22mC5-500 (mol/kg) 23mC5-500 (mol/kg) 24mC5-500 (mol/kg) 2mC6-500 (mol/kg) 3mC6-500 (mol/kg)
    0.1000000000E+01    0.3424227139E-05    0.1987881531E-05    0.9949908715E-01    0.5637576725E-04    0.2084213724E-04
    0.3000000000E+01    0.8487218262E-05    0.4932308155E-05    0.2321107159E+00    0.1440350904E-03    0.6251310942E-04
    0.5000000000E+01    0.1233455761E-04    0.7176858030E-05    0.3164714014E+00    0.2157716911E-03    0.1041664493E-03
    0.7000000000E+01    0.1558237537E-04    0.9077853691E-05    0.3748641545E+00    0.2804288113E-03    0.1458022235E-03
    0.9000000000E+01    0.1850165839E-04    0.1079153698E-04    0.4176810668E+00    0.3416428224E-03    0.1874204716E-03
    0.1100000000E+02    0.2122737487E-04    0.1239547079E-04    0.4504215428E+00    0.4010932236E-03    0.2290212212E-03
    0.1300000000E+02    0.2383290206E-04    0.1393167512E-04    0.4762685405E+00    0.4596195134E-03    0.2706044943E-03
    0.1500000000E+02    0.2636081247E-04    0.1542443774E-04    0.4971920660E+00    0.5176650337E-03    0.3121703094E-03
    0.1700000000E+02    0.2883707248E-04    0.1688851279E-04    0.5144767199E+00    0.5754728126E-03    0.3537186837E-03
    0.1900000000E+02    0.3127815654E-04    0.1833322034E-04    0.5289959384E+00    0.6331790921E-03    0.3952496330E-03
    0.2100000000E+02    0.3369485245E-04    0.1976463450E-04    0.5413643144E+00    0.6908608367E-03    0.4367631722E-03
    0.2300000000E+02    0.3609440741E-04    0.2118681468E-04    0.5520268728E+00    0.7485610822E-03    0.4782593159E-03
    0.2500000000E+02    0.3848179240E-04    0.2260252934E-04    0.5613137796E+00    0.8063030087E-03    0.5197380784E-03
    0.2700000000E+02    0.4086047502E-04    0.2401369731E-04    0.5694751536E+00    0.8640980088E-03    0.5611994735E-03
    0.2900000000E+02    0.4323290697E-04    0.2542166542E-04    0.5767039395E+00    0.9219504345E-03    0.6026435150E-03
    0.3100000000E+02    0.4560083977E-04    0.2682738786E-04    0.5831513621E+00    0.9798604485E-03    0.6440702165E-03
    0.3300000000E+02    0.4796553426E-04    0.2823154484E-04    0.5889376251E+00    0.1037825763E-02    0.6854795914E-03
    0.3500000000E+02    0.5032790235E-04    0.2963462265E-04    0.5941594772E+00    0.1095842712E-02    0.7268716531E-03
    0.3700000000E+02    0.5268860472E-04    0.3103696868E-04    0.5988956676E+00    0.1153906918E-02    0.7682464150E-03
    0.3900000000E+02    0.5504811923E-04    0.3243882982E-04    0.6032109454E+00    0.1212013700E-02    0.8096038902E-03
    0.4100000000E+02    0.5740678955E-04    0.3384037964E-04    0.6071590393E+00    0.1270158330E-02    0.8509440920E-03
    0.4300000000E+02    0.5976486004E-04    0.3524173784E-04    0.6107849058E+00    0.1328336187E-02    0.8922670333E-03
    0.4500000000E+02    0.6212250124E-04    0.3664298437E-04    0.6141264501E+00    0.1386542839E-02    0.9335727275E-03
    0.4700000000E+02    0.6447982843E-04    0.3804416972E-04    0.6172158559E+00    0.1444774099E-02    0.9748611874E-03
    0.4900000000E+02    0.6683691554E-04    0.3944532255E-04    0.6200806258E+00    0.1503026042E-02    0.1016132426E-02
    0.1000000000E+02    0.1988316119E-04    0.1160404017E-04    0.4350746076E+00    0.3715232967E-03    0.2082230323E-03
    0.3000000000E+02    0.4441734738E-04    0.2612475950E-04    0.5800171824E+00    0.9508983436E-03    0.6233590324E-03
    0.5000000000E+02    0.6801538345E-04    0.4014589118E-04    0.6214362928E+00    0.1532158616E-02    0.1036761592E-02
    0.7000000000E+02    0.9157320950E-04    0.5415387906E-04    0.6410591728E+00    0.2115144455E-02    0.1448443957E-02
    0.9000000000E+02    0.1150867087E-03    0.6813908122E-04    0.6525073002E+00    0.2697422394E-02    0.1858418994E-02
    0.1100000000E+03    0.1385208007E-03    0.8207878567E-04    0.6600085331E+00    0.3277861887E-02    0.2266699388E-02
    0.1300000000E+03    0.1618501144E-03    0.9595732973E-04    0.6653039401E+00    0.3855907380E-02    0.2673297682E-02
    0.1500000000E+03    0.1850580661E-03    0.1097646667E-03    0.6692418101E+00    0.4431264635E-02    0.3078226285E-02
    0.1700000000E+03    0.2081338542E-03    0.1234943236E-03    0.6722848813E+00    0.5003769550E-02    0.3481497477E-02
    0.1900000000E+03    0.2310703760E-03    0.1371420757E-03    0.6747070366E+00    0.5573328255E-02    0.3883123411E-02
    0.2100000000E+03    0.2538629367E-03    0.1507051473E-03    0.6766807307E+00    0.6139887347E-02    0.4283116117E-02
    0.2300000000E+03    0.2765084511E-03    0.1641817238E-03    0.6783199646E+00    0.6703418003E-02    0.4681487505E-02
    0.2500000000E+03    0.2990049387E-03    0.1775706463E-03    0.6797031174E+00    0.7263906987E-02    0.5078249362E-02
    0.2700000000E+03    0.3213511954E-03    0.1908712150E-03    0.6808858518E+00    0.7821351293E-02    0.5473413358E-02
    0.2900000000E+03    0.3435465756E-03    0.2040830590E-03    0.6819087881E+00    0.8375754833E-02    0.5866991048E-02
    0.3100000000E+03    0.3655908419E-03    0.2172060466E-03    0.6828022638E+00    0.8927126299E-02    0.6258993870E-02
    0.3300000000E+03    0.3874840606E-03    0.2302402244E-03    0.6835893940E+00    0.9475477756E-02    0.6649433149E-02
    0.3500000000E+03    0.4092265273E-03    0.2431857721E-03    0.6842880998E+00    0.1002082368E-01    0.7038320099E-02
    0.3700000000E+03    0.4308187122E-03    0.2560429716E-03    0.6849124897E+00    0.1056318027E-01    0.7425665820E-02
    0.3900000000E+03    0.4522612200E-03    0.2688121825E-03    0.6854738223E+00    0.1110256503E-01    0.7811481307E-02
    0.4100000000E+03    0.4735547594E-03    0.2814938251E-03    0.6859811913E+00    0.1163899634E-01    0.8195777444E-02
    0.4300000000E+03    0.4947001209E-03    0.2940883666E-03    0.6864420218E+00    0.1217249328E-01    0.8578565010E-02
    0.4500000000E+03    0.5156981582E-03    0.3065963109E-03    0.6868624367E+00    0.1270307542E-01    0.8959854676E-02
    0.4700000000E+03    0.5365497750E-03    0.3190181905E-03    0.6872475296E+00    0.1323076263E-01    0.9339657013E-02
    0.4900000000E+03    0.5572559141E-03    0.3313545605E-03    0.6876015729E+00    0.1375557504E-01    0.9717982487E-02
    0.1000000000E+03    0.1268155116E-03    0.7511575976E-04    0.6566116681E+00    0.2987915143E-02    0.2062770234E-02
    0.3000000000E+03    0.3545875999E-03    0.2106556605E-03    0.6823701222E+00    0.8651818887E-02    0.6063188607E-02
    0.5000000000E+03    0.5675547326E-03    0.3374908576E-03    0.6877681013E+00    0.1401690953E-01    0.9906594643E-02
    0.7000000000E+03    0.7661414454E-03    0.4558731599E-03    0.6901081581E+00    0.1909764862E-01    0.1360378311E-01
    0.9000000000E+03    0.9513644082E-03    0.5663990840E-03    0.6914152466E+00    0.2391395513E-01    0.1716454977E-01
    0.1100000000E+04    0.1124236969E-02    0.6696619140E-03    0.6922496959E+00    0.2848461397E-01    0.2059780571E-01
    0.1300000000E+04    0.1285701858E-02    0.7662132298E-03    0.6928286227E+00    0.3282684914E-01    0.2391167604E-01
    0.1500000000E+04    0.1436622656E-02    0.8565582181E-03    0.6932538175E+00    0.3695638216E-01    0.2711358565E-01
    0.1700000000E+04    0.1577787152E-02    0.9411577489E-03    0.6935793414E+00    0.4088756245E-01    0.3021033386E-01
    0.1900000000E+04    0.1709913487E-02    0.1020432007E-02    0.6938365663E+00    0.4463350240E-01    0.3320815972E-01
    0.2100000000E+04    0.1833656678E-02    0.1094764321E-02    0.6940449482E+00    0.4820620271E-01    0.3611279923E-01
    0.2300000000E+04    0.1949614818E-02    0.1164504793E-02    0.6942171937E+00    0.5161666490E-01    0.3892953565E-01
    0.2500000000E+04    0.2058334744E-02    0.1229973605E-02    0.6943619535E+00    0.5487499155E-01    0.4166324388E-01
    0.2700000000E+04    0.2160317132E-02    0.1291463993E-02    0.6944853213E+00    0.5799047510E-01    0.4431842969E-01
    0.2900000000E+04    0.2256021045E-02    0.1349244904E-02    0.6945917130E+00    0.6097167666E-01    0.4689926448E-01
    0.3100000000E+04    0.2345867995E-02    0.1403563362E-02    0.6946844075E+00    0.6382649592E-01    0.4940961612E-01
    0.3300000000E+04    0.2430245554E-02    0.1454646570E-02    0.6947658902E+00    0.6656223328E-01    0.5185307655E-01
    0.3500000000E+04    0.2509510570E-02    0.1502703792E-02    0.6948380796E+00    0.6918564523E-01    0.5423298621E-01
    0.3700000000E+04    0.2583992042E-02    0.1547928025E-02    0.6949024800E+00    0.7170299365E-01    0.5655245609E-01
    0.3900000000E+04    0.2653993678E-02    0.1590497490E-02    0.6949602877E+00    0.7412008998E-01    0.5881438738E-01
    0.4100000000E+04    0.2719796194E-02    0.1630576974E-02    0.6950124658E+00    0.7644233474E-01    0.6102148910E-01
    0.4300000000E+04    0.2781659361E-02    0.1668319026E-02    0.6950597986E+00    0.7867475290E-01    0.6317629410E-01
    0.4500000000E+04    0.2839823853E-02    0.1703865028E-02    0.6951029313E+00    0.8082202582E-01    0.6528117330E-01
    0.4700000000E+04    0.2894512898E-02    0.1737346165E-02    0.6951423991E+00    0.8288851990E-01    0.6733834873E-01
    0.4900000000E+04    0.2945933774E-02    0.1768884292E-02    0.6951786502E+00    0.8487831245E-01    0.6934990518E-01
    0.1000000000E+04    0.1039283714E-02    0.6189028232E-03    0.6918739351E+00    0.2622887744E-01    0.1889659140E-01
    0.3000000000E+04    0.2301651661E-02    0.1376822298E-02    0.6946396015E+00    0.6241441444E-01    0.4816302003E-01
    0.5000000000E+04    0.2970479392E-02    0.1783960449E-02    0.6951956900E+00    0.8584564656E-01    0.7033919290E-01
    0.7000000000E+04    0.3329994241E-02    0.2007126705E-02    0.6954343687E+00    0.1019704555E+00    0.8814774133E-01
    0.9000000000E+04    0.3515850244E-02    0.2126242908E-02    0.6955670753E+00    0.1135442177E+00    0.1030345094E+00
    0.1100000000E+05    0.3599120577E-02    0.2183367894E-02    0.6956515713E+00    0.1221050149E+00    0.1158455991E+00
    0.1300000000E+05    0.3619680353E-02    0.2202215000E-02    0.6957100928E+00    0.1285765756E+00    0.1271131074E+00
    0.1500000000E+05    0.3601087774E-02    0.2196870736E-02    0.6957530229E+00    0.1335458683E+00    0.1371907932E+00
    0.1700000000E+05    0.3557826469E-02    0.2176048128E-02    0.6957858611E+00    0.1374029879E+00    0.1463244946E+00
    0.1900000000E+05    0.3499081064E-02    0.2145309916E-02    0.6958117924E+00    0.1404168348E+00    0.1546913278E+00
    0.2100000000E+05    0.3430817307E-02    0.2108296936E-02    0.6958327891E+00    0.1427784713E+00    0.1624227795E+00
    0.2300000000E+05    0.3356981270E-02    0.2067438484E-02    0.6958501375E+00    0.1446271659E+00    0.1696189604E+00
    0.2500000000E+05    0.3280217325E-02    0.2024379028E-02    0.6958647129E+00    0.1460666708E+00    0.1763577559E+00
    0.2700000000E+05    0.3202311950E-02    0.1980242915E-02    0.6958771310E+00    0.1471757484E+00    0.1827009011E+00
    0.2900000000E+05    0.3124475634E-02    0.1935803151E-02    0.6958878380E+00    0.1480151783E+00    0.1886981323E+00
    0.3100000000E+05    0.3047526170E-02    0.1891591588E-02    0.6958971648E+00    0.1486325435E+00    0.1943900956E+00
    0.3300000000E+05    0.2972010276E-02    0.1847972358E-02    0.6959053622E+00    0.1490655733E+00    0.1998104321E+00
    0.3500000000E+05    0.2898285704E-02    0.1805191674E-02    0.6959126238E+00    0.1493445249E+00    0.2049873012E+00
    0.3700000000E+05    0.2826577529E-02    0.1763412155E-02    0.6959191011E+00    0.1494939109E+00    0.2099445131E+00
    0.3900000000E+05    0.2757017241E-02    0.1722736790E-02    0.6959249148E+00    0.1495337715E+00    0.2147023854E+00
    0.4100000000E+05    0.2689670209E-02    0.1683225869E-02    0.6959301619E+00    0.1494806267E+00    0.2192783987E+00
    0.4300000000E+05    0.2624555148E-02    0.1644909076E-02    0.6959349214E+00    0.1493481963E+00    0.2236877062E+00
    0.4500000000E+05    0.2561658045E-02    0.1607794189E-02    0.6959392583E+00    0.1491479525E+00    0.2279435339E+00
    0.4700000000E+05    0.2500942166E-02    0.1571873396E-02    0.6959432265E+00    0.1488895473E+00    0.2320574982E+00
    0.4900000000E+05    0.2442355301E-02    0.1537127897E-02    0.6959468712E+00    0.1485811481E+00    0.2360398608E+00
    0.1000000000E+05    0.3567312525E-02    0.2160775334E-02    0.6956135433E+00    0.1181333033E+00    0.1096609322E+00
    0.3000000000E+05    0.3085850637E-02    0.1913642830E-02    0.6958926567E+00    0.1483490616E+00    0.1915800257E+00
    0.5000000000E+05    0.2413841024E-02    0.1520187853E-02    0.6959485843E+00    0.1484104132E+00    0.2379845795E+00
    0.7000000000E+05    0.1938233416E-02    0.1234915793E-02    0.6959725777E+00    0.1436064090E+00    0.2717316078E+00
    0.9000000000E+05    0.1598370167E-02    0.1027958901E-02    0.6959859174E+00    0.1377804221E+00    0.2985770195E+00
    0.1100000000E+06    0.1346587961E-02    0.8728803174E-03    0.6959944116E+00    0.1319213979E+00    0.3209407092E+00
    0.1300000000E+06    0.1153879728E-02    0.7530808863E-03    0.6960002952E+00    0.1263313263E+00    0.3401048404E+00
    0.1500000000E+06    0.1002375333E-02    0.6581525234E-03    0.6960046118E+00    0.1210978447E+00    0.3568459594E+00
    0.1700000000E+06    0.8806232390E-03    0.5813414757E-03    0.6960079140E+00    0.1162325009E+00    0.3716771217E+00
    0.1900000000E+06    0.7809910193E-03    0.5181017766E-03    0.6960105218E+00    0.1117187226E+00    0.3849585552E+00
    0.2100000000E+06    0.6982122261E-03    0.4652707839E-03    0.6960126336E+00    0.1075302700E+00    0.3969547574E+00
    0.2300000000E+06    0.6285430538E-03    0.4205842408E-03    0.6960143786E+00    0.1036387391E+00    0.4078666886E+00
    0.2500000000E+06    0.5692532569E-03    0.3823805115E-03    0.6960158448E+00    0.1000166369E+00    0.4178511980E+00
    0.2700000000E+06    0.5183074539E-03    0.3494138615E-03    0.6960170940E+00    0.9663856272E-01    0.4270333904E+00
    0.2900000000E+06    0.4741590357E-03    0.3207328425E-03    0.6960181711E+00    0.9348155746E-01    0.4355148480E+00
    0.3100000000E+06    0.4356130116E-03    0.2955988473E-03    0.6960191094E+00    0.9052508607E-01    0.4433792940E+00
    0.3300000000E+06    0.4017323913E-03    0.2734302064E-03    0.6960199340E+00    0.8775086856E-01    0.4506966129E+00
    0.3500000000E+06    0.3717728336E-03    0.2537629636E-03    0.6960206645E+00    0.8514265776E-01    0.4575257783E+00
    0.3700000000E+06    0.3451361058E-03    0.2362228135E-03    0.6960213162E+00    0.8268600969E-01    0.4639170300E+00
    0.3900000000E+06    0.3213363433E-03    0.2205046682E-03    0.6960219010E+00    0.8036806679E-01    0.4699135263E+00
    0.4100000000E+06    0.2999751922E-03    0.2063575436E-03    0.6960224288E+00    0.7817736202E-01    0.4755526162E+00
    0.4300000000E+06    0.2807232302E-03    0.1935732207E-03    0.6960229076E+00    0.7610364546E-01    0.4808668354E+00
    0.4500000000E+06    0.2633058952E-03    0.1819776273E-03    0.6960233438E+00    0.7413773299E-01    0.4858846947E+00
    0.4700000000E+06    0.2474927006E-03    0.1714242108E-03    0.6960237429E+00    0.7227137488E-01    0.4906313125E+00
    0.4900000000E+06    0.2330888784E-03    0.1617887868E-03    0.6960241094E+00    0.7049714215E-01    0.4951289263E+00
    0.1000000000E+06    0.1463618385E-02    0.9451569856E-03    0.6959905886E+00    0.1348283482E+00    0.3102227045E+00
    0.3000000000E+06    0.4542494570E-03    0.3077619746E-03    0.6960186558E+00    0.9197944789E-01    0.4395195440E+00
    0.5000000000E+06    0.2263627442E-03    0.1572816168E-03    0.6960242817E+00    0.6964245120E-01    0.4972906228E+00
    0.7000000000E+06    0.1362950631E-03    0.9636570384E-04    0.6960266933E+00    0.5605969935E-01    0.5312703092E+00
    0.9000000000E+06    0.9122013227E-04    0.6536399566E-04    0.6960280319E+00    0.4691242732E-01    0.5538266125E+00
    0.1100000000E+07    0.6537606661E-04    0.4735640466E-04    0.6960288824E+00    0.4032756581E-01    0.5699355674E+00
    0.1300000000E+07    0.4916587865E-04    0.3594082447E-04    0.6960294700E+00    0.3535901314E-01    0.5820297588E+00
    0.1500000000E+07    0.3832437591E-04    0.2823699968E-04    0.6960298998E+00    0.3147624305E-01    0.5914487704E+00
    0.1700000000E+07    0.3071439971E-04    0.2278709749E-04    0.6960302274E+00    0.2835832231E-01    0.5989937574E+00
    0.1900000000E+07    0.2516697276E-04    0.1878683115E-04    0.6960304851E+00    0.2579957065E-01    0.6051741677E+00
    0.2100000000E+07    0.2099823625E-04    0.1576214588E-04    0.6960306930E+00    0.2366203165E-01    0.6103297747E+00
    0.2300000000E+07    0.1778620911E-04    0.1341856897E-04    0.6960308640E+00    0.2184969634E-01    0.6146960310E+00
    0.2500000000E+07    0.1525894094E-04    0.1156518570E-04    0.6960310070E+00    0.2029367672E-01    0.6184413152E+00
    0.2700000000E+07    0.1323472312E-04    0.1007373801E-04    0.6960311282E+00    0.1894325690E-01    0.6216892593E+00
    0.2900000000E+07    0.1158837887E-04    0.8855429685E-05    0.6960312321E+00    0.1776027008E-01    0.6245327015E+00
    0.3100000000E+07    0.1023138884E-04    0.7847179076E-05    0.6960313222E+00    0.1671544265E-01    0.6270427199E+00
    0.3300000000E+07    0.9099719582E-05    0.7003159028E-05    0.6960314009E+00    0.1578594637E-01    0.6292746586E+00
    0.3500000000E+07    0.8146120770E-05    0.6289418934E-05    0.6960314702E+00    0.1495371709E-01    0.6312722552E+00
    0.3700000000E+07    0.7335109190E-05    0.5680367961E-05    0.6960315316E+00    0.1420427368E-01    0.6330705328E+00
    0.3900000000E+07    0.6639618951E-05    0.5156417360E-05    0.6960315863E+00    0.1352587184E-01    0.6346978682E+00
    0.4100000000E+07    0.6038713952E-05    0.4702364529E-05    0.6960316354E+00    0.1290888678E-01    0.6361774969E+00
    0.4300000000E+07    0.5515994257E-05    0.4306263367E-05    0.6960316796E+00    0.1234535595E-01    0.6375286277E+00
    0.4500000000E+07    0.5058465771E-05    0.3958620440E-05    0.6960317196E+00    0.1182863506E-01    0.6387672782E+00
    0.4700000000E+07    0.4655725417E-05    0.3651813720E-05    0.6960317560E+00    0.1135313627E-01    0.6399069115E+00
    0.4900000000E+07    0.4299365014E-05    0.3379666090E-05    0.6960317890E+00    0.1091412631E-01    0.6409589255E+00
    0.1000000000E+07    0.7668308377E-04    0.5526038971E-04    0.6960284999E+00    0.4337226860E-01    0.5624992301E+00
    0.3000000000E+07    0.1087818389E-04    0.8328241400E-05    0.6960312787E+00    0.1722214161E-01    0.6258256166E+00
    0.5000000000E+07    0.4136384031E-05    0.3254974423E-05    0.6960318045E+00    0.1070701974E-01    0.6414551681E+00
    0.7000000000E+07    0.2166461608E-05    0.1733764734E-05    0.6960320122E+00    0.7755435254E-02    0.6485240646E+00
    0.9000000000E+07    0.1333542541E-05    0.1079372355E-05    0.6960321159E+00    0.6073750373E-02    0.6525494406E+00
    0.1100000000E+08    0.9051684987E-06    0.7384538420E-06    0.6960321733E+00    0.4988359468E-02    0.6551470290E+00
    0.1300000000E+08    0.6561348710E-06    0.5382367925E-06    0.6960322066E+00    0.4230268449E-02    0.6569612626E+00
    0.1500000000E+08    0.4986394913E-06    0.4105580841E-06    0.6960322257E+00    0.3671037750E-02    0.6582996494E+00
    0.1700000000E+08    0.3927104748E-06    0.3240853236E-06    0.6960322362E+00    0.3241614025E-02    0.6593274560E+00
    0.1900000000E+08    0.3180340635E-06    0.2627650820E-06    0.6960322408E+00    0.2901575833E-02    0.6601414032E+00
    0.2100000000E+08    0.2633991026E-06    0.2176749252E-06    0.6960322416E+00    0.2625693529E-02    0.6608018529E+00
    0.2300000000E+08    0.2222073125E-06    0.1835310497E-06    0.6960322395E+00    0.2397408270E-02    0.6613484198E+00
    0.2500000000E+08    0.1903697035E-06    0.1570410170E-06    0.6960322355E+00    0.2205403498E-02    0.6618081762E+00
    0.2700000000E+08    0.1652426756E-06    0.1360656831E-06    0.6960322300E+00    0.2041683539E-02    0.6622002499E+00
