  Pressure (Pa) 22mC5-500 (mol/kg) 23mC5-500 (mol/kg) 24mC5-500 (mol/kg) 2mC6-500 (mol/kg) 3mC6-500 (mol/kg)
    0.1000000000E+01    0.3300583933E-05    0.6707404545E-05    0.1266355218E+00    0.1638228704E-04    0.2605355160E-04
    0.3000000000E+01    0.7885810631E-05    0.1604938126E-04    0.2785392629E+00    0.4076876324E-04    0.7814935386E-04
    0.5000000000E+01    0.1130600944E-04    0.2304826833E-04    0.3664558032E+00    0.6076376289E-04    0.1302302505E-03
    0.7000000000E+01    0.1423304141E-04    0.2906188763E-04    0.4237826334E+00    0.7916381516E-04    0.1822963261E-03
    0.9000000000E+01    0.1691903102E-04    0.3459755784E-04    0.4641194261E+00    0.9691928745E-04    0.2343476216E-03
    0.1100000000E+02    0.1947602281E-04    0.3987965845E-04    0.4940446588E+00    0.1144069309E-03    0.2863841613E-03
    0.1300000000E+02    0.2195969283E-04    0.4501910546E-04    0.5171287712E+00    0.1317906174E-03    0.3384059625E-03
    0.1500000000E+02    0.2439997901E-04    0.5007519815E-04    0.5354770998E+00    0.1491454260E-03    0.3904130386E-03
    0.1700000000E+02    0.2681394158E-04    0.5508151233E-04    0.5504114581E+00    0.1665063032E-03    0.4424054009E-03
    0.1900000000E+02    0.2921173582E-04    0.6005788948E-04    0.5628036094E+00    0.1838890312E-03    0.4943830596E-03
    0.2100000000E+02    0.3159960901E-04    0.6501643351E-04    0.5732517849E+00    0.2012999187E-03    0.5463460238E-03
    0.2300000000E+02    0.3398149924E-04    0.6996469913E-04    0.5821801639E+00    0.2187405212E-03    0.5982943024E-03
    0.2500000000E+02    0.3635993176E-04    0.7490747290E-04    0.5898978816E+00    0.2362100290E-03    0.6502279039E-03
    0.2700000000E+02    0.3873654251E-04    0.7984780959E-04    0.5966355554E+00    0.2537065088E-03    0.7021468363E-03
    0.2900000000E+02    0.4111239457E-04    0.8478765594E-04    0.6025687255E+00    0.2712275577E-03    0.7540511076E-03
    0.3100000000E+02    0.4348817501E-04    0.8972823711E-04    0.6078333705E+00    0.2887706487E-03    0.8059407256E-03
    0.3300000000E+02    0.4586432044E-04    0.9467030185E-04    0.6125364586E+00    0.3063333084E-03    0.8578156981E-03
    0.3500000000E+02    0.4824109875E-04    0.9961428139E-04    0.6167632923E+00    0.3239132049E-03    0.9096760327E-03
    0.3700000000E+02    0.5061866329E-04    0.1045603941E-03    0.6205827293E+00    0.3415081859E-03    0.9615217370E-03
    0.3900000000E+02    0.5299708935E-04    0.1095087156E-03    0.6240509634E+00    0.3591162888E-03    0.1013352818E-02
    0.4100000000E+02    0.5537639902E-04    0.1144592259E-03    0.6272143076E+00    0.3767357372E-03    0.1065169284E-02
    0.4300000000E+02    0.5775657836E-04    0.1194118421E-03    0.6301112749E+00    0.3943649300E-03    0.1116971142E-02
    0.4500000000E+02    0.6013758925E-04    0.1243664406E-03    0.6327741534E+00    0.4120024274E-03    0.1168758400E-02
    0.4700000000E+02    0.6251937773E-04    0.1293228724E-03    0.6352302156E+00    0.4296469354E-03    0.1220531064E-02
    0.4900000000E+02    0.6490187989E-04    0.1342809739E-03    0.6375026559E+00    0.4472972914E-03    0.1272289142E-02
    0.1000000000E+02    0.1820934007E-04    0.3726170151E-04    0.4801141523E+00    0.1056833729E-03    0.2603677347E-03
    0.3000000000E+02    0.4230026171E-04    0.8725779890E-04    0.6052773467E+00    0.2799965052E-03    0.7799977478E-03
    0.5000000000E+02    0.6609337694E-04    0.1367605976E-03    0.6385763350E+00    0.4561243315E-03    0.1298162714E-02
    0.7000000000E+02    0.8994335057E-04    0.1864000466E-03    0.6539972651E+00    0.6327682267E-03    0.1814870175E-02
    0.9000000000E+02    0.1137902793E-03    0.2360379799E-03    0.6628911908E+00    0.8092761562E-03    0.2330127376E-02
    0.1100000000E+03    0.1375923325E-03    0.2855846386E-03    0.6686782950E+00    0.9853878868E-03    0.2843941466E-02
    0.1300000000E+03    0.1613249709E-03    0.3349884524E-03    0.6727444731E+00    0.1160983136E-02    0.3356319534E-02
    0.1500000000E+03    0.1849733940E-03    0.3842186669E-03    0.6757580183E+00    0.1335999978E-02    0.3867268614E-02
    0.1700000000E+03    0.2085283021E-03    0.4332561061E-03    0.6780808503E+00    0.1510404162E-02    0.4376795689E-02
    0.1900000000E+03    0.2319836497E-03    0.4820883776E-03    0.6799260314E+00    0.1684175914E-02    0.4884907695E-02
    0.2100000000E+03    0.2553354096E-03    0.5307072691E-03    0.6814271627E+00    0.1857303616E-02    0.5391611519E-02
    0.2300000000E+03    0.2785808611E-03    0.5791072588E-03    0.6826722687E+00    0.2029780531E-02    0.5896914002E-02
    0.2500000000E+03    0.3017181597E-03    0.6272846218E-03    0.6837217053E+00    0.2201602987E-02    0.6400821939E-02
    0.2700000000E+03    0.3247460672E-03    0.6752368725E-03    0.6846182387E+00    0.2372769305E-02    0.6903342079E-02
    0.2900000000E+03    0.3476637759E-03    0.7229624024E-03    0.6853930187E+00    0.2543279152E-02    0.7404481128E-02
    0.3100000000E+03    0.3704707913E-03    0.7704602386E-03    0.6860692715E+00    0.2713133125E-02    0.7904245744E-02
    0.3300000000E+03    0.3931668504E-03    0.8177298779E-03    0.6866646689E+00    0.2882332480E-02    0.8402642546E-02
    0.3500000000E+03    0.4157518647E-03    0.8647711699E-03    0.6871928948E+00    0.3050878945E-02    0.8899678104E-02
    0.3700000000E+03    0.4382258794E-03    0.9115842336E-03    0.6876647101E+00    0.3218774595E-02    0.9395358947E-02
    0.3900000000E+03    0.4605890429E-03    0.9581693957E-03    0.6880886937E+00    0.3386021762E-02    0.9889691562E-02
    0.4100000000E+03    0.4828415841E-03    0.1004527145E-02    0.6884717688E+00    0.3552622970E-02    0.1038268239E-01
    0.4300000000E+03    0.5049837959E-03    0.1050658099E-02    0.6888195840E+00    0.3718580886E-02    0.1087433784E-01
    0.4500000000E+03    0.5270160220E-03    0.1096562977E-02    0.6891367936E+00    0.3883898287E-02    0.1136466426E-01
    0.4700000000E+03    0.5489386465E-03    0.1142242577E-02    0.6894272673E+00    0.4048578031E-02    0.1185366798E-01
    0.4900000000E+03    0.5707520863E-03    0.1187697764E-02    0.6896942488E+00    0.4212623038E-02    0.1234135526E-01
    0.1000000000E+03    0.1256987470E-03    0.2608265837E-03    0.6660616111E+00    0.8973909990E-03    0.2587214365E-02
    0.3000000000E+03    0.3590811414E-03    0.7467398231E-03    0.6857422477E+00    0.2628288057E-02    0.7654534825E-02
    0.5000000000E+03    0.5816179996E-03    0.1210341488E-02    0.6898198031E+00    0.4294408441E-02    0.1258470720E-01
    0.7000000000E+03    0.7933221566E-03    0.1651677850E-02    0.6915824915E+00    0.5897531787E-02    0.1738413720E-01
    0.9000000000E+03    0.9946938135E-03    0.2071778124E-02    0.6925657866E+00    0.7440661263E-02    0.2205882663E-01
    0.1100000000E+04    0.1186270691E-02    0.2471743742E-02    0.6931930458E+00    0.8926747313E-02    0.2661440503E-01
    0.1300000000E+04    0.1368574629E-02    0.2852642192E-02    0.6936280108E+00    0.1035858517E-01    0.3105615832E-01
    0.1500000000E+04    0.1542100554E-02    0.3215485415E-02    0.6939473606E+00    0.1173880458E-01    0.3538905467E-01
    0.1700000000E+04    0.1707314484E-02    0.3561226089E-02    0.6941917879E+00    0.1306987584E-01    0.3961776816E-01
    0.1900000000E+04    0.1864654109E-02    0.3890758974E-02    0.6943848933E+00    0.1435411940E-01    0.4374670029E-01
    0.2100000000E+04    0.2014530193E-02    0.4204923840E-02    0.6945413068E+00    0.1559371596E-01    0.4777999971E-01
    0.2300000000E+04    0.2157328223E-02    0.4504508870E-02    0.6946705801E+00    0.1679071633E-01    0.5172158017E-01
    0.2500000000E+04    0.2293410080E-02    0.4790254087E-02    0.6947792139E+00    0.1794705059E-01    0.5557513703E-01
    0.2700000000E+04    0.2423115657E-02    0.5062854665E-02    0.6948717864E+00    0.1906453662E-01    0.5934416238E-01
    0.2900000000E+04    0.2546764382E-02    0.5322964042E-02    0.6949516149E+00    0.2014488800E-01    0.6303195886E-01
    0.3100000000E+04    0.2664656645E-02    0.5571196821E-02    0.6950211619E+00    0.2118972120E-01    0.6664165252E-01
    0.3300000000E+04    0.2777075114E-02    0.5808131466E-02    0.6950822939E+00    0.2220056231E-01    0.7017620446E-01
    0.3500000000E+04    0.2884285959E-02    0.6034312792E-02    0.6951364514E+00    0.2317885315E-01    0.7363842169E-01
    0.3700000000E+04    0.2986539981E-02    0.6250254262E-02    0.6951847636E+00    0.2412595693E-01    0.7703096709E-01
    0.3900000000E+04    0.3084073652E-02    0.6456440115E-02    0.6952281287E+00    0.2504316348E-01    0.8035636864E-01
    0.4100000000E+04    0.3177110080E-02    0.6653327324E-02    0.6952672696E+00    0.2593169407E-01    0.8361702791E-01
    0.4300000000E+04    0.3265859897E-02    0.6841347408E-02    0.6953027750E+00    0.2679270580E-01    0.8681522795E-01
    0.4500000000E+04    0.3350522078E-02    0.7020908101E-02    0.6953351291E+00    0.2762729577E-01    0.8995314056E-01
    0.4700000000E+04    0.3431284702E-02    0.7192394905E-02    0.6953647337E+00    0.2843650484E-01    0.9303283306E-01
    0.4900000000E+04    0.3508325655E-02    0.7356172516E-02    0.6953919250E+00    0.2922132115E-01    0.9605627459E-01
    0.1000000000E+04    0.1091673410E-02    0.2274209854E-02    0.6929106307E+00    0.8190656119E-02    0.2435116660E-01
    0.3000000000E+04    0.2606412004E-02    0.5448528035E-02    0.6949875453E+00    0.2067164695E-01    0.6484637974E-01
    0.5000000000E+04    0.3545503469E-02    0.7435278981E-02    0.6954047060E+00    0.2960487721E-01    0.9754749118E-01
    0.7000000000E+04    0.4130086812E-02    0.8687393542E-02    0.6955837253E+00    0.3620018954E-01    0.1248311269E+00
    0.9000000000E+04    0.4487427267E-02    0.9466186466E-02    0.6956832579E+00    0.4118094404E-01    0.1481665497E+00
    0.1100000000E+05    0.4694675469E-02    0.9930536053E-02    0.6957466324E+00    0.4500473404E-01    0.1685141025E+00
    0.1300000000E+05    0.4800585149E-02    0.1018117368E-01    0.6957905268E+00    0.4797445813E-01    0.1865303028E+00
    0.1500000000E+05    0.4837011546E-02    0.1028415791E-01    0.6958227282E+00    0.5029820709E-01    0.2026808740E+00
    0.1700000000E+05    0.4825341148E-02    0.1028401784E-01    0.6958473610E+00    0.5212343512E-01    0.2173066015E+00
    0.1900000000E+05    0.4780254164E-02    0.1021145573E-01    0.6958668136E+00    0.5355739882E-01    0.2306635170E+00
    0.2100000000E+05    0.4712011938E-02    0.1008803768E-01    0.6958825653E+00    0.5467987936E-01    0.2429483960E+00
    0.2300000000E+05    0.4627893594E-02    0.9929145209E-02    0.6958955807E+00    0.5555137636E-01    0.2543154879E+00
    0.2500000000E+05    0.4533123946E-02    0.9745885524E-02    0.6959065163E+00    0.5621854391E-01    0.2648878175E+00
    0.2700000000E+05    0.4431487556E-02    0.9546358475E-02    0.6959158337E+00    0.5671789159E-01    0.2747650152E+00
    0.2900000000E+05    0.4325743807E-02    0.9336515008E-02    0.6959238677E+00    0.5707836238E-01    0.2840288683E+00
    0.3100000000E+05    0.4217912757E-02    0.9120749885E-02    0.6959308664E+00    0.5732316537E-01    0.2927473341E+00
    0.3300000000E+05    0.4109475265E-02    0.8902317797E-02    0.6959370179E+00    0.5747110239E-01    0.3009774947E+00
    0.3500000000E+05    0.4001515165E-02    0.8683629840E-02    0.6959424673E+00    0.5753754426E-01    0.3087677694E+00
    0.3700000000E+05    0.3894821577E-02    0.8466467554E-02    0.6959473285E+00    0.5753515987E-01    0.3161595935E+00
    0.3900000000E+05    0.3789963392E-02    0.8252139260E-02    0.6959516918E+00    0.5747446796E-01    0.3231887115E+00
    0.4100000000E+05    0.3687344063E-02    0.8041595474E-02    0.6959556300E+00    0.5736426000E-01    0.3298861844E+00
    0.4300000000E+05    0.3587242261E-02    0.7835514887E-02    0.6959592024E+00    0.5721192777E-01    0.3362791840E+00
    0.4500000000E+05    0.3489842311E-02    0.7634368979E-02    0.6959624578E+00    0.5702371981E-01    0.3423916250E+00
    0.4700000000E+05    0.3395257112E-02    0.7438470915E-02    0.6959654365E+00    0.5680494412E-01    0.3482446736E+00
    0.4900000000E+05    0.3303545533E-02    0.7248012813E-02    0.6959681725E+00    0.5656012974E-01    0.3538571602E+00
    0.1000000000E+05    0.4606268128E-02    0.9730350762E-02    0.6957181100E+00    0.4321577184E-01    0.1586672858E+00
    0.3000000000E+05    0.4271985900E-02    0.9229146466E-02    0.6959274835E+00    0.5721395680E-01    0.2884524810E+00
    0.5000000000E+05    0.3258774303E-02    0.7154857852E-02    0.6959694585E+00    0.5642919282E-01    0.3565785226E+00
    0.7000000000E+05    0.2506398547E-02    0.5572895913E-02    0.6959874735E+00    0.5313916423E-01    0.4016646316E+00
    0.9000000000E+05    0.1974339531E-02    0.4435669093E-02    0.6959974929E+00    0.4949029437E-01    0.4344880022E+00
    0.1100000000E+06    0.1591369461E-02    0.3606914068E-02    0.6960038746E+00    0.4602289129E-01    0.4597173137E+00
    0.1300000000E+06    0.1308430403E-02    0.2988431547E-02    0.6960082961E+00    0.4287242317E-01    0.4798235823E+00
    0.1500000000E+06    0.1094103939E-02    0.2515914913E-02    0.6960115407E+00    0.4005206964E-01    0.4962743513E+00
    0.1700000000E+06    0.9281096056E-03    0.2147226525E-02    0.6960140234E+00    0.3753690813E-01    0.5100096454E+00
    0.1900000000E+06    0.7970386119E-03    0.1854184023E-02    0.6960159844E+00    0.3529218511E-01    0.5216650045E+00
    0.2100000000E+06    0.6917881891E-03    0.1617474508E-02    0.6960175727E+00    0.3328320080E-01    0.5316880434E+00
    0.2300000000E+06    0.6060212409E-03    0.1423544821E-02    0.6960188853E+00    0.3147857632E-01    0.5404043590E+00
    0.2500000000E+06    0.5352234952E-03    0.1262672579E-02    0.6960199883E+00    0.2985103671E-01    0.5480570939E+00
    0.2700000000E+06    0.4761119824E-03    0.1127743186E-02    0.6960209282E+00    0.2837727218E-01    0.5548318339E+00
    0.2900000000E+06    0.4262545019E-03    0.1013456164E-02    0.6960217387E+00    0.2703749261E-01    0.5608728886E+00
    0.3100000000E+06    0.3838189149E-03    0.9157983186E-03    0.6960224448E+00    0.2581491960E-01    0.5662942816E+00
    0.3300000000E+06    0.3474042820E-03    0.8316865515E-03    0.6960230655E+00    0.2469530866E-01    0.5711873732E+00
    0.3500000000E+06    0.3159247990E-03    0.7587209020E-03    0.6960236153E+00    0.2366653195E-01    0.5756262708E+00
    0.3700000000E+06    0.2885285333E-03    0.6950107165E-03    0.6960241058E+00    0.2271822584E-01    0.5796717481E+00
    0.3900000000E+06    0.2645395560E-03    0.6390502583E-03    0.6960245461E+00    0.2184149827E-01    0.5833741349E+00
    0.4100000000E+06    0.2434160918E-03    0.5896283453E-03    0.6960249435E+00    0.2102868746E-01    0.5867754813E+00
    0.4300000000E+06    0.2247198212E-03    0.5457617918E-03    0.6960253039E+00    0.2027316354E-01    0.5899112024E+00
    0.4500000000E+06    0.2080930677E-03    0.5066457536E-03    0.6960256324E+00    0.1956916549E-01    0.5928113439E+00
    0.4700000000E+06    0.1932416403E-03    0.4716162470E-03    0.6960259329E+00    0.1891166677E-01    0.5955015671E+00
    0.4900000000E+06    0.1799217854E-03    0.4401215474E-03    0.6960262089E+00    0.1829626429E-01    0.5980039234E+00
    0.1000000000E+06    0.1767787663E-02    0.3989816040E-02    0.6960010021E+00    0.4772087094E-01    0.4478654462E+00
    0.3000000000E+06    0.4042050715E-03    0.9627597631E-03    0.6960221035E+00    0.2641249974E-01    0.5636548737E+00
    0.5000000000E+06    0.1737713002E-03    0.4255525002E-03    0.6960263387E+00    0.1800312071E-01    0.5991907098E+00
    0.7000000000E+06    0.9602589687E-04    0.2396328373E-03    0.6960281548E+00    0.1362015866E-01    0.6165626888E+00
    0.9000000000E+06    0.6076462307E-04    0.1538162845E-03    0.6960291629E+00    0.1094104245E-01    0.6268696850E+00
    0.1100000000E+07    0.4186253898E-04    0.1071900642E-03    0.6960298031E+00    0.9136625300E-02    0.6336932288E+00
    0.1300000000E+07    0.3057291509E-04    0.7903529419E-04    0.6960302451E+00    0.7839678112E-02    0.6385434035E+00
    0.1500000000E+07    0.2329831557E-04    0.6072536022E-04    0.6960305681E+00    0.6862995534E-02    0.6421676403E+00
    0.1700000000E+07    0.1833944314E-04    0.4814414045E-04    0.6960308141E+00    0.6101246401E-02    0.6449782665E+00
    0.1900000000E+07    0.1480904834E-04    0.3912402825E-04    0.6960310073E+00    0.5490668067E-02    0.6472213830E+00
    0.2100000000E+07    0.1220725194E-04    0.3243465435E-04    0.6960311630E+00    0.4990419395E-02    0.6490529569E+00
    0.2300000000E+07    0.1023504242E-04    0.2733517612E-04    0.6960312908E+00    0.4573138505E-02    0.6505766200E+00
    0.2500000000E+07    0.8704689691E-05    0.2335769897E-04    0.6960313975E+00    0.4219810006E-02    0.6518639178E+00
    0.2700000000E+07    0.7493522574E-05    0.2019482860E-04    0.6960314877E+00    0.3916810333E-02    0.6529658335E+00
    0.2900000000E+07    0.6518643611E-05    0.1763781000E-04    0.6960315650E+00    0.3654124569E-02    0.6539196781E+00
    0.3100000000E+07    0.5722405738E-05    0.1554081232E-04    0.6960316318E+00    0.3424226667E-02    0.6547533847E+00
    0.3300000000E+07    0.5063718151E-05    0.1379944731E-04    0.6960316900E+00    0.3221352068E-02    0.6554882795E+00
    0.3500000000E+07    0.4512653505E-05    0.1233738646E-04    0.6960317411E+00    0.3041011198E-02    0.6561409260E+00
    0.3700000000E+07    0.4046998024E-05    0.1109776469E-04    0.6960317863E+00    0.2879655689E-02    0.6567243834E+00
    0.3900000000E+07    0.3649983984E-05    0.1003750881E-04    0.6960318265E+00    0.2734444185E-02    0.6572490871E+00
    0.4100000000E+07    0.3308763209E-05    0.9123505725E-05    0.6960318625E+00    0.2603074730E-02    0.6577234752E+00
    0.4300000000E+07    0.3013357282E-05    0.8329958366E-05    0.6960318947E+00    0.2483662659E-02    0.6581544452E+00
    0.4500000000E+07    0.2755921629E-05    0.7636526286E-05    0.6960319238E+00    0.2374650203E-02    0.6585476894E+00
    0.4700000000E+07    0.2530220673E-05    0.7026995533E-05    0.6960319501E+00    0.2274738610E-02    0.6589079474E+00
    0.4900000000E+07    0.2331247602E-05    0.6488312249E-05    0.6960319740E+00    0.2182836499E-02    0.6592391974E+00
    0.1000000000E+07    0.5000329447E-04    0.1273388383E-03    0.6960295152E+00    0.9958525444E-02    0.6305963850E+00
    0.3000000000E+07    0.6101075596E-05    0.1653911788E-04    0.6960315996E+00    0.3535472091E-02    0.6543500860E+00
    0.5000000000E+07    0.2240485061E-05    0.6242143974E-05    0.6960319852E+00    0.2139594665E-02    0.6593950161E+00
    0.7000000000E+07    0.1156528368E-05    0.3274897573E-05    0.6960321319E+00    0.1531169412E-02    0.6615849453E+00
    0.9000000000E+07    0.7067348224E-06    0.2022297366E-05    0.6960322010E+00    0.1190966950E-02    0.6628078742E+00
    0.1100000000E+08    0.4779023489E-06    0.1376893877E-05    0.6960322359E+00    0.9738371101E-03    0.6635880932E+00
    0.1300000000E+08    0.3457962976E-06    0.1000580521E-05    0.6960322532E+00    0.8233074135E-03    0.6641289915E+00
    0.1500000000E+08    0.2626460255E-06    0.7618118782E-06    0.6960322603E+00    0.7128527086E-03    0.6645259556E+00
    0.1700000000E+08    0.2069087610E-06    0.6006965600E-06    0.6960322613E+00    0.6283737518E-03    0.6648296440E+00
    0.1900000000E+08    0.1677115196E-06    0.4867625426E-06    0.6960322583E+00    0.5616863400E-03    0.6650694477E+00
    0.2100000000E+08    0.1390847458E-06    0.4031637466E-06    0.6960322526E+00    0.5077150611E-03    0.6652635888E+00
    0.2300000000E+08    0.1175293897E-06    0.3399658911E-06    0.6960322451E+00    0.4631458300E-03    0.6654239638E+00
    0.2500000000E+08    0.1008841357E-06    0.2909996963E-06    0.6960322364E+00    0.4257231805E-03    0.6655586689E+00
    0.2700000000E+08    0.8775536212E-07    0.2522680569E-06    0.6960322267E+00    0.3938590291E-03    0.6656734047E+00
