  Pressure (Pa) 22mC5-500 (mol/kg) 23mC5-500 (mol/kg) 24mC5-500 (mol/kg) 2mC6-500 (mol/kg) 3mC6-500 (mol/kg)
    0.1000000000E+01    0.3561663022E-05    0.8269471809E-05    0.6965402521E-01    0.1750735223E-04    0.3126401837E-04
    0.3000000000E+01    0.9258008086E-05    0.2150898925E-04    0.1741053671E+00    0.4641587486E-04    0.9377691973E-04
    0.5000000000E+01    0.1378346323E-04    0.3204703137E-04    0.2486926338E+00    0.7053542855E-04    0.1562697349E-03
    0.7000000000E+01    0.1761730908E-04    0.4099401263E-04    0.3046224265E+00    0.9199820819E-04    0.2187425341E-03
    0.9000000000E+01    0.2101598413E-04    0.4894295600E-04    0.3481175250E+00    0.1119004953E-03    0.2811953622E-03
    0.1100000000E+02    0.2412752182E-04    0.5623551565E-04    0.3829102208E+00    0.1308480174E-03    0.3436282510E-03
    0.1300000000E+02    0.2704247065E-04    0.6308023567E-04    0.4113749397E+00    0.1491941060E-03    0.4060412255E-03
    0.1500000000E+02    0.2981880195E-04    0.6961033719E-04    0.4350942836E+00    0.1671537005E-03    0.4684343060E-03
    0.1700000000E+02    0.3249502337E-04    0.7591410871E-04    0.4551637076E+00    0.1848619420E-03    0.5308075102E-03
    0.1900000000E+02    0.3509750184E-04    0.8205185712E-04    0.4723655682E+00    0.2024060480E-03    0.5931608540E-03
    0.2100000000E+02    0.3764475542E-04    0.8806583001E-04    0.4872735264E+00    0.2198434750E-03    0.6554943522E-03
    0.2300000000E+02    0.4015007219E-04    0.9398626277E-04    0.5003177868E+00    0.2372126768E-03    0.7178080185E-03
    0.2500000000E+02    0.4262316418E-04    0.9983519222E-04    0.5118273026E+00    0.2545396867E-03    0.7801018662E-03
    0.2700000000E+02    0.4507124302E-04    0.1056289336E-03    0.5220579091E+00    0.2718422596E-03    0.8423759080E-03
    0.2900000000E+02    0.4749973761E-04    0.1113797308E-03    0.5312115700E+00    0.2891325408E-03    0.9046301562E-03
    0.3100000000E+02    0.4991278395E-04    0.1170968810E-03    0.5394498484E+00    0.3064188224E-03    0.9668646230E-03
    0.3300000000E+02    0.5231356597E-04    0.1227875163E-03    0.5469035280E+00    0.3237067196E-03    0.1029079320E-02
    0.3500000000E+02    0.5470455708E-04    0.1284571560E-03    0.5536796099E+00    0.3409999715E-03    0.1091274260E-02
    0.3700000000E+02    0.5708769400E-04    0.1341101047E-03    0.5598664839E+00    0.3583009937E-03    0.1153449453E-02
    0.3900000000E+02    0.5946450359E-04    0.1397497411E-03    0.5655378058E+00    0.3756112638E-03    0.1215604912E-02
    0.4100000000E+02    0.6183619674E-04    0.1453787319E-03    0.5707554455E+00    0.3929315938E-03    0.1277740648E-02
    0.4300000000E+02    0.6420373855E-04    0.1509991915E-03    0.5755717533E+00    0.4102623238E-03    0.1339856671E-02
    0.4500000000E+02    0.6656790142E-04    0.1566128027E-03    0.5800313231E+00    0.4276034608E-03    0.1401952994E-02
    0.4700000000E+02    0.6892930555E-04    0.1622209079E-03    0.5841723778E+00    0.4449547788E-03    0.1464029627E-02
    0.4900000000E+02    0.7128845019E-04    0.1678245802E-03    0.5880278678E+00    0.4623158917E-03    0.1526086582E-02
    0.1000000000E+02    0.2260100977E-04    0.5265599151E-04    0.3664298266E+00    0.1214673141E-03    0.3124142973E-03
    0.3000000000E+02    0.4870797373E-04    0.1142420227E-03    0.5354363292E+00    0.2977757787E-03    0.9357498615E-03
    0.5000000000E+02    0.7246730424E-04    0.1706250295E-03    0.5898576013E+00    0.4709999699E-03    0.1557107684E-02
    0.7000000000E+02    0.9598983656E-04    0.2265354798E-03    0.6167255249E+00    0.6450539951E-03    0.2176499305E-02
    0.9000000000E+02    0.1194645331E-03    0.2823655526E-03    0.6327389679E+00    0.8194368009E-03    0.2793935685E-02
    0.1100000000E+03    0.1428992710E-03    0.3381161977E-03    0.6433705308E+00    0.9937439743E-03    0.3409427600E-02
    0.1300000000E+03    0.1662783833E-03    0.3937433174E-03    0.6509431677E+00    0.1167735516E-02    0.4022985716E-02
    0.1500000000E+03    0.1895860293E-03    0.4492062728E-03    0.6566110922E+00    0.1341268299E-02    0.4634620605E-02
    0.1700000000E+03    0.2128096198E-03    0.5044737445E-03    0.6610126933E+00    0.1514253909E-02    0.5244342752E-02
    0.1900000000E+03    0.2359396751E-03    0.5595225241E-03    0.6645297364E+00    0.1686635860E-02    0.5852162560E-02
    0.2100000000E+03    0.2589691464E-03    0.6143355301E-03    0.6674045384E+00    0.1858377088E-02    0.6458090354E-02
    0.2300000000E+03    0.2818927975E-03    0.6689001644E-03    0.6697983121E+00    0.2029452835E-02    0.7062136379E-02
    0.2500000000E+03    0.3047067324E-03    0.7232071048E-03    0.6718224785E+00    0.2199846416E-02    0.7664310804E-02
    0.2700000000E+03    0.3274080516E-03    0.7772494449E-03    0.6735565127E+00    0.2369546613E-02    0.8264623722E-02
    0.2900000000E+03    0.3499946046E-03    0.8310220807E-03    0.6750586273E+00    0.2538546006E-02    0.8863085152E-02
    0.3100000000E+03    0.3724648098E-03    0.8845212718E-03    0.6763724375E+00    0.2706839875E-02    0.9459705037E-02
    0.3300000000E+03    0.3948175235E-03    0.9377443219E-03    0.6775312667E+00    0.2874425465E-02    0.1005449325E-01
    0.3500000000E+03    0.4170519426E-03    0.9906893440E-03    0.6785610133E+00    0.3041301471E-02    0.1064745959E-01
    0.3700000000E+03    0.4391675319E-03    0.1043355086E-02    0.6794821095E+00    0.3207467671E-02    0.1123861377E-01
    0.3900000000E+03    0.4611639687E-03    0.1095740798E-02    0.6803108911E+00    0.3372924672E-02    0.1182796547E-01
    0.4100000000E+03    0.4830411011E-03    0.1147846132E-02    0.6810605755E+00    0.3537673716E-02    0.1241552425E-01
    0.4300000000E+03    0.5047989145E-03    0.1199671062E-02    0.6817419714E+00    0.3701716538E-02    0.1300129965E-01
    0.4500000000E+03    0.5264375063E-03    0.1251215828E-02    0.6823640040E+00    0.3865055257E-02    0.1358530109E-01
    0.4700000000E+03    0.5479570653E-03    0.1302480880E-02    0.6829341080E+00    0.4027692297E-02    0.1416753796E-01
    0.4900000000E+03    0.5693578560E-03    0.1353466847E-02    0.6834585264E+00    0.4189630323E-02    0.1474801958E-01
    0.1000000000E+03    0.1311877755E-03    0.3102534558E-03    0.6385423423E+00    0.9066177919E-03    0.3101924031E-02
    0.3000000000E+03    0.3612443312E-03    0.8578060468E-03    0.6757367856E+00    0.2622781342E-02    0.9161624669E-02
    0.5000000000E+03    0.5800138131E-03    0.1378855410E-02    0.6837052860E+00    0.4270338092E-02    0.1503760505E-01
    0.7000000000E+03    0.7870014488E-03    0.1872219637E-02    0.6871791064E+00    0.5848561141E-02    0.2073938842E-01
    0.9000000000E+03    0.9826892493E-03    0.2339032377E-02    0.6891247081E+00    0.7360687876E-02    0.2627583313E-01
    0.1100000000E+04    0.1167686451E-02    0.2780720835E-02    0.6903687845E+00    0.8810193646E-02    0.3165519032E-01
    0.1300000000E+04    0.1342605623E-02    0.3198717914E-02    0.6912328377E+00    0.1020042491E-01    0.3688515529E-01
    0.1500000000E+04    0.1508033393E-02    0.3594394979E-02    0.6918679424E+00    0.1153453501E-01    0.4197291370E-01
    0.1700000000E+04    0.1664522728E-02    0.3969044385E-02    0.6923544620E+00    0.1281547743E-01    0.4692518319E-01
    0.1900000000E+04    0.1812591714E-02    0.4323876877E-02    0.6927390867E+00    0.1404601379E-01    0.5174825109E-01
    0.2100000000E+04    0.1952724571E-02    0.4660024109E-02    0.6930507982E+00    0.1522872579E-01    0.5644800842E-01
    0.2300000000E+04    0.2085373487E-02    0.4978542979E-02    0.6933085385E+00    0.1636602798E-01    0.6102998082E-01
    0.2500000000E+04    0.2210960698E-02    0.5280420521E-02    0.6935252108E+00    0.1746018011E-01    0.6549935656E-01
    0.2700000000E+04    0.2329880588E-02    0.5566578829E-02    0.6937099084E+00    0.1851329878E-01    0.6986101207E-01
    0.2900000000E+04    0.2442501717E-02    0.5837879782E-02    0.6938692245E+00    0.1952736821E-01    0.7411953516E-01
    0.3100000000E+04    0.2549168722E-02    0.6095129494E-02    0.6940080558E+00    0.2050425015E-01    0.7827924618E-01
    0.3300000000E+04    0.2650204093E-02    0.6339082444E-02    0.6941301157E+00    0.2144569298E-01    0.8234421740E-01
    0.3500000000E+04    0.2745909809E-02    0.6570445299E-02    0.6942382709E+00    0.2235334005E-01    0.8631829067E-01
    0.3700000000E+04    0.2836568852E-02    0.6789880430E-02    0.6943347699E+00    0.2322873730E-01    0.9020509360E-01
    0.3900000000E+04    0.2922446591E-02    0.6998009148E-02    0.6944214014E+00    0.2407334026E-01    0.9400805447E-01
    0.4100000000E+04    0.3003792063E-02    0.7195414679E-02    0.6944996056E+00    0.2488852048E-01    0.9773041581E-01
    0.4300000000E+04    0.3080839145E-02    0.7382644888E-02    0.6945705556E+00    0.2567557138E-01    0.1013752469E+00
    0.4500000000E+04    0.3153807628E-02    0.7560214800E-02    0.6946352163E+00    0.2643571370E-01    0.1049454555E+00
    0.4700000000E+04    0.3222904211E-02    0.7728608895E-02    0.6946943887E+00    0.2717010044E-01    0.1084437981E+00
    0.4900000000E+04    0.3288323415E-02    0.7888283240E-02    0.6947487435E+00    0.2787982144E-01    0.1118728900E+00
    0.1000000000E+04    0.1076485453E-02    0.2562926534E-02    0.6898083695E+00    0.8093054979E-02    0.2898465425E-01
    0.3000000000E+04    0.2496558830E-02    0.5968212724E-02    0.6939409455E+00    0.2002034578E-01    0.7621148206E-01
    0.5000000000E+04    0.3319711664E-02    0.7964985741E-02    0.6947742945E+00    0.2822575663E-01    0.1135622478E+00
    0.7000000000E+04    0.3793628593E-02    0.9133280708E-02    0.6951323139E+00    0.3407244956E-01    0.1442551521E+00
    0.9000000000E+04    0.4053893288E-02    0.9791562784E-02    0.6953314898E+00    0.3834070514E-01    0.1702030182E+00
    0.1100000000E+05    0.4179219070E-02    0.1012538119E-01    0.6954583621E+00    0.4150732134E-01    0.1926191821E+00
    0.1300000000E+05    0.4217473932E-02    0.1024803743E-01    0.6955462641E+00    0.4387914067E-01    0.2123140470E+00
    0.1500000000E+05    0.4198849805E-02    0.1023132531E-01    0.6956107665E+00    0.4566206863E-01    0.2298521113E+00
    0.1700000000E+05    0.4142947630E-02    0.1012209603E-01    0.6956601191E+00    0.4699911543E-01    0.2456405334E+00
    0.1900000000E+05    0.4062786305E-02    0.9951649158E-02    0.6956991007E+00    0.4799250285E-01    0.2599817415E+00
    0.2100000000E+05    0.3967168276E-02    0.9741286017E-02    0.6957306712E+00    0.4871709295E-01    0.2731060759E+00
    0.2300000000E+05    0.3862125655E-02    0.9505712749E-02    0.6957567618E+00    0.4922885848E-01    0.2851928045E+00
    0.2500000000E+05    0.3751831242E-02    0.9255189890E-02    0.6957786862E+00    0.4957040176E-01    0.2963840936E+00
    0.2700000000E+05    0.3639187468E-02    0.8996926039E-02    0.6957973692E+00    0.4977465329E-01    0.3067945566E+00
    0.2900000000E+05    0.3526215714E-02    0.8736002055E-02    0.6958134805E+00    0.4986741265E-01    0.3165179434E+00
    0.3100000000E+05    0.3414318695E-02    0.8475996079E-02    0.6958275174E+00    0.4986913255E-01    0.3256319293E+00
    0.3300000000E+05    0.3304460314E-02    0.8219413534E-02    0.6958398566E+00    0.4979619614E-01    0.3342016113E+00
    0.3500000000E+05    0.3197290766E-02    0.7967987437E-02    0.6958507887E+00    0.4966184758E-01    0.3422821055E+00
    0.3700000000E+05    0.3093234674E-02    0.7722890897E-02    0.6958605417E+00    0.4947688063E-01    0.3499205073E+00
    0.3900000000E+05    0.2992553888E-02    0.7484889226E-02    0.6958692967E+00    0.4925015554E-01    0.3571573928E+00
    0.4100000000E+05    0.2895392656E-02    0.7254449911E-02    0.6958771995E+00    0.4898899196E-01    0.3640279838E+00
    0.4300000000E+05    0.2801810377E-02    0.7031822811E-02    0.6958843690E+00    0.4869947115E-01    0.3705630618E+00
    0.4500000000E+05    0.2711805520E-02    0.6817099080E-02    0.6958909028E+00    0.4838667096E-01    0.3767896948E+00
    0.4700000000E+05    0.2625333190E-02    0.6610254713E-02    0.6958968819E+00    0.4805485023E-01    0.3827318194E+00
    0.4900000000E+05    0.2542318068E-02    0.6411182908E-02    0.6959023741E+00    0.4770759491E-01    0.3884107126E+00
    0.1000000000E+05    0.4129903599E-02    0.9990709656E-02    0.6954012564E+00    0.4003957052E-01    0.1817947577E+00
    0.3000000000E+05    0.3470064016E-02    0.8605706617E-02    0.6958207324E+00    0.4987854550E-01    0.3211467822E+00
    0.5000000000E+05    0.2502077517E-02    0.6314511769E-02    0.6959049559E+00    0.4752914509E-01    0.3911574656E+00
    0.7000000000E+05    0.1850912039E-02    0.4734530370E-02    0.6959411354E+00    0.4367785597E-01    0.4359782818E+00
    0.9000000000E+05    0.1416212689E-02    0.3662543977E-02    0.6959612713E+00    0.3992515576E-01    0.4677277804E+00
    0.1100000000E+06    0.1115868565E-02    0.2912623075E-02    0.6959741045E+00    0.3657880092E-01    0.4915821679E+00
    0.1300000000E+06    0.9008371238E-03    0.2370230936E-02    0.6959830007E+00    0.3366168180E-01    0.5102322355E+00
    0.1500000000E+06    0.7420003375E-03    0.1966109533E-02    0.6959895323E+00    0.3112844771E-01    0.5252453434E+00
    0.1700000000E+06    0.6215085276E-03    0.1657235214E-02    0.6959945323E+00    0.2892246321E-01    0.5376064044E+00
    0.1900000000E+06    0.5280129248E-03    0.1415963078E-02    0.6959984835E+00    0.2699143387E-01    0.5479693358E+00
    0.2100000000E+06    0.4540470834E-03    0.1223943953E-02    0.6960016850E+00    0.2529094261E-01    0.5567870039E+00
    0.2300000000E+06    0.3945465097E-03    0.1068636433E-02    0.6960043318E+00    0.2378434652E-01    0.5643837625E+00
    0.2500000000E+06    0.3459822502E-03    0.9412428061E-03    0.6960065569E+00    0.2244169369E-01    0.5709984127E+00
    0.2700000000E+06    0.3058363507E-03    0.8354479974E-03    0.6960084536E+00    0.2123851685E-01    0.5768108747E+00
    0.2900000000E+06    0.2722742153E-03    0.7466257279E-03    0.6960100899E+00    0.2015476171E-01    0.5819593979E+00
    0.3100000000E+06    0.2439340840E-03    0.6713249562E-03    0.6960115158E+00    0.1917390453E-01    0.5865520322E+00
    0.3300000000E+06    0.2197882790E-03    0.6069293351E-03    0.6960127697E+00    0.1828224757E-01    0.5906744874E+00
    0.3500000000E+06    0.1990496336E-03    0.5514263027E-03    0.6960138809E+00    0.1746836322E-01    0.5943956483E+00
    0.3700000000E+06    0.1811070774E-03    0.5032473247E-03    0.6960148725E+00    0.1672265692E-01    0.5977715254E+00
    0.3900000000E+06    0.1654804553E-03    0.4611553279E-03    0.6960157628E+00    0.1603702301E-01    0.6008481392E+00
    0.4100000000E+06    0.1517882976E-03    0.4241640553E-03    0.6960165666E+00    0.1540457269E-01    0.6036636585E+00
    0.4300000000E+06    0.1397244709E-03    0.3914794119E-03    0.6960172959E+00    0.1481941799E-01    0.6062500114E+00
    0.4500000000E+06    0.1290410220E-03    0.3624562083E-03    0.6960179607E+00    0.1427649910E-01    0.6086341138E+00
    0.4700000000E+06    0.1195354088E-03    0.3365658523E-03    0.6960185691E+00    0.1377144565E-01    0.6108388176E+00
    0.4900000000E+06    0.1110408827E-03    0.3133719337E-03    0.6960191281E+00    0.1330046451E-01    0.6128836519E+00
    0.1000000000E+06    0.1252915889E-02    0.3255840466E-02    0.6959683273E+00    0.3819693422E-01    0.4804376586E+00
    0.3000000000E+06    0.2575221893E-03    0.7074651119E-03    0.6960108265E+00    0.1965238605E-01    0.5843193945E+00
    0.5000000000E+06    0.1071286162E-03    0.3026702835E-03    0.6960193909E+00    0.1307670071E-01    0.6138514583E+00
    0.7000000000E+06    0.5828123860E-04    0.1677778252E-03    0.6960230745E+00    0.9774954521E-02    0.6278711073E+00
    0.9000000000E+06    0.3655712553E-04    0.1067221208E-03    0.6960251246E+00    0.7795867685E-02    0.6360589329E+00
    0.1100000000E+07    0.2505062812E-04    0.7394564081E-04    0.6960264299E+00    0.6479018971E-02    0.6414261849E+00
    0.1300000000E+07    0.1823332302E-04    0.5431403739E-04    0.6960273331E+00    0.5540331428E-02    0.6452154391E+00
    0.1500000000E+07    0.1386568303E-04    0.4162127326E-04    0.6960279947E+00    0.4837687235E-02    0.6480329617E+00
    0.1700000000E+07    0.1090106830E-04    0.3293781693E-04    0.6960284996E+00    0.4292174221E-02    0.6502097811E+00
    0.1900000000E+07    0.8797318061E-05    0.2673322310E-04    0.6960288973E+00    0.3856490492E-02    0.6519419469E+00
    0.2100000000E+07    0.7250844415E-05    0.2214414818E-04    0.6960292182E+00    0.3500568560E-02    0.6533529543E+00
    0.2300000000E+07    0.6080934628E-05    0.1865330719E-04    0.6960294824E+00    0.3204386812E-02    0.6545244597E+00
    0.2500000000E+07    0.5174580157E-05    0.1593531128E-04    0.6960297035E+00    0.2954100201E-02    0.6555126120E+00
    0.2700000000E+07    0.4458178440E-05    0.1377710260E-04    0.6960298910E+00    0.2739830558E-02    0.6563572887E+00
    0.2900000000E+07    0.3882128179E-05    0.1203439867E-04    0.6960300518E+00    0.2554341757E-02    0.6570875904E+00
    0.3100000000E+07    0.3412017334E-05    0.1060664976E-04    0.6960301912E+00    0.2392212335E-02    0.6577252502E+00
    0.3300000000E+07    0.3023366330E-05    0.9422029940E-05    0.6960303130E+00    0.2249300584E-02    0.6582868257E+00
    0.3500000000E+07    0.2698377163E-05    0.8428114910E-05    0.6960304203E+00    0.2122388220E-02    0.6587851527E+00
    0.3700000000E+07    0.2423859161E-05    0.7585910134E-05    0.6960305153E+00    0.2008936785E-02    0.6592303349E+00
    0.3900000000E+07    0.2189868766E-05    0.6865919896E-05    0.6960306001E+00    0.1906917265E-02    0.6596304341E+00
    0.4100000000E+07    0.1988795685E-05    0.6245497038E-05    0.6960306760E+00    0.1814688475E-02    0.6599919606E+00
    0.4300000000E+07    0.1814735555E-05    0.5707017551E-05    0.6960307444E+00    0.1730908686E-02    0.6603202298E+00
    0.4500000000E+07    0.1663050884E-05    0.5236599011E-05    0.6960308063E+00    0.1654470349E-02    0.6606196235E+00
    0.4700000000E+07    0.1530058373E-05    0.4823185164E-05    0.6960308624E+00    0.1584451175E-02    0.6608937870E+00
    0.4900000000E+07    0.1412802684E-05    0.4457881748E-05    0.6960309135E+00    0.1520076977E-02    0.6611457767E+00
    0.1000000000E+07    0.2999296013E-04    0.8807136568E-04    0.6960258425E+00    0.7077253020E-02    0.6389955361E+00
    0.3000000000E+07    0.3635547749E-05    0.1128618732E-04    0.6960301239E+00    0.2470641124E-02    0.6574168642E+00
    0.5000000000E+07    0.1359309861E-05    0.4290960150E-05    0.6960309374E+00    0.1489798142E-02    0.6612642794E+00
    0.7000000000E+07    0.7196219811E-06    0.2278920218E-05    0.6960312569E+00    0.1064480477E-02    0.6629275965E+00
    0.9000000000E+07    0.4528706672E-06    0.1428249349E-05    0.6960314142E+00    0.8272431941E-03    0.6638547385E+00
    0.1100000000E+08    0.3162188552E-06    0.9886160852E-06    0.6960314992E+00    0.6760465618E-03    0.6644456394E+00
    0.1300000000E+08    0.2366762939E-06    0.7312782790E-06    0.6960315465E+00    0.5713255398E-03    0.6648550278E+00
    0.1500000000E+08    0.1861458985E-06    0.5672586622E-06    0.6960315719E+00    0.4945356334E-03    0.6651553493E+00
    0.1700000000E+08    0.1519326299E-06    0.4560272483E-06    0.6960315836E+00    0.4358339627E-03    0.6653850361E+00
    0.1900000000E+08    0.1276132190E-06    0.3769439053E-06    0.6960315864E+00    0.3895130973E-03    0.6655663680E+00
    0.2100000000E+08    0.1096508891E-06    0.3185839561E-06    0.6960315830E+00    0.3520364722E-03    0.6657131497E+00
    0.2300000000E+08    0.9596583934E-07    0.2742002894E-06    0.6960315755E+00    0.3210963105E-03    0.6658343897E+00
    0.2500000000E+08    0.8526887039E-07    0.2395959513E-06    0.6960315649E+00    0.2951228307E-03    0.6659362166E+00
    0.2700000000E+08    0.7672556242E-07    0.2120467872E-06    0.6960315521E+00    0.2730112224E-03    0.6660229442E+00
