  Pressure (Pa) 22mC5-500 (mol/kg) 23mC5-500 (mol/kg) 24mC5-500 (mol/kg) 2mC6-500 (mol/kg) 3mC6-500 (mol/kg)
    0.1000000000E+01    0.3188512511E-05    0.8332363006E-05    0.1514074054E+00    0.1590535215E-04    0.1042163707E-04
    0.3000000000E+01    0.7403714446E-05    0.1938535274E-04    0.3165081236E+00    0.3885492511E-04    0.3126170986E-04
    0.5000000000E+01    0.1054055685E-04    0.2765529391E-04    0.4047892702E+00    0.5791038596E-04    0.5209759139E-04
    0.7000000000E+01    0.1327818156E-04    0.3490408486E-04    0.4597476683E+00    0.7580115726E-04    0.7292931616E-04
    0.9000000000E+01    0.1583942520E-04    0.4170646751E-04    0.4972553613E+00    0.9330901814E-04    0.9375689870E-04
    0.1100000000E+02    0.1831443006E-04    0.4829343488E-04    0.5244853564E+00    0.1107026702E-03    0.1145803468E-03
    0.1300000000E+02    0.2074474649E-04    0.5477068714E-04    0.5451531134E+00    0.1280830726E-03    0.1353996656E-03
    0.1500000000E+02    0.2315128789E-04    0.6119098156E-04    0.5613757796E+00    0.1454886860E-03    0.1562148586E-03
    0.1700000000E+02    0.2554524570E-04    0.6758227206E-04    0.5744481923E+00    0.1629327625E-03    0.1770259287E-03
    0.1900000000E+02    0.2793286859E-04    0.7395997914E-04    0.5852067832E+00    0.1804179821E-03    0.1978328784E-03
    0.2100000000E+02    0.3031774280E-04    0.8033281818E-04    0.5942159452E+00    0.1979426137E-03    0.2186357098E-03
    0.2300000000E+02    0.3270195515E-04    0.8670575783E-04    0.6018703130E+00    0.2155032258E-03    0.2394344251E-03
    0.2500000000E+02    0.3508671858E-04    0.9308160280E-04    0.6084541253E+00    0.2330959026E-03    0.2602290260E-03
    0.2700000000E+02    0.3747272332E-04    0.9946187725E-04    0.6141773048E+00    0.2507167846E-03    0.2810195143E-03
    0.2900000000E+02    0.3986034104E-04    0.1058473351E-03    0.6191982564E+00    0.2683622938E-03    0.3018058919E-03
    0.3100000000E+02    0.4224974697E-04    0.1122382631E-03    0.6236387575E+00    0.2860292109E-03    0.3225881603E-03
    0.3300000000E+02    0.4464099472E-04    0.1186346650E-03    0.6275939663E+00    0.3037146836E-03    0.3433663213E-03
    0.3500000000E+02    0.4703406296E-04    0.1250363751E-03    0.6311393181E+00    0.3214162044E-03    0.3641403765E-03
    0.3700000000E+02    0.4942888487E-04    0.1314431296E-03    0.6343353840E+00    0.3391315767E-03    0.3849103274E-03
    0.3900000000E+02    0.5182536714E-04    0.1378546113E-03    0.6372313595E+00    0.3568588783E-03    0.4056761758E-03
    0.4100000000E+02    0.5422340204E-04    0.1442704783E-03    0.6398676158E+00    0.3745964263E-03    0.4264379230E-03
    0.4300000000E+02    0.5662287526E-04    0.1506903816E-03    0.6422775932E+00    0.3923427447E-03    0.4471955708E-03
    0.4500000000E+02    0.5902367096E-04    0.1571139762E-03    0.6444892272E+00    0.4100965367E-03    0.4679491206E-03
    0.4700000000E+02    0.6142567488E-04    0.1635409282E-03    0.6465260367E+00    0.4278566601E-03    0.4886985741E-03
    0.4900000000E+02    0.6382877638E-04    0.1699709183E-03    0.6484079636E+00    0.4456221058E-03    0.5094439327E-03
    0.1000000000E+02    0.1708442745E-04    0.4501851593E-04    0.5118716188E+00    0.1020116345E-03    0.1041691392E-03
    0.3000000000E+02    0.4105481492E-04    0.1090421101E-03    0.6214845849E+00    0.2771932631E-03    0.3121975397E-03
    0.5000000000E+02    0.6503070540E-04    0.1731869574E-03    0.6492962640E+00    0.4545065413E-03    0.5198150769E-03
    0.7000000000E+02    0.8910420319E-04    0.2376033563E-03    0.6619934215E+00    0.6323044050E-03    0.7270233547E-03
    0.9000000000E+02    0.1132001999E-03    0.3020808831E-03    0.6692647501E+00    0.8100448939E-03    0.9338238875E-03
    0.1100000000E+03    0.1372787066E-03    0.3665113762E-03    0.6739759351E+00    0.9875277504E-03    0.1140218167E-02
    0.1300000000E+03    0.1613180270E-03    0.4308369893E-03    0.6772767032E+00    0.1164663404E-02    0.1346207672E-02
    0.1500000000E+03    0.1853055227E-03    0.4950243230E-03    0.6797179763E+00    0.1341406394E-02    0.1551793874E-02
    0.1700000000E+03    0.2092333734E-03    0.5590528448E-03    0.6815968010E+00    0.1517731623E-02    0.1756978232E-02
    0.1900000000E+03    0.2330965103E-03    0.6229093155E-03    0.6830874812E+00    0.1693624455E-02    0.1961762201E-02
    0.2100000000E+03    0.2568915314E-03    0.6865848908E-03    0.6842990400E+00    0.1869076077E-02    0.2166147226E-02
    0.2300000000E+03    0.2806160959E-03    0.7500735112E-03    0.6853031655E+00    0.2044081127E-02    0.2370134745E-02
    0.2500000000E+03    0.3042685660E-03    0.8133709562E-03    0.6861489318E+00    0.2218636393E-02    0.2573726189E-02
    0.2700000000E+03    0.3278477861E-03    0.8764742617E-03    0.6868710645E+00    0.2392740060E-02    0.2776922982E-02
    0.2900000000E+03    0.3513529405E-03    0.9393813480E-03    0.6874948278E+00    0.2566391252E-02    0.2979726540E-02
    0.3100000000E+03    0.3747834597E-03    0.1002090773E-02    0.6880390408E+00    0.2739589740E-02    0.3182138274E-02
    0.3300000000E+03    0.3981389559E-03    0.1064601565E-02    0.6885180102E+00    0.2912335754E-02    0.3384159584E-02
    0.3500000000E+03    0.4214191778E-03    0.1126913103E-02    0.6889428058E+00    0.3084629856E-02    0.3585791867E-02
    0.3700000000E+03    0.4446239784E-03    0.1189025039E-02    0.6893221272E+00    0.3256472850E-02    0.3787036511E-02
    0.3900000000E+03    0.4677532918E-03    0.1250937230E-02    0.6896629060E+00    0.3427865725E-02    0.3987894899E-02
    0.4100000000E+03    0.4908071155E-03    0.1312649696E-02    0.6899707329E+00    0.3598809605E-02    0.4188368404E-02
    0.4300000000E+03    0.5137854974E-03    0.1374162587E-02    0.6902501674E+00    0.3769305718E-02    0.4388458394E-02
    0.4500000000E+03    0.5366885257E-03    0.1435476156E-02    0.6905049647E+00    0.3939355375E-02    0.4588166233E-02
    0.4700000000E+03    0.5595163211E-03    0.1496590740E-02    0.6907382457E+00    0.4108959946E-02    0.4787493273E-02
    0.4900000000E+03    0.5822690309E-03    0.1557506742E-02    0.6909526258E+00    0.4278120853E-02    0.4986440863E-02
    0.1000000000E+03    0.1252432814E-03    0.3343063995E-03    0.6718476949E+00    0.8988256043E-03    0.1037071716E-02
    0.3000000000E+03    0.3630775574E-03    0.9707608383E-03    0.6877758955E+00    0.2653047079E-02    0.3080981297E-02
    0.5000000000E+03    0.5936172807E-03    0.1587890416E-02    0.6910534316E+00    0.4362535386E-02    0.5085772784E-02
    0.7000000000E+03    0.8166898034E-03    0.2185271426E-02    0.6924679044E+00    0.6027902973E-02    0.7052814865E-02
    0.9000000000E+03    0.1032516570E-02    0.2763495405E-02    0.6932563319E+00    0.7650670155E-02    0.8983410822E-02
    0.1100000000E+04    0.1241362674E-02    0.3323263202E-02    0.6937590513E+00    0.9232380613E-02    0.1087880252E-01
    0.1300000000E+04    0.1443495270E-02    0.3865279235E-02    0.6941075507E+00    0.1077452647E-01    0.1274017404E-01
    0.1500000000E+04    0.1639174010E-02    0.4390227433E-02    0.6943633634E+00    0.1227853601E-01    0.1456865501E-01
    0.1700000000E+04    0.1828648346E-02    0.4898764549E-02    0.6945591290E+00    0.1374577284E-01    0.1636532378E-01
    0.1900000000E+04    0.2012156856E-02    0.5391518591E-02    0.6947137712E+00    0.1517753793E-01    0.1813121028E-01
    0.2100000000E+04    0.2189927307E-02    0.5869089048E-02    0.6948390178E+00    0.1657507253E-01    0.1986729876E-01
    0.2300000000E+04    0.2362176979E-02    0.6332047816E-02    0.6949425240E+00    0.1793956118E-01    0.2157453031E-01
    0.2500000000E+04    0.2529113117E-02    0.6780940385E-02    0.6950294989E+00    0.1927213480E-01    0.2325380524E-01
    0.2700000000E+04    0.2690933405E-02    0.7216287117E-02    0.6951036108E+00    0.2057387355E-01    0.2490598526E-01
    0.2900000000E+04    0.2847826453E-02    0.7638584528E-02    0.6951675171E+00    0.2184580958E-01    0.2653189558E-01
    0.3100000000E+04    0.2999972269E-02    0.8048306532E-02    0.6952231904E+00    0.2308892965E-01    0.2813232683E-01
    0.3300000000E+04    0.3147542715E-02    0.8445905639E-02    0.6952721257E+00    0.2430417755E-01    0.2970803688E-01
    0.3500000000E+04    0.3290701935E-02    0.8831814091E-02    0.6953154766E+00    0.2549245641E-01    0.3125975251E-01
    0.3700000000E+04    0.3429606769E-02    0.9206444936E-02    0.6953541476E+00    0.2665463082E-01    0.3278817106E-01
    0.3900000000E+04    0.3564407137E-02    0.9570193044E-02    0.6953888580E+00    0.2779152889E-01    0.3429396186E-01
    0.4100000000E+04    0.3695246402E-02    0.9923436065E-02    0.6954201865E+00    0.2890394411E-01    0.3577776770E-01
    0.4300000000E+04    0.3822261714E-02    0.1026653532E-01    0.6954486047E+00    0.2999263713E-01    0.3724020611E-01
    0.4500000000E+04    0.3945584332E-02    0.1059983667E-01    0.6954745002E+00    0.3105833748E-01    0.3868187062E-01
    0.4700000000E+04    0.4065339928E-02    0.1092367127E-01    0.6954981946E+00    0.3210174509E-01    0.4010333191E-01
    0.4900000000E+04    0.4181648873E-02    0.1123835637E-01    0.6955199573E+00    0.3312353177E-01    0.4150513895E-01
    0.1000000000E+04    0.1137795389E-02    0.3045641962E-02    0.6935327307E+00    0.8446562769E-02    0.9935431885E-02
    0.3000000000E+04    0.2924481838E-02    0.7844988686E-02    0.6951962801E+00    0.2247091164E-01    0.2733524797E-01
    0.5000000000E+04    0.4238547082E-02    0.1139236335E-01    0.6955301866E+00    0.3362651986E-01    0.4219883799E-01
    0.7000000000E+04    0.5221185027E-02    0.1405971383E-01    0.6956734577E+00    0.4269520595E-01    0.5515947761E-01
    0.9000000000E+04    0.5964603675E-02    0.1609025862E-01    0.6957531103E+00    0.5019847449E-01    0.6664880276E-01
    0.1100000000E+05    0.6531192761E-02    0.1764880452E-01    0.6958038257E+00    0.5649731282E-01    0.7697188175E-01
    0.1300000000E+05    0.6964456863E-02    0.1885045180E-01    0.6958389517E+00    0.6184946520E-01    0.8635095438E-01
    0.1500000000E+05    0.7295514418E-02    0.1977766735E-01    0.6958647205E+00    0.6644385914E-01    0.9495212693E-01
    0.1700000000E+05    0.7547113982E-02    0.2049084260E-01    0.6958844326E+00    0.7042213681E-01    0.1029023144E+00
    0.1900000000E+05    0.7736200860E-02    0.2103504561E-01    0.6958999995E+00    0.7389258732E-01    0.1103003588E+00
    0.2100000000E+05    0.7875605686E-02    0.2144446677E-01    0.6959126048E+00    0.7693943091E-01    0.1172245384E+00
    0.2300000000E+05    0.7975183909E-02    0.2174542134E-01    0.6959230206E+00    0.7962916693E-01    0.1237377708E+00
    0.2500000000E+05    0.8042602122E-02    0.2195842323E-01    0.6959317719E+00    0.8201501364E-01    0.1298912972E+00
    0.2700000000E+05    0.8083891556E-02    0.2209964605E-01    0.6959392285E+00    0.8414007649E-01    0.1357273448E+00
    0.2900000000E+05    0.8103844646E-02    0.2218197099E-01    0.6959456580E+00    0.8603965028E-01    0.1412810842E+00
    0.3100000000E+05    0.8106303721E-02    0.2221575030E-01    0.6959512590E+00    0.8774291914E-01    0.1465820918E+00
    0.3300000000E+05    0.8094374208E-02    0.2220937183E-01    0.6959561821E+00    0.8927423043E-01    0.1516554586E+00
    0.3500000000E+05    0.8070584145E-02    0.2216968180E-01    0.6959605434E+00    0.9065406217E-01    0.1565226410E+00
    0.3700000000E+05    0.8037004961E-02    0.2210230529E-01    0.6959644339E+00    0.9189976672E-01    0.1612021222E+00
    0.3900000000E+05    0.7995343923E-02    0.2201189179E-01    0.6959679261E+00    0.9302614882E-01    0.1657099325E+00
    0.4100000000E+05    0.7947015601E-02    0.2190230532E-01    0.6959710780E+00    0.9404591963E-01    0.1700600610E+00
    0.4300000000E+05    0.7893197634E-02    0.2177677287E-01    0.6959739373E+00    0.9497005663E-01    0.1742647866E+00
    0.4500000000E+05    0.7834874604E-02    0.2163800144E-01    0.6959765428E+00    0.9580809148E-01    0.1783349443E+00
    0.4700000000E+05    0.7772872834E-02    0.2148827089E-01    0.6959789269E+00    0.9656834222E-01    0.1822801433E+00
    0.4900000000E+05    0.7707888185E-02    0.2132950827E-01    0.6959811168E+00    0.9725810181E-01    0.1861089449E+00
    0.1000000000E+05    0.6266931974E-02    0.1692041356E-01    0.6957810008E+00    0.5348040261E-01    0.7194066515E-01
    0.3000000000E+05    0.8107051664E-02    0.2220436410E-01    0.6959485517E+00    0.8691420036E-01    0.1439615172E+00
    0.5000000000E+05    0.7674464659E-02    0.2124726065E-01    0.6959821461E+00    0.9757858475E-01    0.1879821223E+00
    0.7000000000E+05    0.6951660973E-02    0.1941480753E-01    0.6959965666E+00    0.1015041907E+00    0.2208329510E+00
    0.9000000000E+05    0.6247827509E-02    0.1757827067E-01    0.6960045880E+00    0.1025837280E+00    0.2474200481E+00
    0.1100000000E+06    0.5621616128E-02    0.1591811106E-01    0.6960096980E+00    0.1022480761E+00    0.2698800966E+00
    0.1300000000E+06    0.5077220732E-02    0.1445851005E-01    0.6960132391E+00    0.1011474252E+00    0.2893600882E+00
    0.1500000000E+06    0.4606023610E-02    0.1318387956E-01    0.6960158380E+00    0.9961746786E-01    0.3065598997E+00
    0.1700000000E+06    0.4197329721E-02    0.1207007727E-01    0.6960178270E+00    0.9784657750E-01    0.3219447799E+00
    0.1900000000E+06    0.3841263373E-02    0.1109343861E-01    0.6960193984E+00    0.9594660382E-01    0.3358433568E+00
    0.2100000000E+06    0.3529415335E-02    0.1023320137E-01    0.6960206714E+00    0.9398656809E-01    0.3484984111E+00
    0.2300000000E+06    0.3254822268E-02    0.9471843429E-02    0.6960217235E+00    0.9201014884E-01    0.3600955645E+00
    0.2500000000E+06    0.3011768055E-02    0.8794782482E-02    0.6960226079E+00    0.9004537771E-01    0.3707806187E+00
    0.2700000000E+06    0.2795562890E-02    0.8189925830E-02    0.6960233617E+00    0.8811030363E-01    0.3806706109E+00
    0.2900000000E+06    0.2602346660E-02    0.7647232470E-02    0.6960240118E+00    0.8621644301E-01    0.3898611769E+00
    0.3100000000E+06    0.2428926481E-02    0.7158334897E-02    0.6960245783E+00    0.8437095408E-01    0.3984316344E+00
    0.3300000000E+06    0.2272646376E-02    0.6716227329E-02    0.6960250764E+00    0.8257804597E-01    0.4064485996E+00
    0.3500000000E+06    0.2131283932E-02    0.6315013722E-02    0.6960255177E+00    0.8083991318E-01    0.4139686283E+00
    0.3700000000E+06    0.2002968589E-02    0.5949705653E-02    0.6960259115E+00    0.7915736724E-01    0.4210401863E+00
    0.3900000000E+06    0.1886116940E-02    0.5616060443E-02    0.6960262651E+00    0.7753027048E-01    0.4277051477E+00
    0.4100000000E+06    0.1779381299E-02    0.5310451275E-02    0.6960265843E+00    0.7595783767E-01    0.4339999545E+00
    0.4300000000E+06    0.1681608634E-02    0.5029762624E-02    0.6960268739E+00    0.7443884795E-01    0.4399565261E+00
    0.4500000000E+06    0.1591807571E-02    0.4771305682E-02    0.6960271378E+00    0.7297179493E-01    0.4456029826E+00
    0.4700000000E+06    0.1509121747E-02    0.4532749618E-02    0.6960273794E+00    0.7155499340E-01    0.4509642264E+00
    0.4900000000E+06    0.1432808155E-02    0.4312065414E-02    0.6960276013E+00    0.7018665556E-01    0.4560624149E+00
    0.1000000000E+06    0.5924225021E-02    0.1672303846E-01    0.6960073979E+00    0.1025416685E+00    0.2590799568E+00
    0.3000000000E+06    0.2513339318E-02    0.7396525766E-02    0.6960243045E+00    0.8528733265E-01    0.3942194928E+00
    0.5000000000E+06    0.1396835332E-02    0.4207862194E-02    0.6960277056E+00    0.6952008750E-01    0.4585191340E+00
    0.7000000000E+06    0.8918506635E-03    0.2731387065E-02    0.6960291680E+00    0.5829681475E-01    0.4977015132E+00
    0.9000000000E+06    0.6194881308E-03    0.1921785090E-02    0.6960299821E+00    0.5008914994E-01    0.5243339354E+00
    0.1100000000E+07    0.4555566504E-03    0.1428203813E-02    0.6960305008E+00    0.4386484296E-01    0.5436812711E+00
    0.1300000000E+07    0.3491423960E-03    0.1104414696E-02    0.6960308602E+00    0.3899485413E-01    0.5583957749E+00
    0.1500000000E+07    0.2761220908E-03    0.8802439752E-03    0.6960311238E+00    0.3508550572E-01    0.5699723498E+00
    0.1700000000E+07    0.2238347342E-03    0.7184744960E-03    0.6960313254E+00    0.3188042892E-01    0.5793217643E+00
    0.1900000000E+07    0.1851058833E-03    0.5978292644E-03    0.6960314844E+00    0.2920629195E-01    0.5870319882E+00
    0.2100000000E+07    0.1556195255E-03    0.5054095417E-03    0.6960316131E+00    0.2694198810E-01    0.5935001209E+00
    0.2300000000E+07    0.1326513108E-03    0.4330177761E-03    0.6960317192E+00    0.2500046495E-01    0.5990042719E+00
    0.2500000000E+07    0.1144121517E-03    0.3752376445E-03    0.6960318083E+00    0.2331759686E-01    0.6037451352E+00
    0.2700000000E+07    0.9968751216E-04    0.3283718214E-03    0.6960318840E+00    0.2184513176E-01    0.6078712295E+00
    0.2900000000E+07    0.8762927746E-04    0.2898253420E-03    0.6960319492E+00    0.2054608099E-01    0.6114948470E+00
    0.3100000000E+07    0.7763061110E-04    0.2577327899E-03    0.6960320059E+00    0.1939162270E-01    0.6147024788E+00
    0.3300000000E+07    0.6924800543E-04    0.2307249076E-03    0.6960320555E+00    0.1835897105E-01    0.6175618313E+00
    0.3500000000E+07    0.6215121876E-04    0.2077780042E-03    0.6960320995E+00    0.1742987795E-01    0.6201266679E+00
    0.3700000000E+07    0.5609024845E-04    0.1881141802E-03    0.6960321385E+00    0.1658955916E-01    0.6224402250E+00
    0.3900000000E+07    0.5087302016E-04    0.1711336549E-03    0.6960321735E+00    0.1582591103E-01    0.6245376698E+00
    0.4100000000E+07    0.4634999484E-04    0.1563679007E-03    0.6960322049E+00    0.1512893029E-01    0.6264478998E+00
    0.4300000000E+07    0.4240334566E-04    0.1434465736E-03    0.6960322334E+00    0.1449027806E-01    0.6281948807E+00
    0.4500000000E+07    0.3893921719E-04    0.1320737833E-03    0.6960322592E+00    0.1390294802E-01    0.6297986560E+00
    0.4700000000E+07    0.3588210285E-04    0.1220108015E-03    0.6960322828E+00    0.1336101077E-01    0.6312761180E+00
    0.4900000000E+07    0.3317070303E-04    0.1130632857E-03    0.6960323043E+00    0.1285941488E-01    0.6326416033E+00
    0.1000000000E+07    0.5280748847E-03    0.1647242259E-02    0.6960302673E+00    0.4677548380E-01    0.5347150014E+00
    0.3000000000E+07    0.8240335544E-04    0.2730674598E-03    0.6960319785E+00    0.1995232333E-01    0.6131460543E+00
    0.5000000000E+07    0.3192859751E-04    0.1089568287E-03    0.6960323145E+00    0.1262236723E-01    0.6332862530E+00
    0.7000000000E+07    0.1680290499E-04    0.5847056371E-04    0.6960324533E+00    0.9215021513E-02    0.6425072306E+00
    0.9000000000E+07    0.1033564063E-04    0.3649495485E-04    0.6960325267E+00    0.7249263571E-02    0.6477904178E+00
    0.1100000000E+08    0.6990172848E-05    0.2497108553E-04    0.6960325706E+00    0.5971062252E-02    0.6512124137E+00
    0.1300000000E+08    0.5039288153E-05    0.1817641971E-04    0.6960325988E+00    0.5073879605E-02    0.6536084737E+00
    0.1500000000E+08    0.3803658305E-05    0.1383275852E-04    0.6960326177E+00    0.4409704084E-02    0.6553793149E+00
    0.1700000000E+08    0.2972221612E-05    0.1088647926E-04    0.6960326306E+00    0.3898343358E-02    0.6567411128E+00
    0.1900000000E+08    0.2386256751E-05    0.8795389069E-05    0.6960326396E+00    0.3492588745E-02    0.6578207374E+00
    0.2100000000E+08    0.1957911707E-05    0.7257161364E-05    0.6960326457E+00    0.3162845787E-02    0.6586975391E+00
    0.2300000000E+08    0.1635372825E-05    0.6092318020E-05    0.6960326499E+00    0.2889623826E-02    0.6594236849E+00
    0.2500000000E+08    0.1386481945E-05    0.5188808754E-05    0.6960326526E+00    0.2659565280E-02    0.6600348761E+00
    0.2700000000E+08    0.1190425653E-05    0.4473723908E-05    0.6960326541E+00    0.2463210444E-02    0.6605563673E+00
