  Pressure (Pa) 22mC5-500 (mol/kg) 23mC5-500 (mol/kg) 24mC5-500 (mol/kg) 2mC6-500 (mol/kg) 3mC6-500 (mol/kg)
    0.1000000000E+01    0.2829877456E-05    0.4111430638E-05    0.2321381915E+00    0.9605146646E-05    0.1563248255E-04
    0.3000000000E+01    0.6172952447E-05    0.9001336894E-05    0.4177514597E+00    0.2279736305E-04    0.4689293196E-04
    0.5000000000E+01    0.8801993269E-05    0.1287575619E-04    0.4972747932E+00    0.3456771629E-04    0.7814752583E-04
    0.7000000000E+01    0.1126055683E-04    0.1651294858E-04    0.5414483463E+00    0.4616726585E-04    0.1093963150E-03
    0.9000000000E+01    0.1366757952E-04    0.2008094207E-04    0.5695566907E+00    0.5778725379E-04    0.1406393165E-03
    0.1100000000E+02    0.1605901237E-04    0.2362966763E-04    0.5890154276E+00    0.6945759465E-04    0.1718765388E-03
    0.1300000000E+02    0.1844754090E-04    0.2717631969E-04    0.6032847422E+00    0.8117621017E-04    0.2031079874E-03
    0.1500000000E+02    0.2083790832E-04    0.3072707120E-04    0.6141963472E+00    0.9293511370E-04    0.2343336661E-03
    0.1700000000E+02    0.2323180825E-04    0.3428393961E-04    0.6228106469E+00    0.1047263730E-03    0.2655535780E-03
    0.1900000000E+02    0.2562968335E-04    0.3784728152E-04    0.6297840541E+00    0.1165433467E-03    0.2967677259E-03
    0.2100000000E+02    0.2803145233E-04    0.4141678647E-04    0.6355446502E+00    0.1283807346E-03    0.3279761123E-03
    0.2300000000E+02    0.3043682293E-04    0.4499189667E-04    0.6403835233E+00    0.1402343600E-03    0.3591787396E-03
    0.2500000000E+02    0.3284543161E-04    0.4857198935E-04    0.6445055088E+00    0.1521009299E-03    0.3903756100E-03
    0.2700000000E+02    0.3525690644E-04    0.5215645550E-04    0.6480589336E+00    0.1639778324E-03    0.4215667257E-03
    0.2900000000E+02    0.3767089458E-04    0.5574473172E-04    0.6511538451E+00    0.1758629788E-03    0.4527520887E-03
    0.3100000000E+02    0.4008707295E-04    0.5933631049E-04    0.6538736116E+00    0.1877546843E-03    0.4839317011E-03
    0.3300000000E+02    0.4250515103E-04    0.6293074068E-04    0.6562825452E+00    0.1996515771E-03    0.5151055649E-03
    0.3500000000E+02    0.4492486999E-04    0.6652762389E-04    0.6584310524E+00    0.2115525310E-03    0.5462736822E-03
    0.3700000000E+02    0.4734600028E-04    0.7012660916E-04    0.6603591995E+00    0.2234566135E-03    0.5774360549E-03
    0.3900000000E+02    0.4976833855E-04    0.7372738739E-04    0.6620992348E+00    0.2353630464E-03    0.6085926850E-03
    0.4100000000E+02    0.5219170474E-04    0.7732968608E-04    0.6636774068E+00    0.2472711756E-03    0.6397435745E-03
    0.4300000000E+02    0.5461593912E-04    0.8093326455E-04    0.6651152975E+00    0.2591804478E-03    0.6708887252E-03
    0.4500000000E+02    0.5704089981E-04    0.8453790973E-04    0.6664308155E+00    0.2710903914E-03    0.7020281391E-03
    0.4700000000E+02    0.5946646048E-04    0.8814343246E-04    0.6676389452E+00    0.2830006027E-03    0.7331618182E-03
    0.4900000000E+02    0.6189250838E-04    0.9174966440E-04    0.6687523207E+00    0.2949107336E-03    0.7642897644E-03
    0.1000000000E+02    0.1486416934E-04    0.2185624462E-04    0.5800969260E+00    0.6361598521E-04    0.1562586497E-03
    0.3000000000E+02    0.3887872891E-04    0.5754013777E-04    0.6525562251E+00    0.1818081039E-03    0.4683426136E-03
    0.5000000000E+02    0.6310568309E-04    0.9355299871E-04    0.6692768922E+00    0.3008656732E-03    0.7798515882E-03
    0.7000000000E+02    0.8737514597E-04    0.1296278267E-03    0.6767083647E+00    0.4199047978E-03    0.1090787553E-02
    0.9000000000E+02    0.1116239115E-03    0.1656709876E-03    0.6809088217E+00    0.5387499744E-03    0.1401152404E-02
    0.1100000000E+03    0.1358263435E-03    0.2016450618E-03    0.6836091555E+00    0.6573445775E-03    0.1710948015E-02
    0.1300000000E+03    0.1599700535E-03    0.2375321254E-03    0.6854912335E+00    0.7756652083E-03    0.2020176247E-02
    0.1500000000E+03    0.1840483239E-03    0.2733225224E-03    0.6868780469E+00    0.8937007693E-03    0.2328838950E-02
    0.1700000000E+03    0.2080572216E-03    0.3090106314E-03    0.6879423596E+00    0.1011445589E-02    0.2636937965E-02
    0.1900000000E+03    0.2319943235E-03    0.3445930072E-03    0.6887849510E+00    0.1128896697E-02    0.2944475125E-02
    0.2100000000E+03    0.2558580884E-03    0.3800674712E-03    0.6894685711E+00    0.1246052591E-02    0.3251452251E-02
    0.2300000000E+03    0.2796475212E-03    0.4154326260E-03    0.6900343322E+00    0.1362912623E-02    0.3557871159E-02
    0.2500000000E+03    0.3033619812E-03    0.4506875798E-03    0.6905102952E+00    0.1479476667E-02    0.3863733657E-02
    0.2700000000E+03    0.3270010660E-03    0.4858317799E-03    0.6909162679E+00    0.1595744936E-02    0.4169041542E-02
    0.2900000000E+03    0.3505645392E-03    0.5208649092E-03    0.6912666314E+00    0.1711717862E-02    0.4473796606E-02
    0.3100000000E+03    0.3740522825E-03    0.5557868182E-03    0.6915720796E+00    0.1827396031E-02    0.4778000630E-02
    0.3300000000E+03    0.3974642642E-03    0.5905974791E-03    0.6918407294E+00    0.1942780132E-02    0.5081655389E-02
    0.3500000000E+03    0.4208005167E-03    0.6252969552E-03    0.6920788530E+00    0.2057870932E-02    0.5384762650E-02
    0.3700000000E+03    0.4440611211E-03    0.6598853780E-03    0.6922913739E+00    0.2172669251E-02    0.5687324173E-02
    0.3900000000E+03    0.4672461957E-03    0.6943629312E-03    0.6924822106E+00    0.2287175947E-02    0.5989341707E-02
    0.4100000000E+03    0.4903558877E-03    0.7287298395E-03    0.6926545210E+00    0.2401391910E-02    0.6290816997E-02
    0.4300000000E+03    0.5133903671E-03    0.7629863590E-03    0.6928108780E+00    0.2515318050E-02    0.6591751778E-02
    0.4500000000E+03    0.5363498217E-03    0.7971327710E-03    0.6929533992E+00    0.2628955293E-02    0.6892147778E-02
    0.4700000000E+03    0.5592344539E-03    0.8311693768E-03    0.6930838435E+00    0.2742304577E-02    0.7192006718E-02
    0.4900000000E+03    0.5820444774E-03    0.8650964938E-03    0.6932036834E+00    0.2855366847E-02    0.7491330310E-02
    0.1000000000E+03    0.1237318793E-03    0.1836680524E-03    0.6823913530E+00    0.5980804808E-03    0.1556121248E-02
    0.3000000000E+03    0.3623178808E-03    0.5383397704E-03    0.6914244123E+00    0.1769593750E-02    0.4625967386E-02
    0.5000000000E+03    0.5934215801E-03    0.8820190967E-03    0.6932600228E+00    0.2911790650E-02    0.7640791884E-02
    0.7000000000E+03    0.8171046238E-03    0.1214808446E-02    0.6940497644E+00    0.4025432927E-02    0.1060233104E-01
    0.9000000000E+03    0.1033609972E-02    0.1537065219E-02    0.6944893169E+00    0.5111471131E-02    0.1351224666E-01
    0.1100000000E+04    0.1243194211E-02    0.1849164863E-02    0.6947693382E+00    0.6170835851E-02    0.1637213009E-01
    0.1300000000E+04    0.1446109038E-02    0.2151475129E-02    0.6949633414E+00    0.7204421965E-02    0.1918350598E-01
    0.1500000000E+04    0.1642597297E-02    0.2444350637E-02    0.6951056861E+00    0.8213087079E-02    0.2194783575E-01
    0.1700000000E+04    0.1832892053E-02    0.2728131655E-02    0.6952145820E+00    0.9197652480E-02    0.2466652084E-01
    0.1900000000E+04    0.2017216557E-02    0.3003144100E-02    0.6953005801E+00    0.1015890466E-01    0.2734090578E-01
    0.2100000000E+04    0.2195784508E-02    0.3269699946E-02    0.6953702159E+00    0.1109759700E-01    0.2997228107E-01
    0.2300000000E+04    0.2368800431E-02    0.3528097789E-02    0.6954277538E+00    0.1201445135E-01    0.3256188588E-01
    0.2500000000E+04    0.2536460082E-02    0.3778623439E-02    0.6954760946E+00    0.1291015966E-01    0.3511091058E-01
    0.2700000000E+04    0.2698950862E-02    0.4021550539E-02    0.6955172806E+00    0.1378538544E-01    0.3762049911E-01
    0.2900000000E+04    0.2856452226E-02    0.4257141147E-02    0.6955527908E+00    0.1464076522E-01    0.4009175132E-01
    0.3100000000E+04    0.3009136068E-02    0.4485646310E-02    0.6955837229E+00    0.1547690984E-01    0.4252572497E-01
    0.3300000000E+04    0.3157167095E-02    0.4707306607E-02    0.6956109088E+00    0.1629440573E-01    0.4492343783E-01
    0.3500000000E+04    0.3300703183E-02    0.4922352660E-02    0.6956349902E+00    0.1709381613E-01    0.4728586952E-01
    0.3700000000E+04    0.3439895705E-02    0.5131005626E-02    0.6956564703E+00    0.1787568215E-01    0.4961396331E-01
    0.3900000000E+04    0.3574889855E-02    0.5333477654E-02    0.6956757489E+00    0.1864052392E-01    0.5190862779E-01
    0.4100000000E+04    0.3705824945E-02    0.5529972326E-02    0.6956931481E+00    0.1938884151E-01    0.5417073845E-01
    0.4300000000E+04    0.3832834684E-02    0.5720685065E-02    0.6957089299E+00    0.2012111590E-01    0.5640113924E-01
    0.4500000000E+04    0.3956047454E-02    0.5905803527E-02    0.6957233098E+00    0.2083780989E-01    0.5860064391E-01
    0.4700000000E+04    0.4075586556E-02    0.6085507969E-02    0.6957364668E+00    0.2153936894E-01    0.6077003743E-01
    0.4900000000E+04    0.4191570452E-02    0.6259971594E-02    0.6957485505E+00    0.2222622192E-01    0.6291007720E-01
    0.1000000000E+04    0.1139251313E-02    0.1694361419E-02    0.6946432988E+00    0.5644430870E-02    0.1494834559E-01
    0.3000000000E+04    0.2933385879E-02    0.4372264133E-02    0.6955687719E+00    0.1506120472E-01    0.4131333343E-01
    0.5000000000E+04    0.4248264949E-02    0.6345290380E-02    0.6957542301E+00    0.2256426333E-01    0.6396931890E-01
    0.7000000000E+04    0.5220960086E-02    0.7813756126E-02    0.6958337623E+00    0.2864585054E-01    0.8377816393E-01
    0.9000000000E+04    0.5943699464E-02    0.8912627214E-02    0.6958779638E+00    0.3364451756E-01    0.1013455785E+00
    0.1100000000E+05    0.6480368855E-02    0.9735537817E-02    0.6959060999E+00    0.3780039927E-01    0.1171103127E+00
    0.1300000000E+05    0.6876334199E-02    0.1034909082E-01    0.6959255832E+00    0.4128835250E-01    0.1313984619E+00
    0.1500000000E+05    0.7164501437E-02    0.1080168452E-01    0.6959398738E+00    0.4423860932E-01    0.1444578295E+00
    0.1700000000E+05    0.7369179321E-02    0.1112914255E-01    0.6959508037E+00    0.4675008890E-01    0.1564804001E+00
    0.1900000000E+05    0.7508612968E-02    0.1135840896E-01    0.6959594339E+00    0.4889923161E-01    0.1676174641E+00
    0.2100000000E+05    0.7596687604E-02    0.1151003500E-01    0.6959664212E+00    0.5074601330E-01    0.1779900547E+00
    0.2300000000E+05    0.7644099794E-02    0.1159988996E-01    0.6959721941E+00    0.5233813336E-01    0.1876963116E+00
    0.2500000000E+05    0.7659178493E-02    0.1164036166E-01    0.6959770439E+00    0.5371399031E-01    0.1968167791E+00
    0.2700000000E+05    0.7648470783E-02    0.1164121367E-01    0.6959811757E+00    0.5490483449E-01    0.2054182873E+00
    0.2900000000E+05    0.7617166325E-02    0.1161020711E-01    0.6959847380E+00    0.5593635070E-01    0.2135568395E+00
    0.3100000000E+05    0.7569409354E-02    0.1155355824E-01    0.6959878409E+00    0.5682983928E-01    0.2212797918E+00
    0.3300000000E+05    0.7508530963E-02    0.1147627949E-01    0.6959905680E+00    0.5760310911E-01    0.2286275213E+00
    0.3500000000E+05    0.7437224084E-02    0.1138243676E-01    0.6959929837E+00    0.5827116137E-01    0.2356347165E+00
    0.3700000000E+05    0.7357676718E-02    0.1127534545E-01    0.6959951384E+00    0.5884671885E-01    0.2423313882E+00
    0.3900000000E+05    0.7271674379E-02    0.1115772150E-01    0.6959970722E+00    0.5934064002E-01    0.2487436683E+00
    0.4100000000E+05    0.7180679571E-02    0.1103179869E-01    0.6959988176E+00    0.5976224608E-01    0.2548944474E+00
    0.4300000000E+05    0.7085893967E-02    0.1089942056E-01    0.6960004007E+00    0.6011958154E-01    0.2608038889E+00
    0.4500000000E+05    0.6988307427E-02    0.1076211297E-01    0.6960018432E+00    0.6041962358E-01    0.2664898456E+00
    0.4700000000E+05    0.6888736914E-02    0.1062114178E-01    0.6960031630E+00    0.6066845155E-01    0.2719682006E+00
    0.4900000000E+05    0.6787857599E-02    0.1047755912E-01    0.6960043752E+00    0.6087138523E-01    0.2772531484E+00
    0.1000000000E+05    0.6232108050E-02    0.9353904513E-02    0.6958934378E+00    0.3581563527E-01    0.1094307348E+00
    0.3000000000E+05    0.7595119439E-02    0.1158474983E-01    0.6959863411E+00    0.5639916244E-01    0.2174675951E+00
    0.5000000000E+05    0.6737105617E-02    0.1040506811E-01    0.6960049449E+00    0.6095712478E-01    0.2798271269E+00
    0.7000000000E+05    0.5745870305E-02    0.8965219951E-02    0.6960129239E+00    0.6114232951E-01    0.3236572592E+00
    0.9000000000E+05    0.4890488358E-02    0.7696881096E-02    0.6960173590E+00    0.5974720963E-01    0.3571846081E+00
    0.1100000000E+06    0.4189622642E-02    0.6643567076E-02    0.6960201827E+00    0.5774097483E-01    0.3840664582E+00
    0.1300000000E+06    0.3619827062E-02    0.5778317186E-02    0.6960221382E+00    0.5552539438E-01    0.4062850904E+00
    0.1500000000E+06    0.3154470668E-02    0.5065587742E-02    0.6960235727E+00    0.5328277135E-01    0.4250503201E+00
    0.1700000000E+06    0.2771204357E-02    0.4474255944E-02    0.6960246699E+00    0.5109871159E-01    0.4411602944E+00
    0.1900000000E+06    0.2452573890E-02    0.3979459315E-02    0.6960255363E+00    0.4901256817E-01    0.4551711280E+00
    0.2100000000E+06    0.2185206517E-02    0.3561857560E-02    0.6960262379E+00    0.4704041939E-01    0.4674862614E+00
    0.2300000000E+06    0.1958870271E-02    0.3206482021E-02    0.6960268175E+00    0.4518632154E-01    0.4784076273E+00
    0.2500000000E+06    0.1765692267E-02    0.2901708002E-02    0.6960273044E+00    0.4344810985E-01    0.4881668643E+00
    0.2700000000E+06    0.1599563772E-02    0.2638444938E-02    0.6960277192E+00    0.4182049712E-01    0.4969453269E+00
    0.2900000000E+06    0.1455700289E-02    0.2409524478E-02    0.6960280769E+00    0.4029676590E-01    0.5048874334E+00
    0.3100000000E+06    0.1330318657E-02    0.2209244393E-02    0.6960283884E+00    0.3886970082E-01    0.5121098649E+00
    0.3300000000E+06    0.1220399579E-02    0.2033029166E-02    0.6960286621E+00    0.3753209916E-01    0.5187080787E+00
    0.3500000000E+06    0.1123511913E-02    0.1877176449E-02    0.6960289046E+00    0.3627704244E-01    0.5247610286E+00
    0.3700000000E+06    0.1037681613E-02    0.1738666401E-02    0.6960291208E+00    0.3509803123E-01    0.5303346532E+00
    0.3900000000E+06    0.9612930901E-03    0.1615017201E-02    0.6960293149E+00    0.3398904140E-01    0.5354844995E+00
    0.4100000000E+06    0.8930143038E-03    0.1504174641E-02    0.6960294901E+00    0.3294453568E-01    0.5402577250E+00
    0.4300000000E+06    0.8317393627E-03    0.1404427049E-02    0.6960296489E+00    0.3195945037E-01    0.5446946474E+00
    0.4500000000E+06    0.7765441496E-03    0.1314339200E-02    0.6960297936E+00    0.3102916895E-01    0.5488299581E+00
    0.4700000000E+06    0.7266517315E-03    0.1232700552E-02    0.6960299260E+00    0.3014948965E-01    0.5526936826E+00
    0.4900000000E+06    0.6814051798E-03    0.1158484408E-02    0.6960300475E+00    0.2931659089E-01    0.5563119482E+00
    0.1000000000E+06    0.4521943895E-02    0.7144517917E-02    0.6960189119E+00    0.5878791099E-01    0.3713077750E+00
    0.3000000000E+06    0.1390903538E-02    0.2306113439E-02    0.6960282378E+00    0.3957160460E-01    0.5085822074E+00
    0.5000000000E+06    0.6603462372E-03    0.1123881072E-02    0.6960301047E+00    0.2891658549E-01    0.5580362878E+00
    0.7000000000E+06    0.3837023629E-03    0.6649867566E-03    0.6960309040E+00    0.2268073116E-01    0.5839162586E+00
    0.9000000000E+06    0.2502780258E-03    0.4398172279E-03    0.6960313472E+00    0.1862699740E-01    0.5998720639E+00
    0.1100000000E+07    0.1759481331E-03    0.3126987489E-03    0.6960316284E+00    0.1578940298E-01    0.6107000097E+00
    0.1300000000E+07    0.1303633473E-03    0.2338906404E-03    0.6960318224E+00    0.1369502615E-01    0.6185309016E+00
    0.1500000000E+07    0.1004174972E-03    0.1816432790E-03    0.6960319642E+00    0.1208694876E-01    0.6244577788E+00
    0.1700000000E+07    0.7970156897E-04    0.1452117632E-03    0.6960320721E+00    0.1081404656E-01    0.6290995706E+00
    0.1900000000E+07    0.6478121577E-04    0.1187881750E-03    0.6960321568E+00    0.9781769071E-02    0.6328331301E+00
    0.2100000000E+07    0.5368196166E-04    0.9900814771E-04    0.6960322251E+00    0.8927990337E-02    0.6359010805E+00
    0.2300000000E+07    0.4520340806E-04    0.8381258175E-04    0.6960322811E+00    0.8210232702E-02    0.6384667029E+00
    0.2500000000E+07    0.3858179323E-04    0.7188348234E-04    0.6960323279E+00    0.7598480744E-02    0.6406439206E+00
    0.2700000000E+07    0.3331245252E-04    0.6234521659E-04    0.6960323675E+00    0.7070929809E-02    0.6425146392E+00
    0.2900000000E+07    0.2905111129E-04    0.5459745705E-04    0.6960324015E+00    0.6611361768E-02    0.6441392555E+00
    0.3100000000E+07    0.2555640871E-04    0.4821739292E-04    0.6960324308E+00    0.6207465727E-02    0.6455632822E+00
    0.3300000000E+07    0.2265508553E-04    0.4290021487E-04    0.6960324563E+00    0.5849729539E-02    0.6468216663E+00
    0.3500000000E+07    0.2022017083E-04    0.3842165630E-04    0.6960324788E+00    0.5530688093E-02    0.6479416860E+00
    0.3700000000E+07    0.1815690341E-04    0.3461371658E-04    0.6960324987E+00    0.5244401335E-02    0.6489449448E+00
    0.3900000000E+07    0.1639340572E-04    0.3134851695E-04    0.6960325164E+00    0.4986084124E-02    0.6498487736E+00
    0.4100000000E+07    0.1487436172E-04    0.2852731677E-04    0.6960325322E+00    0.4751838830E-02    0.6506672371E+00
    0.4300000000E+07    0.1355664192E-04    0.2607288655E-04    0.6960325464E+00    0.4538458880E-02    0.6514118681E+00
    0.4500000000E+07    0.1240621939E-04    0.2392411415E-04    0.6960325592E+00    0.4343282241E-02    0.6520922129E+00
    0.4700000000E+07    0.1139595904E-04    0.2203212641E-04    0.6960325709E+00    0.4164080637E-02    0.6527162409E+00
    0.4900000000E+07    0.1050400863E-04    0.2035745827E-04    0.6960325814E+00    0.3998974738E-02    0.6532906575E+00
    0.1000000000E+07    0.2082402266E-03    0.3681077729E-03    0.6960315020E+00    0.1709280297E-01    0.6057588539E+00
    0.3000000000E+07    0.2722005197E-04    0.5125775968E-04    0.6960324166E+00    0.6403104678E-02    0.6448739501E+00
    0.5000000000E+07    0.1009671664E-04    0.1959133176E-04    0.6960325863E+00    0.3921199331E-02    0.6535610717E+00
    0.7000000000E+07    0.5210282029E-05    0.1031142238E-04    0.6960326516E+00    0.2820760753E-02    0.6573758671E+00
    0.9000000000E+07    0.3169573959E-05    0.6365500809E-05    0.6960326829E+00    0.2200434814E-02    0.6595178135E+00
    0.1100000000E+08    0.2128545788E-05    0.4324818937E-05    0.6960326994E+00    0.1802623695E-02    0.6608887064E+00
    0.1300000000E+08    0.1527062483E-05    0.3132639002E-05    0.6960327080E+00    0.1525960949E-02    0.6618410723E+00
    0.1500000000E+08    0.1148598509E-05    0.2375498682E-05    0.6960327122E+00    0.1322497064E-02    0.6625410303E+00
    0.1700000000E+08    0.8951840301E-06    0.1864455195E-05    0.6960327137E+00    0.1166620627E-02    0.6630770923E+00
    0.1900000000E+08    0.7172655377E-06    0.1503130402E-05    0.6960327134E+00    0.1043411878E-02    0.6635007345E+00
    0.2100000000E+08    0.5875990570E-06    0.1238145550E-05    0.6960327119E+00    0.9435930693E-03    0.6638439290E+00
    0.2300000000E+08    0.4902019268E-06    0.1037981198E-05    0.6960327095E+00    0.8610930113E-03    0.6641275797E+00
    0.2500000000E+08    0.4151973416E-06    0.8830448356E-06    0.6960327066E+00    0.7917725781E-03    0.6643659292E+00
    0.2700000000E+08    0.3562157141E-06    0.7606337952E-06    0.6960327033E+00    0.7327131513E-03    0.6645690153E+00
