  Pressure (Pa) 22mC5-500 (mol/kg) 23mC5-500 (mol/kg) 24mC5-500 (mol/kg) 2mC6-500 (mol/kg) 3mC6-500 (mol/kg)
    0.1000000000E+01    0.3561610056E-05    0.5168342497E-05    0.6965385723E-01    0.2334275942E-04    0.4168455957E-04
    0.3000000000E+01    0.9257554739E-05    0.1344245556E-04    0.1741044294E+00    0.6188457477E-04    0.1250287115E-03
    0.5000000000E+01    0.1378223905E-04    0.2002760433E-04    0.2486909223E+00    0.9403838090E-04    0.2083397057E-03
    0.7000000000E+01    0.1761494999E-04    0.2561780701E-04    0.3046201265E+00    0.1226471328E-03    0.2916176431E-03
    0.9000000000E+01    0.2101212594E-04    0.3058370267E-04    0.3481148316E+00    0.1491725341E-03    0.3748625911E-03
    0.1100000000E+02    0.2412179903E-04    0.3513882328E-04    0.3829072959E+00    0.1744222128E-03    0.4580745995E-03
    0.1300000000E+02    0.2703451660E-04    0.3941350723E-04    0.4113719077E+00    0.1988672711E-03    0.5412537089E-03
    0.1500000000E+02    0.2980824922E-04    0.4349101662E-04    0.4350912368E+00    0.2227942914E-03    0.6243999537E-03
    0.1700000000E+02    0.3248150412E-04    0.4742653118E-04    0.4551607127E+00    0.2463834608E-03    0.7075133651E-03
    0.1900000000E+02    0.3508064812E-04    0.5125774255E-04    0.4723626728E+00    0.2697510694E-03    0.7905939715E-03
    0.2100000000E+02    0.3762419932E-04    0.5501105558E-04    0.4872707638E+00    0.2929737280E-03    0.8736417999E-03
    0.2300000000E+02    0.4012544605E-04    0.5870536772E-04    0.5003151794E+00    0.3161027104E-03    0.9566568760E-03
    0.2500000000E+02    0.4259410064E-04    0.6235445245E-04    0.5118248651E+00    0.3391727305E-03    0.1039639225E-02
    0.2700000000E+02    0.4503737510E-04    0.6596850736E-04    0.5220556504E+00    0.3622074648E-03    0.1122588871E-02
    0.2900000000E+02    0.4746069877E-04    0.6955518554E-04    0.5312094947E+00    0.3852231102E-03    0.1205505837E-02
    0.3100000000E+02    0.4986820812E-04    0.7312029842E-04    0.5394479578E+00    0.4082307263E-03    0.1288390148E-02
    0.3300000000E+02    0.5226308758E-04    0.7666830420E-04    0.5469018215E+00    0.4312378037E-03    0.1371241827E-02
    0.3500000000E+02    0.5464781106E-04    0.8020265334E-04    0.5536780850E+00    0.4542493313E-03    0.1454060895E-02
    0.3700000000E+02    0.5702431579E-04    0.8372603683E-04    0.5598651369E+00    0.4772685334E-03    0.1536847377E-02
    0.3900000000E+02    0.5939412917E-04    0.8724056715E-04    0.5655366324E+00    0.5002973840E-03    0.1619601295E-02
    0.4100000000E+02    0.6175846262E-04    0.9074791180E-04    0.5707544407E+00    0.5233369692E-03    0.1702322671E-02
    0.4300000000E+02    0.6411828176E-04    0.9424939310E-04    0.5755709117E+00    0.5463877461E-03    0.1785011527E-02
    0.4500000000E+02    0.6647435953E-04    0.9774606344E-04    0.5800306392E+00    0.5694497276E-03    0.1867667886E-02
    0.4700000000E+02    0.6882731666E-04    0.1012387627E-03    0.5841718462E+00    0.5925226160E-03    0.1950291770E-02
    0.4900000000E+02    0.7117765295E-04    0.1047281623E-03    0.5880274828E+00    0.6156058999E-03    0.2032883201E-02
    0.1000000000E+02    0.2259626504E-04    0.3290305231E-04    0.3664269996E+00    0.1619217888E-03    0.4164727100E-03
    0.3000000000E+02    0.4866621212E-04    0.7134013191E-04    0.5354343462E+00    0.3967273846E-03    0.1246952073E-02
    0.5000000000E+02    0.7235196747E-04    0.1064717972E-03    0.5898572875E+00    0.6271512395E-03    0.2074166753E-02
    0.7000000000E+02    0.9576486762E-04    0.1412553220E-03    0.6167263724E+00    0.8584156342E-03    0.2898139386E-02
    0.9000000000E+02    0.1190944002E-03    0.1759365826E-03    0.6327405916E+00    0.1089855978E-02    0.3718891743E-02
    0.1100000000E+03    0.1423489558E-03    0.2105169199E-03    0.6433726839E+00    0.1320936451E-02    0.4536445268E-02
    0.1300000000E+03    0.1655133718E-03    0.2449695063E-03    0.6509456907E+00    0.1551340398E-02    0.5350821167E-02
    0.1500000000E+03    0.1885723037E-03    0.2792696645E-03    0.6566138790E+00    0.1780880273E-02    0.6162040438E-02
    0.1700000000E+03    0.2115136511E-03    0.3133985315E-03    0.6610156710E+00    0.2009441445E-02    0.6970123879E-02
    0.1900000000E+03    0.2343284165E-03    0.3473423038E-03    0.6645328537E+00    0.2236951803E-02    0.7775092098E-02
    0.2100000000E+03    0.2570100269E-03    0.3810909978E-03    0.6674077582E+00    0.2463365095E-02    0.8576965513E-02
    0.2300000000E+03    0.2795537155E-03    0.4146374228E-03    0.6698016070E+00    0.2688651439E-02    0.9375764360E-02
    0.2500000000E+03    0.3019560494E-03    0.4479764265E-03    0.6718258280E+00    0.2912791673E-02    0.1017150869E-01
    0.2700000000E+03    0.3242145861E-03    0.4811043575E-03    0.6735599011E+00    0.3135773888E-02    0.1096421838E-01
    0.2900000000E+03    0.3463276262E-03    0.5140186826E-03    0.6750620426E+00    0.3357591198E-02    0.1175391313E-01
    0.3100000000E+03    0.3682940331E-03    0.5467177116E-03    0.6763758703E+00    0.3578240284E-02    0.1254061246E-01
    0.3300000000E+03    0.3901131025E-03    0.5792003990E-03    0.6775347097E+00    0.3797720405E-02    0.1332433571E-01
    0.3500000000E+03    0.4117844647E-03    0.6114661964E-03    0.6785644607E+00    0.4016032716E-02    0.1410510208E-01
    0.3700000000E+03    0.4333080124E-03    0.6435149442E-03    0.6794855566E+00    0.4233179786E-02    0.1488293056E-01
    0.3900000000E+03    0.4546838454E-03    0.6753467883E-03    0.6803143343E+00    0.4449165247E-02    0.1565784000E-01
    0.4100000000E+03    0.4759122283E-03    0.7069621180E-03    0.6810640117E+00    0.4663993545E-02    0.1642984908E-01
    0.4300000000E+03    0.4969935581E-03    0.7383615166E-03    0.6817453983E+00    0.4877669748E-02    0.1719897632E-01
    0.4500000000E+03    0.5179283379E-03    0.7695457238E-03    0.6823674198E+00    0.5090199402E-02    0.1796524006E-01
    0.4700000000E+03    0.5387171576E-03    0.8005156057E-03    0.6829375111E+00    0.5301588426E-02    0.1872865851E-01
    0.4900000000E+03    0.5593606771E-03    0.8312721308E-03    0.6834619155E+00    0.5511843025E-02    0.1948924969E-01
    0.1000000000E+03    0.1307318970E-03    0.1932409781E-03    0.6385442551E+00    0.1205464922E-02    0.4128067029E-02
    0.3000000000E+03    0.3573292117E-03    0.5303951876E-03    0.6757402106E+00    0.3468061866E-02    0.1214763601E-01
    0.5000000000E+03    0.5696281713E-03    0.8465707105E-03    0.6837086678E+00    0.5616546917E-02    0.1986849065E-01
    0.7000000000E+03    0.7675463179E-03    0.1141629126E-02    0.6871823184E+00    0.7652711658E-02    0.2730916856E-01
    0.9000000000E+03    0.9519275557E-03    0.1416806004E-02    0.6891277501E+00    0.9583309333E-02    0.3448666719E-01
    0.1100000000E+04    0.1123699120E-02    0.1673456624E-02    0.6903716747E+00    0.1141512768E-01    0.4141660162E-01
    0.1300000000E+04    0.1283753278E-02    0.1912884189E-02    0.6912355950E+00    0.1315453530E-01    0.4811334277E-01
    0.1500000000E+04    0.1432922877E-02    0.2136304798E-02    0.6918705832E+00    0.1480742659E-01    0.5459013932E-01
    0.1700000000E+04    0.1571977786E-02    0.2344842569E-02    0.6923570001E+00    0.1637923923E-01    0.6085922558E-01
    0.1900000000E+04    0.1701627271E-02    0.2539533239E-02    0.6927415335E+00    0.1787498769E-01    0.6693191719E-01
    0.2100000000E+04    0.1822524143E-02    0.2721330274E-02    0.6930531633E+00    0.1929929910E-01    0.7281869614E-01
    0.2300000000E+04    0.1935269298E-02    0.2891111518E-02    0.6933108299E+00    0.2065644754E-01    0.7852928659E-01
    0.2500000000E+04    0.2040416164E-02    0.3049685684E-02    0.6935274353E+00    0.2195038561E-01    0.8407272251E-01
    0.2700000000E+04    0.2138474865E-02    0.3197798422E-02    0.6937120718E+00    0.2318477315E-01    0.8945740825E-01
    0.2900000000E+04    0.2229916048E-02    0.3336137891E-02    0.6938713319E+00    0.2436300309E-01    0.9469117282E-01
    0.3100000000E+04    0.2315174362E-02    0.3465339831E-02    0.6940101115E+00    0.2548822486E-01    0.9978131866E-01
    0.3300000000E+04    0.2394651622E-02    0.3585992153E-02    0.6941321235E+00    0.2656336533E-01    0.1047346655E+00
    0.3500000000E+04    0.2468719658E-02    0.3698639094E-02    0.6942402342E+00    0.2759114781E-01    0.1095575900E+00
    0.3700000000E+04    0.2537722897E-02    0.3803784969E-02    0.6943366917E+00    0.2857410909E-01    0.1142560615E+00
    0.3900000000E+04    0.2601980695E-02    0.3901897563E-02    0.6944232843E+00    0.2951461483E-01    0.1188356741E+00
    0.4100000000E+04    0.2661789443E-02    0.3993411195E-02    0.6945014521E+00    0.3041487357E-01    0.1233016763E+00
    0.4300000000E+04    0.2717424478E-02    0.4078729489E-02    0.6945723678E+00    0.3127694928E-01    0.1276589975E+00
    0.4500000000E+04    0.2769141808E-02    0.4158227897E-02    0.6946369961E+00    0.3210277282E-01    0.1319122720E+00
    0.4700000000E+04    0.2817179677E-02    0.4232255965E-02    0.6946961379E+00    0.3289415232E-01    0.1360658612E+00
    0.4900000000E+04    0.2861759994E-02    0.4301139413E-02    0.6947504637E+00    0.3365278263E-01    0.1401238734E+00
    0.1000000000E+04    0.1039332506E-02    0.1547363772E-02    0.6898113332E+00    0.1051115680E-01    0.3798165409E-01
    0.3000000000E+04    0.2273292215E-02    0.3401843238E-02    0.6939430266E+00    0.2493205208E-01    0.9725376102E-01
    0.5000000000E+04    0.2882818769E-02    0.4333747640E-02    0.6947760007E+00    0.3402031762E-01    0.1421182574E+00
    0.7000000000E+04    0.3165832659E-02    0.4779555868E-02    0.6951337994E+00    0.3998984544E-01    0.1778209600E+00
    0.9000000000E+04    0.3269134756E-02    0.4955306234E-02    0.6953328247E+00    0.4400481355E-01    0.2072639524E+00
    0.1100000000E+05    0.3270534383E-02    0.4976129040E-02    0.6954595856E+00    0.4673071341E-01    0.2321934071E+00
    0.1300000000E+05    0.3213555675E-02    0.4906835502E-02    0.6955474006E+00    0.4857295536E-01    0.2537299494E+00
    0.1500000000E+05    0.3123527276E-02    0.4785422475E-02    0.6956118327E+00    0.4979112317E-01    0.2726304160E+00
    0.1700000000E+05    0.3015614258E-02    0.4634838128E-02    0.6956611266E+00    0.5055818979E-01    0.2894275444E+00
    0.1900000000E+05    0.2899070696E-02    0.4469231475E-02    0.6957000585E+00    0.5099322149E-01    0.3045093572E+00
    0.2100000000E+05    0.2779601023E-02    0.4297435378E-02    0.6957315859E+00    0.5118040728E-01    0.3181666719E+00
    0.2300000000E+05    0.2660723448E-02    0.4124985917E-02    0.6957576388E+00    0.5118062467E-01    0.3306228008E+00
    0.2500000000E+05    0.2544583027E-02    0.3955332204E-02    0.6957795298E+00    0.5103873353E-01    0.3420528159E+00
    0.2700000000E+05    0.2432449769E-02    0.3790581322E-02    0.6957981829E+00    0.5078832382E-01    0.3525964522E+00
    0.2900000000E+05    0.2325030679E-02    0.3631967665E-02    0.6958142672E+00    0.5045489185E-01    0.3623669937E+00
    0.3100000000E+05    0.2222668911E-02    0.3480154362E-02    0.6958282797E+00    0.5005801668E-01    0.3714575450E+00
    0.3300000000E+05    0.2125472797E-02    0.3335429957E-02    0.6958405965E+00    0.4961288308E-01    0.3799455536E+00
    0.3500000000E+05    0.2033400447E-02    0.3197838398E-02    0.6958515081E+00    0.4913136721E-01    0.3878961363E+00
    0.3700000000E+05    0.1946315724E-02    0.3067265821E-02    0.6958612421E+00    0.4862282362E-01    0.3953645667E+00
    0.3900000000E+05    0.1864025483E-02    0.2943498917E-02    0.6958699795E+00    0.4809466410E-01    0.4023981660E+00
    0.4100000000E+05    0.1786304411E-02    0.2826264346E-02    0.6958778660E+00    0.4755278921E-01    0.4090377599E+00
    0.4300000000E+05    0.1712911576E-02    0.2715255396E-02    0.6958850202E+00    0.4700191385E-01    0.4153188166E+00
    0.4500000000E+05    0.1643601366E-02    0.2610149959E-02    0.6958915396E+00    0.4644581555E-01    0.4212723445E+00
    0.4700000000E+05    0.1578130648E-02    0.2510622567E-02    0.6958975053E+00    0.4588752568E-01    0.4269256098E+00
    0.4900000000E+05    0.1516263318E-02    0.2416352335E-02    0.6959029849E+00    0.4532947808E-01    0.4323027147E+00
    0.1000000000E+05    0.3279292198E-02    0.4980209179E-02    0.6954025319E+00    0.4549917510E-01    0.2202120587E+00
    0.3000000000E+05    0.2273206517E-02    0.3555185936E-02    0.6958215066E+00    0.5026334708E-01    0.3669921045E+00
    0.5000000000E+05    0.1486609780E-02    0.2371090931E-02    0.6959055606E+00    0.4505117148E-01    0.4348944912E+00
    0.7000000000E+05    0.1034376488E-02    0.1674262767E-02    0.6959416460E+00    0.3980208165E-01    0.4763624663E+00
    0.9000000000E+05    0.7585669230E-03    0.1242374130E-02    0.6959617195E+00    0.3538231314E-01    0.5048105292E+00
    0.1100000000E+06    0.5793048244E-03    0.9581334389E-03    0.6959745071E+00    0.3174662297E-01    0.5256903188E+00
    0.1300000000E+06    0.4565729760E-03    0.7615175011E-03    0.6959833681E+00    0.2874304331E-01    0.5417252464E+00
    0.1500000000E+06    0.3689727948E-03    0.6199510611E-03    0.6959898712E+00    0.2623487618E-01    0.5544516202E+00
    0.1700000000E+06    0.3043066596E-03    0.5146496932E-03    0.6959948476E+00    0.2411552859E-01    0.5648099454E+00
    0.1900000000E+06    0.2552308509E-03    0.4341955004E-03    0.6959987787E+00    0.2230439153E-01    0.5734113136E+00
    0.2100000000E+06    0.2171163670E-03    0.3713323836E-03    0.6960019627E+00    0.2074057703E-01    0.5806713353E+00
    0.2300000000E+06    0.1869304482E-03    0.3212723135E-03    0.6960045943E+00    0.1937769955E-01    0.5868831323E+00
    0.2500000000E+06    0.1626198389E-03    0.2807529944E-03    0.6960068058E+00    0.1818000444E-01    0.5922596720E+00
    0.2700000000E+06    0.1427547243E-03    0.2474896185E-03    0.6960086904E+00    0.1711958510E-01    0.5969595743E+00
    0.2900000000E+06    0.1263148345E-03    0.2198432861E-03    0.6960103156E+00    0.1617439198E-01    0.6011034965E+00
    0.3100000000E+06    0.1125564379E-03    0.1966135694E-03    0.6960117315E+00    0.1532680000E-01    0.6047849012E+00
    0.3300000000E+06    0.1009270953E-03    0.1769048360E-03    0.6960129762E+00    0.1456256743E-01    0.6080773389E+00
    0.3500000000E+06    0.9100955021E-04    0.1600378198E-03    0.6960140788E+00    0.1387007065E-01    0.6110395021E+00
    0.3700000000E+06    0.8248391154E-04    0.1454897480E-03    0.6960150625E+00    0.1323973467E-01    0.6137188079E+00
    0.3900000000E+06    0.7510162234E-04    0.1328529503E-03    0.6960159454E+00    0.1266360455E-01    0.6161539894E+00
    0.4100000000E+06    0.6866719703E-04    0.1218057055E-03    0.6960167424E+00    0.1213501908E-01    0.6183770016E+00
    0.4300000000E+06    0.6302518764E-04    0.1120913580E-03    0.6960174652E+00    0.1164835967E-01    0.6204144452E+00
    0.4500000000E+06    0.5805073599E-04    0.1035031262E-03    0.6960181240E+00    0.1119885514E-01    0.6222886451E+00
    0.4700000000E+06    0.5364262729E-04    0.9587289655E-04    0.6960187266E+00    0.1078242855E-01    0.6240184780E+00
    0.4900000000E+06    0.4971811623E-04    0.8906285090E-04    0.6960192802E+00    0.1039557591E-01    0.6256200146E+00
    0.1000000000E+06    0.6599716750E-03    0.1086431973E-02    0.6959687511E+00    0.3347583364E-01    0.5159876700E+00
    0.3000000000E+06    0.1191386930E-03    0.2077382641E-03    0.6960110471E+00    0.1573935516E-01    0.6029970178E+00
    0.5000000000E+06    0.4791542219E-04    0.8592902243E-04    0.6960195404E+00    0.1021227726E-01    0.6263770527E+00
    0.7000000000E+06    0.2568498758E-04    0.4691622099E-04    0.6960231825E+00    0.7543514317E-02    0.6372747951E+00
    0.9000000000E+06    0.1598785159E-04    0.2959716897E-04    0.6960252036E+00    0.5974698552E-02    0.6435803357E+00
    0.1100000000E+07    0.1090987013E-04    0.2040625058E-04    0.6960264867E+00    0.4943027003E-02    0.6476903459E+00
    0.1300000000E+07    0.7923586112E-05    0.1494294214E-04    0.6960273720E+00    0.4213392037E-02    0.6505809311E+00
    0.1500000000E+07    0.6020193567E-05    0.1142945852E-04    0.6960280185E+00    0.3670312106E-02    0.6527243449E+00
    0.1700000000E+07    0.4733009045E-05    0.9035193497E-05    0.6960285104E+00    0.3250472790E-02    0.6543769211E+00
    0.1900000000E+07    0.3822084476E-05    0.7329483289E-05    0.6960288965E+00    0.2916273949E-02    0.6556898057E+00
    0.2100000000E+07    0.3153819528E-05    0.6070782986E-05    0.6960292071E+00    0.2643985452E-02    0.6567578849E+00
    0.2300000000E+07    0.2649041611E-05    0.5115024968E-05    0.6960294620E+00    0.2417895075E-02    0.6576437290E+00
    0.2500000000E+07    0.2258417342E-05    0.4371918891E-05    0.6960296744E+00    0.2227187753E-02    0.6583902675E+00
    0.2700000000E+07    0.1949909883E-05    0.3782523332E-05    0.6960298540E+00    0.2064176622E-02    0.6590279336E+00
    0.2900000000E+07    0.1701981784E-05    0.3307024134E-05    0.6960300074E+00    0.1923248908E-02    0.6595789012E+00
    0.3100000000E+07    0.1499721355E-05    0.2917734375E-05    0.6960301399E+00    0.1800210985E-02    0.6600597087E+00
    0.3300000000E+07    0.1332539176E-05    0.2594912533E-05    0.6960302552E+00    0.1691866777E-02    0.6604829412E+00
    0.3500000000E+07    0.1192747435E-05    0.2324172381E-05    0.6960303563E+00    0.1595737965E-02    0.6608583453E+00
    0.3700000000E+07    0.1074655589E-05    0.2094827703E-05    0.6960304455E+00    0.1509873334E-02    0.6611935863E+00
    0.3900000000E+07    0.9739785401E-06    0.1898805028E-05    0.6960305247E+00    0.1432715797E-02    0.6614947753E+00
    0.4100000000E+07    0.8874397288E-06    0.1729911937E-05    0.6960305953E+00    0.1363007726E-02    0.6617668443E+00
    0.4300000000E+07    0.8124991012E-06    0.1583333939E-05    0.6960306586E+00    0.1299722308E-02    0.6620138169E+00
    0.4500000000E+07    0.7471629818E-06    0.1455281749E-05    0.6960307156E+00    0.1242012951E-02    0.6622390089E+00
    0.4700000000E+07    0.6898488397E-06    0.1342739677E-05    0.6960307670E+00    0.1189175429E-02    0.6624451765E+00
    0.4900000000E+07    0.6392875555E-06    0.1243283289E-05    0.6960308136E+00    0.1140619183E-02    0.6626346303E+00
    0.1000000000E+07    0.1308552096E-04    0.2435720618E-04    0.6960259098E+00    0.5410523166E-02    0.6458313423E+00
    0.3000000000E+07    0.1595886419E-05    0.3102987030E-05    0.6960300760E+00    0.1859713044E-02    0.6598272110E+00
    0.5000000000E+07    0.6162102945E-06    0.1197832524E-05    0.6960308352E+00    0.1117787542E-02    0.6627237112E+00
    0.7000000000E+07    0.3392866117E-06    0.6493075294E-06    0.6960311167E+00    0.7975582231E-03    0.6639731890E+00
    0.9000000000E+07    0.2226346578E-06    0.4163748531E-06    0.6960312438E+00    0.6193261483E-03    0.6646689630E+00
    0.1100000000E+08    0.1621328361E-06    0.2952712078E-06    0.6960313034E+00    0.5058794644E-03    0.6651121580E+00
    0.1300000000E+08    0.1264258929E-06    0.2238881008E-06    0.6960313283E+00    0.4273705179E-03    0.6654191065E+00
    0.1500000000E+08    0.1034037125E-06    0.1780407371E-06    0.6960313337E+00    0.3698356768E-03    0.6656442285E+00
    0.1700000000E+08    0.8757157390E-07    0.1466934924E-06    0.6960313271E+00    0.3258729909E-03    0.6658163762E+00
    0.1900000000E+08    0.7613586985E-07    0.1242140299E-06    0.6960313130E+00    0.2911944559E-03    0.6659522685E+00
    0.2100000000E+08    0.6755018753E-07    0.1074768357E-06    0.6960312939E+00    0.2631449594E-03    0.6660622609E+00
    0.2300000000E+08    0.6089995291E-07    0.9463089255E-07    0.6960312716E+00    0.2399929026E-03    0.6661531096E+00
    0.2500000000E+08    0.5561481993E-07    0.8452132599E-07    0.6960312470E+00    0.2205609739E-03    0.6662294098E+00
    0.2700000000E+08    0.5132330090E-07    0.7639613553E-07    0.6960312210E+00    0.2040209000E-03    0.6662943954E+00
