  Pressure (Pa) 22mC5-500 (mol/kg) 23mC5-500 (mol/kg) 24mC5-500 (mol/kg) 2mC6-500 (mol/kg) 3mC6-500 (mol/kg)
    0.1000000000E+01    0.3188491535E-05    0.7406496040E-05    0.1514068051E+00    0.2120699530E-04    0.1042157760E-04
    0.3000000000E+01    0.7403576324E-05    0.1723110199E-04    0.3165059078E+00    0.5180558357E-04    0.3126117478E-04
    0.5000000000E+01    0.1054021791E-04    0.2458169013E-04    0.4047861498E+00    0.7721135012E-04    0.5209610542E-04
    0.7000000000E+01    0.1327755315E-04    0.3102438066E-04    0.4597441467E+00    0.1010634895E-03    0.7292640441E-04
    0.9000000000E+01    0.1583841492E-04    0.3707004661E-04    0.4972517096E+00    0.1244043532E-03    0.9375208663E-04
    0.1100000000E+02    0.1831294376E-04    0.4292401109E-04    0.5244817163E+00    0.1475922018E-03    0.1145731603E-03
    0.1300000000E+02    0.2074268925E-04    0.4868022808E-04    0.5451495581E+00    0.1707616451E-03    0.1353896307E-03
    0.1500000000E+02    0.2314856450E-04    0.5438559228E-04    0.5613723456E+00    0.1939639633E-03    0.1562015019E-03
    0.1700000000E+02    0.2554176085E-04    0.6006495141E-04    0.5744448958E+00    0.2172168262E-03    0.1770087771E-03
    0.1900000000E+02    0.2792852701E-04    0.6573201265E-04    0.5852036296E+00    0.2405238078E-03    0.1978114591E-03
    0.2100000000E+02    0.3031244926E-04    0.7139452314E-04    0.5942129334E+00    0.2638826008E-03    0.2186095506E-03
    0.2300000000E+02    0.3269561452E-04    0.7705689969E-04    0.6018674388E+00    0.2872886305E-03    0.2394030538E-03
    0.2500000000E+02    0.3507923582E-04    0.8272163560E-04    0.6084513828E+00    0.3107366768E-03    0.2601919710E-03
    0.2700000000E+02    0.3746400349E-04    0.8839008592E-04    0.6141746872E+00    0.3342215946E-03    0.2809763044E-03
    0.2900000000E+02    0.3985028931E-04    0.9406292105E-04    0.6191957567E+00    0.3577386139E-03    0.3017560560E-03
    0.3100000000E+02    0.4223826862E-04    0.9974039613E-04    0.6236363687E+00    0.3812834429E-03    0.3225312279E-03
    0.3300000000E+02    0.4462799514E-04    0.1054225147E-03    0.6275916817E+00    0.4048522793E-03    0.3433018221E-03
    0.3500000000E+02    0.4701944760E-04    0.1111091297E-03    0.6311371315E+00    0.4284417805E-03    0.3640678406E-03
    0.3700000000E+02    0.4941255932E-04    0.1168000069E-03    0.6343332893E+00    0.4520490184E-03    0.3848292854E-03
    0.3900000000E+02    0.5180723707E-04    0.1224948646E-03    0.6372293512E+00    0.4756714309E-03    0.4055861584E-03
    0.4100000000E+02    0.5420337321E-04    0.1281933990E-03    0.6398656887E+00    0.4993067745E-03    0.4263384615E-03
    0.4300000000E+02    0.5660085353E-04    0.1338953002E-03    0.6422757424E+00    0.5229530821E-03    0.4470861967E-03
    0.4500000000E+02    0.5899956228E-04    0.1396002618E-03    0.6444874484E+00    0.5466086251E-03    0.4678293659E-03
    0.4700000000E+02    0.6139938531E-04    0.1453079870E-03    0.6465243258E+00    0.5702718812E-03    0.4885679709E-03
    0.4900000000E+02    0.6380021204E-04    0.1510181924E-03    0.6484063166E+00    0.5939415057E-03    0.5093020138E-03
    0.1000000000E+02    0.1708319099E-04    0.4001355863E-04    0.5118679605E+00    0.1360060902E-03    0.1041631991E-03
    0.3000000000E+02    0.4104406173E-04    0.9690107389E-04    0.6214821415E+00    0.3695078010E-03    0.3121442142E-03
    0.5000000000E+02    0.6500096851E-04    0.1538741406E-03    0.6492946476E+00    0.6057783287E-03    0.5196673249E-03
    0.7000000000E+02    0.8904610946E-04    0.2110665767E-03    0.6619922747E+00    0.8426222575E-03    0.7267344915E-03
    0.9000000000E+02    0.1131044645E-03    0.2682915452E-03    0.6692638975E+00    0.1079317593E-02    0.9333475817E-03
    0.1100000000E+03    0.1371361304E-03    0.3254531025E-03    0.6739752816E+00    0.1315597930E-02    0.1139508438E-02
    0.1300000000E+03    0.1611194952E-03    0.3825000267E-03    0.6772761922E+00    0.1551344441E-02    0.1345218888E-02
    0.1500000000E+03    0.1850420039E-03    0.4394028245E-03    0.6797175716E+00    0.1786497102E-02    0.1550480747E-02
    0.1700000000E+03    0.2088959189E-03    0.4961434378E-03    0.6815964783E+00    0.2021023040E-02    0.1755295817E-02
    0.1900000000E+03    0.2326762532E-03    0.5527102895E-03    0.6830872231E+00    0.2254903321E-02    0.1959665894E-02
    0.2100000000E+03    0.2563796860E-03    0.6090957077E-03    0.6842988342E+00    0.2488126772E-02    0.2163592758E-02
    0.2300000000E+03    0.2800039569E-03    0.6652944943E-03    0.6853030026E+00    0.2720686816E-02    0.2367078184E-02
    0.2500000000E+03    0.3035475078E-03    0.7213030837E-03    0.6861488046E+00    0.2952579740E-02    0.2570123933E-02
    0.2700000000E+03    0.3270092620E-03    0.7771190260E-03    0.6868709674E+00    0.3183803687E-02    0.2772731759E-02
    0.2900000000E+03    0.3503884825E-03    0.8327406557E-03    0.6874947563E+00    0.3414358046E-02    0.2974903405E-02
    0.3100000000E+03    0.3736846773E-03    0.8881668724E-03    0.6880389913E+00    0.3644243066E-02    0.3176640604E-02
    0.3300000000E+03    0.3968975356E-03    0.9433969921E-03    0.6885179797E+00    0.3873459605E-02    0.3377945080E-02
    0.3500000000E+03    0.4200268825E-03    0.9984306427E-03    0.6889427920E+00    0.4102008956E-02    0.3578818548E-02
    0.3700000000E+03    0.4430726466E-03    0.1053267690E-02    0.6893221280E+00    0.4329892733E-02    0.3779262713E-02
    0.3900000000E+03    0.4660348373E-03    0.1107908182E-02    0.6896629197E+00    0.4557112789E-02    0.3979279271E-02
    0.4100000000E+03    0.4889135263E-03    0.1162352312E-02    0.6899707580E+00    0.4783671154E-02    0.4178869908E-02
    0.4300000000E+03    0.5117088353E-03    0.1216600385E-02    0.6902502026E+00    0.5009569994E-02    0.4378036302E-02
    0.4500000000E+03    0.5344209258E-03    0.1270652798E-02    0.6905050090E+00    0.5234811579E-02    0.4576780120E-02
    0.4700000000E+03    0.5570499909E-03    0.1324510018E-02    0.6907382982E+00    0.5459398257E-02    0.4775103023E-02
    0.4900000000E+03    0.5795962498E-03    0.1378172572E-02    0.6909526856E+00    0.5683332435E-02    0.4973006659E-02
    0.1000000000E+03    0.1251252701E-03    0.2968841406E-03    0.6718469507E+00    0.1197519036E-02    0.1036484425E-02
    0.3000000000E+03    0.3620469812E-03    0.8604782418E-03    0.6877758355E+00    0.3529384182E-02    0.3075826202E-02
    0.5000000000E+03    0.5908384013E-03    0.1404931027E-02    0.6910534948E+00    0.5795055601E-02    0.5071801765E-02
    0.7000000000E+03    0.8114007391E-03    0.1930038476E-02    0.6924680110E+00    0.7995877708E-02    0.7026089273E-02
    0.9000000000E+03    0.1024023248E-02    0.2436484902E-02    0.6932564573E+00    0.1013436389E-01    0.8940278299E-02
    0.1100000000E+04    0.1229033313E-02    0.2925038922E-02    0.6937591857E+00    0.1221302075E-01    0.1081587575E-01
    0.1300000000E+04    0.1426755348E-02    0.3396460583E-02    0.6941076893E+00    0.1423425141E-01    0.1265431125E-01
    0.1500000000E+04    0.1617501659E-02    0.3851480981E-02    0.6943635036E+00    0.1620034211E-01    0.1445694206E-01
    0.1700000000E+04    0.1801570141E-02    0.4290797237E-02    0.6945592694E+00    0.1811346367E-01    0.1622505770E-01
    0.1900000000E+04    0.1979243967E-02    0.4715071928E-02    0.6947139112E+00    0.1997567669E-01    0.1795988411E-01
    0.2100000000E+04    0.2150791960E-02    0.5124934045E-02    0.6948391567E+00    0.2178893757E-01    0.1966258759E-01
    0.2300000000E+04    0.2316469229E-02    0.5520980497E-02    0.6949426615E+00    0.2355510458E-01    0.2133427845E-01
    0.2500000000E+04    0.2476517870E-02    0.5903777792E-02    0.6950296350E+00    0.2527594370E-01    0.2297601430E-01
    0.2700000000E+04    0.2631167695E-02    0.6273863733E-02    0.6951037453E+00    0.2695313416E-01    0.2458880326E-01
    0.2900000000E+04    0.2780636934E-02    0.6631749079E-02    0.6951676499E+00    0.2858827359E-01    0.2617360679E-01
    0.3100000000E+04    0.2925132915E-02    0.6977919121E-02    0.6952233216E+00    0.3018288290E-01    0.2773134243E-01
    0.3300000000E+04    0.3064852696E-02    0.7312835173E-02    0.6952722552E+00    0.3173841074E-01    0.2926288627E-01
    0.3500000000E+04    0.3199983670E-02    0.7636935977E-02    0.6953156045E+00    0.3325623775E-01    0.3076907534E-01
    0.3700000000E+04    0.3330704126E-02    0.7950639015E-02    0.6953542740E+00    0.3473768046E-01    0.3225070977E-01
    0.3900000000E+04    0.3457183777E-02    0.8254341742E-02    0.6953889828E+00    0.3618399496E-01    0.3370855483E-01
    0.4100000000E+04    0.3579584251E-02    0.8548422735E-02    0.6954203099E+00    0.3759638028E-01    0.3514334281E-01
    0.4300000000E+04    0.3698059554E-02    0.8833242766E-02    0.6954487266E+00    0.3897598163E-01    0.3655577486E-01
    0.4500000000E+04    0.3812756501E-02    0.9109145812E-02    0.6954746206E+00    0.4032389335E-01    0.3794652258E-01
    0.4700000000E+04    0.3923815115E-02    0.9376459987E-02    0.6954983137E+00    0.4164116168E-01    0.3931622963E-01
    0.4900000000E+04    0.4031369010E-02    0.9635498431E-02    0.6955200750E+00    0.4292878737E-01    0.4066551319E-01
    0.1000000000E+04    0.1127459328E-02    0.2682950397E-02    0.6935328615E+00    0.1118101808E-01    0.9882809868E-02
    0.3000000000E+04    0.2853494032E-02    0.6806269136E-02    0.6951964121E+00    0.2939055233E-01    0.2695580240E-01
    0.5000000000E+04    0.4083871774E-02    0.9762008216E-02    0.6955303036E+00    0.4356178514E-01    0.4133268211E-01
    0.7000000000E+04    0.4978042224E-02    0.1192364757E-01    0.6956735637E+00    0.5487776823E-01    0.5373575139E-01
    0.9000000000E+04    0.5636295953E-02    0.1352645301E-01    0.6957532079E+00    0.6410099707E-01    0.6464196020E-01
    0.1100000000E+05    0.6124400008E-02    0.1472496427E-01    0.6958039167E+00    0.7174470850E-01    0.7437993295E-01
    0.1300000000E+05    0.6487003312E-02    0.1562428783E-01    0.6958390374E+00    0.7816693009E-01    0.8318414767E-01
    0.1500000000E+05    0.6755306796E-02    0.1629801421E-01    0.6958648017E+00    0.8362499418E-01    0.9122687006E-01
    0.1700000000E+05    0.6951652721E-02    0.1679894712E-01    0.6958845101E+00    0.8830861006E-01    0.9863784037E-01
    0.1900000000E+05    0.7092377037E-02    0.1716577770E-01    0.6959000737E+00    0.9236071668E-01    0.1055168790E+00
    0.2100000000E+05    0.7189640878E-02    0.1742737401E-01    0.6959126761E+00    0.9589107205E-01    0.1119422242E+00
    0.2300000000E+05    0.7252640200E-02    0.1760561694E-01    0.6959230893E+00    0.9898536624E-01    0.1179762041E+00
    0.2500000000E+05    0.7288424624E-02    0.1771732189E-01    0.6959318384E+00    0.1017114876E+00    0.1236691917E+00
    0.2700000000E+05    0.7302463919E-02    0.1777556974E-01    0.6959392930E+00    0.1041239274E+00    0.1290624226E+00
    0.2900000000E+05    0.7299047519E-02    0.1779064648E-01    0.6959457206E+00    0.1062669381E+00    0.1341900420E+00
    0.3100000000E+05    0.7281571178E-02    0.1777071835E-01    0.6959513199E+00    0.1081768370E+00    0.1390806180E+00
    0.3300000000E+05    0.7252745866E-02    0.1772232432E-01    0.6959562415E+00    0.1098837144E+00    0.1437582771E+00
    0.3500000000E+05    0.7214752123E-02    0.1765074053E-01    0.6959606014E+00    0.1114127182E+00    0.1482435692E+00
    0.3700000000E+05    0.7169355588E-02    0.1756025339E-01    0.6959644906E+00    0.1127850319E+00    0.1525541339E+00
    0.3900000000E+05    0.7117994450E-02    0.1745436663E-01    0.6959679814E+00    0.1140186299E+00    0.1567052218E+00
    0.4100000000E+05    0.7061846373E-02    0.1733595991E-01    0.6959711323E+00    0.1151288645E+00    0.1607101039E+00
    0.4300000000E+05    0.7001880189E-02    0.1720741159E-01    0.6959739904E+00    0.1161289299E+00    0.1645803989E+00
    0.4500000000E+05    0.6938896195E-02    0.1707069451E-01    0.6959765949E+00    0.1170302296E+00    0.1683263362E+00
    0.4700000000E+05    0.6873557829E-02    0.1692745146E-01    0.6959789781E+00    0.1178426714E+00    0.1719569686E+00
    0.4900000000E+05    0.6806416745E-02    0.1677905497E-01    0.6959811671E+00    0.1185749060E+00    0.1754803462E+00
    0.1000000000E+05    0.5898440651E-02    0.1416877333E-01    0.6957810949E+00    0.6809505265E-01    0.6964056599E-01
    0.3000000000E+05    0.7291883386E-02    0.1778461599E-01    0.6959486135E+00    0.1072490167E+00    0.1366633597E+00
    0.5000000000E+05    0.6772317019E-02    0.1670329116E-01    0.6959821960E+00    0.1189133536E+00    0.1772040919E+00
    0.7000000000E+05    0.6073636703E-02    0.1511456070E-01    0.6959966096E+00    0.1228986785E+00    0.2074502811E+00
    0.9000000000E+05    0.5428659475E-02    0.1361098181E-01    0.6960046265E+00    0.1237562201E+00    0.2319876836E+00
    0.1100000000E+06    0.4870034689E-02    0.1228950660E-01    0.6960097333E+00    0.1231042285E+00    0.2527906671E+00
    0.1300000000E+06    0.4392305520E-02    0.1114728889E-01    0.6960132718E+00    0.1216589223E+00    0.2709105073E+00
    0.1500000000E+06    0.3983281507E-02    0.1016096568E-01    0.6960158687E+00    0.1197817075E+00    0.2869840685E+00
    0.1700000000E+06    0.3631150868E-02    0.9305716139E-02    0.6960178560E+00    0.1176712184E+00    0.3014319149E+00
    0.1900000000E+06    0.3325949995E-02    0.8559808439E-02    0.6960194260E+00    0.1154431334E+00    0.3145493467E+00
    0.2100000000E+06    0.3059604654E-02    0.7905246831E-02    0.6960206977E+00    0.1131675149E+00    0.3265533954E+00
    0.2300000000E+06    0.2825640357E-02    0.7327384884E-02    0.6960217488E+00    0.1108878751E+00    0.3376092771E+00
    0.2500000000E+06    0.2618862295E-02    0.6814337832E-02    0.6960226322E+00    0.1086315862E+00    0.3478463119E+00
    0.2700000000E+06    0.2435080758E-02    0.6356432932E-02    0.6960233851E+00    0.1064158744E+00    0.3573680286E+00
    0.2900000000E+06    0.2270892790E-02    0.5945753665E-02    0.6960240345E+00    0.1042514195E+00    0.3662588606E+00
    0.3100000000E+06    0.2123513179E-02    0.5575777734E-02    0.6960246003E+00    0.1021445950E+00    0.3745887475E+00
    0.3300000000E+06    0.1990644662E-02    0.5241094084E-02    0.6960250977E+00    0.1000989003E+00    0.3824163917E+00
    0.3500000000E+06    0.1870378212E-02    0.4937182558E-02    0.6960255385E+00    0.9811590025E-01    0.3897916257E+00
    0.3700000000E+06    0.1761116088E-02    0.4660242033E-02    0.6960259318E+00    0.9619585230E-01    0.3967571698E+00
    0.3900000000E+06    0.1661512061E-02    0.4407055756E-02    0.6960262848E+00    0.9433813247E-01    0.4033499641E+00
    0.4100000000E+06    0.1570424651E-02    0.4174885182E-02    0.6960266036E+00    0.9254152840E-01    0.4096021936E+00
    0.4300000000E+06    0.1486880263E-02    0.3961385746E-02    0.6960268928E+00    0.9080444295E-01    0.4155420905E+00
    0.4500000000E+06    0.1410043902E-02    0.3764539558E-02    0.6960271563E+00    0.8912503667E-01    0.4211945699E+00
    0.4700000000E+06    0.1339195739E-02    0.3582601270E-02    0.6960273975E+00    0.8750132802E-01    0.4265817390E+00
    0.4900000000E+06    0.1273712223E-02    0.3414054235E-02    0.6960276191E+00    0.8593126393E-01    0.4317233109E+00
    0.1000000000E+06    0.5138573667E-02    0.1292675457E-01    0.6960074347E+00    0.1235622183E+00    0.2427769826E+00
    0.3000000000E+06    0.2195255660E-02    0.5756039168E-02    0.6960243268E+00    0.1031905302E+00    0.3704900212E+00
    0.5000000000E+06    0.1242809842E-02    0.3334382090E-02    0.6960277232E+00    0.8516570000E-01    0.4342075880E+00
    0.7000000000E+06    0.8058765368E-03    0.2197486376E-02    0.6960291830E+00    0.7218664787E-01    0.4744579394E+00
    0.9000000000E+06    0.5666698558E-03    0.1564848241E-02    0.6960299954E+00    0.6256157176E-01    0.5025633235E+00
    0.1100000000E+07    0.4208054642E-03    0.1174154171E-02    0.6960305130E+00    0.5517017909E-01    0.5234082500E+00
    0.1300000000E+07    0.3250710862E-03    0.9150503921E-03    0.6960308714E+00    0.4932463186E-01    0.5395235779E+00
    0.1500000000E+07    0.2587667083E-03    0.7340061267E-03    0.6960311343E+00    0.4458921840E-01    0.5523714002E+00
    0.1700000000E+07    0.2109130831E-03    0.6023339918E-03    0.6960313352E+00    0.4067664603E-01    0.5628615674E+00
    0.1900000000E+07    0.1752285857E-03    0.5034760409E-03    0.6960314938E+00    0.3739039955E-01    0.5715922296E+00
    0.2100000000E+07    0.1479014647E-03    0.4273075668E-03    0.6960316220E+00    0.3459171370E-01    0.5789737426E+00
    0.2300000000E+07    0.1265069707E-03    0.3673441721E-03    0.6960317277E+00    0.3217989026E-01    0.5852974350E+00
    0.2500000000E+07    0.1094416990E-03    0.3192717564E-03    0.6960318165E+00    0.3008011694E-01    0.5907760567E+00
    0.2700000000E+07    0.9561038652E-04    0.2801270889E-03    0.6960318919E+00    0.2823566842E-01    0.5955687050E+00
    0.2900000000E+07    0.8424392419E-04    0.2478187936E-03    0.6960319568E+00    0.2660276073E-01    0.5997967926E+00
    0.3100000000E+07    0.7478922332E-04    0.2208358686E-03    0.6960320133E+00    0.2514706475E-01    0.6035546136E+00
    0.3300000000E+07    0.6684020682E-04    0.1980641260E-03    0.6960320627E+00    0.2384128779E-01    0.6069165329E+00
    0.3500000000E+07    0.6009324491E-04    0.1786671013E-03    0.6960321064E+00    0.2266346051E-01    0.6099419982E+00
    0.3700000000E+07    0.5431760703E-04    0.1620067497E-03    0.6960321453E+00    0.2159570065E-01    0.6126791084E+00
    0.3900000000E+07    0.4933540807E-04    0.1475894081E-03    0.6960321801E+00    0.2062330566E-01    0.6151672024E+00
    0.4100000000E+07    0.4500771271E-04    0.1350282083E-03    0.6960322114E+00    0.1973407668E-01    0.6174387695E+00
    0.4300000000E+07    0.4122472614E-04    0.1240164506E-03    0.6960322397E+00    0.1891780776E-01    0.6195208792E+00
    0.4500000000E+07    0.3789875226E-04    0.1143084243E-03    0.6960322654E+00    0.1816589519E-01    0.6214362676E+00
    0.4700000000E+07    0.3495906125E-04    0.1057053847E-03    0.6960322888E+00    0.1747103521E-01    0.6232041715E+00
    0.4900000000E+07    0.3234809641E-04    0.9804515796E-04    0.6960323103E+00    0.1682698761E-01    0.6248409775E+00
    0.1000000000E+07    0.4855449712E-03    0.1348100502E-02    0.6960302800E+00    0.5863723158E-01    0.5137008781E+00
    0.3000000000E+07    0.7930581583E-04    0.2337389608E-03    0.6960319860E+00    0.2585460913E-01    0.6017294387E+00
    0.5000000000E+07    0.3115078820E-04    0.9452595881E-04    0.6960323203E+00    0.1652231246E-01    0.6256146879E+00
    0.7000000000E+07    0.1650075927E-04    0.5105285633E-04    0.6960324583E+00    0.1212079072E-01    0.6367507248E+00
    0.9000000000E+07    0.1018853118E-04    0.3198485339E-04    0.6960325311E+00    0.9562287958E-02    0.6431903123E+00
    0.1100000000E+08    0.6907910103E-05    0.2193898470E-04    0.6960325746E+00    0.7890945343E-02    0.6473847726E+00
    0.1300000000E+08    0.4988769326E-05    0.1599708401E-04    0.6960326025E+00    0.6714124140E-02    0.6503327887E+00
    0.1500000000E+08    0.3770462997E-05    0.1218992898E-04    0.6960326211E+00    0.5840954675E-02    0.6525174554E+00
    0.1700000000E+08    0.2949264985E-05    0.9603116220E-05    0.6960326339E+00    0.5167529174E-02    0.6542009044E+00
    0.1900000000E+08    0.2369732522E-05    0.7764681806E-05    0.6960326426E+00    0.4632459287E-02    0.6555376418E+00
    0.2100000000E+08    0.1945628546E-05    0.6410846480E-05    0.6960326487E+00    0.4197154782E-02    0.6566246253E+00
    0.2300000000E+08    0.1625997609E-05    0.5384725038E-05    0.6960326527E+00    0.3836144097E-02    0.6575257669E+00
    0.2500000000E+08    0.1379166275E-05    0.4588223422E-05    0.6960326553E+00    0.3531939060E-02    0.6582849006E+00
    0.2700000000E+08    0.1184608970E-05    0.3957432305E-05    0.6960326567E+00    0.3272135981E-02    0.6589330899E+00
