  Pressure (Pa) 22mC5-500 (mol/kg) 23mC5-500 (mol/kg) 24mC5-500 (mol/kg) 2mC6-500 (mol/kg) 3mC6-500 (mol/kg)
    0.1000000000E+01    0.3086473739E-05    0.3585382026E-05    0.1741115445E+00    0.3610709849E-04    0.1042140585E-04
    0.3000000000E+01    0.7009112838E-05    0.8161588219E-05    0.3481396539E+00    0.8708194542E-04    0.3125965080E-04
    0.5000000000E+01    0.9949732261E-05    0.1161358570E-04    0.4351258267E+00    0.1301388621E-03    0.5209189630E-04
    0.7000000000E+01    0.1256779859E-04    0.1470053210E-04    0.4873101127E+00    0.1712422852E-03    0.7291817926E-04
    0.9000000000E+01    0.1505579816E-04    0.1764236720E-04    0.5220971397E+00    0.2118487411E-03    0.9373851510E-04
    0.1100000000E+02    0.1748550314E-04    0.2052040812E-04    0.5469440626E+00    0.2523912067E-03    0.1145529127E-03
    0.1300000000E+02    0.1988783815E-04    0.2336934642E-04    0.5655788695E+00    0.2930052810E-03    0.1353613782E-03
    0.1500000000E+02    0.2227741338E-04    0.2620537528E-04    0.5800724547E+00    0.3337278836E-03    0.1561639165E-03
    0.1700000000E+02    0.2466154851E-04    0.2903648325E-04    0.5916672704E+00    0.3745612545E-03    0.1769605320E-03
    0.1900000000E+02    0.2704403385E-04    0.3186672112E-04    0.6011539306E+00    0.4154957635E-03    0.1977512285E-03
    0.2100000000E+02    0.2942684869E-04    0.3469813952E-04    0.6090594936E+00    0.4565185014E-03    0.2185360096E-03
    0.2300000000E+02    0.3181100306E-04    0.3753173183E-04    0.6157488373E+00    0.4976165433E-03    0.2393148790E-03
    0.2500000000E+02    0.3419697312E-04    0.4036791807E-04    0.6214825846E+00    0.5387781111E-03    0.2600878399E-03
    0.2700000000E+02    0.3658493607E-04    0.4320680379E-04    0.6264518562E+00    0.5799928872E-03    0.2808548957E-03
    0.2900000000E+02    0.3897490113E-04    0.4604832291E-04    0.6307999917E+00    0.6212519928E-03    0.3016160496E-03
    0.3100000000E+02    0.4136678455E-04    0.4889231844E-04    0.6346366030E+00    0.6625478447E-03    0.3223713049E-03
    0.3300000000E+02    0.4376045311E-04    0.5173858871E-04    0.6380469433E+00    0.7038739808E-03    0.3431206647E-03
    0.3500000000E+02    0.4615574987E-04    0.5458691405E-04    0.6410983177E+00    0.7452248907E-03    0.3638641323E-03
    0.3700000000E+02    0.4855250923E-04    0.5743707210E-04    0.6438445704E+00    0.7865958649E-03    0.3846017108E-03
    0.3900000000E+02    0.5095056575E-04    0.6028884636E-04    0.6463292892E+00    0.8279828651E-03    0.4053334032E-03
    0.4100000000E+02    0.5334975922E-04    0.6314203083E-04    0.6485881372E+00    0.8693824166E-03    0.4260592128E-03
    0.4300000000E+02    0.5574993735E-04    0.6599643227E-04    0.6506505749E+00    0.9107915174E-03    0.4467791426E-03
    0.4500000000E+02    0.5815095713E-04    0.6885187096E-04    0.6525411532E+00    0.9522075636E-03    0.4674931957E-03
    0.4700000000E+02    0.6055268522E-04    0.7170818071E-04    0.6542804945E+00    0.9936282881E-03    0.4882013752E-03
    0.4900000000E+02    0.6295499798E-04    0.7456520842E-04    0.6558860487E+00    0.1035051709E-02    0.5089036842E-03
    0.1000000000E+02    0.1627545370E-04    0.1908656739E-04    0.5354763360E+00    0.2321159184E-03    0.1041464557E-03
    0.3000000000E+02    0.4017061058E-04    0.4747002307E-04    0.6327764252E+00    0.6418957535E-03    0.3119944144E-03
    0.5000000000E+02    0.6415633753E-04    0.7599394704E-04    0.6566433885E+00    0.1055763879E-02    0.5192526383E-03
    0.7000000000E+02    0.8819048904E-04    0.1045779110E-03    0.6674331310E+00    0.1469822273E-02    0.7259242663E-03
    0.9000000000E+02    0.1121969505E-03    0.1331291880E-03    0.6735823856E+00    0.1883035225E-02    0.9320123453E-03
    0.1100000000E+03    0.1361400142E-03    0.1616053184E-03    0.6775550529E+00    0.2295042245E-02    0.1137519888E-02
    0.1300000000E+03    0.1600013727E-03    0.1899847867E-03    0.6803330170E+00    0.2705689147E-02    0.1342449881E-02
    0.1500000000E+03    0.1837708066E-03    0.2182556774E-03    0.6823847703E+00    0.3114901621E-02    0.1546805289E-02
    0.1700000000E+03    0.2074422566E-03    0.2464109704E-03    0.6839621673E+00    0.3522641578E-02    0.1750589053E-02
    0.1900000000E+03    0.2310119889E-03    0.2744463652E-03    0.6852126698E+00    0.3928889287E-02    0.1953804093E-02
    0.2100000000E+03    0.2544776568E-03    0.3023591753E-03    0.6862283562E+00    0.4333635128E-02    0.2156453310E-02
    0.2300000000E+03    0.2778377855E-03    0.3301477252E-03    0.6870696915E+00    0.4736875416E-02    0.2358539582E-02
    0.2500000000E+03    0.3010914725E-03    0.3578110003E-03    0.6877780216E+00    0.5138610128E-02    0.2560065768E-02
    0.2700000000E+03    0.3242382036E-03    0.3853484330E-03    0.6883825770E+00    0.5538841589E-02    0.2761034706E-02
    0.2900000000E+03    0.3472777361E-03    0.4127597678E-03    0.6889046072E+00    0.5937573686E-02    0.2961449215E-02
    0.3100000000E+03    0.3702100218E-03    0.4400449720E-03    0.6893599311E+00    0.6334811363E-02    0.3161312093E-02
    0.3300000000E+03    0.3930351545E-03    0.4672041751E-03    0.6897605670E+00    0.6730560300E-02    0.3360626121E-02
    0.3500000000E+03    0.4157533338E-03    0.4942376273E-03    0.6901158098E+00    0.7124826696E-02    0.3559394057E-02
    0.3700000000E+03    0.4383648389E-03    0.5211456694E-03    0.6904329610E+00    0.7517617117E-02    0.3757618643E-02
    0.3900000000E+03    0.4608700097E-03    0.5479287114E-03    0.6907178357E+00    0.7908938392E-02    0.3955302600E-02
    0.4100000000E+03    0.4832692333E-03    0.5745872162E-03    0.6909751228E+00    0.8298797538E-02    0.4152448631E-02
    0.4300000000E+03    0.5055629329E-03    0.6011216880E-03    0.6912086447E+00    0.8687201708E-02    0.4349059421E-02
    0.4500000000E+03    0.5277515603E-03    0.6275326629E-03    0.6914215490E+00    0.9074158143E-02    0.4545137634E-02
    0.4700000000E+03    0.5498355895E-03    0.6538207022E-03    0.6916164508E+00    0.9459674150E-02    0.4740685919E-02
    0.4900000000E+03    0.5718155120E-03    0.6799863867E-03    0.6917955410E+00    0.9843757073E-02    0.4935706904E-02
    0.1000000000E+03    0.1241778106E-03    0.1473783002E-03    0.6757615514E+00    0.2089201814E-02    0.1034838496E-02
    0.3000000000E+03    0.3587572818E-03    0.4264181314E-03    0.6891397819E+00    0.6136378986E-02    0.3061449434E-02
    0.5000000000E+03    0.5827665907E-03    0.6930235317E-03    0.6918797461E+00    0.1003526343E-01    0.5033020475E-02
    0.7000000000E+03    0.7964507839E-03    0.9474937488E-03    0.6930608265E+00    0.1379195449E-01    0.6952237878E-02
    0.9000000000E+03    0.1000337181E-02    0.1190448610E-02    0.6937187826E+00    0.1741368576E-01    0.8821609695E-02
    0.1100000000E+04    0.1194957253E-02    0.1422510733E-02    0.6941381631E+00    0.2090735614E-01    0.1064348056E-01
    0.1300000000E+04    0.1380816835E-02    0.1644272139E-02    0.6944288192E+00    0.2427943871E-01    0.1242004497E-01
    0.1500000000E+04    0.1558391226E-02    0.1856288934E-02    0.6946421341E+00    0.2753599116E-01    0.1415335921E-01
    0.1700000000E+04    0.1728125385E-02    0.2059081689E-02    0.6948053544E+00    0.3068268209E-01    0.1584535226E-01
    0.1900000000E+04    0.1890435468E-02    0.2253137296E-02    0.6949342732E+00    0.3372481929E-01    0.1749783558E-01
    0.2100000000E+04    0.2045710714E-02    0.2438911198E-02    0.6950386759E+00    0.3666737691E-01    0.1911251204E-01
    0.2300000000E+04    0.2194315364E-02    0.2616829640E-02    0.6951249490E+00    0.3951502076E-01    0.2069098407E-01
    0.2500000000E+04    0.2336590490E-02    0.2787291816E-02    0.6951974381E+00    0.4227213145E-01    0.2223476103E-01
    0.2700000000E+04    0.2472855717E-02    0.2950671875E-02    0.6952592025E+00    0.4494282570E-01    0.2374526596E-01
    0.2900000000E+04    0.2603410804E-02    0.3107320777E-02    0.6953124584E+00    0.4753097574E-01    0.2522384177E-01
    0.3100000000E+04    0.2728537113E-02    0.3257567994E-02    0.6953588510E+00    0.5004022712E-01    0.2667175688E-01
    0.3300000000E+04    0.2848498945E-02    0.3401723085E-02    0.6953996269E+00    0.5247401494E-01    0.2809021035E-01
    0.3500000000E+04    0.2963544777E-02    0.3540077126E-02    0.6954357478E+00    0.5483557876E-01    0.2948033669E-01
    0.3700000000E+04    0.3073908391E-02    0.3672904032E-02    0.6954679681E+00    0.5712797627E-01    0.3084321016E-01
    0.3900000000E+04    0.3179809912E-02    0.3800461770E-02    0.6954968872E+00    0.5935409583E-01    0.3217984880E-01
    0.4100000000E+04    0.3281456762E-02    0.3922993468E-02    0.6955229878E+00    0.6151666796E-01    0.3349121812E-01
    0.4300000000E+04    0.3379044538E-02    0.4040728439E-02    0.6955466628E+00    0.6361827597E-01    0.3477823448E-01
    0.4500000000E+04    0.3472757815E-02    0.4153883119E-02    0.6955682355E+00    0.6566136570E-01    0.3604176826E-01
    0.4700000000E+04    0.3562770892E-02    0.4262661941E-02    0.6955879739E+00    0.6764825450E-01    0.3728264672E-01
    0.4900000000E+04    0.3649248476E-02    0.4367258123E-02    0.6956061025E+00    0.6958113956E-01    0.3850165672E-01
    0.1000000000E+04    0.1098773193E-02    0.1307803437E-02    0.6939493756E+00    0.1917611399E-01    0.9738342220E-02
    0.3000000000E+04    0.2666635652E-02    0.3183224799E-02    0.6953364270E+00    0.4879524432E-01    0.2595155540E-01
    0.5000000000E+04    0.3691210462E-02    0.4418045222E-02    0.6956146235E+00    0.7052798635E-01    0.3910319649E-01
    0.7000000000E+04    0.4378481780E-02    0.5253695849E-02    0.6957339535E+00    0.8708349222E-01    0.5015004398E-01
    0.9000000000E+04    0.4845968140E-02    0.5828216646E-02    0.6958002814E+00    0.1000610124E+00    0.5967524637E-01
    0.1100000000E+05    0.5164824169E-02    0.6225387597E-02    0.6958425054E+00    0.1104645481E+00    0.6805635834E-01
    0.1300000000E+05    0.5380204213E-02    0.6498512291E-02    0.6958717457E+00    0.1189558161E+00    0.7554976453E-01
    0.1500000000E+05    0.5521867613E-02    0.6682817801E-02    0.6958931938E+00    0.1259884623E+00    0.8233642556E-01
    0.1700000000E+05    0.5610045646E-02    0.6802322784E-02    0.6959095987E+00    0.1318837812E+00    0.8854821304E-01
    0.1900000000E+05    0.5658852110E-02    0.6873835338E-02    0.6959225524E+00    0.1368756450E+00    0.9428384231E-01
    0.2100000000E+05    0.5678349752E-02    0.6909378699E-02    0.6959330405E+00    0.1411383091E+00    0.9961892041E-01
    0.2300000000E+05    0.5675846994E-02    0.6917715705E-02    0.6959417059E+00    0.1448042481E+00    0.1046125104E+00
    0.2500000000E+05    0.5656736523E-02    0.6905336230E-02    0.6959489860E+00    0.1479759547E+00    0.1093115522E+00
    0.2700000000E+05    0.5625051953E-02    0.6877113748E-02    0.6959551884E+00    0.1507339559E+00    0.1137539185E+00
    0.2900000000E+05    0.5583845890E-02    0.6836752021E-02    0.6959605359E+00    0.1531423899E+00    0.1179705784E+00
    0.3100000000E+05    0.5535451924E-02    0.6787095217E-02    0.6959651941E+00    0.1552529664E+00    0.1219871592E+00
    0.3300000000E+05    0.5481669474E-02    0.6730347119E-02    0.6959692880E+00    0.1571078322E+00    0.1258250957E+00
    0.3500000000E+05    0.5423896299E-02    0.6668228579E-02    0.6959729146E+00    0.1587416795E+00    0.1295024898E+00
    0.3700000000E+05    0.5363224869E-02    0.6602092274E-02    0.6959761494E+00    0.1601833197E+00    0.1330347624E+00
    0.3900000000E+05    0.5300513369E-02    0.6533007426E-02    0.6959790527E+00    0.1614568755E+00    0.1364351553E+00
    0.4100000000E+05    0.5236438633E-02    0.6461823104E-02    0.6959816730E+00    0.1625826940E+00    0.1397151215E+00
    0.4300000000E+05    0.5171536020E-02    0.6389216024E-02    0.6959840499E+00    0.1635780551E+00    0.1428846332E+00
    0.4500000000E+05    0.5106229758E-02    0.6315727002E-02    0.6959862156E+00    0.1644577252E+00    0.1459524263E+00
    0.4700000000E+05    0.5040856235E-02    0.6241789013E-02    0.6959881972E+00    0.1652343968E+00    0.1489261965E+00
    0.4900000000E+05    0.4975682023E-02    0.6167748952E-02    0.6959900172E+00    0.1659190377E+00    0.1518127591E+00
    0.1000000000E+05    0.5020698880E-02    0.6045106791E-02    0.6958235029E+00    0.1055371043E+00    0.6399061195E-01
    0.3000000000E+05    0.5560424173E-02    0.6812934850E-02    0.6959629426E+00    0.1542320798E+00    0.1200024520E+00
    0.5000000000E+05    0.4943237395E-02    0.6130779778E-02    0.6959908727E+00    0.1662298729E+00    0.1532252589E+00
    0.7000000000E+05    0.4336670205E-02    0.5429319477E-02    0.6960028536E+00    0.1693754773E+00    0.1780717301E+00
    0.9000000000E+05    0.3830597327E-02    0.4832871474E-02    0.6960095143E+00    0.1692421338E+00    0.1983737898E+00
    0.1100000000E+06    0.3415296110E-02    0.4337269342E-02    0.6960137554E+00    0.1676517344E+00    0.2157403219E+00
    0.1300000000E+06    0.3071881155E-02    0.3923538624E-02    0.6960166930E+00    0.1653582571E+00    0.2310141013E+00
    0.1500000000E+06    0.2784392917E-02    0.3574477471E-02    0.6960188482E+00    0.1627202507E+00    0.2446991080E+00
    0.1700000000E+06    0.2540711983E-02    0.3276632356E-02    0.6960204970E+00    0.1599241229E+00    0.2571245471E+00
    0.1900000000E+06    0.2331794809E-02    0.3019785815E-02    0.6960217991E+00    0.1570726366E+00    0.2685194466E+00
    0.2100000000E+06    0.2150854756E-02    0.2796174568E-02    0.6960228536E+00    0.1542245694E+00    0.2790508346E+00
    0.2300000000E+06    0.1992734246E-02    0.2599842094E-02    0.6960237249E+00    0.1514141703E+00    0.2888450566E+00
    0.2500000000E+06    0.1853457115E-02    0.2426160231E-02    0.6960244570E+00    0.1486613905E+00    0.2980005072E+00
    0.2700000000E+06    0.1729914164E-02    0.2271485819E-02    0.6960250808E+00    0.1459775632E+00    0.3065956497E+00
    0.2900000000E+06    0.1619641376E-02    0.2132914900E-02    0.6960256187E+00    0.1433686984E+00    0.3146942937E+00
    0.3100000000E+06    0.1520661780E-02    0.2008105472E-02    0.6960260873E+00    0.1408374628E+00    0.3223491950E+00
    0.3300000000E+06    0.1431371164E-02    0.1895148245E-02    0.6960264991E+00    0.1383844038E+00    0.3296045877E+00
    0.3500000000E+06    0.1350454310E-02    0.1792471203E-02    0.6960268640E+00    0.1360087250E+00    0.3364980122E+00
    0.3700000000E+06    0.1276822759E-02    0.1698768242E-02    0.6960271895E+00    0.1337087862E+00    0.3430616648E+00
    0.3900000000E+06    0.1209567957E-02    0.1612945151E-02    0.6960274816E+00    0.1314824299E+00    0.3493234138E+00
    0.4100000000E+06    0.1147925549E-02    0.1534078234E-02    0.6960277453E+00    0.1293271982E+00    0.3553075786E+00
    0.4300000000E+06    0.1091247849E-02    0.1461382268E-02    0.6960279844E+00    0.1272404766E+00    0.3610355354E+00
    0.4500000000E+06    0.1038982389E-02    0.1394185436E-02    0.6960282024E+00    0.1252195898E+00    0.3665261951E+00
    0.4700000000E+06    0.9906550411E-03    0.1331909524E-02    0.6960284018E+00    0.1232618655E+00    0.3717963854E+00
    0.4900000000E+06    0.9458566055E-03    0.1274054133E-02    0.6960285849E+00    0.1213646764E+00    0.3768611587E+00
    0.1000000000E+06    0.3612808979E-02    0.4573628247E-02    0.6960118466E+00    0.1685683814E+00    0.2073604063E+00
    0.3000000000E+06    0.1568847824E-02    0.2068918216E-02    0.6960258608E+00    0.1420933038E+00    0.3185742720E+00
    0.5000000000E+06    0.9246679218E-03    0.1246645864E-02    0.6960286710E+00    0.1204379807E+00    0.3793207954E+00
    0.7000000000E+06    0.6206024044E-03    0.8498140306E-03    0.6960298765E+00    0.1045141820E+00    0.4204005981E+00
    0.9000000000E+06    0.4487891612E-03    0.6220288460E-03    0.6960305463E+00    0.9236119422E-01    0.4506337878E+00
    0.1100000000E+07    0.3409790362E-03    0.4773300472E-03    0.6960309723E+00    0.8277159965E-01    0.4740129513E+00
    0.1300000000E+07    0.2684366932E-03    0.3789760997E-03    0.6960312670E+00    0.7500292980E-01    0.4927117554E+00
    0.1500000000E+07    0.2171021027E-03    0.3087735918E-03    0.6960314828E+00    0.6857617111E-01    0.5080448514E+00
    0.1700000000E+07    0.1793554767E-03    0.2567641216E-03    0.6960316476E+00    0.6316818290E-01    0.5208646974E+00
    0.1900000000E+07    0.1507468990E-03    0.2170821791E-03    0.6960317774E+00    0.5855270571E-01    0.5317525790E+00
    0.2100000000E+07    0.1285242090E-03    0.1860728461E-03    0.6960318823E+00    0.5456635105E-01    0.5411204264E+00
    0.2300000000E+07    0.1109058187E-03    0.1613543212E-03    0.6960319687E+00    0.5108804441E-01    0.5492692415E+00
    0.2500000000E+07    0.9669465003E-04    0.1413165894E-03    0.6960320411E+00    0.4802608000E-01    0.5564245650E+00
    0.2700000000E+07    0.8506097774E-04    0.1248375884E-03    0.6960321026E+00    0.4530967768E-01    0.5627589925E+00
    0.2900000000E+07    0.7541433595E-04    0.1111147955E-03    0.6960321555E+00    0.4288330813E-01    0.5684069980E+00
    0.3100000000E+07    0.6732488866E-04    0.9956129004E-04    0.6960322013E+00    0.4070277775E-01    0.5734749957E+00
    0.3300000000E+07    0.6047349668E-04    0.8973942083E-04    0.6960322415E+00    0.3873246564E-01    0.5780483490E+00
    0.3500000000E+07    0.5461906469E-04    0.8131722858E-04    0.6960322770E+00    0.3694333406E-01    0.5821963641E+00
    0.3700000000E+07    0.4957663461E-04    0.7403908513E-04    0.6960323085E+00    0.3531147028E-01    0.5859759170E+00
    0.3900000000E+07    0.4520235333E-04    0.6770546504E-04    0.6960323366E+00    0.3381700068E-01    0.5894341346E+00
    0.4100000000E+07    0.4138294852E-04    0.6215873024E-04    0.6960323620E+00    0.3244327049E-01    0.5926104071E+00
    0.4300000000E+07    0.3802822716E-04    0.5727296147E-04    0.6960323848E+00    0.3117621607E-01    0.5955379189E+00
    0.4500000000E+07    0.3506564140E-04    0.5294656737E-04    0.6960324056E+00    0.3000387899E-01    0.5982448294E+00
    0.4700000000E+07    0.3243629390E-04    0.4909683405E-04    0.6960324244E+00    0.2891602561E-01    0.6007551920E+00
    0.4900000000E+07    0.3009196195E-04    0.4565585230E-04    0.6960324417E+00    0.2790384654E-01    0.6030896785E+00
    0.1000000000E+07    0.3891819147E-03    0.5422219738E-03    0.6960307807E+00    0.8730030771E-01    0.4630171346E+00
    0.3000000000E+07    0.7119705626E-04    0.1050971374E-03    0.6960321792E+00    0.4176471388E-01    0.5710077357E+00
    0.5000000000E+07    0.2901396215E-04    0.4407069599E-04    0.6960324498E+00    0.2742371135E-01    0.6041966475E+00
    0.7000000000E+07    0.1564928878E-04    0.2423065300E-04    0.6960325601E+00    0.2039075341E-01    0.6203827319E+00
    0.9000000000E+07    0.9766744408E-05    0.1534209194E-04    0.6960326175E+00    0.1621630812E-01    0.6299669442E+00
    0.1100000000E+08    0.6668733788E-05    0.1059718683E-04    0.6960326513E+00    0.1345345996E-01    0.6363019576E+00
    0.1300000000E+08    0.4839997189E-05    0.7765367760E-05    0.6960326725E+00    0.1149057434E-01    0.6407991409E+00
    0.1500000000E+08    0.3671455351E-05    0.5939059495E-05    0.6960326863E+00    0.1002462242E-01    0.6441560574E+00
    0.1700000000E+08    0.2879879010E-05    0.4691990998E-05    0.6960326954E+00    0.8888382236E-02    0.6467570419E+00
    0.1900000000E+08    0.2319071063E-05    0.3802251654E-05    0.6960327014E+00    0.7982044578E-02    0.6488312397E+00
    0.2100000000E+08    0.1907381846E-05    0.3144985166E-05    0.6960327053E+00    0.7242363958E-02    0.6505237356E+00
    0.2300000000E+08    0.1596308168E-05    0.2645533137E-05    0.6960327076E+00    0.6627326439E-02    0.6519308508E+00
    0.2500000000E+08    0.1355568550E-05    0.2257008972E-05    0.6960327088E+00    0.6107933868E-02    0.6531190353E+00
    0.2700000000E+08    0.1165467534E-05    0.1948753125E-05    0.6960327091E+00    0.5663528136E-02    0.6541356099E+00
