  Pressure (Pa) 22mC5-500 (mol/kg) 23mC5-500 (mol/kg) 24mC5-500 (mol/kg) 2mC6-500 (mol/kg) 3mC6-500 (mol/kg)
    0.1000000000E+01    0.3561691045E-05    0.1033692198E-04    0.6965385774E-01    0.1750751176E-04    0.2084295912E-04
    0.3000000000E+01    0.9258281412E-05    0.2688703775E-04    0.1741043555E+00    0.4641740558E-04    0.6252046757E-04
    0.5000000000E+01    0.1378425585E-04    0.4006111129E-04    0.2486906337E+00    0.7053982651E-04    0.1041868241E-03
    0.7000000000E+01    0.1761890273E-04    0.5124718296E-04    0.3046195128E+00    0.9200699877E-04    0.1458420734E-03
    0.9000000000E+01    0.2101866148E-04    0.6118653403E-04    0.3481138239E+00    0.1119152042E-03    0.1874862432E-03
    0.1100000000E+02    0.2413156465E-04    0.7030622958E-04    0.3829058583E+00    0.1308701641E-03    0.2291193528E-03
    0.1300000000E+02    0.2704815948E-04    0.7886694598E-04    0.4113700274E+00    0.1492252029E-03    0.2707414166E-03
    0.1500000000E+02    0.2982641603E-04    0.8703520603E-04    0.4350889160E+00    0.1671952538E-03    0.3123524461E-03
    0.1700000000E+02    0.3250484090E-04    0.9492136722E-04    0.4551579631E+00    0.1849154528E-03    0.3539524510E-03
    0.1900000000E+02    0.3510980008E-04    0.1026008105E-03    0.4723595117E+00    0.2024730129E-03    0.3955414399E-03
    0.2100000000E+02    0.3765981083E-04    0.1101263429E-03    0.4872672115E+00    0.2199253873E-03    0.4371194204E-03
    0.2300000000E+02    0.4016816055E-04    0.1175357569E-03    0.5003112579E+00    0.2373110266E-03    0.4786863996E-03
    0.2500000000E+02    0.4264456067E-04    0.1248565966E-03    0.5118205965E+00    0.2546559616E-03    0.5202423844E-03
    0.2700000000E+02    0.4509622225E-04    0.1321092545E-03    0.5220510567E+00    0.2719779447E-03    0.5617873810E-03
    0.2900000000E+02    0.4752857374E-04    0.1393090341E-03    0.5312045970E+00    0.2892891191E-03    0.6033213957E-03
    0.3100000000E+02    0.4994575066E-04    0.1464675556E-03    0.5394427766E+00    0.3065977748E-03    0.6448444345E-03
    0.3300000000E+02    0.5235093654E-04    0.1535937327E-03    0.5468963757E+00    0.3239095254E-03    0.6863565032E-03
    0.3500000000E+02    0.5474660438E-04    0.1606944638E-03    0.5536723927E+00    0.3412281080E-03    0.7278576076E-03
    0.3700000000E+02    0.5713469052E-04    0.1677751281E-03    0.5598592150E+00    0.3585559366E-03    0.7693477533E-03
    0.3900000000E+02    0.5951672147E-04    0.1748399481E-03    0.5655304965E+00    0.3758944872E-03    0.8108269460E-03
    0.4100000000E+02    0.6189390775E-04    0.1818922562E-03    0.5707481055E+00    0.3932445701E-03    0.8522951912E-03
    0.4300000000E+02    0.6426721413E-04    0.1889346945E-03    0.5755643909E+00    0.4106065239E-03    0.8937524943E-03
    0.4500000000E+02    0.6663741266E-04    0.1959693653E-03    0.5800239455E+00    0.4279803539E-03    0.9351988608E-03
    0.4700000000E+02    0.6900512322E-04    0.2029979457E-03    0.5841649912E+00    0.4453658327E-03    0.9766342960E-03
    0.4900000000E+02    0.7137084475E-04    0.2100217762E-03    0.5880204776E+00    0.4627625726E-03    0.1018058806E-02
    0.1000000000E+02    0.2260433472E-04    0.6582972364E-04    0.3664257798E+00    0.1214855525E-03    0.2083041796E-03
    0.3000000000E+02    0.4873884096E-04    0.1428928408E-03    0.5354293043E+00    0.2979433591E-03    0.6240842867E-03
    0.5000000000E+02    0.7255308855E-04    0.2135322542E-03    0.5898502110E+00    0.4714650137E-03    0.1038766965E-02
    0.7000000000E+02    0.9615753717E-04    0.2836599603E-03    0.6167182842E+00    0.6459629045E-03    0.1452357842E-02
    0.9000000000E+02    0.1197408388E-03    0.3537652811E-03    0.6327319953E+00    0.8209344855E-03    0.1864862179E-02
    0.1100000000E+03    0.1433105703E-03    0.4238485309E-03    0.6433638430E+00    0.9959738753E-03    0.2276285137E-02
    0.1300000000E+03    0.1668507688E-03    0.4938537269E-03    0.6509367516E+00    0.1170839620E-02    0.2686631822E-02
    0.1500000000E+03    0.1903453007E-03    0.5637292186E-03    0.6566049266E+00    0.1345387148E-02    0.3095907299E-02
    0.1700000000E+03    0.2137812871E-03    0.6334350136E-03    0.6610067560E+00    0.1519526620E-02    0.3504116593E-02
    0.1900000000E+03    0.2371489611E-03    0.7029412672E-03    0.6645240068E+00    0.1693200131E-02    0.3911264696E-02
    0.2100000000E+03    0.2604409904E-03    0.7722258014E-03    0.6673989980E+00    0.1866369218E-02    0.4317356566E-02
    0.2300000000E+03    0.2836518576E-03    0.8412720513E-03    0.6697929443E+00    0.2039007736E-02    0.4722397129E-02
    0.2500000000E+03    0.3067773888E-03    0.9100675557E-03    0.6718172689E+00    0.2211097628E-02    0.5126391276E-02
    0.2700000000E+03    0.3298144096E-03    0.9786028812E-03    0.6735514485E+00    0.2382626317E-02    0.5529343870E-02
    0.2900000000E+03    0.3527604971E-03    0.1046870856E-02    0.6750536973E+00    0.2553585036E-02    0.5931259740E-02
    0.3100000000E+03    0.3756138006E-03    0.1114866022E-02    0.6763676317E+00    0.2723967739E-02    0.6332143685E-02
    0.3300000000E+03    0.3983729099E-03    0.1182584232E-02    0.6775265764E+00    0.2893770350E-02    0.6732000472E-02
    0.3500000000E+03    0.4210367583E-03    0.1250022362E-02    0.6785564306E+00    0.3062990261E-02    0.7130834841E-02
    0.3700000000E+03    0.4436045497E-03    0.1317178087E-02    0.6794776274E+00    0.3231625961E-02    0.7528651498E-02
    0.3900000000E+03    0.4660757036E-03    0.1384049719E-02    0.6803065033E+00    0.3399676780E-02    0.7925455122E-02
    0.4100000000E+03    0.4884498125E-03    0.1450636080E-02    0.6810562762E+00    0.3567142695E-02    0.8321250360E-02
    0.4300000000E+03    0.5107266092E-03    0.1516936404E-02    0.6817377556E+00    0.3734024189E-02    0.8716041832E-02
    0.4500000000E+03    0.5329059411E-03    0.1582950260E-02    0.6823598669E+00    0.3900322144E-02    0.9109834127E-02
    0.4700000000E+03    0.5549877499E-03    0.1648677494E-02    0.6829300455E+00    0.4066037758E-02    0.9502631806E-02
    0.4900000000E+03    0.5769720550E-03    0.1714118179E-02    0.6834545344E+00    0.4231172483E-02    0.9894439402E-02
    0.1000000000E+03    0.1315282980E-03    0.3888130340E-03    0.6385355127E+00    0.9084637458E-03    0.2070708510E-02
    0.3000000000E+03    0.3641988440E-03    0.1080902826E-02    0.6757319188E+00    0.2638848684E-02    0.6131830404E-02
    0.5000000000E+03    0.5879276678E-03    0.1746731141E-02    0.6837013280E+00    0.4313522523E-02    0.1008997333E-01
    0.7000000000E+03    0.8019669813E-03    0.2384084403E-02    0.6871756850E+00    0.5930505510E-02    0.1394975927E-01
    0.9000000000E+03    0.1006571141E-02    0.2993717145E-02    0.6891216504E+00    0.7491903858E-02    0.1771552907E-01
    0.1100000000E+04    0.1202144372E-02    0.3576816604E-02    0.6903659941E+00    0.9000170481E-02    0.2139136389E-01
    0.1300000000E+04    0.1389114462E-02    0.4134635899E-02    0.6912302544E+00    0.1045772667E-01    0.2498110453E-01
    0.1500000000E+04    0.1567901349E-02    0.4668403783E-02    0.6918655257E+00    0.1186688774E-01    0.2848836897E-01
    0.1700000000E+04    0.1738907524E-02    0.5179297331E-02    0.6923521832E+00    0.1322984728E-01    0.3191656839E-01
    0.1900000000E+04    0.1902515129E-02    0.5668433833E-02    0.6927369244E+00    0.1454867724E-01    0.3526892184E-01
    0.2100000000E+04    0.2059085496E-02    0.6136869642E-02    0.6930487361E+00    0.1582533280E-01    0.3854846963E-01
    0.2300000000E+04    0.2208959664E-02    0.6585601768E-02    0.6933065638E+00    0.1706165884E-01    0.4175808571E-01
    0.2500000000E+04    0.2352459283E-02    0.7015570590E-02    0.6935233131E+00    0.1825939679E-01    0.4490048891E-01
    0.2700000000E+04    0.2489887673E-02    0.7427662979E-02    0.6937080794E+00    0.1942019118E-01    0.4797825340E-01
    0.2900000000E+04    0.2621530917E-02    0.7822715497E-02    0.6938674571E+00    0.2054559608E-01    0.5099381822E-01
    0.3100000000E+04    0.2747658932E-02    0.8201517542E-02    0.6940063442E+00    0.2163708092E-01    0.5394949613E-01
    0.3300000000E+04    0.2868526499E-02    0.8564814350E-02    0.6941284549E+00    0.2269603613E-01    0.5684748170E-01
    0.3500000000E+04    0.2984374228E-02    0.8913309829E-02    0.6942366565E+00    0.2372377820E-01    0.5968985891E-01
    0.3700000000E+04    0.3095429478E-02    0.9247669221E-02    0.6943331984E+00    0.2472155448E-01    0.6247860801E-01
    0.3900000000E+04    0.3201907200E-02    0.9568521579E-02    0.6944198694E+00    0.2569054760E-01    0.6521561200E-01
    0.4100000000E+04    0.3304010735E-02    0.9876462086E-02    0.6944981103E+00    0.2663187954E-01    0.6790266259E-01
    0.4300000000E+04    0.3401932547E-02    0.1017205420E-01    0.6945690945E+00    0.2754661545E-01    0.7054146568E-01
    0.4500000000E+04    0.3495854912E-02    0.1045583164E-01    0.6946337872E+00    0.2843576714E-01    0.7313364654E-01
    0.4700000000E+04    0.3585950555E-02    0.1072830027E-01    0.6946929895E+00    0.2930029636E-01    0.7568075455E-01
    0.4900000000E+04    0.3672383236E-02    0.1098993980E-01    0.6947473724E+00    0.3014111783E-01    0.7818426762E-01
    0.1000000000E+04    0.1105459897E-02    0.3288505202E-02    0.6898054547E+00    0.8252525209E-02    0.1956444288E-01
    0.3000000000E+04    0.2685268061E-02    0.8014100251E-02    0.6939392067E+00    0.2109548981E-01    0.5247900320E-01
    0.5000000000E+04    0.3714274828E-02    0.1111684181E-01    0.6947729369E+00    0.3055291185E-01    0.7942011937E-01
    0.7000000000E+04    0.4393580674E-02    0.1318537168E-01    0.6951311626E+00    0.3773479505E-01    0.1021593636E+00
    0.9000000000E+04    0.4841914735E-02    0.1456792601E-01    0.6953304727E+00    0.4331729035E-01    0.1218078150E+00
    0.1100000000E+05    0.5132903906E-02    0.1548097261E-01    0.6954574415E+00    0.4773481213E-01    0.1390999934E+00
    0.1300000000E+05    0.5314103189E-02    0.1606469941E-01    0.6955454170E+00    0.5127883700E-01    0.1545426047E+00
    0.1500000000E+05    0.5417266911E-02    0.1641298915E-01    0.6956099781E+00    0.5415205662E-01    0.1684977158E+00
    0.1700000000E+05    0.5464189328E-02    0.1659048230E-01    0.6956593789E+00    0.5649971009E-01    0.1812318096E+00
    0.1900000000E+05    0.5470175381E-02    0.1664272886E-01    0.6956984010E+00    0.5842855228E-01    0.1929460304E+00
    0.2100000000E+05    0.5446181712E-02    0.1660245916E-01    0.6957300062E+00    0.6001878658E-01    0.2037955479E+00
    0.2300000000E+05    0.5400180315E-02    0.1649358369E-01    0.6957561270E+00    0.6133182333E-01    0.2139023602E+00
    0.2500000000E+05    0.5338051470E-02    0.1633381630E-01    0.6957780779E+00    0.6241547080E-01    0.2233640002E+00
    0.2700000000E+05    0.5264182728E-02    0.1613643691E-01    0.6957967845E+00    0.6330749670E-01    0.2322596048E+00
    0.2900000000E+05    0.5181879343E-02    0.1591150149E-01    0.6958129170E+00    0.6403812654E-01    0.2406542368E+00
    0.3100000000E+05    0.5093650850E-02    0.1566668850E-01    0.6958269730E+00    0.6463183134E-01    0.2486020245E+00
    0.3300000000E+05    0.5001414520E-02    0.1540790112E-01    0.6958393296E+00    0.6510862964E-01    0.2561484816E+00
    0.3500000000E+05    0.4906641999E-02    0.1513970217E-01    0.6958502777E+00    0.6548505100E-01    0.2633322490E+00
    0.3700000000E+05    0.4810466413E-02    0.1486563252E-01    0.6958600454E+00    0.6577485962E-01    0.2701864213E+00
    0.3900000000E+05    0.4713761551E-02    0.1458844706E-01    0.6958688139E+00    0.6598960473E-01    0.2767395694E+00
    0.4100000000E+05    0.4617201056E-02    0.1431029156E-01    0.6958767294E+00    0.6613904452E-01    0.2830165399E+00
    0.4300000000E+05    0.4521303100E-02    0.1403283648E-01    0.6958839106E+00    0.6623147624E-01    0.2890390854E+00
    0.4500000000E+05    0.4426464412E-02    0.1375737918E-01    0.6958904553E+00    0.6627399578E-01    0.2948263667E+00
    0.4700000000E+05    0.4332986414E-02    0.1348492268E-01    0.6958964447E+00    0.6627270381E-01    0.3003953582E+00
    0.4900000000E+05    0.4241095430E-02    0.1321623676E-01    0.6959019466E+00    0.6623287095E-01    0.3057611753E+00
    0.1000000000E+05    0.5003643332E-02    0.1507302334E-01    0.6954002911E+00    0.4565088771E-01    0.1307126236E+00
    0.3000000000E+05    0.5138373971E-02    0.1579117490E-01    0.6958201787E+00    0.6435075172E-01    0.2446809625E+00
    0.5000000000E+05    0.4195799209E-02    0.1308349649E-01    0.6959045330E+00    0.6619995512E-01    0.3083721761E+00
    0.7000000000E+05    0.3393718246E-02    0.1070500192E-01    0.6959407836E+00    0.6436046454E-01    0.3525751027E+00
    0.9000000000E+05    0.2780013444E-02    0.8853378827E-02    0.6959609663E+00    0.6147754560E-01    0.3860023499E+00
    0.1100000000E+06    0.2312342036E-02    0.7424517376E-02    0.6959738334E+00    0.5836462541E-01    0.4125069393E+00
    0.1300000000E+06    0.1951052937E-02    0.6309509358E-02    0.6959827559E+00    0.5531511363E-01    0.4341830955E+00
    0.1500000000E+06    0.1667245306E-02    0.5426167743E-02    0.6959893085E+00    0.5243741862E-01    0.4523103890E+00
    0.1700000000E+06    0.1440661931E-02    0.4715732702E-02    0.6959943261E+00    0.4976587219E-01    0.4677315618E+00
    0.1900000000E+06    0.1257067380E-02    0.4136331424E-02    0.6959982922E+00    0.4730349134E-01    0.4810315076E+00
    0.2100000000E+06    0.1106317442E-02    0.3657798997E-02    0.6960015066E+00    0.4504009693E-01    0.4926322667E+00
    0.2300000000E+06    0.9810603920E-03    0.3258077293E-02    0.6960041648E+00    0.4296044043E-01    0.5028477196E+00
    0.2500000000E+06    0.8758770937E-03    0.2920781514E-02    0.6960063999E+00    0.4104794697E-01    0.5119170570E+00
    0.2700000000E+06    0.7867081337E-03    0.2633555229E-02    0.6960083058E+00    0.3928642782E-01    0.5200262563E+00
    0.2900000000E+06    0.7104669320E-03    0.2386946727E-02    0.6960099502E+00    0.3766081973E-01    0.5273223965E+00
    0.3100000000E+06    0.6447742223E-03    0.2173630674E-02    0.6960113837E+00    0.3615744997E-01    0.5339235025E+00
    0.3300000000E+06    0.5877728183E-03    0.1987860784E-02    0.6960126445E+00    0.3476407189E-01    0.5399254929E+00
    0.3500000000E+06    0.5379963203E-03    0.1825079200E-02    0.6960137621E+00    0.3346979332E-01    0.5454071966E+00
    0.3700000000E+06    0.4942746463E-03    0.1681633707E-02    0.6960147596E+00    0.3226496004E-01    0.5504340436E+00
    0.3900000000E+06    0.4556650962E-03    0.1554570229E-02    0.6960156554E+00    0.3114102578E-01    0.5550608271E+00
    0.4100000000E+06    0.4214013858E-03    0.1441478650E-02    0.6960164644E+00    0.3009042414E-01    0.5593338028E+00
    0.4300000000E+06    0.3908555036E-03    0.1340376893E-02    0.6960171986E+00    0.2910644962E-01    0.5632923038E+00
    0.4500000000E+06    0.3635088410E-03    0.1249622802E-02    0.6960178680E+00    0.2818315044E-01    0.5669700002E+00
    0.4700000000E+06    0.3389301099E-03    0.1167846482E-02    0.6960184808E+00    0.2731523377E-01    0.5703958900E+00
    0.4900000000E+06    0.3167582863E-03    0.1093897832E-02    0.6960190439E+00    0.2649798287E-01    0.5735950880E+00
    0.1000000000E+06    0.2530658584E-02    0.8093495732E-02    0.6959680405E+00    0.5992501631E-01    0.3999632598E+00
    0.3000000000E+06    0.6764285735E-03    0.2276518094E-02    0.6960106907E+00    0.3689465338E-01    0.5307033822E+00
    0.5000000000E+06    0.3064780241E-03    0.1059549292E-02    0.6960193086E+00    0.2610702265E-01    0.5751166226E+00
    0.7000000000E+06    0.1739068213E-03    0.6123829998E-03    0.6960230242E+00    0.2013297129E-01    0.5977097194E+00
    0.9000000000E+06    0.1118242150E-03    0.3993088089E-03    0.6960250969E+00    0.1636198022E-01    0.6114078740E+00
    0.1100000000E+07    0.7787223378E-04    0.2812159520E-03    0.6960264197E+00    0.1377069561E-01    0.6206012251E+00
    0.1300000000E+07    0.5731358777E-04    0.2089273290E-03    0.6960273374E+00    0.1188238754E-01    0.6271976509E+00
    0.1500000000E+07    0.4393299205E-04    0.1614453170E-03    0.6960280113E+00    0.1044604655E-01    0.6321607564E+00
    0.1700000000E+07    0.3474184048E-04    0.1285704789E-03    0.6960285270E+00    0.9317207052E-02    0.6360299013E+00
    0.1900000000E+07    0.2815874552E-04    0.1048592712E-03    0.6960289342E+00    0.8406932597E-02    0.6391305571E+00
    0.2100000000E+07    0.2328344174E-04    0.8718946424E-04    0.6960292638E+00    0.7657511372E-02    0.6416707699E+00
    0.2300000000E+07    0.1957291236E-04    0.7366528240E-04    0.6960295359E+00    0.7029875146E-02    0.6437897322E+00
    0.2500000000E+07    0.1668389202E-04    0.6308116539E-04    0.6960297643E+00    0.6496641673E-02    0.6455840870E+00
    0.2700000000E+07    0.1439078943E-04    0.5464053662E-04    0.6960299586E+00    0.6038053788E-02    0.6471230291E+00
    0.2900000000E+07    0.1254041503E-04    0.4779979219E-04    0.6960301258E+00    0.5639500529E-02    0.6484574016E+00
    0.3100000000E+07    0.1102579488E-04    0.4217759217E-04    0.6960302712E+00    0.5289945552E-02    0.6496254003E+00
    0.3300000000E+07    0.9770400812E-05    0.3749997247E-04    0.6960303987E+00    0.4980897930E-02    0.6506562745E+00
    0.3500000000E+07    0.8718317897E-05    0.3356597080E-04    0.6960305113E+00    0.4705718945E-02    0.6515728011E+00
    0.3700000000E+07    0.7827925785E-05    0.3022544635E-04    0.6960306115E+00    0.4459143578E-02    0.6523929803E+00
    0.3900000000E+07    0.7067728985E-05    0.2736438665E-04    0.6960307012E+00    0.4236942968E-02    0.6531312250E+00
    0.4100000000E+07    0.6413539814E-05    0.2489494517E-04    0.6960307818E+00    0.4035681674E-02    0.6537992117E+00
    0.4300000000E+07    0.5846534887E-05    0.2274854491E-04    0.6960308547E+00    0.3852540080E-02    0.6544065003E+00
    0.4500000000E+07    0.5351888801E-05    0.2087101452E-04    0.6960309209E+00    0.3685182439E-02    0.6549609929E+00
    0.4700000000E+07    0.4917797149E-05    0.1921909982E-04    0.6960309813E+00    0.3531657426E-02    0.6554692777E+00
    0.4900000000E+07    0.4534767066E-05    0.1775792330E-04    0.6960310365E+00    0.3390322238E-02    0.6559368914E+00
    0.1000000000E+07    0.9256092810E-04    0.3324772396E-03    0.6960258241E+00    0.1495617073E-01    0.6164163544E+00
    0.3000000000E+07    0.1174649545E-04    0.4485553593E-04    0.6960302009E+00    0.5459179194E-02    0.6490601936E+00
    0.5000000000E+07    0.4359934177E-05    0.1708978109E-04    0.6960310624E+00    0.3323782111E-02    0.6561569398E+00
    0.7000000000E+07    0.2265657667E-05    0.9013019314E-05    0.6960314165E+00    0.2384890940E-02    0.6592552571E+00
    0.9000000000E+07    0.1392245657E-05    0.5587549769E-05    0.6960316017E+00    0.1857742924E-02    0.6609899982E+00
    0.1100000000E+08    0.9463892297E-06    0.3817311949E-05    0.6960317107E+00    0.1520482890E-02    0.6620983943E+00
    0.1300000000E+08    0.6883119679E-06    0.2782880945E-05    0.6960317792E+00    0.1286297030E-02    0.6628675325E+00
    0.1500000000E+08    0.5255042163E-06    0.2125378791E-05    0.6960318236E+00    0.1114262771E-02    0.6634323661E+00
    0.1700000000E+08    0.4161461724E-06    0.1681037194E-05    0.6960318528E+00    0.9825745019E-03    0.6638646796E+00
    0.1900000000E+08    0.3390907457E-06    0.1366387727E-05    0.6960318718E+00    0.8785518842E-03    0.6642061685E+00
    0.2100000000E+08    0.2827095282E-06    0.1135221595E-05    0.6960318836E+00    0.7943203912E-03    0.6644827050E+00
    0.2300000000E+08    0.2401774201E-06    0.9602574346E-06    0.6960318903E+00    0.7247325909E-03    0.6647111918E+00
    0.2500000000E+08    0.2072736496E-06    0.8245363623E-06    0.6960318933E+00    0.6662821933E-03    0.6649031380E+00
    0.2700000000E+08    0.1812737168E-06    0.7170609748E-06    0.6960318934E+00    0.6164985931E-03    0.6650666505E+00
