  Pressure (Pa) 22mC5-500 (mol/kg) 23mC5-500 (mol/kg) 24mC5-500 (mol/kg) 2mC6-500 (mol/kg) 3mC6-500 (mol/kg)
    0.1000000000E+01    0.2908205879E-05    0.4224422658E-05    0.2142840837E+00    0.1964088212E-04    0.1042159857E-04
    0.3000000000E+01    0.6407206294E-05    0.9337360458E-05    0.3978622418E+00    0.4673644743E-04    0.3126142647E-04
    0.5000000000E+01    0.9109988899E-05    0.1331553756E-04    0.4801298928E+00    0.7049493156E-04    0.5209686675E-04
    0.7000000000E+01    0.1160229700E-04    0.1699903972E-04    0.5268159896E+00    0.9372245636E-04    0.7292795440E-04
    0.9000000000E+01    0.1402414592E-04    0.2058644403E-04    0.5569004340E+00    0.1169224192E-03    0.9375470193E-04
    0.1100000000E+02    0.1642079634E-04    0.2414107312E-04    0.5779019051E+00    0.1401991284E-03    0.1145771158E-03
    0.1300000000E+02    0.1880937408E-04    0.2768646159E-04    0.5933943916E+00    0.1635657856E-03    0.1353952000E-03
    0.1500000000E+02    0.2119690351E-04    0.3123201407E-04    0.6052942185E+00    0.1870134041E-03    0.1562089579E-03
    0.1700000000E+02    0.2358632129E-04    0.3478149368E-04    0.6147212505E+00    0.2105288526E-03    0.1770183919E-03
    0.1900000000E+02    0.2597877853E-04    0.3833624212E-04    0.6223737271E+00    0.2340997544E-03    0.1978235043E-03
    0.2100000000E+02    0.2837461139E-04    0.4189652262E-04    0.6287096191E+00    0.2577156171E-03    0.2186242973E-03
    0.2300000000E+02    0.3077377936E-04    0.4546211846E-04    0.6340417901E+00    0.2813678550E-03    0.2394207727E-03
    0.2500000000E+02    0.3317607280E-04    0.4903261162E-04    0.6385912498E+00    0.3050495191E-03    0.2602129325E-03
    0.2700000000E+02    0.3558121425E-04    0.5260751575E-04    0.6425185588E+00    0.3287549896E-03    0.2810007785E-03
    0.2900000000E+02    0.3798890833E-04    0.5618633948E-04    0.6459431724E+00    0.3524797040E-03    0.3017843125E-03
    0.3100000000E+02    0.4039886601E-04    0.5976861572E-04    0.6489558042E+00    0.3762199363E-03    0.3225635363E-03
    0.3300000000E+02    0.4281081584E-04    0.6335391376E-04    0.6516265797E+00    0.3999726227E-03    0.3433384515E-03
    0.3500000000E+02    0.4522450833E-04    0.6694184289E-04    0.6540105636E+00    0.4237352261E-03    0.3641090600E-03
    0.3700000000E+02    0.4763971699E-04    0.7053205179E-04    0.6561515971E+00    0.4475056307E-03    0.3848753633E-03
    0.3900000000E+02    0.5005623752E-04    0.7412422602E-04    0.6580850186E+00    0.4712820598E-03    0.4056373632E-03
    0.4100000000E+02    0.5247388629E-04    0.7771808467E-04    0.6598396297E+00    0.4950630119E-03    0.4263950615E-03
    0.4300000000E+02    0.5489249846E-04    0.8131337685E-04    0.6614391403E+00    0.5188472101E-03    0.4471484596E-03
    0.4500000000E+02    0.5731192610E-04    0.8490987840E-04    0.6629032457E+00    0.5426335624E-03    0.4678975594E-03
    0.4700000000E+02    0.5973203632E-04    0.8850738872E-04    0.6642484418E+00    0.5664211293E-03    0.4886423625E-03
    0.4900000000E+02    0.6215270964E-04    0.9210572802E-04    0.6654886496E+00    0.5902090988E-03    0.5093828705E-03
    0.1000000000E+02    0.1522419731E-04    0.2236588837E-04    0.5682584553E+00    0.1285494468E-03    0.1041664503E-03
    0.3000000000E+02    0.3919362167E-04    0.5797707388E-04    0.6474961954E+00    0.3643480856E-03    0.3121744631E-03
    0.5000000000E+02    0.6336322339E-04    0.9390515742E-04    0.6660731505E+00    0.6021030104E-03    0.5197515143E-03
    0.7000000000E+02    0.8758193005E-04    0.1299057144E-03    0.6743654656E+00    0.8398719209E-03    0.7268993027E-03
    0.9000000000E+02    0.1117814729E-03    0.1658769690E-03    0.6790623029E+00    0.1077241748E-02    0.9336194636E-03
    0.1100000000E+03    0.1359332488E-03    0.2017769782E-03    0.6820854975E+00    0.1314076683E-02    0.1139913614E-02
    0.1300000000E+03    0.1600232368E-03    0.2375853744E-03    0.6841943449E+00    0.1550320095E-02    0.1345783358E-02
    0.1500000000E+03    0.1840437758E-03    0.2732911048E-03    0.6857491713E+00    0.1785944995E-02    0.1551230292E-02
    0.1700000000E+03    0.2079903615E-03    0.3088877084E-03    0.6869429546E+00    0.2020937556E-02    0.1756256000E-02
    0.1900000000E+03    0.2318602142E-03    0.3443712194E-03    0.6878883712E+00    0.2255290531E-02    0.1960862061E-02
    0.2100000000E+03    0.2556515661E-03    0.3797391309E-03    0.6886556285E+00    0.2489000263E-02    0.2165050043E-02
    0.2300000000E+03    0.2793632791E-03    0.4149898391E-03    0.6892907513E+00    0.2722065191E-02    0.2368821507E-02
    0.2500000000E+03    0.3029946241E-03    0.4501223262E-03    0.6898251678E+00    0.2954485034E-02    0.2572178006E-02
    0.2700000000E+03    0.3265451480E-03    0.4851359687E-03    0.6902810716E+00    0.3186260339E-02    0.2775121082E-02
    0.2900000000E+03    0.3500145904E-03    0.5200304166E-03    0.6906745810E+00    0.3417392198E-02    0.2977652274E-02
    0.3100000000E+03    0.3734028279E-03    0.5548055154E-03    0.6910176848E+00    0.3647882074E-02    0.3179773109E-02
    0.3300000000E+03    0.3967098377E-03    0.5894612526E-03    0.6913194852E+00    0.3877731690E-02    0.3381485108E-02
    0.3500000000E+03    0.4199356713E-03    0.6239977214E-03    0.6915870174E+00    0.4106942955E-02    0.3582789783E-02
    0.3700000000E+03    0.4430804371E-03    0.6584150947E-03    0.6918258045E+00    0.4335517907E-02    0.3783688640E-02
    0.3900000000E+03    0.4661442863E-03    0.6927136063E-03    0.6920402433E+00    0.4563458682E-02    0.3984183177E-02
    0.4100000000E+03    0.4891274038E-03    0.7268935372E-03    0.6922338773E+00    0.4790767486E-02    0.4184274882E-02
    0.4300000000E+03    0.5120300009E-03    0.7609552052E-03    0.6924095943E+00    0.5017446577E-02    0.4383965238E-02
    0.4500000000E+03    0.5348523096E-03    0.7948989572E-03    0.6925697712E+00    0.5243498251E-02    0.4583255720E-02
    0.4700000000E+03    0.5575945781E-03    0.8287251633E-03    0.6927163823E+00    0.5468924829E-02    0.4782147794E-02
    0.4900000000E+03    0.5802570682E-03    0.8624342116E-03    0.6928510810E+00    0.5693728653E-02    0.4980642921E-02
    0.1000000000E+03    0.1238644154E-03    0.1838374568E-03    0.6807217262E+00    0.1195730627E-02    0.1036819689E-02
    0.3000000000E+03    0.3617188632E-03    0.5374328882E-03    0.6908518082E+00    0.3532717281E-02    0.3078763891E-02
    0.5000000000E+03    0.5915584810E-03    0.8792449271E-03    0.6929144079E+00    0.5805897768E-02    0.5079742084E-02
    0.7000000000E+03    0.8134687706E-03    0.1209412330E-02    0.6938022362E+00    0.8017164279E-02    0.7041237064E-02
    0.9000000000E+03    0.1027743694E-02    0.1528367807E-02    0.6942964945E+00    0.1016885815E-01    0.8964658429E-02
    0.1100000000E+04    0.1234690594E-02    0.1836561535E-02    0.6946114094E+00    0.1226325636E-01    0.1085134715E-01
    0.1300000000E+04    0.1434608726E-02    0.2134431238E-02    0.6948296074E+00    0.1430253420E-01    0.1270257977E-01
    0.1500000000E+04    0.1627784844E-02    0.2422396141E-02    0.6949897146E+00    0.1628876299E-01    0.1451957223E-01
    0.1700000000E+04    0.1814492351E-02    0.2700855876E-02    0.6951122053E+00    0.1822391388E-01    0.1630348350E-01
    0.1900000000E+04    0.1994991473E-02    0.2970190791E-02    0.6952089433E+00    0.2010986297E-01    0.1805541888E-01
    0.2100000000E+04    0.2169529754E-02    0.3230762710E-02    0.6952872781E+00    0.2194839659E-01    0.1977643313E-01
    0.2300000000E+04    0.2338342679E-02    0.3482915847E-02    0.6953520054E+00    0.2374121636E-01    0.2146753336E-01
    0.2500000000E+04    0.2501654303E-02    0.3726977743E-02    0.6954063878E+00    0.2548994413E-01    0.2312968166E-01
    0.2700000000E+04    0.2659677886E-02    0.3963260183E-02    0.6954527219E+00    0.2719612642E-01    0.2476379771E-01
    0.2900000000E+04    0.2812616492E-02    0.4192060079E-02    0.6954926714E+00    0.2886123879E-01    0.2637076103E-01
    0.3100000000E+04    0.2960663559E-02    0.4413660304E-02    0.6955274711E+00    0.3048668977E-01    0.2795141324E-01
    0.3300000000E+04    0.3104003442E-02    0.4628330480E-02    0.6955580566E+00    0.3207382461E-01    0.2950656007E-01
    0.3500000000E+04    0.3242811917E-02    0.4836327718E-02    0.6955851496E+00    0.3362392877E-01    0.3103697328E-01
    0.3700000000E+04    0.3377256661E-02    0.5037897308E-02    0.6956093163E+00    0.3513823119E-01    0.3254339244E-01
    0.3900000000E+04    0.3507497691E-02    0.5233273373E-02    0.6956310063E+00    0.3661790733E-01    0.3402652666E-01
    0.4100000000E+04    0.3633687791E-02    0.5422679480E-02    0.6956505820E+00    0.3806408207E-01    0.3548705610E-01
    0.4300000000E+04    0.3755972896E-02    0.5606329206E-02    0.6956683382E+00    0.3947783233E-01    0.3692563350E-01
    0.4500000000E+04    0.3874492466E-02    0.5784426677E-02    0.6956845173E+00    0.4086018964E-01    0.3834288554E-01
    0.4700000000E+04    0.3989379827E-02    0.5957167073E-02    0.6956993205E+00    0.4221214244E-01    0.3973941416E-01
    0.4900000000E+04    0.4100762495E-02    0.6124737094E-02    0.6957129162E+00    0.4353463837E-01    0.4111579777E-01
    0.1000000000E+04    0.1132114173E-02    0.1683782129E-02    0.6944696600E+00    0.1122308079E-01    0.9912513124E-02
    0.3000000000E+04    0.2887239739E-02    0.4303742997E-02    0.6955106507E+00    0.2967883643E-01    0.2716432485E-01
    0.5000000000E+04    0.4155177905E-02    0.6206639349E-02    0.6957193065E+00    0.4418512548E-01    0.4179660981E-01
    0.7000000000E+04    0.5086512250E-02    0.7612823351E-02    0.6958087931E+00    0.5585076266E-01    0.5447970547E-01
    0.9000000000E+04    0.5778149524E-02    0.8664308728E-02    0.6958585289E+00    0.6540644681E-01    0.6566586242E-01
    0.1100000000E+05    0.6294840622E-02    0.9456140011E-02    0.6958901888E+00    0.7335286311E-01    0.7567209556E-01
    0.1300000000E+05    0.6681227956E-02    0.1005395988E-01    0.6959121127E+00    0.8004439033E-01    0.8472779228E-01
    0.1500000000E+05    0.6968911210E-02    0.1050431911E-01    0.6959281937E+00    0.8573880357E-01    0.9300343989E-01
    0.1700000000E+05    0.7180764170E-02    0.1084098023E-01    0.6959404932E+00    0.9062804007E-01    0.1006286855E+00
    0.1900000000E+05    0.7333665727E-02    0.1108890867E-01    0.6959502050E+00    0.9485793016E-01    0.1077040921E+00
    0.2100000000E+05    0.7440280361E-02    0.1126687716E-01    0.6959580681E+00    0.9854124364E-01    0.1143090257E+00
    0.2300000000E+05    0.7510249698E-02    0.1138921025E-01    0.6959645647E+00    0.1017665490E+00    0.1205070856E+00
    0.2500000000E+05    0.7551008461E-02    0.1146698022E-01    0.6959700225E+00    0.1046043714E+00    0.1263499315E+00
    0.2700000000E+05    0.7568354693E-02    0.1150884357E-01    0.6959746724E+00    0.1071115637E+00    0.1318800358E+00
    0.2900000000E+05    0.7566855527E-02    0.1152163703E-01    0.6959786814E+00    0.1093344651E+00    0.1371326996E+00
    0.3100000000E+05    0.7550140656E-02    0.1151080907E-01    0.6959821735E+00    0.1113112246E+00    0.1421375526E+00
    0.3300000000E+05    0.7521117712E-02    0.1148073694E-01    0.6959852426E+00    0.1130735335E+00    0.1469196879E+00
    0.3500000000E+05    0.7482132434E-02    0.1143496282E-01    0.6959879613E+00    0.1146479361E+00    0.1515005296E+00
    0.3700000000E+05    0.7435089227E-02    0.1137637169E-01    0.6959903863E+00    0.1160568343E+00    0.1558985062E+00
    0.3900000000E+05    0.7381542901E-02    0.1130732692E-01    0.6959925628E+00    0.1173192649E+00    0.1601295779E+00
    0.4100000000E+05    0.7322769201E-02    0.1122977468E-01    0.6959945272E+00    0.1184515084E+00    0.1642076547E+00
    0.4300000000E+05    0.7259819512E-02    0.1114532497E-01    0.6959963089E+00    0.1194675704E+00    0.1681449306E+00
    0.4500000000E+05    0.7193563678E-02    0.1105531521E-01    0.6959979325E+00    0.1203795651E+00    0.1719521529E+00
    0.4700000000E+05    0.7124723763E-02    0.1096086040E-01    0.6959994180E+00    0.1211980239E+00    0.1756388417E+00
    0.4900000000E+05    0.7053900878E-02    0.1086289307E-01    0.6960007823E+00    0.1219321454E+00    0.1792134691E+00
    0.1000000000E+05    0.6055202017E-02    0.9088035406E-02    0.6958759408E+00    0.6955593698E-01    0.7080048219E-01
    0.3000000000E+05    0.7560203507E-02    0.1151888014E-01    0.6959804856E+00    0.1103514977E+00    0.1396644390E+00
    0.5000000000E+05    0.7017905964E-02    0.1081284173E-01    0.6960014236E+00    0.1222701407E+00    0.1809611578E+00
    0.7000000000E+05    0.6279034605E-02    0.9761550100E-02    0.6960104045E+00    0.1261200659E+00    0.2115092646E+00
    0.9000000000E+05    0.5597528032E-02    0.8767739125E-02    0.6960153972E+00    0.1267343922E+00    0.2361386211E+00
    0.1100000000E+06    0.5009031063E-02    0.7897068333E-02    0.6960185761E+00    0.1258204967E+00    0.2569268418E+00
    0.1300000000E+06    0.4507472719E-02    0.7147164507E-02    0.6960207780E+00    0.1241249175E+00    0.2749748733E+00
    0.1500000000E+06    0.4079483212E-02    0.6501834145E-02    0.6960223933E+00    0.1220188166E+00    0.2909457445E+00
    0.1700000000E+06    0.3712176792E-02    0.5944048535E-02    0.6960236290E+00    0.1197028253E+00    0.3052746880E+00
    0.1900000000E+06    0.3394734914E-02    0.5458993547E-02    0.6960246048E+00    0.1172916502E+00    0.3182655823E+00
    0.2100000000E+06    0.3118429201E-02    0.5034466908E-02    0.6960253950E+00    0.1148533342E+00    0.3301406123E+00
    0.2300000000E+06    0.2876289714E-02    0.4660584258E-02    0.6960260480E+00    0.1124291183E+00    0.3410681317E+00
    0.2500000000E+06    0.2662745914E-02    0.4329359410E-02    0.6960265966E+00    0.1100441797E+00    0.3511793707E+00
    0.2700000000E+06    0.2473321414E-02    0.4034318185E-02    0.6960270641E+00    0.1077137483E+00    0.3605790002E+00
    0.2900000000E+06    0.2304392758E-02    0.3770181108E-02    0.6960274671E+00    0.1054467414E+00    0.3693521069E+00
    0.3100000000E+06    0.2153003629E-02    0.3532613077E-02    0.6960278182E+00    0.1032479977E+00    0.3775689675E+00
    0.3300000000E+06    0.2016722809E-02    0.3318028739E-02    0.6960281268E+00    0.1011196907E+00    0.3852884167E+00
    0.3500000000E+06    0.1893535490E-02    0.3123441655E-02    0.6960284002E+00    0.9906224210E-01    0.3925602859E+00
    0.3700000000E+06    0.1781759694E-02    0.2946347153E-02    0.6960286440E+00    0.9707492522E-01    0.3994272089E+00
    0.3900000000E+06    0.1679981588E-02    0.2784630875E-02    0.6960288629E+00    0.9515626768E-01    0.4059259850E+00
    0.4100000000E+06    0.1587005034E-02    0.2636496947E-02    0.6960290604E+00    0.9330432460E-01    0.4120886259E+00
    0.4300000000E+06    0.1501811928E-02    0.2500411171E-02    0.6960292396E+00    0.9151686492E-01    0.4179431723E+00
    0.4500000000E+06    0.1423530799E-02    0.2375055771E-02    0.6960294028E+00    0.8979149922E-01    0.4235143393E+00
    0.4700000000E+06    0.1351411737E-02    0.2259293099E-02    0.6960295522E+00    0.8812576749E-01    0.4288240322E+00
    0.4900000000E+06    0.1284806239E-02    0.2152136319E-02    0.6960296894E+00    0.8651719926E-01    0.4338917647E+00
    0.1000000000E+06    0.5291683363E-02    0.8316546116E-02    0.6960171454E+00    0.1264091484E+00    0.2469300057E+00
    0.3000000000E+06    0.2226668596E-02    0.3648315664E-02    0.6960276485E+00    0.1043386509E+00    0.3735261549E+00
    0.5000000000E+06    0.1253392069E-02    0.2101512035E-02    0.6960297539E+00    0.8573358692E-01    0.4363404250E+00
    0.7000000000E+06    0.8104616481E-03    0.1381154406E-02    0.6960306567E+00    0.7251035018E-01    0.4760266878E+00
    0.9000000000E+06    0.5689820074E-03    0.9819816009E-03    0.6960311581E+00    0.6276410383E-01    0.5037640660E+00
    0.1100000000E+07    0.4220967157E-03    0.7360810455E-03    0.6960314769E+00    0.5530553575E-01    0.5243567653E+00
    0.1300000000E+07    0.3258470737E-03    0.5732654919E-03    0.6960316973E+00    0.4941966433E-01    0.5402919102E+00
    0.1500000000E+07    0.2592593873E-03    0.4596269152E-03    0.6960318586E+00    0.4465854690E-01    0.5530065835E+00
    0.1700000000E+07    0.2112394049E-03    0.3770441696E-03    0.6960319817E+00    0.4072880026E-01    0.5633955768E+00
    0.1900000000E+07    0.1754519931E-03    0.3150786630E-03    0.6960320787E+00    0.3743063467E-01    0.5720475529E+00
    0.2100000000E+07    0.1480584473E-03    0.2673568420E-03    0.6960321570E+00    0.3462341377E-01    0.5793666542E+00
    0.2300000000E+07    0.1266195461E-03    0.2298013046E-03    0.6960322214E+00    0.3220531577E-01    0.5856400037E+00
    0.2500000000E+07    0.1095236950E-03    0.1997017018E-03    0.6960322754E+00    0.3010082520E-01    0.5910774221E+00
    0.2700000000E+07    0.9567078741E-04    0.1751976672E-03    0.6960323212E+00    0.2825276105E-01    0.5958359161E+00
    0.2900000000E+07    0.8428873984E-04    0.1549769385E-03    0.6960323606E+00    0.2661703502E-01    0.6000353737E+00
    0.3100000000E+07    0.7482257714E-04    0.1380918562E-03    0.6960323947E+00    0.2515910936E-01    0.6037689559E+00
    0.3300000000E+07    0.6686499135E-04    0.1238439008E-03    0.6960324246E+00    0.2385154511E-01    0.6071101711E+00
    0.3500000000E+07    0.6011152942E-04    0.1117088364E-03    0.6960324509E+00    0.2267226824E-01    0.6101178100E+00
    0.3700000000E+07    0.5433089787E-04    0.1012868927E-03    0.6960324743E+00    0.2160332021E-01    0.6128394603E+00
    0.3900000000E+07    0.4934481904E-04    0.9226883528E-04    0.6960324952E+00    0.2062994202E-01    0.6153140589E+00
    0.4100000000E+07    0.4501407896E-04    0.8441237663E-04    0.6960325140E+00    0.1973989236E-01    0.6175737746E+00
    0.4300000000E+07    0.4122868188E-04    0.7752547105E-04    0.6960325309E+00    0.1892293300E-01    0.6196454199E+00
    0.4500000000E+07    0.3790078468E-04    0.7145428629E-04    0.6960325462E+00    0.1817043534E-01    0.6215515217E+00
    0.4700000000E+07    0.3495954849E-04    0.6607441110E-04    0.6960325602E+00    0.1747507625E-01    0.6233111462E+00
    0.4900000000E+07    0.3234733481E-04    0.6128433939E-04    0.6960325730E+00    0.1683060026E-01    0.6249405389E+00
    0.1000000000E+07    0.4872545636E-03    0.8455033405E-03    0.6960313335E+00    0.5880164377E-01    0.5147643562E+00
    0.3000000000E+07    0.7934447388E-04    0.1461659097E-03    0.6960323782E+00    0.2586770531E-01    0.6019554105E+00
    0.5000000000E+07    0.3114949330E-04    0.5908379329E-04    0.6960325789E+00    0.1652573354E-01    0.6257108299E+00
    0.7000000000E+07    0.1649505532E-04    0.3190390297E-04    0.6960326600E+00    0.1212215278E-01    0.6368038417E+00
    0.9000000000E+07    0.1018229219E-04    0.1998469685E-04    0.6960327016E+00    0.9562962967E-02    0.6432240069E+00
    0.1100000000E+08    0.6901828358E-05    0.1370581359E-04    0.6960327257E+00    0.7891328033E-02    0.6474080575E+00
    0.1300000000E+08    0.4982977200E-05    0.9992280027E-05    0.6960327406E+00    0.6714361808E-02    0.6503498451E+00
    0.1500000000E+08    0.3764966060E-05    0.7613053010E-05    0.6960327499E+00    0.5841112328E-02    0.6525304877E+00
    0.1700000000E+08    0.2944038664E-05    0.5996549476E-05    0.6960327559E+00    0.5167639094E-02    0.6542111850E+00
    0.1900000000E+08    0.2364747354E-05    0.4847767619E-05    0.6960327596E+00    0.4632538976E-02    0.6555459568E+00
    0.2100000000E+08    0.1940857040E-05    0.4001839163E-05    0.6960327617E+00    0.4197214398E-02    0.6566314867E+00
    0.2300000000E+08    0.1621415807E-05    0.3360710681E-05    0.6960327626E+00    0.3836189861E-02    0.6575315226E+00
    0.2500000000E+08    0.1374753746E-05    0.2863075162E-05    0.6960327628E+00    0.3531974957E-02    0.6582897953E+00
    0.2700000000E+08    0.1180348373E-05    0.2468991520E-05    0.6960327623E+00    0.3272164659E-02    0.6589373008E+00
