  Pressure (Pa) 22mC5-500 (mol/kg) 23mC5-500 (mol/kg) 24mC5-500 (mol/kg) 2mC6-500 (mol/kg) 3mC6-500 (mol/kg)
    0.1000000000E+01    0.3188386661E-05    0.2777344418E-05    0.1514038037E+00    0.4771415441E-04    0.1042128026E-04
    0.3000000000E+01    0.7402885803E-05    0.6461058327E-05    0.3164948295E+00    0.1165515029E-03    0.3125849969E-04
    0.5000000000E+01    0.1053852358E-04    0.9216646606E-05    0.4047705487E+00    0.1736974433E-03    0.5208867713E-04
    0.7000000000E+01    0.1327441212E-04    0.1163138261E-04    0.4597265398E+00    0.2273397655E-03    0.7291184984E-04
    0.9000000000E+01    0.1583336568E-04    0.1389682757E-04    0.4972334522E+00    0.2798235299E-03    0.9372803510E-04
    0.1100000000E+02    0.1830551616E-04    0.1608997024E-04    0.5244635170E+00    0.3319547346E-03    0.1145372435E-03
    0.1300000000E+02    0.2073240950E-04    0.1824604027E-04    0.5451317827E+00    0.3840362233E-03    0.1353394827E-03
    0.1500000000E+02    0.2313495743E-04    0.2038262201E-04    0.5613551762E+00    0.4361833728E-03    0.1561347592E-03
    0.1700000000E+02    0.2552435101E-04    0.2250903316E-04    0.5744284142E+00    0.4884359459E-03    0.1769230786E-03
    0.1900000000E+02    0.2790683914E-04    0.2463041411E-04    0.5851878619E+00    0.5408019941E-03    0.1977044460E-03
    0.2100000000E+02    0.3028600859E-04    0.2674967047E-04    0.5941978751E+00    0.5932763370E-03    0.2184788663E-03
    0.2300000000E+02    0.3266394684E-04    0.2886845904E-04    0.6018530686E+00    0.6458486929E-03    0.2392463444E-03
    0.2500000000E+02    0.3504186755E-04    0.3098771537E-04    0.6084376709E+00    0.6985073279E-03    0.2600068848E-03
    0.2700000000E+02    0.3742046172E-04    0.3310794818E-04    0.6141615997E+00    0.7512406763E-03    0.2807604920E-03
    0.2900000000E+02    0.3980010175E-04    0.3522940945E-04    0.6191832586E+00    0.8040380165E-03    0.3015071706E-03
    0.3100000000E+02    0.4218096366E-04    0.3735219542E-04    0.6236244253E+00    0.8568897025E-03    0.3222469248E-03
    0.3300000000E+02    0.4456310180E-04    0.3947630798E-04    0.6275802595E+00    0.9097871894E-03    0.3429797591E-03
    0.3500000000E+02    0.4694649554E-04    0.4160169255E-04    0.6311261988E+00    0.9627229663E-03    0.3637056778E-03
    0.3700000000E+02    0.4933107883E-04    0.4372826184E-04    0.6343228163E+00    0.1015690455E-02    0.3844246852E-03
    0.3900000000E+02    0.5171675906E-04    0.4585591076E-04    0.6372193100E+00    0.1068683901E-02    0.4051367856E-03
    0.4100000000E+02    0.5410342919E-04    0.4798452594E-04    0.6398560534E+00    0.1121698264E-02    0.4258419833E-03
    0.4300000000E+02    0.5649097565E-04    0.5011399166E-04    0.6422664890E+00    0.1174729130E-02    0.4465402826E-03
    0.4500000000E+02    0.5887928327E-04    0.5224419356E-04    0.6444785546E+00    0.1227772619E-02    0.4672316877E-03
    0.4700000000E+02    0.6126823849E-04    0.5437502090E-04    0.6465157710E+00    0.1280825313E-02    0.4879162029E-03
    0.4900000000E+02    0.6365773133E-04    0.5650636786E-04    0.6483980818E+00    0.1333884198E-02    0.5085938323E-03
    0.1000000000E+02    0.1707701165E-04    0.1499964961E-04    0.5118496699E+00    0.3059077480E-03    0.1041335109E-03
    0.3000000000E+02    0.4099037438E-04    0.3629063504E-04    0.6214699249E+00    0.8304576256E-03    0.3118779129E-03
    0.5000000000E+02    0.6485264626E-04    0.5757220466E-04    0.6492865661E+00    0.1360415115E-02    0.5189300662E-03
    0.7000000000E+02    0.8875662950E-04    0.7889506997E-04    0.6619865405E+00    0.1890850227E-02    0.7252942743E-03
    0.9000000000E+02    0.1126278780E-03    0.1001896698E-03    0.6692596343E+00    0.2420147565E-02    0.9309747237E-03
    0.1100000000E+03    0.1364270466E-03    0.1214205140E-03    0.6739720140E+00    0.2947716612E-02    0.1135975551E-02
    0.1300000000E+03    0.1601330719E-03    0.1425688752E-03    0.6772736371E+00    0.3473298770E-02    0.1340300854E-02
    0.1500000000E+03    0.1837339402E-03    0.1636241675E-03    0.6797155481E+00    0.3996767653E-02    0.1543954693E-02
    0.1700000000E+03    0.2072224488E-03    0.1845800877E-03    0.6815948644E+00    0.4518057858E-02    0.1746941095E-02
    0.1900000000E+03    0.2305941389E-03    0.2054327575E-03    0.6830859331E+00    0.5037135257E-02    0.1949264051E-02
    0.2100000000E+03    0.2538462120E-03    0.2261797573E-03    0.6842978054E+00    0.5553983085E-02    0.2150927523E-02
    0.2300000000E+03    0.2769769238E-03    0.2468195902E-03    0.6853021881E+00    0.6068594828E-02    0.2351935434E-02
    0.2500000000E+03    0.2999852263E-03    0.2673513662E-03    0.6861481686E+00    0.6580970322E-02    0.2552291679E-02
    0.2700000000E+03    0.3228705475E-03    0.2877746087E-03    0.6868704819E+00    0.7091113493E-02    0.2752000121E-02
    0.2900000000E+03    0.3456326486E-03    0.3080891300E-03    0.6874943988E+00    0.7599030981E-02    0.2951064588E-02
    0.3100000000E+03    0.3682715309E-03    0.3282949495E-03    0.6880387438E+00    0.8104731272E-02    0.3149488879E-02
    0.3300000000E+03    0.3907873706E-03    0.3483922378E-03    0.6885178275E+00    0.8608224134E-02    0.3347276763E-02
    0.3500000000E+03    0.4131804748E-03    0.3683812775E-03    0.6889427229E+00    0.9109520232E-02    0.3544431975E-02
    0.3700000000E+03    0.4354512484E-03    0.3882624358E-03    0.6893221318E+00    0.9608630867E-02    0.3740958224E-02
    0.3900000000E+03    0.4576001715E-03    0.4080361437E-03    0.6896629879E+00    0.1010556779E-01    0.3936859185E-02
    0.4100000000E+03    0.4796277815E-03    0.4277028814E-03    0.6899708833E+00    0.1060034309E-01    0.4132138505E-02
    0.4300000000E+03    0.5015346606E-03    0.4472631670E-03    0.6902503788E+00    0.1109296904E-01    0.4326799803E-02
    0.4500000000E+03    0.5233214249E-03    0.4667175478E-03    0.6905052306E+00    0.1158345810E-01    0.4520846666E-02
    0.4700000000E+03    0.5449887179E-03    0.4860665939E-03    0.6907385607E+00    0.1207182281E-01    0.4714282654E-02
    0.4900000000E+03    0.5665372035E-03    0.5053108929E-03    0.6909529849E+00    0.1255807578E-01    0.4907111299E-02
    0.1000000000E+03    0.1245380744E-03    0.1108144900E-03    0.6718432297E+00    0.2684168725E-02    0.1033559833E-02
    0.3000000000E+03    0.3569674846E-03    0.3182056198E-03    0.6877755350E+00    0.7852157691E-02    0.3050356519E-02
    0.5000000000E+03    0.5772671056E-03    0.5148939495E-03    0.6910538111E+00    0.1280041431E-01    0.5003298963E-02
    0.7000000000E+03    0.7857992566E-03    0.7012071488E-03    0.6924685438E+00    0.1753939814E-01    0.6896008504E-02
    0.9000000000E+03    0.9832649397E-03    0.8777628455E-03    0.6932570846E+00    0.2208143521E-01    0.8731827971E-02
    0.1100000000E+04    0.1170359628E-02    0.1045172093E-02    0.6937598576E+00    0.2643815875E-01    0.1051384836E-01
    0.1300000000E+04    0.1347737124E-02    0.1204008880E-02    0.6941083820E+00    0.3062036698E-01    0.1224493241E-01
    0.1500000000E+04    0.1516004771E-02    0.1354806283E-02    0.6943642047E+00    0.3463805892E-01    0.1392773559E-01
    0.1700000000E+04    0.1675724951E-02    0.1498057905E-02    0.6945599718E+00    0.3850049578E-01    0.1556472471E-01
    0.1900000000E+04    0.1827418119E-02    0.1634220589E-02    0.6947146108E+00    0.4221626356E-01    0.1715819467E-01
    0.2100000000E+04    0.1971566121E-02    0.1763717345E-02    0.6948398511E+00    0.4579333164E-01    0.1871028334E-01
    0.2300000000E+04    0.2108615417E-02    0.1886940182E-02    0.6949433492E+00    0.4923910622E-01    0.2022298496E-01
    0.2500000000E+04    0.2238980079E-02    0.2004252742E-02    0.6950303152E+00    0.5256047860E-01    0.2169816218E-01
    0.2700000000E+04    0.2363044547E-02    0.2115992708E-02    0.6951044175E+00    0.5576386885E-01    0.2313755692E-01
    0.2900000000E+04    0.2481166126E-02    0.2222473999E-02    0.6951683140E+00    0.5885526514E-01    0.2454280007E-01
    0.3100000000E+04    0.2593677258E-02    0.2323988753E-02    0.6952239775E+00    0.6184025928E-01    0.2591542043E-01
    0.3300000000E+04    0.2700887579E-02    0.2420809128E-02    0.6952729029E+00    0.6472407887E-01    0.2725685261E-01
    0.3500000000E+04    0.2803085780E-02    0.2513188931E-02    0.6953162442E+00    0.6751161629E-01    0.2856844434E-01
    0.3700000000E+04    0.2900541298E-02    0.2601365097E-02    0.6953549058E+00    0.7020745510E-01    0.2985146306E-01
    0.3900000000E+04    0.2993505843E-02    0.2685559029E-02    0.6953896068E+00    0.7281589394E-01    0.3110710186E-01
    0.4100000000E+04    0.3082214796E-02    0.2765977814E-02    0.6954209264E+00    0.7534096824E-01    0.3233648502E-01
    0.4300000000E+04    0.3166888466E-02    0.2842815329E-02    0.6954493359E+00    0.7778647000E-01    0.3354067290E-01
    0.4500000000E+04    0.3247733247E-02    0.2916253251E-02    0.6954752228E+00    0.8015596583E-01    0.3472066658E-01
    0.4700000000E+04    0.3324942665E-02    0.2986461974E-02    0.6954989090E+00    0.8245281338E-01    0.3587741197E-01
    0.4900000000E+04    0.3398698334E-02    0.3053601444E-02    0.6955206637E+00    0.8468017641E-01    0.3701180363E-01
    0.1000000000E+04    0.1078066711E-02    0.9625739435E-03    0.6935335151E+00    0.2428226689E-01    0.9629379036E-02
    0.3000000000E+04    0.2538103134E-02    0.2273834735E-02    0.6951970721E+00    0.6036072757E-01    0.2523309632E-01
    0.5000000000E+04    0.3434334727E-02    0.3086067527E-02    0.6955308891E+00    0.8576874028E-01    0.3757088320E-01
    0.7000000000E+04    0.4002081462E-02    0.3606285644E-02    0.6956740935E+00    0.1045334642E+00    0.4776238760E-01
    0.9000000000E+04    0.4366546392E-02    0.3944923067E-02    0.6957536958E+00    0.1188875916E+00    0.5645205413E-01
    0.1100000000E+05    0.4599449190E-02    0.4165424886E-02    0.6958043717E+00    0.1301672495E+00    0.6403969321E-01
    0.1300000000E+05    0.4744265686E-02    0.4306372938E-02    0.6958394657E+00    0.1392203687E+00    0.7078804119E-01
    0.1500000000E+05    0.4828550886E-02    0.4392303603E-02    0.6958652078E+00    0.1466106921E+00    0.7687781577E-01
    0.1700000000E+05    0.4870406205E-02    0.4439393906E-02    0.6958848973E+00    0.1527274641E+00    0.8243801419E-01
    0.1900000000E+05    0.4882076505E-02    0.4458629424E-02    0.6959004446E+00    0.1578479993E+00    0.8756358763E-01
    0.2100000000E+05    0.4872048509E-02    0.4457655686E-02    0.6959130327E+00    0.1621751541E+00    0.9232625833E-01
    0.2300000000E+05    0.4846324797E-02    0.4441904350E-02    0.6959234333E+00    0.1658607014E+00    0.9678141149E-01
    0.2500000000E+05    0.4809223913E-02    0.4415301899E-02    0.6959321711E+00    0.1690204273E+00    0.1009726392E+00
    0.2700000000E+05    0.4763897677E-02    0.4380728818E-02    0.6959396154E+00    0.1717441767E+00    0.1049348261E+00
    0.2900000000E+05    0.4712674203E-02    0.4340324743E-02    0.6959460338E+00    0.1741027153E+00    0.1086962990E+00
    0.3100000000E+05    0.4657290425E-02    0.4295695784E-02    0.6959516246E+00    0.1761525241E+00    0.1122803590E+00
    0.3300000000E+05    0.4599052814E-02    0.4248058182E-02    0.6959565384E+00    0.1779392196E+00    0.1157063951E+00
    0.3500000000E+05    0.4538950404E-02    0.4198339583E-02    0.6959608911E+00    0.1795000362E+00    0.1189907085E+00
    0.3700000000E+05    0.4477735508E-02    0.4147251551E-02    0.6959647737E+00    0.1808656592E+00    0.1221471326E+00
    0.3900000000E+05    0.4415982161E-02    0.4095342219E-02    0.6959682584E+00    0.1820615974E+00    0.1251875060E+00
    0.4100000000E+05    0.4354128963E-02    0.4043034999E-02    0.6959714034E+00    0.1831092249E+00    0.1281220378E+00
    0.4300000000E+05    0.4292510844E-02    0.3990657361E-02    0.6959742562E+00    0.1840265809E+00    0.1309595942E+00
    0.4500000000E+05    0.4231382850E-02    0.3938462456E-02    0.6959768556E+00    0.1848289921E+00    0.1337079243E+00
    0.4700000000E+05    0.4170938116E-02    0.3886645512E-02    0.6959792340E+00    0.1855295599E+00    0.1363738412E+00
    0.4900000000E+05    0.4111321572E-02    0.3835356370E-02    0.6959814184E+00    0.1861395473E+00    0.1389633674E+00
    0.1000000000E+05    0.4496247662E-02    0.4067108114E-02    0.6957815654E+00    0.1248503126E+00    0.6036480279E-01
    0.3000000000E+05    0.4685412121E-02    0.4318454575E-02    0.6959489223E+00    0.1751631381E+00    0.1105092130E+00
    0.5000000000E+05    0.4081858619E-02    0.3809946564E-02    0.6959824452E+00    0.1864136676E+00    0.1402311795E+00
    0.7000000000E+05    0.3549662651E-02    0.3345171470E-02    0.6959968250E+00    0.1889247051E+00    0.1626110354E+00
    0.9000000000E+05    0.3123173296E-02    0.2966279727E-02    0.6960048194E+00    0.1883308228E+00    0.1810202046E+00
    0.1100000000E+06    0.2780595103E-02    0.2658352865E-02    0.6960099096E+00    0.1864044616E+00    0.1968639470E+00
    0.1300000000E+06    0.2500960802E-02    0.2404711242E-02    0.6960134354E+00    0.1838589021E+00    0.2108766806E+00
    0.1500000000E+06    0.2268804807E-02    0.2192549423E-02    0.6960160220E+00    0.1810254164E+00    0.2234972423E+00
    0.1700000000E+06    0.2073098052E-02    0.2012543621E-02    0.6960180009E+00    0.1780724734E+00    0.2350122131E+00
    0.1900000000E+06    0.1905912793E-02    0.1857899319E-02    0.6960195637E+00    0.1750908883E+00    0.2456209600E+00
    0.2100000000E+06    0.1761447576E-02    0.1723593303E-02    0.6960208292E+00    0.1721313341E+00    0.2554688884E+00
    0.2300000000E+06    0.1635372900E-02    0.1605846102E-02    0.6960218749E+00    0.1692224640E+00    0.2646660017E+00
    0.2500000000E+06    0.1524396471E-02    0.1501763958E-02    0.6960227536E+00    0.1663803065E+00    0.2732979829E+00
    0.2700000000E+06    0.1425971186E-02    0.1409094832E-02    0.6960235023E+00    0.1636134106E+00    0.2814331753E+00
    0.2900000000E+06    0.1338095551E-02    0.1326059827E-02    0.6960241478E+00    0.1609257918E+00    0.2891271750E+00
    0.3100000000E+06    0.1259174661E-02    0.1251234755E-02    0.6960247102E+00    0.1583186787E+00    0.2964259648E+00
    0.3300000000E+06    0.1187921541E-02    0.1183465487E-02    0.6960252045E+00    0.1557915787E+00    0.3033681172E+00
    0.3500000000E+06    0.1123285899E-02    0.1121806438E-02    0.6960256424E+00    0.1533429428E+00    0.3099863853E+00
    0.3700000000E+06    0.1064401807E-02    0.1065475173E-02    0.6960260330E+00    0.1509705883E+00    0.3163088764E+00
    0.3900000000E+06    0.1010548725E-02    0.1013818412E-02    0.6960263837E+00    0.1486719705E+00    0.3223599369E+00
    0.4100000000E+06    0.9611220307E-03    0.9662862229E-03    0.6960267001E+00    0.1464443586E+00    0.3281608289E+00
    0.4300000000E+06    0.9156104794E-03    0.9224122072E-03    0.6960269872E+00    0.1442849509E+00    0.3337302572E+00
    0.4500000000E+06    0.8735787419E-03    0.8817980912E-03    0.6960272487E+00    0.1421909489E+00    0.3390847850E+00
    0.4700000000E+06    0.8346537408E-03    0.8441016308E-03    0.6960274881E+00    0.1401596045E+00    0.3442391654E+00
    0.4900000000E+06    0.7985138494E-03    0.8090270193E-03    0.6960277079E+00    0.1381882505E+00    0.3492066093E+00
    0.1000000000E+06    0.2942836573E-02    0.2804570335E-02    0.6960076187E+00    0.1874764169E+00    0.1892073208E+00
    0.3000000000E+06    0.1297602472E-02    0.1287698698E-02    0.6960244384E+00    0.1596121717E+00    0.2928234077E+00
    0.5000000000E+06    0.7813997229E-03    0.7923912443E-03    0.6960278112E+00    0.1372242630E+00    0.3516239915E+00
    0.7000000000E+06    0.5338909858E-03    0.5496885868E-03    0.6960292581E+00    0.1205303796E+00    0.3925108652E+00
    0.9000000000E+06    0.3917559209E-03    0.4081463122E-03    0.6960300621E+00    0.1075904711E+00    0.4232756446E+00
    0.1100000000E+07    0.3012571444E-03    0.3169297952E-03    0.6960305736E+00    0.9723327186E-01    0.4475022333E+00
    0.1300000000E+07    0.2395763620E-03    0.2541373327E-03    0.6960309274E+00    0.8873601958E-01    0.4671762209E+00
    0.1500000000E+07    0.1954342527E-03    0.2088162856E-03    0.6960311866E+00    0.8162792276E-01    0.4835194948E+00
    0.1700000000E+07    0.1626539738E-03    0.1749101327E-03    0.6960313845E+00    0.7558773265E-01    0.4973374916E+00
    0.1900000000E+07    0.1375917367E-03    0.1488160018E-03    0.6960315405E+00    0.7038785503E-01    0.5091878864E+00
    0.2100000000E+07    0.1179724021E-03    0.1282676576E-03    0.6960316665E+00    0.6586204837E-01    0.5194714732E+00
    0.2300000000E+07    0.1023100375E-03    0.1117752070E-03    0.6960317704E+00    0.6188578133E-01    0.5284849144E+00
    0.2500000000E+07    0.8959795334E-04    0.9832325609E-04    0.6960318575E+00    0.5836376685E-01    0.5364531371E+00
    0.2700000000E+07    0.7913303777E-04    0.8719875589E-04    0.6960319314E+00    0.5522176179E-01    0.5435501370E+00
    0.2900000000E+07    0.7041137730E-04    0.7788811686E-04    0.6960319950E+00    0.5240100601E-01    0.5499128288E+00
    0.3100000000E+07    0.6306373198E-04    0.7001326929E-04    0.6960320502E+00    0.4985435187E-01    0.5556505493E+00
    0.3300000000E+07    0.5681428295E-04    0.6329058423E-04    0.6960320986E+00    0.4754350882E-01    0.5608517454E+00
    0.3500000000E+07    0.5145348263E-04    0.5750371469E-04    0.6960321413E+00    0.4543704267E-01    0.5655887845E+00
    0.3700000000E+07    0.4681972926E-04    0.5248518594E-04    0.6960321793E+00    0.4350889744E-01    0.5699214816E+00
    0.3900000000E+07    0.4278671913E-04    0.4810363915E-04    0.6960322132E+00    0.4173728593E-01    0.5738997295E+00
    0.4100000000E+07    0.3925454355E-04    0.4425481796E-04    0.6960322437E+00    0.4010384568E-01    0.5775654882E+00
    0.4300000000E+07    0.3614330985E-04    0.4085508770E-04    0.6960322713E+00    0.3859298849E-01    0.5809543115E+00
    0.4500000000E+07    0.3338849779E-04    0.3783670179E-04    0.6960322963E+00    0.3719139345E-01    0.5840965315E+00
    0.4700000000E+07    0.3093753016E-04    0.3514429476E-04    0.6960323191E+00    0.3588760769E-01    0.5870181879E+00
    0.4900000000E+07    0.2874720663E-04    0.3273225010E-04    0.6960323400E+00    0.3467172896E-01    0.5897417654E+00
    0.1000000000E+07    0.3418721073E-03    0.3579884241E-03    0.6960303435E+00    0.1021417917E+00    0.4360581090E+00
    0.3000000000E+07    0.6658485979E-04    0.7379078866E-04    0.6960320236E+00    0.5109599053E-01    0.5528538567E+00
    0.5000000000E+07    0.2773836219E-04    0.3161927219E-04    0.6960323497E+00    0.3409402055E-01    0.5910354763E+00
    0.7000000000E+07    0.1513069565E-04    0.1757768764E-04    0.6960324833E+00    0.2556032463E-01    0.6101205588E+00
    0.9000000000E+07    0.9508153955E-05    0.1120456480E-04    0.6960325533E+00    0.2042970690E-01    0.6215745611E+00
    0.1100000000E+08    0.6522409850E-05    0.7774338062E-05    0.6960325947E+00    0.1700616850E-01    0.6292103008E+00
    0.1300000000E+08    0.4749797073E-05    0.5715447305E-05    0.6960326210E+00    0.1456007663E-01    0.6346628739E+00
    0.1500000000E+08    0.3612330787E-05    0.4382059020E-05    0.6960326384E+00    0.1272563450E-01    0.6387505256E+00
    0.1700000000E+08    0.2839308775E-05    0.3468654963E-05    0.6960326501E+00    0.1129924625E-01    0.6419281391E+00
    0.1900000000E+08    0.2290240306E-05    0.2815321033E-05    0.6960326581E+00    0.1015860009E-01    0.6444687660E+00
    0.2100000000E+08    0.1886327926E-05    0.2331698599E-05    0.6960326634E+00    0.9225794823E-02    0.6465462121E+00
    0.2300000000E+08    0.1580601683E-05    0.1963571228E-05    0.6960326668E+00    0.8448867066E-02    0.6482763613E+00
    0.2500000000E+08    0.1343654118E-05    0.1676793530E-05    0.6960326688E+00    0.7791829499E-02    0.6497394422E+00
    0.2700000000E+08    0.1156312695E-05    0.1448984368E-05    0.6960326697E+00    0.7228971821E-02    0.6509927564E+00
