  Pressure (Pa) 22mC5-500 (mol/kg) 23mC5-500 (mol/kg) 24mC5-500 (mol/kg) 2mC6-500 (mol/kg) 3mC6-500 (mol/kg)
    0.1000000000E+01    0.3300524942E-05    0.4790917728E-05    0.1266331120E+00    0.3822469125E-04    0.1563198432E-04
    0.3000000000E+01    0.7885511122E-05    0.1146340844E-04    0.2785290208E+00    0.9512362057E-04    0.4688829309E-04
    0.5000000000E+01    0.1130541835E-04    0.1646218661E-04    0.3664400299E+00    0.1417746766E-03    0.7813448729E-04
    0.7000000000E+01    0.1423209780E-04    0.2075711007E-04    0.4237636555E+00    0.1847029084E-03    0.1093706191E-03
    0.9000000000E+01    0.1691765494E-04    0.2471052169E-04    0.4640987530E+00    0.2261256348E-03    0.1405967145E-03
    0.1100000000E+02    0.1947412271E-04    0.2848267582E-04    0.4940232132E+00    0.2669218334E-03    0.1718127895E-03
    0.1300000000E+02    0.2195717084E-04    0.3215278910E-04    0.5171071127E+00    0.3074738206E-03    0.2030188558E-03
    0.1500000000E+02    0.2439673389E-04    0.3576321338E-04    0.5354555680E+00    0.3479567577E-03    0.2342149229E-03
    0.1700000000E+02    0.2680987032E-04    0.3933792888E-04    0.5503902575E+00    0.3884521769E-03    0.2654009991E-03
    0.1900000000E+02    0.2920673455E-04    0.4289110687E-04    0.5627828608E+00    0.4289969007E-03    0.2965770918E-03
    0.2100000000E+02    0.3159357346E-04    0.4643139247E-04    0.5732315563E+00    0.4696056509E-03    0.3277432080E-03
    0.2300000000E+02    0.3397432503E-04    0.4996418177E-04    0.5821604897E+00    0.5102820590E-03    0.3588993543E-03
    0.2500000000E+02    0.3635151455E-04    0.5349289384E-04    0.5898787749E+00    0.5510242390E-03    0.3900455373E-03
    0.2700000000E+02    0.3872677811E-04    0.5701971086E-04    0.5966170157E+00    0.5918276834E-03    0.4211817632E-03
    0.2900000000E+02    0.4110117895E-04    0.6054602362E-04    0.6025507432E+00    0.6326867894E-03    0.4523080382E-03
    0.3100000000E+02    0.4347540438E-04    0.6407270757E-04    0.6078159311E+00    0.6735956637E-03    0.4834243683E-03
    0.3300000000E+02    0.4584989121E-04    0.6760029788E-04    0.6125195442E+00    0.7145485387E-03    0.5145307597E-03
    0.3500000000E+02    0.4822490757E-04    0.7112910290E-04    0.6167468832E+00    0.7555399770E-03    0.5456272183E-03
    0.3700000000E+02    0.5060060705E-04    0.7465927895E-04    0.6205668051E+00    0.7965649594E-03    0.5767137500E-03
    0.3900000000E+02    0.5297706516E-04    0.7819088036E-04    0.6240355036E+00    0.8376189098E-03    0.6077903607E-03
    0.4100000000E+02    0.5535430424E-04    0.8172389324E-04    0.6271992920E+00    0.8786976864E-03    0.6388570564E-03
    0.4300000000E+02    0.5773231055E-04    0.8525825871E-04    0.6300966836E+00    0.9197975564E-03    0.6699138427E-03
    0.4500000000E+02    0.6011104621E-04    0.8879388877E-04    0.6327599675E+00    0.9609151631E-03    0.7009607257E-03
    0.4700000000E+02    0.6249045747E-04    0.9233067732E-04    0.6352164169E+00    0.1002047490E-02    0.7319977110E-03
    0.4900000000E+02    0.6487048065E-04    0.9586850784E-04    0.6374892269E+00    0.1043191828E-02    0.7630248045E-03
    0.1000000000E+02    0.1820771391E-04    0.2661311176E-04    0.4800930044E+00    0.2465712196E-03    0.1562060037E-03
    0.3000000000E+02    0.4228828154E-04    0.6230927934E-04    0.6052596380E+00    0.6531353721E-03    0.4678674460E-03
    0.5000000000E+02    0.6606070010E-04    0.9763777591E-04    0.6385630848E+00    0.1063767729E-02    0.7785346436E-03
    0.7000000000E+02    0.8987982923E-04    0.1330488541E-03    0.6539868748E+00    0.1475441129E-02    0.1088213513E-02
    0.9000000000E+02    0.1136859645E-03    0.1684441155E-03    0.6628827183E+00    0.1886636786E-02    0.1396909777E-02
    0.1100000000E+03    0.1374374604E-03    0.2037597178E-03    0.6686711842E+00    0.2296749965E-02    0.1704629086E-02
    0.1300000000E+03    0.1611099556E-03    0.2389590863E-03    0.6727383751E+00    0.2705502416E-02    0.2011377036E-02
    0.1500000000E+03    0.1846888238E-03    0.2740205092E-03    0.6757527011E+00    0.3112752013E-02    0.2317159176E-02
    0.1700000000E+03    0.2081649364E-03    0.3089305402E-03    0.6780761525E+00    0.3518421171E-02    0.2621981010E-02
    0.1900000000E+03    0.2315324158E-03    0.3436805744E-03    0.6799218364E+00    0.3922466048E-02    0.2925847997E-02
    0.2100000000E+03    0.2547874007E-03    0.3782649891E-03    0.6814233837E+00    0.4324861807E-02    0.3228765552E-02
    0.2300000000E+03    0.2779273335E-03    0.4126800797E-03    0.6826688392E+00    0.4725594973E-02    0.3530739048E-02
    0.2500000000E+03    0.3009505306E-03    0.4469234218E-03    0.6837185734E+00    0.5124659183E-02    0.3831773816E-02
    0.2700000000E+03    0.3238559124E-03    0.4809934730E-03    0.6846153633E+00    0.5522052705E-02    0.4131875146E-02
    0.2900000000E+03    0.3466428276E-03    0.5148893138E-03    0.6853903662E+00    0.5917776918E-02    0.4431048284E-02
    0.3100000000E+03    0.3693109358E-03    0.5486104758E-03    0.6860668147E+00    0.6311835344E-02    0.4729298438E-02
    0.3300000000E+03    0.3918601261E-03    0.5821568229E-03    0.6866623851E+00    0.6704233010E-02    0.5026630776E-02
    0.3500000000E+03    0.4142904599E-03    0.6155284680E-03    0.6871907649E+00    0.7094976025E-02    0.5323050423E-02
    0.3700000000E+03    0.4366021303E-03    0.6487257129E-03    0.6876627181E+00    0.7484071279E-02    0.5618562467E-02
    0.3900000000E+03    0.4587954313E-03    0.6817490055E-03    0.6880868259E+00    0.7871526234E-02    0.5913171958E-02
    0.4100000000E+03    0.4808707357E-03    0.7145989060E-03    0.6884700133E+00    0.8257348775E-02    0.6206883903E-02
    0.4300000000E+03    0.5028284782E-03    0.7472760635E-03    0.6888179305E+00    0.8641547096E-02    0.6499703275E-02
    0.4500000000E+03    0.5246691420E-03    0.7797811967E-03    0.6891352332E+00    0.9024129622E-02    0.6791635007E-02
    0.4700000000E+03    0.5463932491E-03    0.8121150792E-03    0.6894257922E+00    0.9405104943E-02    0.7082683994E-02
    0.4900000000E+03    0.5680013525E-03    0.8442785286E-03    0.6896928521E+00    0.9784481769E-02    0.7372855096E-02
    0.1000000000E+03    0.1255703628E-03    0.1861146183E-03    0.6660538732E+00    0.2091850590E-02    0.1550891200E-02
    0.3000000000E+03    0.3579917441E-03    0.5317717448E-03    0.6857396962E+00    0.6115014070E-02    0.4580288410E-02
    0.5000000000E+03    0.5787620824E-03    0.8602966060E-03    0.6898184432E+00    0.9973573492E-02    0.7517612948E-02
    0.7000000000E+03    0.7880363156E-03    0.1171931036E-02    0.6915816463E+00    0.1367365623E-01    0.1036784077E-01
    0.9000000000E+03    0.9864381734E-03    0.1467591819E-02    0.6925652233E+00    0.1722400858E-01    0.1313558367E-01
    0.1100000000E+04    0.1174612754E-02    0.1748223706E-02    0.6931926580E+00    0.2063304705E-01    0.1582512243E-01
    0.1300000000E+04    0.1353175195E-02    0.2014726600E-02    0.6936277413E+00    0.2390864444E-01    0.1844043639E-01
    0.1500000000E+04    0.1522701428E-02    0.2267942740E-02    0.6939471755E+00    0.2705812784E-01    0.2098522972E-01
    0.1700000000E+04    0.1683727741E-02    0.2508656313E-02    0.6941916656E+00    0.3008831172E-01    0.2346295511E-01
    0.1900000000E+04    0.1836752700E-02    0.2737596373E-02    0.6943848191E+00    0.3300553703E-01    0.2587683499E-01
    0.2100000000E+04    0.1982239723E-02    0.2955440649E-02    0.6945412704E+00    0.3581570931E-01    0.2822988060E-01
    0.2300000000E+04    0.2120619751E-02    0.3162819458E-02    0.6946705738E+00    0.3852433433E-01    0.3052490923E-01
    0.2500000000E+04    0.2252293805E-02    0.3360319458E-02    0.6947792322E+00    0.4113655071E-01    0.3276455980E-01
    0.2700000000E+04    0.2377635381E-02    0.3548487141E-02    0.6948718251E+00    0.4365715956E-01    0.3495130687E-01
    0.2900000000E+04    0.2496992655E-02    0.3727832053E-02    0.6949516705E+00    0.4609065146E-01    0.3708747347E-01
    0.3100000000E+04    0.2610690498E-02    0.3898829733E-02    0.6950212319E+00    0.4844123094E-01    0.3917524261E-01
    0.3300000000E+04    0.2719032318E-02    0.4061924399E-02    0.6950823760E+00    0.5071283874E-01    0.4121666788E-01
    0.3500000000E+04    0.2822301740E-02    0.4217531399E-02    0.6951365439E+00    0.5290917204E-01    0.4321368298E-01
    0.3700000000E+04    0.2920764134E-02    0.4366039436E-02    0.6951848651E+00    0.5503370285E-01    0.4516811049E-01
    0.3900000000E+04    0.3014668013E-02    0.4507812606E-02    0.6952282379E+00    0.5708969479E-01    0.4708166985E-01
    0.4100000000E+04    0.3104246301E-02    0.4643192250E-02    0.6952673856E+00    0.5908021845E-01    0.4895598464E-01
    0.4300000000E+04    0.3189717500E-02    0.4772498649E-02    0.6953028970E+00    0.6100816530E-01    0.5079258933E-01
    0.4500000000E+04    0.3271286749E-02    0.4896032574E-02    0.6953352562E+00    0.6287626058E-01    0.5259293533E-01
    0.4700000000E+04    0.3349146798E-02    0.5014076698E-02    0.6953648654E+00    0.6468707493E-01    0.5435839666E-01
    0.4900000000E+04    0.3423478895E-02    0.5126896900E-02    0.6953920607E+00    0.6644303522E-01    0.5609027515E-01
    0.1000000000E+04    0.1081764545E-02    0.1609728828E-02    0.6929101644E+00    0.1894568693E-01    0.1448987312E-01
    0.3000000000E+04    0.2554529560E-02    0.3814345829E-02    0.6949876084E+00    0.4727605301E-01    0.3813727645E-01
    0.5000000000E+04    0.3459375659E-02    0.5181426818E-02    0.6954048437E+00    0.6730116659E-01    0.5694400907E-01
    0.7000000000E+04    0.4028571631E-02    0.6051324483E-02    0.6955838841E+00    0.8207871319E-01    0.7252401509E-01
    0.9000000000E+04    0.4388236414E-02    0.6609326943E-02    0.6956834234E+00    0.9333710565E-01    0.8582331839E-01
    0.1100000000E+05    0.4611652305E-02    0.6963413148E-02    0.6957467993E+00    0.1021252012E+00    0.9743647185E-01
    0.1300000000E+05    0.4743700046E-02    0.7179925795E-02    0.6957906929E+00    0.1091155800E+00    0.1077579393E+00
    0.1500000000E+05    0.4813034867E-02    0.7301370555E-02    0.6958228924E+00    0.1147589835E+00    0.1170610292E+00
    0.1700000000E+05    0.4838577623E-02    0.7355919117E-02    0.6958475228E+00    0.1193685808E+00    0.1255419493E+00
    0.1900000000E+05    0.4833170083E-02    0.7362769332E-02    0.6958669730E+00    0.1231685958E+00    0.1333457887E+00
    0.2100000000E+05    0.4805728628E-02    0.7335309021E-02    0.6958827222E+00    0.1263237021E+00    0.1405825584E+00
    0.2300000000E+05    0.4762562399E-02    0.7283056043E-02    0.6958957352E+00    0.1289574997E+00    0.1473374835E+00
    0.2500000000E+05    0.4708206602E-02    0.7212887251E-02    0.6959066683E+00    0.1311645252E+00    0.1536778277E+00
    0.2700000000E+05    0.4645964209E-02    0.7129839098E-02    0.6959159836E+00    0.1330182861E+00    0.1596575499E+00
    0.2900000000E+05    0.4578266729E-02    0.7037642051E-02    0.6959240154E+00    0.1345767738E+00    0.1653205611E+00
    0.3100000000E+05    0.4506919637E-02    0.6939085015E-02    0.6959310120E+00    0.1358863315E+00    0.1707030535E+00
    0.3300000000E+05    0.4433272496E-02    0.6836268574E-02    0.6959371616E+00    0.1369844214E+00    0.1758351987E+00
    0.3500000000E+05    0.4358338862E-02    0.6730783931E-02    0.6959426092E+00    0.1379016411E+00    0.1807424071E+00
    0.3700000000E+05    0.4282882040E-02    0.6623841266E-02    0.6959474686E+00    0.1386632147E+00    0.1854462777E+00
    0.3900000000E+05    0.4207477246E-02    0.6516363035E-02    0.6959518302E+00    0.1392901129E+00    0.1899653242E+00
    0.4100000000E+05    0.4132557213E-02    0.6409052618E-02    0.6959557668E+00    0.1397999042E+00    0.1943155363E+00
    0.4300000000E+05    0.4058445986E-02    0.6302445381E-02    0.6959593377E+00    0.1402074110E+00    0.1985108210E+00
    0.4500000000E+05    0.3985384236E-02    0.6196947027E-02    0.6959625917E+00    0.1405252186E+00    0.2025633508E+00
    0.4700000000E+05    0.3913548369E-02    0.6092862657E-02    0.6959655691E+00    0.1407640771E+00    0.2064838428E+00
    0.4900000000E+05    0.3843065064E-02    0.5990418977E-02    0.6959683037E+00    0.1409332185E+00    0.2102817842E+00
    0.1000000000E+05    0.4513685434E-02    0.6807001303E-02    0.6957182767E+00    0.9799136098E-01    0.9181247511E-01
    0.3000000000E+05    0.4542955955E-02    0.6989013504E-02    0.6959276301E+00    0.1352601460E+00    0.1680448618E+00
    0.5000000000E+05    0.3808359413E-02    0.5939866092E-02    0.6959695891E+00    0.1409941788E+00    0.2121374727E+00
    0.7000000000E+05    0.3194152843E-02    0.5034853068E-02    0.6959875940E+00    0.1400092722E+00    0.2444530163E+00
    0.9000000000E+05    0.2717961313E-02    0.4321459257E-02    0.6959976064E+00    0.1368871357E+00    0.2703344519E+00
    0.1100000000E+06    0.2346155733E-02    0.3757796404E-02    0.6960039831E+00    0.1330248108E+00    0.2920395883E+00
    0.1300000000E+06    0.2050505362E-02    0.3305336601E-02    0.6960084008E+00    0.1289546033E+00    0.3107627670E+00
    0.1500000000E+06    0.1811048354E-02    0.2935964934E-02    0.6960116424E+00    0.1249035147E+00    0.3272251368E+00
    0.1700000000E+06    0.1613891778E-02    0.2629755144E-02    0.6960141227E+00    0.1209726966E+00    0.3419017601E+00
    0.1900000000E+06    0.1449230259E-02    0.2372462527E-02    0.6960160818E+00    0.1172060632E+00    0.3551254295E+00
    0.2100000000E+06    0.1309999715E-02    0.2153722044E-02    0.6960176685E+00    0.1136198316E+00    0.3671401366E+00
    0.2300000000E+06    0.1191003361E-02    0.1965845562E-02    0.6960189798E+00    0.1102163548E+00    0.3781311338E+00
    0.2500000000E+06    0.1088342747E-02    0.1803024938E-02    0.6960200816E+00    0.1069910065E+00    0.3882430162E+00
    0.2700000000E+06    0.9990412211E-03    0.1660797833E-02    0.6960210206E+00    0.1039357571E+00    0.3975911935E+00
    0.2900000000E+06    0.9207896361E-03    0.1535683339E-02    0.6960218304E+00    0.1010410850E+00    0.4062694908E+00
    0.3100000000E+06    0.8517710585E-03    0.1424928732E-02    0.6960225358E+00    0.9829701198E-01    0.4143553693E+00
    0.3300000000E+06    0.7905375449E-03    0.1326330186E-02    0.6960231560E+00    0.9569366217E-01    0.4219136215E+00
    0.3500000000E+06    0.7359219309E-03    0.1238103644E-02    0.6960237054E+00    0.9322155625E-01    0.4289990550E+00
    0.3700000000E+06    0.6869736207E-03    0.1158790311E-02    0.6960241955E+00    0.9087175544E-01    0.4356584850E+00
    0.3900000000E+06    0.6429111265E-03    0.1087186444E-02    0.6960246354E+00    0.8863592004E-01    0.4419322427E+00
    0.4100000000E+06    0.6030864935E-03    0.1022290494E-02    0.6960250326E+00    0.8650631964E-01    0.4478553366E+00
    0.4300000000E+06    0.5669582915E-03    0.9632628041E-03    0.6960253928E+00    0.8447581646E-01    0.4534583597E+00
    0.4500000000E+06    0.5340708674E-03    0.9093945298E-03    0.6960257211E+00    0.8253783452E-01    0.4587682074E+00
    0.4700000000E+06    0.5040382339E-03    0.8600834177E-03    0.6960260215E+00    0.8068632210E-01    0.4638086534E+00
    0.4900000000E+06    0.4765314344E-03    0.8148147441E-03    0.6960262974E+00    0.7891571192E-01    0.4686008159E+00
    0.1000000000E+06    0.2520988237E-02    0.4023573389E-02    0.6960011130E+00    0.1350045741E+00    0.2816192065E+00
    0.3000000000E+06    0.8852241932E-03    0.1478659941E-02    0.6960221948E+00    0.9965084765E-01    0.4103821714E+00
    0.5000000000E+06    0.4636355130E-03    0.7935556145E-03    0.6960264271E+00    0.7805912807E-01    0.4709097591E+00
    0.7000000000E+06    0.2873724680E-03    0.5002940081E-03    0.6960282436E+00    0.6413037775E-01    0.5077169028E+00
    0.9000000000E+06    0.1960803930E-03    0.3458675782E-03    0.6960292532E+00    0.5441398430E-01    0.5327275594E+00
    0.1100000000E+07    0.1424832501E-03    0.2540308883E-03    0.6960298954E+00    0.4724896386E-01    0.5509000677E+00
    0.1300000000E+07    0.1082732014E-03    0.1947922449E-03    0.6960303396E+00    0.4174613700E-01    0.5647254397E+00
    0.1500000000E+07    0.8508317350E-04    0.1542755774E-03    0.6960306648E+00    0.3738688627E-01    0.5756062150E+00
    0.1700000000E+07    0.6863013042E-04    0.1253055024E-03    0.6960309131E+00    0.3384822780E-01    0.5843965914E+00
    0.1900000000E+07    0.5653123846E-04    0.1038554011E-03    0.6960311087E+00    0.3091843651E-01    0.5916480048E+00
    0.2100000000E+07    0.4737307589E-04    0.8751873213E-04    0.6960312666E+00    0.2845289790E-01    0.5977329309E+00
    0.2300000000E+07    0.4027335120E-04    0.7478319007E-04    0.6960313967E+00    0.2634945118E-01    0.6029122875E+00
    0.2500000000E+07    0.3465787517E-04    0.6465863945E-04    0.6960315056E+00    0.2453386662E-01    0.6073744085E+00
    0.2700000000E+07    0.3013975947E-04    0.5647427261E-04    0.6960315980E+00    0.2295090644E-01    0.6112587009E+00
    0.2900000000E+07    0.2645053294E-04    0.4976226397E-04    0.6960316774E+00    0.2155861400E-01    0.6146705943E+00
    0.3100000000E+07    0.2339912892E-04    0.4418812825E-04    0.6960317463E+00    0.2032454765E-01    0.6176913141E+00
    0.3300000000E+07    0.2084655082E-04    0.3950748957E-04    0.6960318066E+00    0.1922322788E-01    0.6203844595E+00
    0.3500000000E+07    0.1868971659E-04    0.3553838850E-04    0.6960318598E+00    0.1823436467E-01    0.6228005438E+00
    0.3700000000E+07    0.1685086638E-04    0.3214304839E-04    0.6960319070E+00    0.1734160039E-01    0.6249801985E+00
    0.3900000000E+07    0.1527044558E-04    0.2921557604E-04    0.6960319491E+00    0.1653160123E-01    0.6269564784E+00
    0.4100000000E+07    0.1390221785E-04    0.2667348489E-04    0.6960319870E+00    0.1579338948E-01    0.6287565504E+00
    0.4300000000E+07    0.1270984357E-04    0.2445173936E-04    0.6960320211E+00    0.1511784524E-01    0.6304029491E+00
    0.4500000000E+07    0.1166444195E-04    0.2249849741E-04    0.6960320520E+00    0.1449732948E-01    0.6319145241E+00
    0.4700000000E+07    0.1074282618E-04    0.2077201894E-04    0.6960320802E+00    0.1392539524E-01    0.6333071640E+00
    0.4900000000E+07    0.9926207467E-05    0.1923838866E-04    0.6960321059E+00    0.1339656397E-01    0.6345943558E+00
    0.1000000000E+07    0.1660628027E-03    0.2945626425E-03    0.6960296064E+00    0.5057987185E-01    0.5424776182E+00
    0.3000000000E+07    0.2485478762E-04    0.4684996543E-04    0.6960317131E+00    0.2092353440E-01    0.6162255239E+00
    0.5000000000E+07    0.9552360543E-05    0.1853500541E-04    0.6960321179E+00    0.1314682078E-01    0.6352020762E+00
    0.7000000000E+07    0.5013600168E-05    0.9913977719E-05    0.6960322809E+00    0.9569151488E-02    0.6438971676E+00
    0.9000000000E+07    0.3081785680E-05    0.6178969751E-05    0.6960323643E+00    0.7515161618E-02    0.6488809803E+00
    0.1100000000E+08    0.2084926757E-05    0.4225499110E-05    0.6960324122E+00    0.6183388064E-02    0.6521097630E+00
    0.1300000000E+08    0.1504450592E-05    0.3075583251E-05    0.6960324413E+00    0.5250352845E-02    0.6543708238E+00
    0.1500000000E+08    0.1137107541E-05    0.2341260033E-05    0.6960324594E+00    0.4560552963E-02    0.6560420205E+00
    0.1700000000E+08    0.8900456361E-06    0.1843532838E-05    0.6960324705E+00    0.4029989833E-02    0.6573272493E+00
    0.1900000000E+08    0.7159638839E-06    0.1490447829E-05    0.6960324771E+00    0.3609321893E-02    0.6583461968E+00
    0.2100000000E+08    0.5887125955E-06    0.1230797175E-05    0.6960324806E+00    0.3267668981E-02    0.6591737307E+00
    0.2300000000E+08    0.4928829877E-06    0.1034210990E-05    0.6960324817E+00    0.2984720306E-02    0.6598590763E+00
    0.2500000000E+08    0.4189181468E-06    0.8817437191E-06    0.6960324813E+00    0.2746570956E-02    0.6604359243E+00
    0.2700000000E+08    0.3606358930E-06    0.7610753890E-06    0.6960324796E+00    0.2543382227E-02    0.6609281087E+00
