  Pressure (Pa) 22mC5-500 (mol/kg) 23mC5-500 (mol/kg) 24mC5-500 (mol/kg) 2mC6-500 (mol/kg) 3mC6-500 (mol/kg)
    0.1000000000E+01    0.3561591272E-05    0.6201979076E-05    0.6965251598E-01    0.4084971154E-04    0.2084248339E-04
    0.3000000000E+01    0.9257561143E-05    0.1613096407E-04    0.1740965586E+00    0.1082987558E-03    0.6251618764E-04
    0.5000000000E+01    0.1378252869E-04    0.2403364488E-04    0.2486757888E+00    0.1645719660E-03    0.1041749399E-03
    0.7000000000E+01    0.1761583844E-04    0.3074294231E-04    0.3045986605E+00    0.2146450011E-03    0.1458187889E-03
    0.9000000000E+01    0.2101393268E-04    0.3670362945E-04    0.3480882484E+00    0.2610758162E-03    0.1874477669E-03
    0.1100000000E+02    0.2412483481E-04    0.4217192921E-04    0.3828767122E+00    0.3052776364E-03    0.2290618972E-03
    0.1300000000E+02    0.2703908198E-04    0.4730422978E-04    0.4113382546E+00    0.3480747710E-03    0.2706611985E-03
    0.1500000000E+02    0.2981463592E-04    0.5220043032E-04    0.4350552625E+00    0.3899686447E-03    0.3122456865E-03
    0.1700000000E+02    0.3248999685E-04    0.5692673433E-04    0.4551230100E+00    0.4312745144E-03    0.3538153752E-03
    0.1900000000E+02    0.3509152621E-04    0.6152836244E-04    0.4723237085E+00    0.4721958369E-03    0.3953702771E-03
    0.2100000000E+02    0.3763773798E-04    0.6603699336E-04    0.4872309056E+00    0.5128666436E-03    0.4369104043E-03
    0.2300000000E+02    0.4014191732E-04    0.7047529858E-04    0.5002747168E+00    0.5533766368E-03    0.4784357680E-03
    0.2500000000E+02    0.4261377415E-04    0.7485980212E-04    0.5117840265E+00    0.5937865460E-03    0.5199463793E-03
    0.2700000000E+02    0.4506051857E-04    0.7920273781E-04    0.5220146163E+00    0.6341377897E-03    0.5614422485E-03
    0.2900000000E+02    0.4748757843E-04    0.8351328680E-04    0.5311684078E+00    0.6744587017E-03    0.6029233862E-03
    0.3100000000E+02    0.4989908899E-04    0.8779842076E-04    0.5394069313E+00    0.7147686271E-03    0.6443898024E-03
    0.3300000000E+02    0.5229823370E-04    0.9206348783E-04    0.5468609444E+00    0.7550806673E-03    0.6858415073E-03
    0.3500000000E+02    0.5468748567E-04    0.9631262718E-04    0.5536374280E+00    0.7954035474E-03    0.7272785107E-03
    0.3700000000E+02    0.5706878142E-04    0.1005490668E-03    0.5598247552E+00    0.8357429050E-03    0.7687008224E-03
    0.3900000000E+02    0.5944364776E-04    0.1047753407E-03    0.5654965694E+00    0.8761021900E-03    0.8101084523E-03
    0.4100000000E+02    0.6181329558E-04    0.1089934490E-03    0.5707147298E+00    0.9164832997E-03    0.8515014099E-03
    0.4300000000E+02    0.6417869005E-04    0.1132049775E-03    0.5755315787E+00    0.9568870304E-03    0.8928797049E-03
    0.4500000000E+02    0.6654060365E-04    0.1174111886E-03    0.5799917034E+00    0.9973134013E-03    0.9342433469E-03
    0.4700000000E+02    0.6889965674E-04    0.1216130892E-03    0.5841333215E+00    0.1037761889E-02    0.9755923453E-03
    0.4900000000E+02    0.7125634874E-04    0.1258114847E-03    0.5879893792E+00    0.1078231594E-02    0.1016926710E-02
    0.1000000000E+02    0.2259864811E-04    0.3948785984E-04    0.3663982877E+00    0.2833940212E-03    0.2082566868E-03
    0.3000000000E+02    0.4869505932E-04    0.8565866389E-04    0.5353932770E+00    0.6946140978E-03    0.6236584339E-03
    0.5000000000E+02    0.7243393840E-04    0.1279095746E-03    0.5898193971E+00    0.1098474052E-02    0.1037588407E-02
    0.7000000000E+02    0.9592589813E-04    0.1697880794E-03    0.6166927137E+00    0.1504107183E-02    0.1450056379E-02
    0.9000000000E+02    0.1193601071E-03    0.2115886799E-03    0.6327106015E+00    0.1910347545E-02    0.1861071707E-02
    0.1100000000E+03    0.1427446623E-03    0.2533124760E-03    0.6433457049E+00    0.2316254492E-02    0.2270643600E-02
    0.1300000000E+03    0.1660641068E-03    0.2949267641E-03    0.6509211794E+00    0.2721270839E-02    0.2678781169E-02
    0.1500000000E+03    0.1893028013E-03    0.3364014196E-03    0.6565914114E+00    0.3125065328E-02    0.3085493434E-02
    0.1700000000E+03    0.2124483519E-03    0.3777132965E-03    0.6609949183E+00    0.3527434301E-02    0.3490789334E-02
    0.1900000000E+03    0.2354914690E-03    0.4188453236E-03    0.6645135582E+00    0.3928248535E-02    0.3894677728E-02
    0.2100000000E+03    0.2584252902E-03    0.4597850178E-03    0.6673897155E+00    0.4327424089E-02    0.4297167395E-02
    0.2300000000E+03    0.2812447618E-03    0.5005232520E-03    0.6697846527E+00    0.4724905689E-02    0.4698267043E-02
    0.2500000000E+03    0.3039461672E-03    0.5410533507E-03    0.6718098281E+00    0.5120656862E-02    0.5097985300E-02
    0.2700000000E+03    0.3265267833E-03    0.5813704446E-03    0.6735447451E+00    0.5514653851E-02    0.5496330721E-02
    0.2900000000E+03    0.3489846328E-03    0.6214710110E-03    0.6750476382E+00    0.5906881727E-02    0.5893311790E-02
    0.3100000000E+03    0.3713183045E-03    0.6613525452E-03    0.6763621398E+00    0.6297331831E-02    0.6288936917E-02
    0.3300000000E+03    0.3935268226E-03    0.7010133205E-03    0.6775215870E+00    0.6686000048E-02    0.6683214440E-02
    0.3500000000E+03    0.4156095490E-03    0.7404522128E-03    0.6785518891E+00    0.7072885615E-02    0.7076152627E-02
    0.3700000000E+03    0.4375661109E-03    0.7796685692E-03    0.6794734871E+00    0.7457990269E-02    0.7467759676E-02
    0.3900000000E+03    0.4593963458E-03    0.8186621093E-03    0.6803027243E+00    0.7841317643E-02    0.7858043717E-02
    0.4100000000E+03    0.4811002589E-03    0.8574328493E-03    0.6810528239E+00    0.8222872822E-02    0.8247012811E-02
    0.4300000000E+03    0.5026779906E-03    0.8959810439E-03    0.6817345998E+00    0.8602662010E-02    0.8634674950E-02
    0.4500000000E+03    0.5241297908E-03    0.9343071403E-03    0.6823569815E+00    0.8980692277E-02    0.9021038060E-02
    0.4700000000E+03    0.5454559985E-03    0.9724117422E-03    0.6829274072E+00    0.9356971377E-02    0.9406110002E-02
    0.4900000000E+03    0.5666570258E-03    0.1010295582E-02    0.6834521228E+00    0.9731507592E-02    0.9789898571E-02
    0.1000000000E+03    0.1310594567E-03    0.2324621441E-03    0.6385158466E+00    0.2113384401E-02    0.2066037511E-02
    0.3000000000E+03    0.3601670608E-03    0.6414392810E-03    0.6757261521E+00    0.6102329348E-02    0.6091293323E-02
    0.5000000000E+03    0.5772107423E-03    0.1029154973E-02    0.6836990228E+00    0.9918124823E-02    0.9981314008E-02
    0.7000000000E+03    0.7818512580E-03    0.1394997013E-02    0.6871748470E+00    0.1356123745E-01    0.1374410174E-01
    0.9000000000E+03    0.9747034188E-03    0.1740050007E-02    0.6891215875E+00    0.1704109692E-01    0.1738701942E-01
    0.1100000000E+04    0.1156489932E-02    0.2065584807E-02    0.6903663931E+00    0.2036744108E-01    0.2091685408E-01
    0.1300000000E+04    0.1327920248E-02    0.2372847420E-02    0.6912309502E+00    0.2354949318E-01    0.2433987269E-01
    0.1500000000E+04    0.1489663610E-02    0.2663012635E-02    0.6918664223E+00    0.2659584037E-01    0.2766187148E-01
    0.1700000000E+04    0.1642343320E-02    0.2937174406E-02    0.6923532203E+00    0.2951444228E-01    0.3088821978E-01
    0.1900000000E+04    0.1786537212E-02    0.3196346859E-02    0.6927380625E+00    0.3231267061E-01    0.3402389896E-01
    0.2100000000E+04    0.1922780124E-02    0.3441468741E-02    0.6930499481E+00    0.3499735509E-01    0.3707353725E-01
    0.2300000000E+04    0.2051566980E-02    0.3673408851E-02    0.6933078303E+00    0.3757482882E-01    0.4004144078E-01
    0.2500000000E+04    0.2173355943E-02    0.3892971600E-02    0.6935246203E+00    0.4005097062E-01    0.4293162147E-01
    0.2700000000E+04    0.2288571446E-02    0.4100902322E-02    0.6937094168E+00    0.4243124388E-01    0.4574782201E-01
    0.2900000000E+04    0.2397607010E-02    0.4297892218E-02    0.6938688170E+00    0.4472073182E-01    0.4849353834E-01
    0.3100000000E+04    0.2500827843E-02    0.4484582909E-02    0.6940077205E+00    0.4692416953E-01    0.5117203988E-01
    0.3300000000E+04    0.2598573207E-02    0.4661570578E-02    0.6941298429E+00    0.4904597282E-01    0.5378638784E-01
    0.3500000000E+04    0.2691158576E-02    0.4829409742E-02    0.6942380526E+00    0.5109026441E-01    0.5633945175E-01
    0.3700000000E+04    0.2778877592E-02    0.4988616684E-02    0.6943345996E+00    0.5306089760E-01    0.5883392443E-01
    0.3900000000E+04    0.2862003844E-02    0.5139672557E-02    0.6944212735E+00    0.5496147776E-01    0.6127233554E-01
    0.4100000000E+04    0.2940792481E-02    0.5283026209E-02    0.6944995154E+00    0.5679538174E-01    0.6365706400E-01
    0.4300000000E+04    0.3015481680E-02    0.5419096749E-02    0.6945704990E+00    0.5856577559E-01    0.6599034914E-01
    0.4500000000E+04    0.3086293977E-02    0.5548275877E-02    0.6946351899E+00    0.6027563061E-01    0.6827430100E-01
    0.4700000000E+04    0.3153437481E-02    0.5670930008E-02    0.6946943895E+00    0.6192773802E-01    0.7051090962E-01
    0.4900000000E+04    0.3217106980E-02    0.5787402204E-02    0.6947487688E+00    0.6352472225E-01    0.7270205365E-01
    0.1000000000E+04    0.1066934744E-02    0.1905177886E-02    0.6898056499E+00    0.1872286738E-01    0.1916566886E-01
    0.3000000000E+04    0.2449922482E-02    0.4392486684E-02    0.6939405755E+00    0.4583292381E-01    0.4984099495E-01
    0.5000000000E+04    0.3247696455E-02    0.5843421333E-02    0.6947743313E+00    0.6430332074E-01    0.7378113498E-01
    0.7000000000E+04    0.3715759155E-02    0.6707405309E-02    0.6951324990E+00    0.7750999065E-01    0.9335910099E-01
    0.9000000000E+04    0.3986524774E-02    0.7218063887E-02    0.6953317441E+00    0.8728528244E-01    0.1099159615E+00
    0.1100000000E+05    0.4133972592E-02    0.7506383774E-02    0.6954586529E+00    0.9470670963E-01    0.1242719679E+00
    0.1300000000E+05    0.4201890027E-02    0.7650199101E-02    0.6955465752E+00    0.1004481043E+00    0.1369601422E+00
    0.1500000000E+05    0.4217384971E-02    0.7697903788E-02    0.6956110892E+00    0.1049518362E+00    0.1483438611E+00
    0.1700000000E+05    0.4197847353E-02    0.7680690168E-02    0.6956604482E+00    0.1085199759E+00    0.1586806732E+00
    0.1900000000E+05    0.4154755789E-02    0.7619254633E-02    0.6956994331E+00    0.1113656049E+00    0.1681590911E+00
    0.2100000000E+05    0.4095863128E-02    0.7527656053E-02    0.6957310050E+00    0.1136431884E+00    0.1769208839E+00
    0.2300000000E+05    0.4026503294E-02    0.7415628387E-02    0.6957570955E+00    0.1154673282E+00    0.1850751578E+00
    0.2500000000E+05    0.3950399991E-02    0.7290015425E-02    0.6957790190E+00    0.1169247653E+00    0.1927075690E+00
    0.2700000000E+05    0.3870182049E-02    0.7155687563E-02    0.6957977004E+00    0.1180823018E+00    0.1998865393E+00
    0.2900000000E+05    0.3787720233E-02    0.7016142711E-02    0.6958138099E+00    0.1189921710E+00    0.2066675612E+00
    0.3100000000E+05    0.3704352275E-02    0.6873909008E-02    0.6958278446E+00    0.1196957667E+00    0.2130962507E+00
    0.3300000000E+05    0.3621036139E-02    0.6730819995E-02    0.6958401815E+00    0.1202262849E+00    0.2192105562E+00
    0.3500000000E+05    0.3538456177E-02    0.6588205892E-02    0.6958511112E+00    0.1206106322E+00    0.2250423878E+00
    0.3700000000E+05    0.3457097782E-02    0.6447028584E-02    0.6958608617E+00    0.1208708263E+00    0.2306188381E+00
    0.3900000000E+05    0.3377300563E-02    0.6307978163E-02    0.6958696142E+00    0.1210250399E+00    0.2359631104E+00
    0.4100000000E+05    0.3299296674E-02    0.6171542810E-02    0.6958775145E+00    0.1210883898E+00    0.2410952353E+00
    0.4300000000E+05    0.3223238725E-02    0.6038059911E-02    0.6958846816E+00    0.1210735397E+00    0.2460326294E+00
    0.4500000000E+05    0.3149220295E-02    0.5907753804E-02    0.6958912129E+00    0.1209911668E+00    0.2507905368E+00
    0.4700000000E+05    0.3077291122E-02    0.5780763881E-02    0.6958971896E+00    0.1208503270E+00    0.2553823808E+00
    0.4900000000E+05    0.3007468435E-02    0.5657165669E-02    0.6959026795E+00    0.1206587424E+00    0.2598200477E+00
    0.1000000000E+05    0.4072421786E-02    0.7384261322E-02    0.6954015316E+00    0.9124121656E-01    0.1173307622E+00
    0.3000000000E+05    0.3746082177E-02    0.6945233661E-02    0.6958210607E+00    0.1193675114E+00    0.2099234175E+00
    0.5000000000E+05    0.2973345655E-02    0.5596648592E-02    0.6959052601E+00    0.1205460265E+00    0.2619844164E+00
    0.7000000000E+05    0.2393009391E-02    0.4556783538E-02    0.6959414190E+00    0.1168198464E+00    0.2992302370E+00
    0.9000000000E+05    0.1968748891E-02    0.3784441322E-02    0.6959615390E+00    0.1119100866E+00    0.3283774685E+00
    0.1100000000E+06    0.1651379911E-02    0.3199824383E-02    0.6959743597E+00    0.1068446996E+00    0.3522882190E+00
    0.1300000000E+06    0.1407632690E-02    0.2746509525E-02    0.6959832459E+00    0.1019620909E+00    0.3724882023E+00
    0.1500000000E+06    0.1215986997E-02    0.2387196342E-02    0.6959897693E+00    0.9737394197E-01    0.3899031606E+00
    0.1700000000E+06    0.1062263816E-02    0.2096948042E-02    0.6959947624E+00    0.9310703480E-01    0.4051440831E+00
    0.1900000000E+06    0.9368490126E-03    0.1858667200E-02    0.6959987078E+00    0.8915456861E-01    0.4186386416E+00
    0.2100000000E+06    0.8330356440E-03    0.1660317650E-02    0.6960019042E+00    0.8549675347E-01    0.4306994343E+00
    0.2300000000E+06    0.7460226274E-03    0.1493216584E-02    0.6960045467E+00    0.8210959617E-01    0.4415626483E+00
    0.2500000000E+06    0.6722938464E-03    0.1350961926E-02    0.6960067679E+00    0.7896873983E-01    0.4514114690E+00
    0.2700000000E+06    0.6092220185E-03    0.1228741048E-02    0.6960086614E+00    0.7605110628E-01    0.4603910168E+00
    0.2900000000E+06    0.5548089622E-03    0.1122873703E-02    0.6960102946E+00    0.7333552644E-01    0.4686182883E+00
    0.3100000000E+06    0.5075109708E-03    0.1030502506E-02    0.6960117179E+00    0.7080289886E-01    0.4761890071E+00
    0.3300000000E+06    0.4661187089E-03    0.9493786966E-03    0.6960129694E+00    0.6843613153E-01    0.4831824837E+00
    0.3500000000E+06    0.4296729002E-03    0.8777108909E-03    0.6960140785E+00    0.6621999122E-01    0.4896651484E+00
    0.3700000000E+06    0.3974040400E-03    0.8140563713E-03    0.6960150681E+00    0.6414092070E-01    0.4956931757E+00
    0.3900000000E+06    0.3686885614E-03    0.7572416716E-03    0.6960159567E+00    0.6218685324E-01    0.5013144682E+00
    0.4100000000E+06    0.3430164820E-03    0.7063037034E-03    0.6960167589E+00    0.6034703771E-01    0.5065701818E+00
    0.4300000000E+06    0.3199671926E-03    0.6604455206E-03    0.6960174868E+00    0.5861187990E-01    0.5114959142E+00
    0.4500000000E+06    0.2991911130E-03    0.6190026739E-03    0.6960181503E+00    0.5697280147E-01    0.5161226429E+00
    0.4700000000E+06    0.2803956313E-03    0.5814173300E-03    0.6960187575E+00    0.5542211597E-01    0.5204774737E+00
    0.4900000000E+06    0.2633342132E-03    0.5472181576E-03    0.6960193154E+00    0.5395292076E-01    0.5245842449E+00
    0.1000000000E+06    0.1799121222E-02    0.3472733954E-02    0.6959685885E+00    0.1093675640E+00    0.3408728348E+00
    0.3000000000E+06    0.5303528752E-03    0.1075153878E-02    0.6960110299E+00    0.7204745746E-01    0.4724804219E+00
    0.5000000000E+06    0.2553872006E-03    0.5312607929E-03    0.6960195777E+00    0.5324691583E-01    0.5265512867E+00
    0.7000000000E+06    0.1504152928E-03    0.3185004799E-03    0.6960232546E+00    0.4218505159E-01    0.5568871823E+00
    0.9000000000E+06    0.9915067688E-04    0.2128140541E-03    0.6960253020E+00    0.3491068475E-01    0.5764141155E+00
    0.1100000000E+07    0.7027802149E-04    0.1525040648E-03    0.6960266065E+00    0.2976526673E-01    0.5900598297E+00
    0.1300000000E+07    0.5241188429E-04    0.1147829543E-03    0.6960275102E+00    0.2593454647E-01    0.6001403249E+00
    0.1500000000E+07    0.4058888885E-04    0.8959390117E-04    0.6960281728E+00    0.2297235119E-01    0.6078934594E+00
    0.1700000000E+07    0.3236030828E-04    0.7192486196E-04    0.6960286793E+00    0.2061378688E-01    0.6140424326E+00
    0.1900000000E+07    0.2640363339E-04    0.5904553737E-04    0.6960290787E+00    0.1869168328E-01    0.6190385526E+00
    0.2100000000E+07    0.2195331150E-04    0.4936356306E-04    0.6960294016E+00    0.1709534513E-01    0.6231782040E+00
    0.2300000000E+07    0.1854114062E-04    0.4189857711E-04    0.6960296680E+00    0.1574856733E-01    0.6266641385E+00
    0.2500000000E+07    0.1586767090E-04    0.3601981181E-04    0.6960298912E+00    0.1459717684E-01    0.6296397715E+00
    0.2700000000E+07    0.1373413103E-04    0.3130629614E-04    0.6960300809E+00    0.1360160991E-01    0.6322094208E+00
    0.2900000000E+07    0.1200437327E-04    0.2746825328E-04    0.6960302441E+00    0.1273230025E-01    0.6344507851E+00
    0.3100000000E+07    0.1058260474E-04    0.2430086268E-04    0.6960303858E+00    0.1196671014E-01    0.6364229279E+00
    0.3300000000E+07    0.9399839643E-05    0.2165599404E-04    0.6960305099E+00    0.1128735996E-01    0.6381715491E+00
    0.3500000000E+07    0.8405376022E-05    0.1942434524E-04    0.6960306195E+00    0.1068048524E-01    0.6397325627E+00
    0.3700000000E+07    0.7561274693E-05    0.1752382384E-04    0.6960307168E+00    0.1013509996E-01    0.6411345829E+00
    0.3900000000E+07    0.6838689723E-05    0.1589179510E-04    0.6960308039E+00    0.9642329522E-02    0.6424006890E+00
    0.4100000000E+07    0.6215373353E-05    0.1447979186E-04    0.6960308821E+00    0.9194926995E-02    0.6435497019E+00
    0.4300000000E+07    0.5673944576E-05    0.1324983101E-04    0.6960309528E+00    0.8786916561E-02    0.6445971226E+00
    0.4500000000E+07    0.5200665494E-05    0.1217180176E-04    0.6960310169E+00    0.8413326672E-02    0.6455558336E+00
    0.4700000000E+07    0.4784562097E-05    0.1122158336E-04    0.6960310753E+00    0.8069987712E-02    0.6464366287E+00
    0.4900000000E+07    0.4416782990E-05    0.1037966815E-04    0.6960311286E+00    0.7753376671E-02    0.6472486201E+00
    0.1000000000E+07    0.8285620423E-04    0.1788637391E-03    0.6960260194E+00    0.3213476841E-01    0.5837916645E+00
    0.3000000000E+07    0.1125981200E-04    0.2581106581E-04    0.6960303173E+00    0.1233773314E-01    0.6354673881E+00
    0.5000000000E+07    0.4248710089E-05    0.9994232683E-05    0.6960311536E+00    0.7604139745E-02    0.6476312811E+00
    0.7000000000E+07    0.2224267824E-05    0.5309238692E-05    0.6960314942E+00    0.5486138441E-02    0.6530571869E+00
    0.9000000000E+07    0.1372582514E-05    0.3304992947E-05    0.6960316706E+00    0.4286799307E-02    0.6561261939E+00
    0.1100000000E+08    0.9355670555E-06    0.2263908104E-05    0.6960317733E+00    0.3515581352E-02    0.6580987247E+00
    0.1300000000E+08    0.6817393959E-06    0.1653485595E-05    0.6960318368E+00    0.2978255045E-02    0.6594727605E+00
    0.1500000000E+08    0.5212207926E-06    0.1264550417E-05    0.6960318774E+00    0.2582580401E-02    0.6604845105E+00
    0.1700000000E+08    0.4132025684E-06    0.1001229849E-05    0.6960319035E+00    0.2279153092E-02    0.6612603977E+00
    0.1900000000E+08    0.3369825146E-06    0.8145026700E-06    0.6960319198E+00    0.2039134217E-02    0.6618741850E+00
    0.2100000000E+08    0.2811487490E-06    0.6771632843E-06    0.6960319294E+00    0.1844562281E-02    0.6623717996E+00
    0.2300000000E+08    0.2389901476E-06    0.5731182350E-06    0.6960319341E+00    0.1683668897E-02    0.6627833269E+00
    0.2500000000E+08    0.2063498185E-06    0.4923474420E-06    0.6960319353E+00    0.1548422603E-02    0.6631292963E+00
    0.2700000000E+08    0.1805409534E-06    0.4283445602E-06    0.6960319339E+00    0.1433155380E-02    0.6634241948E+00
