  Pressure (Pa) 22mC5-500 (mol/kg) 23mC5-500 (mol/kg) 24mC5-500 (mol/kg) 2mC6-500 (mol/kg) 3mC6-500 (mol/kg)
    0.1000000000E+01    0.3086553800E-05    0.7170950579E-05    0.1741141439E+00    0.1547487684E-04    0.1042164372E-04
    0.3000000000E+01    0.7009638952E-05    0.1632440634E-04    0.3481481818E+00    0.3732367831E-04    0.3126179102E-04
    0.5000000000E+01    0.9951044256E-05    0.2323024430E-04    0.4351370486E+00    0.5578112920E-04    0.5209783963E-04
    0.7000000000E+01    0.1257025953E-04    0.2940683380E-04    0.4873222192E+00    0.7340352798E-04    0.7292982481E-04
    0.9000000000E+01    0.1505978301E-04    0.3529408181E-04    0.5221092910E+00    0.9081514520E-04    0.9375776034E-04
    0.1100000000E+02    0.1749139140E-04    0.4105463287E-04    0.5469558773E+00    0.1082015555E-03    0.1145816534E-03
    0.1300000000E+02    0.1989601082E-04    0.4675787346E-04    0.5655901825E+00    0.1256208750E-03    0.1354015086E-03
    0.1500000000E+02    0.2228825180E-04    0.5243619067E-04    0.5800832058E+00    0.1430889252E-03    0.1562173292E-03
    0.1700000000E+02    0.2467543386E-04    0.5810556117E-04    0.5916774507E+00    0.1606066634E-03    0.1770291178E-03
    0.1900000000E+02    0.2706134695E-04    0.6377408564E-04    0.6011635563E+00    0.1781699597E-03    0.1978368768E-03
    0.2100000000E+02    0.2944796992E-04    0.6944586432E-04    0.6090685926E+00    0.1957732786E-03    0.2186406080E-03
    0.2300000000E+02    0.3183631233E-04    0.7512288284E-04    0.6157574425E+00    0.2134110784E-03    0.2394403134E-03
    0.2500000000E+02    0.3422684986E-04    0.8080598015E-04    0.6214907294E+00    0.2310783087E-03    0.2602359947E-03
    0.2700000000E+02    0.3661975923E-04    0.8649536623E-04    0.6264595734E+00    0.2487705449E-03    0.2810276536E-03
    0.2900000000E+02    0.3901504922E-04    0.9219090783E-04    0.6308073123E+00    0.2664839796E-03    0.3018152918E-03
    0.3100000000E+02    0.4141263560E-04    0.9789228991E-04    0.6346435557E+00    0.2842153604E-03    0.3225989109E-03
    0.3300000000E+02    0.4381238473E-04    0.1035991081E-03    0.6380535548E+00    0.3019619156E-03    0.3433785123E-03
    0.3500000000E+02    0.4621413922E-04    0.1093109221E-03    0.6411046123E+00    0.3197212812E-03    0.3641540977E-03
    0.3700000000E+02    0.4861773303E-04    0.1150272860E-03    0.6438505702E+00    0.3374914366E-03    0.3849256686E-03
    0.3900000000E+02    0.5102300031E-04    0.1207477660E-03    0.6463350146E+00    0.3552706491E-03    0.4056932264E-03
    0.4100000000E+02    0.5342978043E-04    0.1264719491E-03    0.6485936065E+00    0.3730574271E-03    0.4264567727E-03
    0.4300000000E+02    0.5583792068E-04    0.1321994477E-03    0.6506558052E+00    0.3908504820E-03    0.4472163090E-03
    0.4500000000E+02    0.5824727762E-04    0.1379299015E-03    0.6525461597E+00    0.4086486957E-03    0.4679718367E-03
    0.4700000000E+02    0.6065771753E-04    0.1436629773E-03    0.6542852912E+00    0.4264510943E-03    0.4887233573E-03
    0.4900000000E+02    0.6306911635E-04    0.1493983677E-03    0.6558906486E+00    0.4442568265E-03    0.5094708723E-03
    0.1000000000E+02    0.1628034269E-04    0.3818460508E-04    0.5354883496E+00    0.9950633478E-04    0.1041702119E-03
    0.3000000000E+02    0.4021356292E-04    0.9504089276E-04    0.6327835584E+00    0.2753476103E-03    0.3122076037E-03
    0.5000000000E+02    0.6427513914E-04    0.1522668417E-03    0.6566478945E+00    0.4531607054E-03    0.5198431282E-03
    0.7000000000E+02    0.8842250527E-04    0.2097006125E-03    0.6674362257E+00    0.6312728221E-03    0.7270783047E-03
    0.9000000000E+02    0.1125791508E-03    0.2671558273E-03    0.6735846204E+00    0.8092379939E-03    0.9339145752E-03
    0.1100000000E+03    0.1367089813E-03    0.3245466630E-03    0.6775567163E+00    0.9868996706E-03    0.1140353362E-02
    0.1300000000E+03    0.1607933078E-03    0.3818291975E-03    0.6803342768E+00    0.1164189741E-02    0.1346396077E-02
    0.1500000000E+03    0.1848215336E-03    0.4389787180E-03    0.6823857323E+00    0.1341074349E-02    0.1552044120E-02
    0.1700000000E+03    0.2087872261E-03    0.4959803128E-03    0.6839629018E+00    0.1517535177E-02    0.1757298888E-02
    0.1900000000E+03    0.2326862820E-03    0.5528245170E-03    0.6852132258E+00    0.1693561799E-02    0.1962161767E-02
    0.2100000000E+03    0.2565159887E-03    0.6095051030E-03    0.6862287694E+00    0.1869148137E-02    0.2166634137E-02
    0.2300000000E+03    0.2802745093E-03    0.6660178736E-03    0.6870699882E+00    0.2044290679E-02    0.2370717371E-02
    0.2500000000E+03    0.3039605828E-03    0.7223599614E-03    0.6877782220E+00    0.2218987497E-02    0.2574412835E-02
    0.2700000000E+03    0.3275733397E-03    0.7785294018E-03    0.6883826966E+00    0.2393237691E-02    0.2777721889E-02
    0.2900000000E+03    0.3511121859E-03    0.8345248621E-03    0.6889046585E+00    0.2567041045E-02    0.2980645885E-02
    0.3100000000E+03    0.3745767249E-03    0.8903454632E-03    0.6893599240E+00    0.2740397816E-02    0.3183186170E-02
    0.3300000000E+03    0.3979667060E-03    0.9459906590E-03    0.6897605096E+00    0.2913308593E-02    0.3385344084E-02
    0.3500000000E+03    0.4212819874E-03    0.1001460152E-02    0.6901157089E+00    0.3085774205E-02    0.3587120959E-02
    0.3700000000E+03    0.4445225103E-03    0.1056753835E-02    0.6904328220E+00    0.3257795655E-02    0.3788518122E-02
    0.3900000000E+03    0.4676882802E-03    0.1111871744E-02    0.6907176633E+00    0.3429374078E-02    0.3989536894E-02
    0.4100000000E+03    0.4907793524E-03    0.1166814031E-02    0.6909749210E+00    0.3600510703E-02    0.4190178589E-02
    0.4300000000E+03    0.5137958223E-03    0.1221580938E-02    0.6912084168E+00    0.3771206836E-02    0.4390444515E-02
    0.4500000000E+03    0.5367378166E-03    0.1276172778E-02    0.6914212979E+00    0.3941463837E-02    0.4590335973E-02
    0.4700000000E+03    0.5596054876E-03    0.1330589921E-02    0.6916161790E+00    0.4111283111E-02    0.4789854257E-02
    0.4900000000E+03    0.5823990082E-03    0.1384832784E-02    0.6917952507E+00    0.4280666093E-02    0.4989000659E-02
    0.1000000000E+03    0.1246488454E-03    0.2958626559E-03    0.6757634739E+00    0.8981121839E-03    0.1037183566E-02
    0.3000000000E+03    0.3628537624E-03    0.8624570608E-03    0.6891398029E+00    0.2653775223E-02    0.3081963908E-02
    0.5000000000E+03    0.5937680208E-03    0.1411889002E-02    0.6918794472E+00    0.4365194431E-02    0.5088434804E-02
    0.7000000000E+03    0.8173080938E-03    0.1943989051E-02    0.6930604225E+00    0.6033221670E-02    0.7057904512E-02
    0.9000000000E+03    0.1033703331E-02    0.2459300303E-02    0.6937183367E+00    0.7659352439E-02    0.8991620273E-02
    0.1100000000E+04    0.1243214764E-02    0.2958435633E-02    0.6941377004E+00    0.9245080839E-02    0.1089077195E-01
    0.1300000000E+04    0.1446102583E-02    0.3442004555E-02    0.6944283511E+00    0.1079184676E-01    0.1275649533E-01
    0.1500000000E+04    0.1642618807E-02    0.3910596930E-02    0.6946416665E+00    0.1230102801E-01    0.1458987520E-01
    0.1700000000E+04    0.1833005315E-02    0.4364778660E-02    0.6948048903E+00    0.1377394065E-01    0.1639194819E-01
    0.1900000000E+04    0.2017493438E-02    0.4805090894E-02    0.6949338142E+00    0.1521184126E-01    0.1816370547E-01
    0.2100000000E+04    0.2196304116E-02    0.5232050442E-02    0.6950382229E+00    0.1661592978E-01    0.1990609520E-01
    0.2300000000E+04    0.2369648261E-02    0.5646150660E-02    0.6951245025E+00    0.1798735245E-01    0.2162002490E-01
    0.2500000000E+04    0.2537727197E-02    0.6047862499E-02    0.6951969981E+00    0.1932720462E-01    0.2330636360E-01
    0.2700000000E+04    0.2700733121E-02    0.6437635594E-02    0.6952587690E+00    0.2063653350E-01    0.2496594391E-01
    0.2900000000E+04    0.2858849571E-02    0.6815899352E-02    0.6953120315E+00    0.2191634068E-01    0.2659956388E-01
    0.3100000000E+04    0.3012251869E-02    0.7183064000E-02    0.6953584304E+00    0.2316758463E-01    0.2820798884E-01
    0.3300000000E+04    0.3161107550E-02    0.7539521587E-02    0.6953992123E+00    0.2439118288E-01    0.2979195306E-01
    0.3500000000E+04    0.3305576771E-02    0.7885646935E-02    0.6954353392E+00    0.2558801425E-01    0.3135216133E-01
    0.3700000000E+04    0.3445812695E-02    0.8221798537E-02    0.6954675652E+00    0.2675892079E-01    0.3288929044E-01
    0.3900000000E+04    0.3581961854E-02    0.8548319407E-02    0.6954964898E+00    0.2790470971E-01    0.3440399056E-01
    0.4100000000E+04    0.3714164494E-02    0.8865537881E-02    0.6955225957E+00    0.2902615514E-01    0.3589688658E-01
    0.4300000000E+04    0.3842554893E-02    0.9173768368E-02    0.6955462759E+00    0.3012399979E-01    0.3736857933E-01
    0.4500000000E+04    0.3967261672E-02    0.9473312060E-02    0.6955678535E+00    0.3119895654E-01    0.3881964672E-01
    0.4700000000E+04    0.4088408075E-02    0.9764457599E-02    0.6955875967E+00    0.3225170990E-01    0.4025064488E-01
    0.4900000000E+04    0.4206112241E-02    0.1004748171E-01    0.6956057299E+00    0.3328291741E-01    0.4166210915E-01
    0.1000000000E+04    0.1139303113E-02    0.2710851498E-02    0.6939489193E+00    0.8457175512E-02    0.9945444406E-02
    0.3000000000E+04    0.2936129340E-02    0.7000844147E-02    0.6953360032E+00    0.2254547478E-01    0.2740687913E-01
    0.5000000000E+04    0.4263709071E-02    0.1018603159E-01    0.6956142531E+00    0.3379063990E-01    0.4236067792E-01
    0.7000000000E+04    0.5260138925E-02    0.1258973138E-01    0.6957336206E+00    0.4295523100E-01    0.5542235976E-01
    0.9000000000E+04    0.6016313249E-02    0.1442502261E-01    0.6957999761E+00    0.5055182121E-01    0.6701458421E-01
    0.1100000000E+05    0.6594138090E-02    0.1583723750E-01    0.6958422214E+00    0.5693744458E-01    0.7743788269E-01
    0.1300000000E+05    0.7037017880E-02    0.1692843069E-01    0.6958714789E+00    0.6236834372E-01    0.8691228213E-01
    0.1500000000E+05    0.7376143119E-02    0.1777205885E-01    0.6958929413E+00    0.6703315746E-01    0.9560291974E-01
    0.1700000000E+05    0.7634404834E-02    0.1842212569E-01    0.6959093582E+00    0.7107382659E-01    0.1036364134E+00
    0.1900000000E+05    0.7828912071E-02    0.1891906758E-01    0.6959223223E+00    0.7459920394E-01    0.1111116685E+00
    0.2100000000E+05    0.7972657290E-02    0.1929364998E-01    0.6959328195E+00    0.7769417169E-01    0.1181072143E+00
    0.2300000000E+05    0.8075645597E-02    0.1956961165E-01    0.6959414929E+00    0.8042590367E-01    0.1246863095E+00
    0.2500000000E+05    0.8145677290E-02    0.1976549865E-01    0.6959487801E+00    0.8284826278E-01    0.1309005716E+00
    0.2700000000E+05    0.8188900754E-02    0.1989596124E-01    0.6959549889E+00    0.8500495016E-01    0.1367926090E+00
    0.2900000000E+05    0.8210209914E-02    0.1997268710E-01    0.6959603423E+00    0.8693180045E-01    0.1423979611E+00
    0.3100000000E+05    0.8213534433E-02    0.2000508332E-01    0.6959650057E+00    0.8865848149E-01    0.1477465529E+00
    0.3300000000E+05    0.8202054597E-02    0.2000078197E-01    0.6959691046E+00    0.9020977116E-01    0.1528637991E+00
    0.3500000000E+05    0.8178362482E-02    0.1996601966E-01    0.6959727356E+00    0.9160652914E-01    0.1577714542E+00
    0.3700000000E+05    0.8144584246E-02    0.1990592588E-01    0.6959759746E+00    0.9286644551E-01    0.1624882748E+00
    0.3900000000E+05    0.8102473917E-02    0.1982474435E-01    0.6959788818E+00    0.9400462358E-01    0.1670305400E+00
    0.4100000000E+05    0.8053486035E-02    0.1972600472E-01    0.6959815058E+00    0.9503403849E-01    0.1714124659E+00
    0.4300000000E+05    0.7998832416E-02    0.1961265683E-01    0.6959838860E+00    0.9596590125E-01    0.1756465377E+00
    0.4500000000E+05    0.7939526893E-02    0.1948717672E-01    0.6959860549E+00    0.9680995035E-01    0.1797437784E+00
    0.4700000000E+05    0.7876420835E-02    0.1935165091E-01    0.6959880395E+00    0.9757468719E-01    0.1837139678E+00
    0.4900000000E+05    0.7810231573E-02    0.1920784386E-01    0.6959898623E+00    0.9826756753E-01    0.1875658228E+00
    0.1000000000E+05    0.6324461450E-02    0.1517682844E-01    0.6958232089E+00    0.5387809164E-01    0.7235706808E-01
    0.3000000000E+05    0.8213906031E-02    0.1999391277E-01    0.6959627516E+00    0.8781851155E-01    0.1451026690E+00
    0.5000000000E+05    0.7776173978E-02    0.1913331182E-01    0.6959907191E+00    0.9858914472E-01    0.1894498454E+00
    0.7000000000E+05    0.7038688480E-02    0.1747064229E-01    0.6960027210E+00    0.1024925945E+00    0.2224443264E+00
    0.9000000000E+05    0.6320397933E-02    0.1580408228E-01    0.6960093957E+00    0.1035085571E+00    0.2490850828E+00
    0.1100000000E+06    0.5681882994E-02    0.1429900385E-01    0.6960136471E+00    0.1030981331E+00    0.2715505683E+00
    0.1300000000E+06    0.5127428047E-02    0.1297733126E-01    0.6960165926E+00    0.1019229549E+00    0.2910088789E+00
    0.1500000000E+06    0.4648091456E-02    0.1182455491E-01    0.6960187541E+00    0.1003230768E+00    0.3081714971E+00
    0.1700000000E+06    0.4232809936E-02    0.1081840171E-01    0.6960204081E+00    0.9848833022E-01    0.3235104380E+00
    0.1900000000E+06    0.3871387664E-02    0.9937107821E-02    0.6960217147E+00    0.9653078361E-01    0.3373584354E+00
    0.2100000000E+06    0.3555157826E-02    0.9161621682E-02    0.6960227729E+00    0.9451915251E-01    0.3499608268E+00
    0.2300000000E+06    0.3276955355E-02    0.8475895572E-02    0.6960236476E+00    0.9249660736E-01    0.3615048500E+00
    0.2500000000E+06    0.3030907448E-02    0.7866597123E-02    0.6960243826E+00    0.9049061741E-01    0.3721373319E+00
    0.2700000000E+06    0.2812202587E-02    0.7322687470E-02    0.6960250090E+00    0.8851868215E-01    0.3819759554E+00
    0.2900000000E+06    0.2616885751E-02    0.6835013855E-02    0.6960255492E+00    0.8659181021E-01    0.3911167525E+00
    0.3100000000E+06    0.2441689615E-02    0.6395959131E-02    0.6960260199E+00    0.8471670364E-01    0.3996392720E+00
    0.3300000000E+06    0.2283899439E-02    0.5999153629E-02    0.6960264337E+00    0.8289716810E-01    0.4076102509E+00
    0.3500000000E+06    0.2141246098E-02    0.5639242790E-02    0.6960268004E+00    0.8113504419E-01    0.4150862912E+00
    0.3700000000E+06    0.2011821649E-02    0.5311701136E-02    0.6960271275E+00    0.7943083446E-01    0.4221158554E+00
    0.3900000000E+06    0.1894012559E-02    0.5012683532E-02    0.6960274211E+00    0.7778413199E-01    0.4287407819E+00
    0.4100000000E+06    0.1786446718E-02    0.4738906025E-02    0.6960276862E+00    0.7619391705E-01    0.4349974555E+00
    0.4300000000E+06    0.1687951161E-02    0.4487550039E-02    0.6960279266E+00    0.7465876446E-01    0.4409177253E+00
    0.4500000000E+06    0.1597518153E-02    0.4256184997E-02    0.6960281458E+00    0.7317698954E-01    0.4465296334E+00
    0.4700000000E+06    0.1514277827E-02    0.4042705494E-02    0.6960283463E+00    0.7174675132E-01    0.4518580004E+00
    0.4900000000E+06    0.1437475970E-02    0.3845280035E-02    0.6960285306E+00    0.7036612563E-01    0.4569249009E+00
    0.1000000000E+06    0.5990351030E-02    0.1502852552E-01    0.6960117335E+00    0.1034295508E+00    0.2607521133E+00
    0.3000000000E+06    0.2526953841E-02    0.6609833501E-02    0.6960257924E+00    0.8564749325E-01    0.3954508610E+00
    0.5000000000E+06    0.1401280868E-02    0.3752079618E-02    0.6960286172E+00    0.6969380648E-01    0.4593665461E+00
    0.7000000000E+06    0.8937220234E-03    0.2432937872E-02    0.6960298306E+00    0.5839350130E-01    0.4983123781E+00
    0.9000000000E+06    0.6204092896E-03    0.1710770192E-02    0.6960305055E+00    0.5014845347E-01    0.5247936229E+00
    0.1100000000E+07    0.4560607425E-03    0.1270910131E-02    0.6960309353E+00    0.4390383602E-01    0.5440393357E+00
    0.1300000000E+07    0.3494400524E-03    0.9825366331E-03    0.6960312328E+00    0.3902186501E-01    0.5586824641E+00
    0.1500000000E+07    0.2763081033E-03    0.7829675491E-03    0.6960314508E+00    0.3510499087E-01    0.5702070577E+00
    0.1700000000E+07    0.2239561121E-03    0.6389936835E-03    0.6960316175E+00    0.3189494883E-01    0.5795174646E+00
    0.1900000000E+07    0.1851877649E-03    0.5316433911E-03    0.6960317488E+00    0.2921740317E-01    0.5871976765E+00
    0.2100000000E+07    0.1556761898E-03    0.4494217287E-03    0.6960318550E+00    0.2695068130E-01    0.5936422267E+00
    0.2300000000E+07    0.1326912795E-03    0.3850262928E-03    0.6960319426E+00    0.2500739510E-01    0.5991275106E+00
    0.2500000000E+07    0.1144407248E-03    0.3336337399E-03    0.6960320161E+00    0.2332321111E-01    0.6038530433E+00
    0.2700000000E+07    0.9970810335E-04    0.2919523567E-03    0.6960320785E+00    0.2184974386E-01    0.6079665109E+00
    0.2900000000E+07    0.8764415228E-04    0.2576723255E-03    0.6960321321E+00    0.2054991637E-01    0.6115796044E+00
    0.3100000000E+07    0.7764131283E-04    0.2291334867E-03    0.6960321787E+00    0.1939484675E-01    0.6147783719E+00
    0.3300000000E+07    0.6925560955E-04    0.2051174133E-03    0.6960322196E+00    0.1836170733E-01    0.6176301879E+00
    0.3500000000E+07    0.6215648992E-04    0.1847132845E-03    0.6960322557E+00    0.1743222028E-01    0.6201885626E+00
    0.3700000000E+07    0.5609374009E-04    0.1672290378E-03    0.6960322877E+00    0.1659157981E-01    0.6224965370E+00
    0.3900000000E+07    0.5087513927E-04    0.1521311200E-03    0.6960323164E+00    0.1582766642E-01    0.6245891255E+00
    0.4100000000E+07    0.4635104502E-04    0.1390027677E-03    0.6960323422E+00    0.1513046497E-01    0.6264951044E+00
    0.4300000000E+07    0.4240355628E-04    0.1275145746E-03    0.6960323655E+00    0.1449162761E-01    0.6282383428E+00
    0.4500000000E+07    0.3893876360E-04    0.1174033719E-03    0.6960323867E+00    0.1390414110E-01    0.6298388060E+00
    0.4700000000E+07    0.3588112052E-04    0.1084568421E-03    0.6960324059E+00    0.1336207072E-01    0.6313133223E+00
    0.4900000000E+07    0.3316929761E-04    0.1005021502E-03    0.6960324236E+00    0.1286036083E-01    0.6326761764E+00
    0.1000000000E+07    0.5287488291E-03    0.1466069123E-02    0.6960307419E+00    0.4682321552E-01    0.5351191564E+00
    0.3000000000E+07    0.8241598462E-04    0.2427699157E-03    0.6960321562E+00    0.1995583533E-01    0.6132261950E+00
    0.5000000000E+07    0.3192701289E-04    0.9685139010E-04    0.6960324318E+00    0.1262326229E-01    0.6333196146E+00
    0.7000000000E+07    0.1679992717E-04    0.5196981303E-04    0.6960325448E+00    0.9215373647E-02    0.6425254675E+00
    0.9000000000E+07    0.1033258635E-04    0.3243518792E-04    0.6960326040E+00    0.7249436862E-02    0.6478019130E+00
    0.1100000000E+08    0.6987253413E-05    0.2219177434E-04    0.6960326390E+00    0.5971160045E-02    0.6512203235E+00
    0.1300000000E+08    0.5036530582E-05    0.1615226780E-04    0.6960326612E+00    0.5073940140E-02    0.6536142493E+00
    0.1500000000E+08    0.3801051930E-05    0.1229145911E-04    0.6960326757E+00    0.4409744140E-02    0.6553837168E+00
    0.1700000000E+08    0.2969749100E-05    0.9672756857E-05    0.6960326855E+00    0.3898371233E-02    0.6567445779E+00
    0.1900000000E+08    0.2383901455E-05    0.7814202741E-05    0.6960326920E+00    0.3492608923E-02    0.6578235348E+00
    0.2100000000E+08    0.1955659233E-05    0.6447061461E-05    0.6960326964E+00    0.3162860863E-02    0.6586998436E+00
    0.2300000000E+08    0.1633211086E-05    0.5411798797E-05    0.6960326990E+00    0.2889635387E-02    0.6594256150E+00
    0.2500000000E+08    0.1384400844E-05    0.4608816893E-05    0.6960327005E+00    0.2659574340E-02    0.6600365149E+00
    0.2700000000E+08    0.1188416733E-05    0.3973309440E-05    0.6960327011E+00    0.2463217677E-02    0.6605577750E+00
