  Pressure (Pa) 22mC5-500 (mol/kg) 23mC5-500 (mol/kg) 24mC5-500 (mol/kg) 2mC6-500 (mol/kg) 3mC6-500 (mol/kg)
    0.1000000000E+01    0.2908153378E-05    0.1689738413E-05    0.2142828465E+00    0.2946077016E-04    0.1563211437E-04
    0.3000000000E+01    0.6406808948E-05    0.3734711652E-05    0.3978590012E+00    0.7010030296E-04    0.4688958908E-04
    0.5000000000E+01    0.9108930116E-05    0.5325594870E-05    0.4801261535E+00    0.1057305889E-03    0.7813821708E-04
    0.7000000000E+01    0.1160025070E-04    0.6798416899E-05    0.5268123114E+00    0.1405607321E-03    0.1093780528E-03
    0.9000000000E+01    0.1402078335E-04    0.8232607035E-05    0.5568969985E+00    0.1753458132E-03    0.1406091169E-03
    0.1100000000E+02    0.1641578823E-04    0.9653494066E-05    0.5778987591E+00    0.2102422952E-03    0.1718314209E-03
    0.1300000000E+02    0.1880239133E-04    0.1107049194E-04    0.5933915328E+00    0.2452699841E-03    0.2030449731E-03
    0.1500000000E+02    0.2118761736E-04    0.1248736269E-04    0.6052916270E+00    0.2804154045E-03    0.2342497800E-03
    0.1700000000E+02    0.2357440336E-04    0.1390561181E-04    0.6147189017E+00    0.3156588638E-03    0.2654458473E-03
    0.1900000000E+02    0.2596390084E-04    0.1532577620E-04    0.6223715962E+00    0.3509818010E-03    0.2966331805E-03
    0.2100000000E+02    0.2835644634E-04    0.1674796139E-04    0.6287076831E+00    0.3863684813E-03    0.3278117846E-03
    0.2300000000E+02    0.3075199970E-04    0.1817208088E-04    0.6340400286E+00    0.4218060301E-03    0.3589816644E-03
    0.2500000000E+02    0.3315035169E-04    0.1959796771E-04    0.6385896447E+00    0.4572840278E-03    0.3901428248E-03
    0.2700000000E+02    0.3555122519E-04    0.2102542752E-04    0.6425170941E+00    0.4927940480E-03    0.4212952703E-03
    0.2900000000E+02    0.3795432516E-04    0.2245426400E-04    0.6459418343E+00    0.5283292508E-03    0.4524390056E-03
    0.3100000000E+02    0.4035936295E-04    0.2388429049E-04    0.6489545806E+00    0.5638840506E-03    0.4835740351E-03
    0.3300000000E+02    0.4276606742E-04    0.2531533491E-04    0.6516254598E+00    0.5994538553E-03    0.5147003635E-03
    0.3500000000E+02    0.4517418946E-04    0.2674724119E-04    0.6540095382E+00    0.6350348627E-03    0.5458179952E-03
    0.3700000000E+02    0.4758350288E-04    0.2817986900E-04    0.6561506578E+00    0.6706239026E-03    0.5769269346E-03
    0.3900000000E+02    0.4999380375E-04    0.2961309275E-04    0.6580841581E+00    0.7062183133E-03    0.6080271863E-03
    0.4100000000E+02    0.5240490875E-04    0.3104680027E-04    0.6598388416E+00    0.7418158461E-03    0.6391187545E-03
    0.4300000000E+02    0.5481665340E-04    0.3248089141E-04    0.6614384187E+00    0.7774145892E-03    0.6702016438E-03
    0.4500000000E+02    0.5722889009E-04    0.3391527669E-04    0.6629025854E+00    0.8130129078E-03    0.7012758585E-03
    0.4700000000E+02    0.5964148626E-04    0.3534987607E-04    0.6642478382E+00    0.8486093962E-03    0.7323414030E-03
    0.4900000000E+02    0.6205432277E-04    0.3678461782E-04    0.6654880986E+00    0.8842028398E-03    0.7633982817E-03
    0.1000000000E+02    0.1522005312E-04    0.8943926594E-05    0.5682551629E+00    0.1927775284E-03    0.1562213634E-03
    0.3000000000E+02    0.3915661926E-04    0.2316913961E-04    0.6474949160E+00    0.5461045087E-03    0.4680076083E-03
    0.5000000000E+02    0.6326079719E-04    0.3750202171E-04    0.6660726243E+00    0.9019980846E-03    0.7789234727E-03
    0.7000000000E+02    0.8738185251E-04    0.5184500009E-04    0.6743652937E+00    0.1257548275E-02    0.1088973404E-02
    0.9000000000E+02    0.1114518440E-03    0.6615755545E-04    0.6790623274E+00    0.1612138859E-02    0.1398161738E-02
    0.1100000000E+03    0.1354424916E-03    0.8042309898E-04    0.6820856423E+00    0.1965569469E-02    0.1706492766E-02
    0.1300000000E+03    0.1593400943E-03    0.9463367023E-04    0.6841945683E+00    0.2317758475E-02    0.2013970743E-02
    0.1500000000E+03    0.1831373075E-03    0.1087850327E-03    0.6857494485E+00    0.2668668674E-02    0.2320599895E-02
    0.1700000000E+03    0.2068299406E-03    0.1228747848E-03    0.6869432699E+00    0.3018282578E-02    0.2626384416E-02
    0.1900000000E+03    0.2304155240E-03    0.1369015215E-03    0.6878887139E+00    0.3366592539E-02    0.2931328473E-02
    0.2100000000E+03    0.2538925979E-03    0.1508644192E-03    0.6886559913E+00    0.3713596264E-02    0.3235436202E-02
    0.2300000000E+03    0.2772603283E-03    0.1647630141E-03    0.6892911290E+00    0.4059294570E-02    0.3538711712E-02
    0.2500000000E+03    0.3005182877E-03    0.1785970749E-03    0.6898255566E+00    0.4403690172E-02    0.3841159084E-02
    0.2700000000E+03    0.3236663220E-03    0.1923665265E-03    0.6902814686E+00    0.4746786991E-02    0.4142782371E-02
    0.2900000000E+03    0.3467044663E-03    0.2060714015E-03    0.6906749840E+00    0.5088589741E-02    0.4443585599E-02
    0.3100000000E+03    0.3696328903E-03    0.2197118088E-03    0.6910180922E+00    0.5429103664E-02    0.4743572767E-02
    0.3300000000E+03    0.3924518612E-03    0.2332879129E-03    0.6913198958E+00    0.5768334361E-02    0.5042747847E-02
    0.3500000000E+03    0.4151617181E-03    0.2467999187E-03    0.6915874301E+00    0.6106287685E-02    0.5341114783E-02
    0.3700000000E+03    0.4377628537E-03    0.2602480612E-03    0.6918262185E+00    0.6442969658E-02    0.5638677495E-02
    0.3900000000E+03    0.4602557014E-03    0.2736325985E-03    0.6920406579E+00    0.6778386417E-02    0.5935439876E-02
    0.4100000000E+03    0.4826407253E-03    0.2869538059E-03    0.6922342920E+00    0.7112544182E-02    0.6231405791E-02
    0.4300000000E+03    0.5049184129E-03    0.3002119718E-03    0.6924100087E+00    0.7445449219E-02    0.6526579083E-02
    0.4500000000E+03    0.5270892703E-03    0.3134073947E-03    0.6925701849E+00    0.7777107827E-02    0.6820963566E-02
    0.4700000000E+03    0.5491538171E-03    0.3265403811E-03    0.6927167951E+00    0.8107526318E-02    0.7114563030E-02
    0.4900000000E+03    0.5711125835E-03    0.3396112428E-03    0.6928514927E+00    0.8436711006E-02    0.7407381242E-02
    0.1000000000E+03    0.1234581494E-03    0.7329682300E-04    0.6807218176E+00    0.1789005778E-02    0.1552434149E-02
    0.3000000000E+03    0.3581823785E-03    0.2128996544E-03    0.6908522137E+00    0.5259007463E-02    0.4593680942E-02
    0.5000000000E+03    0.5820524671E-03    0.3461234758E-03    0.6929148190E+00    0.8600842646E-02    0.7553498547E-02
    0.7000000000E+03    0.7954307875E-03    0.4731853204E-03    0.6938026295E+00    0.1182023450E-01    0.1043573070E-01
    0.9000000000E+03    0.9988629352E-03    0.5944051087E-03    0.6942968684E+00    0.1492332647E-01    0.1324397522E-01
    0.1100000000E+04    0.1192885130E-02    0.7100964986E-03    0.6946117655E+00    0.1791593654E-01    0.1598160369E-01
    0.1300000000E+04    0.1378004959E-02    0.8205562027E-03    0.6948299476E+00    0.2080352305E-01    0.1865177910E-01
    0.1500000000E+04    0.1554698937E-02    0.9260627199E-03    0.6949900409E+00    0.2359120081E-01    0.2125747190E-01
    0.1700000000E+04    0.1723413428E-02    0.1026876925E-02    0.6951125192E+00    0.2628376429E-01    0.2380147462E-01
    0.1900000000E+04    0.1884566388E-02    0.1123243111E-02    0.6952092461E+00    0.2888571099E-01    0.2628641507E-01
    0.2100000000E+04    0.2038549296E-02    0.1215390121E-02    0.6952875710E+00    0.3140126340E-01    0.2871476847E-01
    0.2300000000E+04    0.2185729034E-02    0.1303532453E-02    0.6953522893E+00    0.3383438935E-01    0.3108886848E-01
    0.2500000000E+04    0.2326449671E-02    0.1387871299E-02    0.6954066635E+00    0.3618882062E-01    0.3341091727E-01
    0.2700000000E+04    0.2461034123E-02    0.1468595518E-02    0.6954529901E+00    0.3846807012E-01    0.3568299479E-01
    0.2900000000E+04    0.2589785684E-02    0.1545882520E-02    0.6954929328E+00    0.4067544747E-01    0.3790706720E-01
    0.3100000000E+04    0.2712989433E-02    0.1619899098E-02    0.6955277262E+00    0.4281407344E-01    0.4008499466E-01
    0.3300000000E+04    0.2830913533E-02    0.1690802174E-02    0.6955583058E+00    0.4488689310E-01    0.4221853844E-01
    0.3500000000E+04    0.2943810424E-02    0.1758739501E-02    0.6955853934E+00    0.4689668791E-01    0.4430936751E-01
    0.3700000000E+04    0.3051917913E-02    0.1823850296E-02    0.6956095549E+00    0.4884608684E-01    0.4635906459E-01
    0.3900000000E+04    0.3155460188E-02    0.1886265830E-02    0.6956312402E+00    0.5073757661E-01    0.4836913169E-01
    0.4100000000E+04    0.3254648743E-02    0.1946109967E-02    0.6956508114E+00    0.5257351113E-01    0.5034099529E-01
    0.4300000000E+04    0.3349683234E-02    0.2003499664E-02    0.6956685634E+00    0.5435612014E-01    0.5227601106E-01
    0.4500000000E+04    0.3440752263E-02    0.2058545426E-02    0.6956847385E+00    0.5608751730E-01    0.5417546832E-01
    0.4700000000E+04    0.3528034113E-02    0.2111351736E-02    0.6956995379E+00    0.5776970753E-01    0.5604059404E-01
    0.4900000000E+04    0.3611697411E-02    0.2162017441E-02    0.6957131300E+00    0.5940459390E-01    0.5787255665E-01
    0.1000000000E+04    0.1097017825E-02    0.6529228815E-03    0.6944700248E+00    0.1643309229E-01    0.1462141408E-01
    0.3000000000E+04    0.2652063893E-02    0.1583289582E-02    0.6955109089E+00    0.4175316634E-01    0.3900168673E-01
    0.5000000000E+04    0.3652222315E-02    0.2186577004E-02    0.6957195186E+00    0.6020486656E-01    0.5877645179E-01
    0.7000000000E+04    0.4307283670E-02    0.2585646622E-02    0.6958089778E+00    0.7412116223E-01    0.7535790998E-01
    0.9000000000E+04    0.4738054735E-02    0.2851410376E-02    0.6958586949E+00    0.8489454003E-01    0.8961717588E-01
    0.1100000000E+05    0.5018055471E-02    0.3027134878E-02    0.6958903409E+00    0.9340575093E-01    0.1021231354E+00
    0.1300000000E+05    0.5194031984E-02    0.3140408021E-02    0.6959122539E+00    0.1002381841E+00    0.1132645687E+00
    0.1500000000E+05    0.5296776490E-02    0.3209457915E-02    0.6959283261E+00    0.1057930722E+00    0.1233172020E+00
    0.1700000000E+05    0.5347169135E-02    0.3246685784E-02    0.6959406182E+00    0.1103551227E+00    0.1324827040E+00
    0.1900000000E+05    0.5359713982E-02    0.3260736483E-02    0.6959503237E+00    0.1141317538E+00    0.1409124681E+00
    0.2100000000E+05    0.5344691561E-02    0.3257760853E-02    0.6959581815E+00    0.1172775187E+00    0.1487227072E+00
    0.2300000000E+05    0.5309513828E-02    0.3242211631E-02    0.6959646733E+00    0.1199098432E+00    0.1560043663E+00
    0.2500000000E+05    0.5259601967E-02    0.3217359980E-02    0.6959701269E+00    0.1221194734E+00    0.1628298260E+00
    0.2700000000E+05    0.5198969467E-02    0.3185639232E-02    0.6959747730E+00    0.1239775937E+00    0.1692575535E+00
    0.2900000000E+05    0.5130617994E-02    0.3148878725E-02    0.6959787785E+00    0.1255407880E+00    0.1753354034E+00
    0.3100000000E+05    0.5056811411E-02    0.3108466001E-02    0.6959822675E+00    0.1268545694E+00    0.1811030077E+00
    0.3300000000E+05    0.4979268736E-02    0.3065461271E-02    0.6959853338E+00    0.1279559358E+00    0.1865935372E+00
    0.3500000000E+05    0.4899302112E-02    0.3020679441E-02    0.6959880499E+00    0.1288752522E+00    0.1918350208E+00
    0.3700000000E+05    0.4817916815E-02    0.2974749724E-02    0.6959904725E+00    0.1296376565E+00    0.1968513484E+00
    0.3900000000E+05    0.4735884659E-02    0.2928159494E-02    0.6959926467E+00    0.1302641235E+00    0.2016630434E+00
    0.4100000000E+05    0.4653798474E-02    0.2881286920E-02    0.6959946090E+00    0.1307722810E+00    0.2062878640E+00
    0.4300000000E+05    0.4572112935E-02    0.2834425499E-02    0.6959963888E+00    0.1311770413E+00    0.2107412782E+00
    0.4500000000E+05    0.4491175468E-02    0.2787802669E-02    0.6959980105E+00    0.1314910966E+00    0.2150368408E+00
    0.4700000000E+05    0.4411249811E-02    0.2741594051E-02    0.6959994942E+00    0.1317253094E+00    0.2191864973E+00
    0.4900000000E+05    0.4332534134E-02    0.2695934436E-02    0.6960008569E+00    0.1318890247E+00    0.2232008295E+00
    0.1000000000E+05    0.4893510340E-02    0.2948528111E-02    0.6958760994E+00    0.8939115804E-01    0.9606176620E-01
    0.3000000000E+05    0.5094278219E-02    0.3129056046E-02    0.6959805811E+00    0.1262263682E+00    0.1782557789E+00
    0.5000000000E+05    0.4293677556E-02    0.2673343599E-02    0.6960014974E+00    0.1319470138E+00    0.2251602333E+00
    0.7000000000E+05    0.3598468582E-02    0.2264290906E-02    0.6960104662E+00    0.1308843313E+00    0.2590697560E+00
    0.9000000000E+05    0.3053782401E-02    0.1938326639E-02    0.6960154508E+00    0.1276861454E+00    0.2859428695E+00
    0.1100000000E+06    0.2627259714E-02    0.1679992197E-02    0.6960186237E+00    0.1237720339E+00    0.3082905105E+00
    0.1300000000E+06    0.2288150865E-02    0.1472637551E-02    0.6960208208E+00    0.1196779749E+00    0.3274329083E+00
    0.1500000000E+06    0.2013927317E-02    0.1303616406E-02    0.6960224323E+00    0.1156286383E+00    0.3441622664E+00
    0.1700000000E+06    0.1788659524E-02    0.1163809128E-02    0.6960236648E+00    0.1117213139E+00    0.3589974488E+00
    0.1900000000E+06    0.1601013478E-02    0.1046638896E-02    0.6960246379E+00    0.1079960255E+00    0.3723000321E+00
    0.2100000000E+06    0.1442789322E-02    0.9472980429E-03    0.6960254257E+00    0.1044655343E+00    0.3843338494E+00
    0.2300000000E+06    0.1307942469E-02    0.8622124072E-03    0.6960260766E+00    0.1011292692E+00    0.3952983407E+00
    0.2500000000E+06    0.1191935342E-02    0.7886794878E-03    0.6960266233E+00    0.9798018034E-01    0.4053485408E+00
    0.2700000000E+06    0.1091303878E-02    0.7246230689E-03    0.6960270891E+00    0.9500824894E-01    0.4146077175E+00
    0.2900000000E+06    0.1003362817E-02    0.6684246156E-03    0.6960274906E+00    0.9220232681E-01    0.4231757207E+00
    0.3100000000E+06    0.9260016802E-03    0.6188055295E-03    0.6960278403E+00    0.8955110721E-01    0.4311346996E+00
    0.3300000000E+06    0.8575409503E-03    0.5747435365E-03    0.6960281475E+00    0.8704362934E-01    0.4385531396E+00
    0.3500000000E+06    0.7966289428E-03    0.5354123469E-03    0.6960284197E+00    0.8466952738E-01    0.4454887861E+00
    0.3700000000E+06    0.7421666642E-03    0.5001374416E-03    0.6960286624E+00    0.8241913778E-01    0.4519908114E+00
    0.3900000000E+06    0.6932522503E-03    0.4683632110E-03    0.6960288802E+00    0.8028352820E-01    0.4581014502E+00
    0.4100000000E+06    0.6491393212E-03    0.4396282108E-03    0.6960290767E+00    0.7825448375E-01    0.4638572567E+00
    0.4300000000E+06    0.6092053743E-03    0.4135463003E-03    0.6960292550E+00    0.7632447092E-01    0.4692900844E+00
    0.4500000000E+06    0.5729275191E-03    0.3897921055E-03    0.6960294173E+00    0.7448659106E-01    0.4744278604E+00
    0.4700000000E+06    0.5398636497E-03    0.3680896966E-03    0.6960295658E+00    0.7273453011E-01    0.4792952046E+00
    0.4900000000E+06    0.5096376922E-03    0.3482036863E-03    0.6960297022E+00    0.7106250827E-01    0.4839139296E+00
    0.1000000000E+06    0.2827868762E-02    0.1801833305E-02    0.6960171958E+00    0.1257741987E+00    0.2975828652E+00
    0.3000000000E+06    0.9634734581E-03    0.6428617512E-03    0.6960276712E+00    0.9085807617E-01    0.4272267763E+00
    0.5000000000E+06    0.4954865414E-03    0.3388775895E-03    0.6960297663E+00    0.7025484003E-01    0.4861362109E+00
    0.7000000000E+06    0.3035095216E-03    0.2111823713E-03    0.6960306629E+00    0.5723292641E-01    0.5212856733E+00
    0.9000000000E+06    0.2053850274E-03    0.1448162992E-03    0.6960311597E+00    0.4827329102E-01    0.5448665750E+00
    0.1100000000E+07    0.1483325674E-03    0.1057266338E-03    0.6960314749E+00    0.4173177995E-01    0.5618420127E+00
    0.1300000000E+07    0.1121860624E-03    0.8069698180E-04    0.6960316924E+00    0.3674564572E-01    0.5746658201E+00
    0.1500000000E+07    0.8782639218E-04    0.6367697742E-04    0.6960318511E+00    0.3281910256E-01    0.5847024176E+00
    0.1700000000E+07    0.7062524358E-04    0.5156453101E-04    0.6960319720E+00    0.2964694028E-01    0.5927744753E+00
    0.1900000000E+07    0.5802569270E-04    0.4263101016E-04    0.6960320669E+00    0.2703094138E-01    0.5994087162E+00
    0.2100000000E+07    0.4851992096E-04    0.3584932732E-04    0.6960321434E+00    0.2483675342E-01    0.6049584841E+00
    0.2300000000E+07    0.4117138136E-04    0.3057725046E-04    0.6960322062E+00    0.2297007482E-01    0.6096698583E+00
    0.2500000000E+07    0.3537317281E-04    0.2639609157E-04    0.6960322586E+00    0.2136276139E-01    0.6137195779E+00
    0.2700000000E+07    0.3071787866E-04    0.2302324403E-04    0.6960323029E+00    0.1996434322E-01    0.6172379022E+00
    0.2900000000E+07    0.2692369912E-04    0.2026225591E-04    0.6960323409E+00    0.1873664287E-01    0.6203229712E+00
    0.3100000000E+07    0.2379065618E-04    0.1797307108E-04    0.6960323738E+00    0.1765024763E-01    0.6230501421E+00
    0.3300000000E+07    0.2117364119E-04    0.1605362528E-04    0.6960324024E+00    0.1668213093E-01    0.6254782452E+00
    0.3500000000E+07    0.1896528495E-04    0.1442809633E-04    0.6960324276E+00    0.1581400855E-01    0.6276538821E+00
    0.3700000000E+07    0.1708476010E-04    0.1303919109E-04    0.6960324499E+00    0.1503117778E-01    0.6296144488E+00
    0.3900000000E+07    0.1547027793E-04    0.1184295697E-04    0.6960324697E+00    0.1432168160E-01    0.6313903025E+00
    0.4100000000E+07    0.1407394888E-04    0.1080521467E-04    0.6960324874E+00    0.1367569653E-01    0.6330063444E+00
    0.4300000000E+07    0.1285819224E-04    0.9899057677E-05    0.6960325033E+00    0.1308507719E-01    0.6344831927E+00
    0.4500000000E+07    0.1179318321E-04    0.9103068371E-05    0.6960325177E+00    0.1254301284E-01    0.6358380660E+00
    0.4700000000E+07    0.1085500843E-04    0.8400025116E-05    0.6960325308E+00    0.1204376481E-01    0.6370854560E+00
    0.4900000000E+07    0.1002431373E-04    0.7775951630E-05    0.6960325426E+00    0.1158246368E-01    0.6382376473E+00
    0.1000000000E+07    0.1733740825E-03    0.1229391070E-03    0.6960313332E+00    0.4476590601E-01    0.5539911188E+00
    0.3000000000E+07    0.2528465397E-04    0.1906579528E-04    0.6960323579E+00    0.1817734884E-01    0.6217272876E+00
    0.5000000000E+07    0.9644217207E-05    0.7489870264E-05    0.6960325481E+00    0.1136471946E-01    0.6387813802E+00
    0.7000000000E+07    0.5040689417E-05    0.3991762193E-05    0.6960326215E+00    0.8253026223E-02    0.6465434124E+00
    0.9000000000E+07    0.3089010485E-05    0.2481958971E-05    0.6960326569E+00    0.6472968199E-02    0.6509776696E+00
    0.1100000000E+08    0.2084428398E-05    0.1694162408E-05    0.6960326757E+00    0.5321308701E-02    0.6538447184E+00
    0.1300000000E+08    0.1500518892E-05    0.1231186398E-05    0.6960326857E+00    0.4515633639E-02    0.6558498136E+00
    0.1500000000E+08    0.1131533728E-05    0.9359037039E-06    0.6960326908E+00    0.3920613739E-02    0.6573304291E+00
    0.1700000000E+08    0.8836666836E-06    0.7359603444E-06    0.6960326928E+00    0.3463310815E-02    0.6584682941E+00
    0.1900000000E+08    0.7092028180E-06    0.5942408830E-06    0.6960326927E+00    0.3100951095E-02    0.6593699205E+00
    0.2100000000E+08    0.5817952848E-06    0.4900998481E-06    0.6960326914E+00    0.2806798986E-02    0.6601018571E+00
    0.2300000000E+08    0.4859345078E-06    0.4113043565E-06    0.6960326891E+00    0.2563287563E-02    0.6607078188E+00
    0.2500000000E+08    0.4120091547E-06    0.3502291066E-06    0.6960326862E+00    0.2358400346E-02    0.6612177025E+00
    0.2700000000E+08    0.3538063959E-06    0.3019187647E-06    0.6960326828E+00    0.2183640685E-02    0.6616526451E+00
