  Pressure (Pa) 22mC5-500 (mol/kg) 23mC5-500 (mol/kg) 24mC5-500 (mol/kg) 2mC6-500 (mol/kg) 3mC6-500 (mol/kg)
    0.1000000000E+01    0.3561680113E-05    0.1033689055E-04    0.6965343856E-01    0.2334329120E-04    0.1563223522E-04
    0.3000000000E+01    0.9258238003E-05    0.2688691392E-04    0.1741019004E+00    0.6188967685E-04    0.4689049356E-04
    0.5000000000E+01    0.1378422035E-04    0.4006101316E-04    0.2486859223E+00    0.9405303919E-04    0.7814051493E-04
    0.7000000000E+01    0.1761893344E-04    0.5124727997E-04    0.3046128426E+00    0.1226764303E-03    0.1093823328E-03
    0.9000000000E+01    0.2101881787E-04    0.6118699874E-04    0.3481055791E+00    0.1492215546E-03    0.1406159678E-03
    0.1100000000E+02    0.2413190347E-04    0.7030722645E-04    0.3828963901E+00    0.1744960181E-03    0.1718414346E-03
    0.1300000000E+02    0.2704873429E-04    0.7886863025E-04    0.4113596277E+00    0.1989708992E-03    0.2030587436E-03
    0.1500000000E+02    0.2982727771E-04    0.8703772508E-04    0.4350778184E+00    0.2229327590E-03    0.2342679037E-03
    0.1700000000E+02    0.3250603816E-04    0.9492486227E-04    0.4551463521E+00    0.2465617665E-03    0.2654689219E-03
    0.1900000000E+02    0.3511138006E-04    0.1026054180E-03    0.4723475321E+00    0.2699741974E-03    0.2966618046E-03
    0.2100000000E+02    0.3766181942E-04    0.1101321961E-03    0.4872549771E+00    0.2932466495E-03    0.3278465576E-03
    0.2300000000E+02    0.4017064274E-04    0.1175429861E-03    0.5002988576E+00    0.3164303862E-03    0.3590231861E-03
    0.2500000000E+02    0.4264756077E-04    0.1248653303E-03    0.5118081005E+00    0.3395601118E-03    0.3901916950E-03
    0.2700000000E+02    0.4509978406E-04    0.1321196197E-03    0.5220385200E+00    0.3626594943E-03    0.4213520893E-03
    0.2900000000E+02    0.4753274064E-04    0.1393211567E-03    0.5311920628E+00    0.3857447230E-03    0.4525043734E-03
    0.3100000000E+02    0.4995056575E-04    0.1464815606E-03    0.5394302789E+00    0.4088268503E-03    0.4836485517E-03
    0.3300000000E+02    0.5235644268E-04    0.1536097446E-03    0.5468839413E+00    0.4319133598E-03    0.5147846287E-03
    0.3500000000E+02    0.5475284427E-04    0.1607126063E-03    0.5536600426E+00    0.4550092341E-03    0.5459126085E-03
    0.3700000000E+02    0.5714170669E-04    0.1677955248E-03    0.5598469652E+00    0.4781176913E-03    0.5770324954E-03
    0.3900000000E+02    0.5952455634E-04    0.1748627221E-03    0.5655183598E+00    0.5012406990E-03    0.6081442935E-03
    0.4100000000E+02    0.6190260367E-04    0.1819175303E-03    0.5707360913E+00    0.5243793375E-03    0.6392480069E-03
    0.4300000000E+02    0.6427681336E-04    0.1889625915E-03    0.5755525064E+00    0.5475340581E-03    0.6703436397E-03
    0.4500000000E+02    0.6664795740E-04    0.1960000076E-03    0.5800121960E+00    0.5707048678E-03    0.7014311958E-03
    0.4700000000E+02    0.6901665562E-04    0.2030314557E-03    0.5841533803E+00    0.5938914631E-03    0.7325106793E-03
    0.4900000000E+02    0.7138340690E-04    0.2100582763E-03    0.5880090076E+00    0.6170933271E-03    0.7635820941E-03
    0.1000000000E+02    0.2260457543E-04    0.6583043446E-04    0.3664168830E+00    0.1619825705E-03    0.1562297215E-03
    0.3000000000E+02    0.4874332659E-04    0.1429058890E-03    0.5354167846E+00    0.3972856374E-03    0.4680774755E-03
    0.5000000000E+02    0.7256618136E-04    0.2135702950E-03    0.5898388121E+00    0.6286997824E-03    0.7791147770E-03
    0.7000000000E+02    0.9618344565E-04    0.2837352125E-03    0.6167082711E+00    0.8614409587E-03    0.1089345791E-02
    0.9000000000E+02    0.1197837412E-03    0.3538898786E-03    0.6327231605E+00    0.1094839016E-02    0.1398774407E-02
    0.1100000000E+03    0.1433746210E-03    0.4240345393E-03    0.6433559645E+00    0.1328352674E-02    0.1707404440E-02
    0.1300000000E+03    0.1669400967E-03    0.4941131392E-03    0.6509296505E+00    0.1561659868E-02    0.2015239664E-02
    0.1500000000E+03    0.1904640085E-03    0.5640739517E-03    0.6565984650E+00    0.1794567702E-02    0.2322283822E-02
    0.1700000000E+03    0.2139334501E-03    0.6338769063E-03    0.6610008280E+00    0.2026956250E-02    0.2628540629E-02
    0.1900000000E+03    0.2373386274E-03    0.7034920794E-03    0.6645185299E+00    0.2258748166E-02    0.2934013773E-02
    0.2100000000E+03    0.2606721803E-03    0.7728972137E-03    0.6673939072E+00    0.2489892023E-02    0.3238706919E-02
    0.2300000000E+03    0.2839285640E-03    0.8420756648E-03    0.6697881876E+00    0.2720352822E-02    0.3542623705E-02
    0.2500000000E+03    0.3071035770E-03    0.9110148925E-03    0.6718128039E+00    0.2950106343E-02    0.3845767749E-02
    0.2700000000E+03    0.3301940176E-03    0.9797053844E-03    0.6735472406E+00    0.3179135678E-02    0.4148142642E-02
    0.2900000000E+03    0.3531974355E-03    0.1048139890E-02    0.6750497175E+00    0.3407428999E-02    0.4449751953E-02
    0.3100000000E+03    0.3761119529E-03    0.1116312873E-02    0.6763638559E+00    0.3634978102E-02    0.4750599228E-02
    0.3300000000E+03    0.3989361325E-03    0.1184220110E-02    0.6775229839E+00    0.3861777418E-02    0.5050687990E-02
    0.3500000000E+03    0.4216688810E-03    0.1251858398E-02    0.6785530039E+00    0.4087823329E-02    0.5350021740E-02
    0.3700000000E+03    0.4443093755E-03    0.1319225336E-02    0.6794743513E+00    0.4313113684E-02    0.5648603956E-02
    0.3900000000E+03    0.4668570090E-03    0.1386319159E-02    0.6803033646E+00    0.4537647455E-02    0.5946438095E-02
    0.4100000000E+03    0.4893113478E-03    0.1453138614E-02    0.6810532635E+00    0.4761424476E-02    0.6243527590E-02
    0.4300000000E+03    0.5116720984E-03    0.1519682860E-02    0.6817348587E+00    0.4984445257E-02    0.6539875854E-02
    0.4500000000E+03    0.5339390822E-03    0.1585951391E-02    0.6823570771E+00    0.5206710840E-02    0.6835486279E-02
    0.4700000000E+03    0.5561122152E-03    0.1651943978E-02    0.6829273546E+00    0.5428222690E-02    0.7130362234E-02
    0.4900000000E+03    0.5781914911E-03    0.1717660621E-02    0.6834519356E+00    0.5648982611E-02    0.7424507066E-02
    0.1000000000E+03    0.1315812568E-03    0.3889668333E-03    0.6385271813E+00    0.1211605458E-02    0.1553189009E-02
    0.3000000000E+03    0.3646659056E-03    0.1082259363E-02    0.6757280438E+00    0.3521296978E-02    0.4600270624E-02
    0.5000000000E+03    0.5891959490E-03    0.1750415516E-02    0.6836987727E+00    0.5759081238E-02    0.7571306353E-02
    0.7000000000E+03    0.8043974720E-03    0.2391146518E-02    0.6871737648E+00    0.7922184400E-02    0.1046971104E-01
    0.9000000000E+03    0.1010500359E-02    0.3005136452E-02    0.6891201058E+00    0.1001328858E-01    0.1329869113E-01
    0.1100000000E+04    0.1207885953E-02    0.3593506669E-02    0.6903646986E+00    0.1203554580E-01    0.1606126074E-01
    0.1300000000E+04    0.1396960641E-02    0.4157448652E-02    0.6912291367E+00    0.1399207307E-01    0.1876025599E-01
    0.1500000000E+04    0.1578124343E-02    0.4698133482E-02    0.6918645415E+00    0.1588585277E-01    0.2139834808E-01
    0.1700000000E+04    0.1751760813E-02    0.5216684247E-02    0.6923513031E+00    0.1771971125E-01    0.2397805522E-01
    0.1900000000E+04    0.1918234654E-02    0.5714167678E-02    0.6927361278E+00    0.1949631844E-01    0.2650175354E-01
    0.2100000000E+04    0.2077890771E-02    0.6191592768E-02    0.6930480081E+00    0.2121819407E-01    0.2897168703E-01
    0.2300000000E+04    0.2231054814E-02    0.6649912143E-02    0.6933058930E+00    0.2288771591E-01    0.3138997673E-01
    0.2500000000E+04    0.2378034010E-02    0.7090024574E-02    0.6935226911E+00    0.2450712848E-01    0.3375862907E-01
    0.2700000000E+04    0.2519118158E-02    0.7512777910E-02    0.6937074992E+00    0.2607855165E-01    0.3607954363E-01
    0.2900000000E+04    0.2654580661E-02    0.7918972108E-02    0.6938669134E+00    0.2760398875E-01    0.3835452022E-01
    0.3100000000E+04    0.2784679540E-02    0.8309362214E-02    0.6940058325E+00    0.2908533425E-01    0.4058526541E-01
    0.3300000000E+04    0.2909658412E-02    0.8684661215E-02    0.6941279715E+00    0.3052438087E-01    0.4277339855E-01
    0.3500000000E+04    0.3029747411E-02    0.9045542738E-02    0.6942361984E+00    0.3192282619E-01    0.4492045735E-01
    0.3700000000E+04    0.3145164055E-02    0.9392643579E-02    0.6943327630E+00    0.3328227883E-01    0.4702790302E-01
    0.3900000000E+04    0.3256114054E-02    0.9726566065E-02    0.6944194545E+00    0.3460426408E-01    0.4909712502E-01
    0.4100000000E+04    0.3362792068E-02    0.1004788026E-01    0.6944977140E+00    0.3589022923E-01    0.5112944546E-01
    0.4300000000E+04    0.3465382402E-02    0.1035712600E-01    0.6945687151E+00    0.3714154843E-01    0.5312612319E-01
    0.4500000000E+04    0.3564059664E-02    0.1065481481E-01    0.6946334233E+00    0.3835952718E-01    0.5508835759E-01
    0.4700000000E+04    0.3658989368E-02    0.1094143165E-01    0.6946926399E+00    0.3954540660E-01    0.5701729209E-01
    0.4900000000E+04    0.3750328496E-02    0.1121743659E-01    0.6947470360E+00    0.4070036727E-01    0.5891401741E-01
    0.1000000000E+04    0.1110257463E-02    0.3302449641E-02    0.6898040461E+00    0.1103282561E-01    0.1468809598E-01
    0.3000000000E+04    0.2720285001E-02    0.8116097158E-02    0.6939386795E+00    0.2835005860E-01    0.3947531856E-01
    0.5000000000E+04    0.3794698448E-02    0.1135159693E-01    0.6947726066E+00    0.4126660636E-01    0.5985062884E-01
    0.7000000000E+04    0.4526013606E-02    0.1357275273E-01    0.6951309210E+00    0.5121436191E-01    0.7712140781E-01
    0.9000000000E+04    0.5028318737E-02    0.1511430380E-01    0.6953302820E+00    0.5906691049E-01    0.9210801681E-01
    0.1100000000E+05    0.5372703278E-02    0.1618528179E-01    0.6954572840E+00    0.6538662426E-01    0.1053532633E+00
    0.1300000000E+05    0.5605346653E-02    0.1692179574E-01    0.6955452831E+00    0.7055165874E-01    0.1172319689E+00
    0.1500000000E+05    0.5757287221E-02    0.1741556293E-01    0.6956098617E+00    0.7482557794E-01    0.1280122087E+00
    0.1700000000E+05    0.5849984945E-02    0.1773017148E-01    0.6956592761E+00    0.7839767156E-01    0.1378914360E+00
    0.1900000000E+05    0.5898633567E-02    0.1791077459E-01    0.6956983092E+00    0.8140739103E-01    0.1470187704E+00
    0.2100000000E+05    0.5914208805E-02    0.1799009264E-01    0.6957299234E+00    0.8395974299E-01    0.1555092791E+00
    0.2300000000E+05    0.5904776600E-02    0.1799225200E-01    0.6957560517E+00    0.8613531264E-01    0.1634534313E+00
    0.2500000000E+05    0.5876352475E-02    0.1793531023E-01    0.6957780090E+00    0.8799698026E-01    0.1709235346E+00
    0.2700000000E+05    0.5833480003E-02    0.1783295838E-01    0.6957967211E+00    0.8959453643E-01    0.1779782269E+00
    0.2900000000E+05    0.5779628664E-02    0.1769569366E-01    0.6958128585E+00    0.9096792437E-01    0.1846656802E+00
    0.3100000000E+05    0.5717472749E-02    0.1753164287E-01    0.6958269188E+00    0.9214956324E-01    0.1910259299E+00
    0.3300000000E+05    0.5649090233E-02    0.1734715054E-01    0.6958392791E+00    0.9316604257E-01    0.1970925983E+00
    0.3500000000E+05    0.5576106758E-02    0.1714720551E-01    0.6958502306E+00    0.9403937782E-01    0.2028941906E+00
    0.3700000000E+05    0.5499801314E-02    0.1693575468E-01    0.6958600013E+00    0.9478795435E-01    0.2084550814E+00
    0.3900000000E+05    0.5421184781E-02    0.1671593653E-01    0.6958687726E+00    0.9542724633E-01    0.2137962778E+00
    0.4100000000E+05    0.5341058955E-02    0.1649025716E-01    0.6958766906E+00    0.9597037103E-01    0.2189360148E+00
    0.4300000000E+05    0.5260061376E-02    0.1626072407E-01    0.6958838741E+00    0.9642852072E-01    0.2238902259E+00
    0.4500000000E+05    0.5178699681E-02    0.1602894908E-01    0.6958904210E+00    0.9681130281E-01    0.2286729183E+00
    0.4700000000E+05    0.5097378162E-02    0.1579622798E-01    0.6958964123E+00    0.9712701006E-01    0.2332964749E+00
    0.4900000000E+05    0.5016418466E-02    0.1556360281E-01    0.6959019161E+00    0.9738283725E-01    0.2377719001E+00
    0.1000000000E+05    0.5216922844E-02    0.1569881252E-01    0.6954001185E+00    0.6239142488E-01    0.9892182585E-01
    0.3000000000E+05    0.5749446837E-02    0.1761658386E-01    0.6958201223E+00    0.9158093046E-01    0.1878844707E+00
    0.5000000000E+05    0.4976156286E-02    0.1544759471E-01    0.6959045033E+00    0.9749028773E-01    0.2399571753E+00
    0.7000000000E+05    0.4228592623E-02    0.1326322901E-01    0.6959407666E+00    0.9766211017E-01    0.2778027053E+00
    0.9000000000E+05    0.3614578745E-02    0.1143516031E-01    0.6959609570E+00    0.9579345555E-01    0.3077069902E+00
    0.1100000000E+06    0.3120351012E-02    0.9944704818E-02    0.6959738295E+00    0.9311734499E-01    0.3324055721E+00
    0.1300000000E+06    0.2720491115E-02    0.8726679601E-02    0.6959827560E+00    0.9014113533E-01    0.3533770953E+00
    0.1500000000E+06    0.2393431919E-02    0.7722077976E-02    0.6959893119E+00    0.8709801868E-01    0.3715288176E+00
    0.1700000000E+06    0.2122753187E-02    0.6884670207E-02    0.6959943321E+00    0.8410109215E-01    0.3874651731E+00
    0.1900000000E+06    0.1896211592E-02    0.6179367359E-02    0.6959983005E+00    0.8120561188E-01    0.4016126219E+00
    0.2100000000E+06    0.1704654162E-02    0.5579596538E-02    0.6960015168E+00    0.7843719362E-01    0.4142849904E+00
    0.2300000000E+06    0.1541168562E-02    0.5065084372E-02    0.6960041768E+00    0.7580566792E-01    0.4257207645E+00
    0.2500000000E+06    0.1400469592E-02    0.4620198046E-02    0.6960064135E+00    0.7331230242E-01    0.4361058303E+00
    0.2700000000E+06    0.1278464728E-02    0.4232744168E-02    0.6960083207E+00    0.7095373284E-01    0.4455880784E+00
    0.2900000000E+06    0.1171946188E-02    0.3893104073E-02    0.6960099665E+00    0.6872416932E-01    0.4542871833E+00
    0.3100000000E+06    0.1078370824E-02    0.3593608290E-02    0.6960114012E+00    0.6661665958E-01    0.4623013789E+00
    0.3300000000E+06    0.9957009934E-03    0.3328079883E-02    0.6960126631E+00    0.6462381864E-01    0.4697122899E+00
    0.3500000000E+06    0.9222880824E-03    0.3091497454E-02    0.6960137818E+00    0.6273824918E-01    0.4765884603E+00
    0.3700000000E+06    0.8567861991E-03    0.2879743646E-02    0.6960147803E+00    0.6095277878E-01    0.4829879848E+00
    0.3900000000E+06    0.7980874520E-03    0.2689415374E-02    0.6960156770E+00    0.5926058767E-01    0.4889605056E+00
    0.4100000000E+06    0.7452728681E-03    0.2517679096E-02    0.6960164869E+00    0.5765527042E-01    0.4945487530E+00
    0.4300000000E+06    0.6975747716E-03    0.2362159310E-02    0.6960172220E+00    0.5613085795E-01    0.4997897493E+00
    0.4500000000E+06    0.6543476607E-03    0.2220851841E-02    0.6960178922E+00    0.5468181603E-01    0.5047157618E+00
    0.4700000000E+06    0.6150454506E-03    0.2092055778E-02    0.6960185058E+00    0.5330303017E-01    0.5093550658E+00
    0.4900000000E+06    0.5792035369E-03    0.1974319626E-02    0.6960190696E+00    0.5198978302E-01    0.5137325603E+00
    0.1000000000E+06    0.3354116513E-02    0.1065173985E-01    0.6959680341E+00    0.9451526209E-01    0.3205963571E+00
    0.3000000000E+06    0.1123678272E-02    0.3738754745E-02    0.6960107076E+00    0.6765561520E-01    0.4583744505E+00
    0.5000000000E+06    0.5624537132E-03    0.1919202868E-02    0.6960193348E+00    0.5135636451E-01    0.5158301125E+00
    0.7000000000E+06    0.3376424066E-03    0.1172473505E-02    0.6960230566E+00    0.4124370080E-01    0.5482469887E+00
    0.9000000000E+06    0.2251050898E-03    0.7922856267E-03    0.6960251343E+00    0.3441527367E-01    0.5691805939E+00
    0.1100000000E+07    0.1607523404E-03    0.5720147626E-03    0.6960264614E+00    0.2950717108E-01    0.5838403883E+00
    0.1300000000E+07    0.1205181462E-03    0.4328171973E-03    0.6960273828E+00    0.2581338275E-01    0.5946864543E+00
    0.1500000000E+07    0.9369318335E-04    0.3391675484E-03    0.6960280600E+00    0.2293468828E-01    0.6030379375E+00
    0.1700000000E+07    0.7491752970E-04    0.2731028293E-03    0.6960285787E+00    0.2062903331E-01    0.6096673704E+00
    0.1900000000E+07    0.6126547127E-04    0.2247323429E-03    0.6960289888E+00    0.1874133455E-01    0.6150577347E+00
    0.2100000000E+07    0.5102947225E-04    0.1882397499E-03    0.6960293211E+00    0.1716772082E-01    0.6195266807E+00
    0.2300000000E+07    0.4315838718E-04    0.1600204930E-03    0.6960295957E+00    0.1583604216E-01    0.6232917675E+00
    0.2500000000E+07    0.3697634336E-04    0.1377429099E-03    0.6960298264E+00    0.1469463743E-01    0.6265070375E+00
    0.2700000000E+07    0.3203271582E-04    0.1198439033E-03    0.6960300230E+00    0.1370555290E-01    0.6292846326E+00
    0.2900000000E+07    0.2801769580E-04    0.1052434481E-03    0.6960301924E+00    0.1284028417E-01    0.6317081397E+00
    0.3100000000E+07    0.2471260604E-04    0.9317569288E-04    0.6960303398E+00    0.1207701096E-01    0.6338411376E+00
    0.3300000000E+07    0.2195952914E-04    0.8308521068E-04    0.6960304693E+00    0.1139874839E-01    0.6357328470E+00
    0.3500000000E+07    0.1964212146E-04    0.7456116310E-04    0.6960305838E+00    0.1079207919E-01    0.6374219675E+00
    0.3700000000E+07    0.1767314042E-04    0.6729432186E-04    0.6960306859E+00    0.1024626463E-01    0.6389393457E+00
    0.3900000000E+07    0.1598612861E-04    0.6104830189E-04    0.6960307774E+00    0.9752608474E-02    0.6403098714E+00
    0.4100000000E+07    0.1452974376E-04    0.5563987480E-04    0.6960308598E+00    0.9303993889E-02    0.6415538486E+00
    0.4300000000E+07    0.1326381423E-04    0.5092522656E-04    0.6960309344E+00    0.8894540743E-02    0.6426880056E+00
    0.4500000000E+07    0.1215654522E-04    0.4679019195E-04    0.6960310023E+00    0.8519348404E-02    0.6437262481E+00
    0.4700000000E+07    0.1118250731E-04    0.4314320202E-04    0.6960310642E+00    0.8174300107E-02    0.6446802308E+00
    0.4900000000E+07    0.1032116660E-04    0.3991011559E-04    0.6960311210E+00    0.7855912388E-02    0.6455597948E+00
    0.1000000000E+07    0.1888824195E-03    0.6686143238E-03    0.6960258637E+00    0.3177514723E-01    0.5771032295E+00
    0.3000000000E+07    0.2628743768E-04    0.9893171808E-04    0.6960302686E+00    0.1244705592E-01    0.6328075913E+00
    0.5000000000E+07    0.9927405643E-05    0.3842941695E-04    0.6960311477E+00    0.7705771453E-02    0.6459743344E+00
    0.7000000000E+07    0.5178029878E-05    0.2040152702E-04    0.6960315157E+00    0.5570368718E-02    0.6518546569E+00
    0.9000000000E+07    0.3176956532E-05    0.1267186999E-04    0.6960317127E+00    0.4357415358E-02    0.6551827475E+00
    0.1100000000E+08    0.2150199305E-05    0.8653417760E-05    0.6960318321E+00    0.3576017829E-02    0.6573226341E+00
    0.1300000000E+08    0.1554348539E-05    0.6296981819E-05    0.6960319099E+00    0.3030942603E-02    0.6588136595E+00
    0.1500000000E+08    0.1178060583E-05    0.4796028660E-05    0.6960319629E+00    0.2629217968E-02    0.6599117830E+00
    0.1700000000E+08    0.9252924662E-06    0.3780450974E-05    0.6960320000E+00    0.2320953874E-02    0.6607540482E+00
    0.1900000000E+08    0.7473021611E-06    0.3060865604E-05    0.6960320265E+00    0.2076987778E-02    0.6614204370E+00
    0.2100000000E+08    0.6172189457E-06    0.2532121778E-05    0.6960320453E+00    0.1879137494E-02    0.6619607594E+00
    0.2300000000E+08    0.5192429831E-06    0.2132002172E-05    0.6960320587E+00    0.1715480120E-02    0.6624076505E+00
    0.2500000000E+08    0.4435909698E-06    0.1821765390E-05    0.6960320680E+00    0.1577873254E-02    0.6627833826E+00
    0.2700000000E+08    0.3839423844E-06    0.1576255928E-05    0.6960320741E+00    0.1460567370E-02    0.6631036750E+00
