  Pressure (Pa) 22mC5-500 (mol/kg) 23mC5-500 (mol/kg) 24mC5-500 (mol/kg) 2mC6-500 (mol/kg) 3mC6-500 (mol/kg)
    0.1000000000E+01    0.3188437718E-05    0.3703184737E-05    0.1514081767E+00    0.1590493196E-04    0.3647450380E-04
    0.3000000000E+01    0.7402978518E-05    0.8614850295E-05    0.3165112471E+00    0.3885087077E-04    0.1094049543E-03
    0.5000000000E+01    0.1053845319E-04    0.1228877869E-04    0.4047940556E+00    0.5789888290E-04    0.1823109390E-03
    0.7000000000E+01    0.1327400800E-04    0.1550804113E-04    0.4597534979E+00    0.7577841998E-04    0.2551925872E-03
    0.9000000000E+01    0.1583248466E-04    0.1852808434E-04    0.4972618421E+00    0.9327128507E-04    0.3280499579E-03
    0.1100000000E+02    0.1830402860E-04    0.2145157557E-04    0.5244922430E+00    0.1106461933E-03    0.4008830870E-03
    0.1300000000E+02    0.2073019223E-04    0.2432549501E-04    0.5451602489E+00    0.1280041121E-03    0.4736920002E-03
    0.1500000000E+02    0.2313189037E-04    0.2717329201E-04    0.5613830614E+00    0.1453835078E-03    0.5464767186E-03
    0.1700000000E+02    0.2552031559E-04    0.3000739181E-04    0.5744555515E+00    0.1627976371E-03    0.6192372607E-03
    0.1900000000E+02    0.2790171752E-04    0.3283464906E-04    0.5852141729E+00    0.1802491840E-03    0.6919736432E-03
    0.2100000000E+02    0.3027968321E-04    0.3565893825E-04    0.5942233329E+00    0.1977364210E-03    0.7646858823E-03
    0.2300000000E+02    0.3265630029E-04    0.3848246856E-04    0.6018776760E+00    0.2152559202E-03    0.8373739931E-03
    0.2500000000E+02    0.3503278245E-04    0.4130648741E-04    0.6084614479E+00    0.2328037691E-03    0.9100379905E-03
    0.2700000000E+02    0.3740982065E-04    0.4413167305E-04    0.6141845759E+00    0.2503761118E-03    0.9826778891E-03
    0.2900000000E+02    0.3978778726E-04    0.4695836139E-04    0.6192054682E+00    0.2679693735E-03    0.1055293703E-02
    0.3100000000E+02    0.4216685824E-04    0.4978668070E-04    0.6236459048E+00    0.2855803384E-03    0.1127885447E-02
    0.3300000000E+02    0.4454708790E-04    0.5261663345E-04    0.6276010456E+00    0.3032061575E-03    0.1200453135E-02
    0.3500000000E+02    0.4692845560E-04    0.5544814680E-04    0.6311463275E+00    0.3208443267E-03    0.1272996780E-02
    0.3700000000E+02    0.4931089522E-04    0.5828110433E-04    0.6343423222E+00    0.3384926529E-03    0.1345516397E-02
    0.3900000000E+02    0.5169431415E-04    0.6111536590E-04    0.6372382262E+00    0.3561492173E-03    0.1418012000E-02
    0.4100000000E+02    0.5407860534E-04    0.6395078031E-04    0.6398744110E+00    0.3738123401E-03    0.1490483601E-02
    0.4300000000E+02    0.5646365519E-04    0.6678719326E-04    0.6422843174E+00    0.3914805490E-03    0.1562931215E-02
    0.4500000000E+02    0.5884934853E-04    0.6962445228E-04    0.6444958812E+00    0.4091525504E-03    0.1635354856E-02
    0.4700000000E+02    0.6123557182E-04    0.7246240970E-04    0.6465326216E+00    0.4268272055E-03    0.1707754536E-02
    0.4900000000E+02    0.6362221509E-04    0.7530092444E-04    0.6484144805E+00    0.4445035087E-03    0.1780130271E-02
    0.1000000000E+02    0.1707584304E-04    0.1999818226E-04    0.5118783266E+00    0.1019649974E-03    0.3644695509E-03
    0.3000000000E+02    0.4097717911E-04    0.4837231478E-04    0.6214917649E+00    0.2767728296E-03    0.1091592583E-02
    0.5000000000E+02    0.6481566111E-04    0.7672034875E-04    0.6493027473E+00    0.4533419962E-03    0.1816309162E-02
    0.7000000000E+02    0.8868409418E-04    0.1051098979E-03    0.6619993058E+00    0.6300288320E-03    0.2538633109E-02
    0.9000000000E+02    0.1125080575E-03    0.1334482407E-03    0.6692701603E+00    0.8062947586E-03    0.3258577858E-02
    0.1100000000E+03    0.1362482444E-03    0.1616880988E-03    0.6739809654E+00    0.9819428777E-03    0.3976156687E-02
    0.1300000000E+03    0.1598836345E-03    0.1898045493E-03    0.6772814221E+00    0.1156886949E-02    0.4691382758E-02
    0.1500000000E+03    0.1834022590E-03    0.2177835275E-03    0.6797224347E+00    0.1331084810E-02    0.5404269123E-02
    0.1700000000E+03    0.2067969611E-03    0.2456166793E-03    0.6816010377E+00    0.1504514633E-02    0.6114828734E-02
    0.1900000000E+03    0.2300633287E-03    0.2732988849E-03    0.6830915261E+00    0.1677165019E-02    0.6823074444E-02
    0.2100000000E+03    0.2531986101E-03    0.3008269702E-03    0.6843029171E+00    0.1849030360E-02    0.7529019004E-02
    0.2300000000E+03    0.2762011086E-03    0.3281989917E-03    0.6853068942E+00    0.2020108472E-02    0.8232675073E-02
    0.2500000000E+03    0.2990698241E-03    0.3554138154E-03    0.6861525280E+00    0.2190399288E-02    0.8934055211E-02
    0.2700000000E+03    0.3218042322E-03    0.3824708588E-03    0.6868745415E+00    0.2359904110E-02    0.9633171886E-02
    0.2900000000E+03    0.3444041429E-03    0.4093699253E-03    0.6874981967E+00    0.2528625147E-02    0.1033003747E-01
    0.3100000000E+03    0.3668696057E-03    0.4361110944E-03    0.6880423112E+00    0.2696565229E-02    0.1102466425E-01
    0.3300000000E+03    0.3892008459E-03    0.4626946475E-03    0.6885211903E+00    0.2863727613E-02    0.1171706440E-01
    0.3500000000E+03    0.4113982192E-03    0.4891210160E-03    0.6889459028E+00    0.3030115862E-02    0.1240725004E-01
    0.3700000000E+03    0.4334621801E-03    0.5153907439E-03    0.6893251474E+00    0.3195733752E-02    0.1309523317E-01
    0.3900000000E+03    0.4553932579E-03    0.5415044607E-03    0.6896658548E+00    0.3360585214E-02    0.1378102571E-01
    0.4100000000E+03    0.4771920396E-03    0.5674628617E-03    0.6899736153E+00    0.3524674287E-02    0.1446463949E-01
    0.4300000000E+03    0.4988591572E-03    0.5932666932E-03    0.6902529876E+00    0.3688005091E-02    0.1514608626E-01
    0.4500000000E+03    0.5203952767E-03    0.6189167403E-03    0.6905077266E+00    0.3850581794E-02    0.1582537768E-01
    0.4700000000E+03    0.5418010916E-03    0.6444138188E-03    0.6907409529E+00    0.4012408604E-02    0.1650252532E-01
    0.4900000000E+03    0.5630773161E-03    0.6697587681E-03    0.6909552813E+00    0.4173489748E-02    0.1717754068E-01
    0.1000000000E+03    0.1243902225E-03    0.1475823824E-03    0.6718529051E+00    0.8942029133E-03    0.3617662188E-02
    0.3000000000E+03    0.3556536697E-03    0.4227602334E-03    0.6877792141E+00    0.2612692612E-02    0.1067762995E-01
    0.5000000000E+03    0.5736670596E-03    0.6823744616E-03    0.6910560624E+00    0.4253752020E-02    0.1751425231E-01
    0.7000000000E+03    0.7788423284E-03    0.9269170965E-03    0.6924701524E+00    0.5820885544E-02    0.2413928485E-01
    0.9000000000E+03    0.9719313367E-03    0.1157268466E-02    0.6932583275E+00    0.7318246290E-02    0.3056365296E-01
    0.1100000000E+04    0.1153680880E-02    0.1374300896E-02    0.6937608644E+00    0.8749777393E-02    0.3679752423E-01
    0.1300000000E+04    0.1324795954E-02    0.1578837343E-02    0.6941092238E+00    0.1011916006E-01    0.4285037330E-01
    0.1500000000E+04    0.1485934502E-02    0.1771645715E-02    0.6943649247E+00    0.1142982171E-01    0.4873103996E-01
    0.1700000000E+04    0.1637708563E-02    0.1953440363E-02    0.6945605984E+00    0.1268495340E-01    0.5444778167E-01
    0.1900000000E+04    0.1780687032E-02    0.2124885366E-02    0.6947151633E+00    0.1388752806E-01    0.6000832085E-01
    0.2100000000E+04    0.1915398788E-02    0.2286598195E-02    0.6948403435E+00    0.1504031802E-01    0.6541988769E-01
    0.2300000000E+04    0.2042335763E-02    0.2439153310E-02    0.6949437920E+00    0.1614591103E-01    0.7068925891E-01
    0.2500000000E+04    0.2161955856E-02    0.2583085549E-02    0.6950307162E+00    0.1720672503E-01    0.7582279294E-01
    0.2700000000E+04    0.2274685616E-02    0.2718893257E-02    0.6951047830E+00    0.1822502150E-01    0.8082646183E-01
    0.2900000000E+04    0.2380922715E-02    0.2847041161E-02    0.6951686488E+00    0.1920291768E-01    0.8570588034E-01
    0.3100000000E+04    0.2481038210E-02    0.2967963003E-02    0.6952242855E+00    0.2014239768E-01    0.9046633240E-01
    0.3300000000E+04    0.2575378602E-02    0.3082063939E-02    0.6952731875E+00    0.2104532259E-01    0.9511279531E-01
    0.3500000000E+04    0.2664267729E-02    0.3189722734E-02    0.6953165080E+00    0.2191343968E-01    0.9964996179E-01
    0.3700000000E+04    0.2748008483E-02    0.3291293759E-02    0.6953551510E+00    0.2274839084E-01    0.1040822602E+00
    0.3900000000E+04    0.2826884387E-02    0.3387108830E-02    0.6953898355E+00    0.2355172025E-01    0.1084138729E+00
    0.4100000000E+04    0.2901161031E-02    0.3477478871E-02    0.6954211401E+00    0.2432488143E-01    0.1126487536E+00
    0.4300000000E+04    0.2971087391E-02    0.3562695453E-02    0.6954495360E+00    0.2506924370E-01    0.1167906426E+00
    0.4500000000E+04    0.3036897035E-02    0.3643032193E-02    0.6954754106E+00    0.2578609805E-01    0.1208430810E+00
    0.4700000000E+04    0.3098809232E-02    0.3718746042E-02    0.6954990855E+00    0.2647666257E-01    0.1248094244E+00
    0.4900000000E+04    0.3157029961E-02    0.3790078466E-02    0.6955208298E+00    0.2714208748E-01    0.1286928545E+00
    0.1000000000E+04    0.1064178386E-02    0.1267396831E-02    0.6935346285E+00    0.8042004345E-02    0.3370379301E-01
    0.3000000000E+04    0.2431723454E-02    0.2908379374E-02    0.6951973930E+00    0.1967734062E-01    0.8810065918E-01
    0.5000000000E+04    0.3184816992E-02    0.3824173135E-02    0.6955310504E+00    0.2746571459E-01    0.1306044267E+00
    0.7000000000E+04    0.3588045994E-02    0.4324501204E-02    0.6956741872E+00    0.3285296076E-01    0.1651405683E+00
    0.9000000000E+04    0.3783540884E-02    0.4576334006E-02    0.6957537524E+00    0.3665792570E-01    0.1940299943E+00
    0.1100000000E+05    0.3852250619E-02    0.4675173401E-02    0.6958044049E+00    0.3937601507E-01    0.2187387790E+00
    0.1300000000E+05    0.3842388487E-02    0.4678180932E-02    0.6958394829E+00    0.4132290340E-01    0.2402428291E+00
    0.1500000000E+05    0.3783675975E-02    0.4620792890E-02    0.6958652133E+00    0.4270829781E-01    0.2592199953E+00
    0.1700000000E+05    0.3694925290E-02    0.4525582800E-02    0.6958848939E+00    0.4367634144E-01    0.2761579694E+00
    0.1900000000E+05    0.3588281865E-02    0.4407231842E-02    0.6959004342E+00    0.4432895663E-01    0.2914181576E+00
    0.2100000000E+05    0.3471697785E-02    0.4275434538E-02    0.6959130167E+00    0.4473994634E-01    0.3052751988E+00
    0.2300000000E+05    0.3350424308E-02    0.4136657485E-02    0.6959234126E+00    0.4496384114E-01    0.3179423504E+00
    0.2500000000E+05    0.3227939067E-02    0.3995235651E-02    0.6959321465E+00    0.4504163285E-01    0.3295883326E+00
    0.2700000000E+05    0.3106536498E-02    0.3854073098E-02    0.6959395874E+00    0.4500459667E-01    0.3403488264E+00
    0.2900000000E+05    0.2987711848E-02    0.3715100591E-02    0.6959460029E+00    0.4487690259E-01    0.3503345191E+00
    0.3100000000E+05    0.2872415491E-02    0.3579580021E-02    0.6959515912E+00    0.4467743881E-01    0.3596368595E+00
    0.3300000000E+05    0.2761223965E-02    0.3448310155E-02    0.6959565027E+00    0.4442110963E-01    0.3683322572E+00
    0.3500000000E+05    0.2654456535E-02    0.3321767593E-02    0.6959608534E+00    0.4411977538E-01    0.3764852005E+00
    0.3700000000E+05    0.2552255498E-02    0.3200204476E-02    0.6959647341E+00    0.4378294351E-01    0.3841506094E+00
    0.3900000000E+05    0.2454642012E-02    0.3083716848E-02    0.6959682172E+00    0.4341828402E-01    0.3913756363E+00
    0.4100000000E+05    0.2361555195E-02    0.2972292891E-02    0.6959713607E+00    0.4303201851E-01    0.3982010632E+00
    0.4300000000E+05    0.2272879642E-02    0.2865847148E-02    0.6959742121E+00    0.4262921731E-01    0.4046623980E+00
    0.4500000000E+05    0.2188464855E-02    0.2764244923E-02    0.6959768102E+00    0.4221402874E-01    0.4107907452E+00
    0.4700000000E+05    0.2108138979E-02    0.2667319721E-02    0.6959791874E+00    0.4178985767E-01    0.4166135034E+00
    0.4900000000E+05    0.2031718497E-02    0.2574885717E-02    0.6959813708E+00    0.4135950579E-01    0.4221549299E+00
    0.1000000000E+05    0.3830174628E-02    0.4640653023E-02    0.6957816091E+00    0.3812997292E-01    0.2068372884E+00
    0.3000000000E+05    0.2929579416E-02    0.3646849942E-02    0.6959488901E+00    0.4478512947E-01    0.3550660212E+00
    0.5000000000E+05    0.1994913964E-02    0.2530291804E-02    0.6959823970E+00    0.4114275045E-01    0.4248269805E+00
    0.7000000000E+05    0.1419882936E-02    0.1826811313E-02    0.6959967688E+00    0.3686537931E-01    0.4676712721E+00
    0.9000000000E+05    0.1056611378E-02    0.1375165976E-02    0.6960047577E+00    0.3307826903E-01    0.4971611970E+00
    0.1100000000E+06    0.8152123959E-03    0.1071272194E-02    0.6960098437E+00    0.2987767026E-01    0.5188561148E+00
    0.1300000000E+06    0.6473775680E-03    0.8578119430E-03    0.6960133659E+00    0.2718710912E-01    0.5355466239E+00
    0.1500000000E+06    0.5262185964E-03    0.7023685808E-03    0.6960159495E+00    0.2491247004E-01    0.5488121321E+00
    0.1700000000E+06    0.4359951986E-03    0.5857337337E-03    0.6960179255E+00    0.2297257539E-01    0.5596219415E+00
    0.1900000000E+06    0.3670471032E-03    0.4960014503E-03    0.6960194857E+00    0.2130274728E-01    0.5686071105E+00
    0.2100000000E+06    0.3131956226E-03    0.4254925548E-03    0.6960207488E+00    0.1985250671E-01    0.5761975385E+00
    0.2300000000E+06    0.2703458556E-03    0.3690803999E-03    0.6960217923E+00    0.1858251221E-01    0.5826968517E+00
    0.2500000000E+06    0.2356994705E-03    0.3232388305E-03    0.6960226688E+00    0.1746192131E-01    0.5883259184E+00
    0.2700000000E+06    0.2072926951E-03    0.2854788625E-03    0.6960234154E+00    0.1646634256E-01    0.5932494191E+00
    0.2900000000E+06    0.1837150915E-03    0.2540033491E-03    0.6960240589E+00    0.1557629909E-01    0.5975927412E+00
    0.3100000000E+06    0.1639327740E-03    0.2274885286E-03    0.6960246194E+00    0.1477608614E-01    0.6014530937E+00
    0.3300000000E+06    0.1471740727E-03    0.2049419348E-03    0.6960251119E+00    0.1405292068E-01    0.6049070349E+00
    0.3500000000E+06    0.1328536880E-03    0.1856076553E-03    0.6960255480E+00    0.1339630432E-01    0.6080157001E+00
    0.3700000000E+06    0.1205212305E-03    0.1689017459E-03    0.6960259368E+00    0.1279754229E-01    0.6108285118E+00
    0.3900000000E+06    0.1098255897E-03    0.1543673156E-03    0.6960262858E+00    0.1224937684E-01    0.6133858650E+00
    0.4100000000E+06    0.1004898082E-03    0.1416427253E-03    0.6960266006E+00    0.1174570527E-01    0.6157211037E+00
    0.4300000000E+06    0.9229306723E-04    0.1304387007E-03    0.6960268860E+00    0.1128136103E-01    0.6178619992E+00
    0.4500000000E+06    0.8505757576E-04    0.1205216147E-03    0.6960271460E+00    0.1085194229E-01    0.6198318693E+00
    0.4700000000E+06    0.7863889472E-04    0.1117011099E-03    0.6960273838E+00    0.1045367647E-01    0.6216504394E+00
    0.4900000000E+06    0.7291870656E-04    0.1038208183E-03    0.6960276021E+00    0.1008331241E-01    0.6233345089E+00
    0.1000000000E+06    0.9243740544E-03    0.1209112531E-02    0.6960075548E+00    0.3140827002E-01    0.5087693232E+00
    0.3000000000E+06    0.1734028623E-03    0.2401943558E-03    0.6960243485E+00    0.1516582287E-01    0.5995780899E+00
    0.5000000000E+06    0.7028934226E-04    0.1001919140E-03    0.6960277047E+00    0.9907698473E-02    0.6241306872E+00
    0.7000000000E+06    0.3776101340E-04    0.5486818441E-04    0.6960291381E+00    0.7341664426E-02    0.6356011904E+00
    0.9000000000E+06    0.2350421618E-04    0.3464801659E-04    0.6960299305E+00    0.5825412201E-02    0.6422464699E+00
    0.1100000000E+07    0.1601975767E-04    0.2388811664E-04    0.6960304316E+00    0.4825224366E-02    0.6465814258E+00
    0.1300000000E+07    0.1161215351E-04    0.1748160858E-04    0.6960307760E+00    0.4116399093E-02    0.6496319549E+00
    0.1500000000E+07    0.8800800529E-05    0.1335733480E-04    0.6960310264E+00    0.3588031362E-02    0.6518949363E+00
    0.1700000000E+07    0.6899036097E-05    0.1054509728E-04    0.6960312162E+00    0.3179113868E-02    0.6536402827E+00
    0.1900000000E+07    0.5553187568E-05    0.8540919299E-05    0.6960313645E+00    0.2853328514E-02    0.6550272428E+00
    0.2100000000E+07    0.4566083704E-05    0.7061747712E-05    0.6960314832E+00    0.2587711653E-02    0.6561558374E+00
    0.2300000000E+07    0.3820770046E-05    0.5938580752E-05    0.6960315802E+00    0.2367036199E-02    0.6570920485E+00
    0.2500000000E+07    0.3244320495E-05    0.5065415517E-05    0.6960316607E+00    0.2180808498E-02    0.6578811614E+00
    0.2700000000E+07    0.2789353170E-05    0.4373009672E-05    0.6960317283E+00    0.2021562759E-02    0.6585552879E+00
    0.2900000000E+07    0.2424002952E-05    0.3814567727E-05    0.6960317858E+00    0.1883843087E-02    0.6591378310E+00
    0.3100000000E+07    0.2126202118E-05    0.3357535277E-05    0.6960318352E+00    0.1763570172E-02    0.6596462490E+00
    0.3300000000E+07    0.1880276953E-05    0.2978693151E-05    0.6960318779E+00    0.1657633146E-02    0.6600938300E+00
    0.3500000000E+07    0.1674847557E-05    0.2661116955E-05    0.6960319151E+00    0.1563618474E-02    0.6604908663E+00
    0.3700000000E+07    0.1501490348E-05    0.2392232950E-05    0.6960319478E+00    0.1479625044E-02    0.6608454537E+00
    0.3900000000E+07    0.1353862432E-05    0.2162540481E-05    0.6960319765E+00    0.1404135116E-02    0.6611640476E+00
    0.4100000000E+07    0.1227114198E-05    0.1964751901E-05    0.6960320020E+00    0.1335922384E-02    0.6614518580E+00
    0.4300000000E+07    0.1117486611E-05    0.1793200961E-05    0.6960320247E+00    0.1273985271E-02    0.6617131364E+00
    0.4500000000E+07    0.1022029716E-05    0.1643427953E-05    0.6960320449E+00    0.1217497737E-02    0.6619513861E+00
    0.4700000000E+07    0.9384023781E-06    0.1511883706E-05    0.6960320631E+00    0.1165772465E-02    0.6621695200E+00
    0.4900000000E+07    0.8647275440E-06    0.1395715022E-05    0.6960320794E+00    0.1118232931E-02    0.6623699799E+00
    0.1000000000E+07    0.1922808913E-04    0.2851620991E-04    0.6960302065E+00    0.5278754220E-02    0.6446203243E+00
    0.3000000000E+07    0.2267759014E-05    0.3575002928E-05    0.6960318114E+00    0.1821739218E-02    0.6594003934E+00
    0.5000000000E+07    0.8311359164E-06    0.1342655494E-05    0.6960320869E+00    0.1095877565E-02    0.6624642393E+00
    0.7000000000E+07    0.4307170484E-06    0.7045289985E-06    0.6960321800E+00    0.7822074235E-03    0.6637865858E+00
    0.9000000000E+07    0.2649260860E-06    0.4359907625E-06    0.6960322154E+00    0.6075281700E-03    0.6645231379E+00
    0.1100000000E+08    0.1805966875E-06    0.2978049164E-06    0.6960322262E+00    0.4963063794E-03    0.6649923873E+00
    0.1300000000E+08    0.1318707716E-06    0.2172629260E-06    0.6960322249E+00    0.4193204722E-03    0.6653174171E+00
    0.1500000000E+08    0.1011544218E-06    0.1661501056E-06    0.6960322169E+00    0.3628931124E-03    0.6655558183E+00
    0.1700000000E+08    0.8052310009E-07    0.1316414264E-06    0.6960322050E+00    0.3197717085E-03    0.6657381294E+00
    0.1900000000E+08    0.6597957505E-07    0.1072184727E-06    0.6960321908E+00    0.2857537611E-03    0.6658820490E+00
    0.2100000000E+08    0.5532968359E-07    0.8928001694E-07    0.6960321753E+00    0.2582366188E-03    0.6659985406E+00
    0.2300000000E+08    0.4728718857E-07    0.7570323774E-07    0.6960321589E+00    0.2355226464E-03    0.6660947576E+00
    0.2500000000E+08    0.4105734178E-07    0.6517011962E-07    0.6960321420E+00    0.2164574865E-03    0.6661755658E+00
    0.2700000000E+08    0.3612743223E-07    0.5682676747E-07    0.6960321250E+00    0.2002289346E-03    0.6662443899E+00
