  Pressure (Pa) 22mC5-500 (mol/kg) 23mC5-500 (mol/kg) 24mC5-500 (mol/kg) 2mC6-500 (mol/kg) 3mC6-500 (mol/kg)
    0.1000000000E+01    0.3424328083E-05    0.3975879718E-05    0.9950334896E-01    0.1127544800E-04    0.5210562016E-04
    0.3000000000E+01    0.8487653026E-05    0.9865118240E-05    0.2321317678E+00    0.2880829674E-04    0.1562852648E-03
    0.5000000000E+01    0.1233517330E-04    0.1435442709E-04    0.3165071867E+00    0.4315625117E-04    0.2604230371E-03
    0.7000000000E+01    0.1558298479E-04    0.1815641305E-04    0.3749103781E+00    0.5608792729E-04    0.3645190982E-03
    0.9000000000E+01    0.1850210742E-04    0.2158359859E-04    0.4177342182E+00    0.6833072042E-04    0.4685735409E-03
    0.1100000000E+02    0.2122753988E-04    0.2479114496E-04    0.4504790991E+00    0.8022062349E-04    0.5725864286E-03
    0.1300000000E+02    0.2383268049E-04    0.2786311643E-04    0.4763287458E+00    0.9192559399E-04    0.6765578102E-03
    0.1500000000E+02    0.2636011533E-04    0.3084810419E-04    0.4972537063E+00    0.1035343342E-03    0.7804877269E-03
    0.1700000000E+02    0.2883581945E-04    0.3377562645E-04    0.5145389555E+00    0.1150954694E-03    0.8843762155E-03
    0.1900000000E+02    0.3127627279E-04    0.3666432959E-04    0.5290581878E+00    0.1266362588E-03    0.9882233097E-03
    0.2100000000E+02    0.3369226663E-04    0.3952636576E-04    0.5414261753E+00    0.1381721014E-03    0.1092029041E-02
    0.2300000000E+02    0.3609105037E-04    0.4236985628E-04    0.5520880681E+00    0.1497116072E-03    0.1195793441E-02
    0.2500000000E+02    0.3847759638E-04    0.4520033962E-04    0.5613741212E+00    0.1612594137E-03    0.1299516539E-02
    0.2700000000E+02    0.4085537311E-04    0.4802165438E-04    0.5695345160E+00    0.1728177995E-03    0.1403198364E-02
    0.2900000000E+02    0.4322683274E-04    0.5083649475E-04    0.5767622424E+00    0.1843876347E-03    0.1506838945E-02
    0.3100000000E+02    0.4559372709E-04    0.5364676938E-04    0.5832085579E+00    0.1959689511E-03    0.1610438311E-02
    0.3300000000E+02    0.4795731710E-04    0.5645383880E-04    0.5889936893E+00    0.2075612902E-03    0.1713996488E-02
    0.3500000000E+02    0.5031851470E-04    0.5925867559E-04    0.5942144023E+00    0.2191639180E-03    0.1817513505E-02
    0.3700000000E+02    0.5267798050E-04    0.6206197445E-04    0.5989494581E+00    0.2307759576E-03    0.1920989390E-02
    0.3900000000E+02    0.5503619229E-04    0.6486422905E-04    0.6032636147E+00    0.2423964720E-03    0.2024424170E-02
    0.4100000000E+02    0.5739349360E-04    0.6766578635E-04    0.6072106067E+00    0.2540245147E-03    0.2127817872E-02
    0.4300000000E+02    0.5975012869E-04    0.7046688560E-04    0.6108353950E+00    0.2656591601E-03    0.2231170524E-02
    0.4500000000E+02    0.6210626791E-04    0.7326768650E-04    0.6141758874E+00    0.2772995213E-03    0.2334482153E-02
    0.4700000000E+02    0.6446202642E-04    0.7606828987E-04    0.6172642696E+00    0.2889447598E-03    0.2437752785E-02
    0.4900000000E+02    0.6681747798E-04    0.7886875284E-04    0.6201280452E+00    0.3005940895E-03    0.2540982448E-02
    0.1000000000E+02    0.1988348214E-04    0.2320846011E-04    0.4351302230E+00    0.7430674340E-04    0.5205851758E-03
    0.3000000000E+02    0.4441076219E-04    0.5224210707E-04    0.5800749361E+00    0.1901768779E-03    0.1558643778E-02
    0.5000000000E+02    0.6799510299E-04    0.8026894043E-04    0.6214832260E+00    0.3064200576E-03    0.2592581925E-02
    0.7000000000E+02    0.9153252585E-04    0.1082619236E-03    0.6410978663E+00    0.4230037216E-03    0.3622427135E-02
    0.9000000000E+02    0.1150187853E-03    0.1362016167E-03    0.6525400281E+00    0.5394404367E-03    0.4648206066E-02
    0.1100000000E+03    0.1384186999E-03    0.1640424731E-03    0.6600368234E+00    0.6555034835E-03    0.5669945028E-02
    0.1300000000E+03    0.1617068140E-03    0.1917530644E-03    0.6653288215E+00    0.7710811950E-03    0.6687670063E-02
    0.1500000000E+03    0.1848664694E-03    0.2193132054E-03    0.6692639978E+00    0.8861141970E-03    0.7701406969E-02
    0.1700000000E+03    0.2078867958E-03    0.2467098652E-03    0.6723048895E+00    0.1000569162E-02    0.8711181313E-02
    0.1900000000E+03    0.2307606264E-03    0.2739345154E-03    0.6747252464E+00    0.1114426824E-02    0.9717018433E-02
    0.2100000000E+03    0.2534832062E-03    0.3009815294E-03    0.6766974317E+00    0.1227676026E-02    0.1071894345E-01
    0.2300000000E+03    0.2760513929E-03    0.3278472065E-03    0.6783353820E+00    0.1340310537E-02    0.1171698125E-01
    0.2500000000E+03    0.2984631517E-03    0.3545291615E-03    0.6797174296E+00    0.1452327257E-02    0.1271115653E-01
    0.2700000000E+03    0.3207172274E-03    0.3810259303E-03    0.6808992026E+00    0.1563725143E-02    0.1370149375E-01
    0.2900000000E+03    0.3428129256E-03    0.4073367096E-03    0.6819212948E+00    0.1674504549E-02    0.1468801717E-01
    0.3100000000E+03    0.3647499626E-03    0.4334611780E-03    0.6828140236E+00    0.1784666793E-02    0.1567075083E-01
    0.3300000000E+03    0.3865283613E-03    0.4593993727E-03    0.6836004883E+00    0.1894213879E-02    0.1664971859E-01
    0.3500000000E+03    0.4081483758E-03    0.4851516011E-03    0.6842985973E+00    0.2003148305E-02    0.1762494409E-01
    0.3700000000E+03    0.4296104372E-03    0.5107183766E-03    0.6849224490E+00    0.2111472924E-02    0.1859645075E-01
    0.3900000000E+03    0.4509151134E-03    0.5361003714E-03    0.6854832938E+00    0.2219190856E-02    0.1956426183E-01
    0.4100000000E+03    0.4720630787E-03    0.5612983814E-03    0.6859902186E+00    0.2326305411E-02    0.2052840035E-01
    0.4300000000E+03    0.4930550907E-03    0.5863132986E-03    0.6864506431E+00    0.2432820048E-02    0.2148888918E-01
    0.4500000000E+03    0.5138919729E-03    0.6111460913E-03    0.6868706852E+00    0.2538738326E-02    0.2244575096E-01
    0.4700000000E+03    0.5345746006E-03    0.6357977871E-03    0.6872554348E+00    0.2644063885E-02    0.2339900816E-01
    0.4900000000E+03    0.5551038899E-03    0.6602694609E-03    0.6876091609E+00    0.2748800419E-02    0.2434868305E-01
    0.1000000000E+03    0.1267313723E-03    0.1501366845E-03    0.6566420228E+00    0.5975273437E-03    0.5159578909E-02
    0.3000000000E+03    0.3538012815E-03    0.4204222375E-03    0.6823822444E+00    0.1729662704E-02    0.1517985622E-01
    0.5000000000E+03    0.5653113281E-03    0.6724381358E-03    0.6877755396E+00    0.2800948967E-02    0.2482218403E-01
    0.7000000000E+03    0.7616528013E-03    0.9066449630E-03    0.6901134556E+00    0.3813917353E-02    0.3410943522E-01
    0.9000000000E+03    0.9438277831E-03    0.1124214871E-02    0.6914193193E+00    0.4772276710E-02    0.4306263845E-01
    0.1100000000E+04    0.1112849431E-02    0.1326330708E-02    0.6922529764E+00    0.5679579119E-02    0.5170116085E-01
    0.1300000000E+04    0.1269671367E-02    0.1514105181E-02    0.6928313496E+00    0.6539121544E-02    0.6004286901E-01
    0.1500000000E+04    0.1415176491E-02    0.1688568360E-02    0.6932561361E+00    0.7353946863E-02    0.6810427162E-01
    0.1700000000E+04    0.1550178217E-02    0.1850669326E-02    0.6935813468E+00    0.8126861240E-02    0.7590064616E-01
    0.1900000000E+04    0.1675424911E-02    0.2001281426E-02    0.6938383242E+00    0.8860453974E-02    0.8344615180E-01
    0.2100000000E+04    0.1791605058E-02    0.2141208327E-02    0.6940465057E+00    0.9557116657E-02    0.9075393003E-01
    0.2300000000E+04    0.1899352379E-02    0.2271189986E-02    0.6942185857E+00    0.1021906084E-01    0.9783619477E-01
    0.2500000000E+04    0.1999250634E-02    0.2391908242E-02    0.6943632067E+00    0.1084833407E-01    0.1047043130E+00
    0.2700000000E+04    0.2091838038E-02    0.2503991953E-02    0.6944864564E+00    0.1144683433E-01    0.1113688772E+00
    0.2900000000E+04    0.2177611275E-02    0.2608021668E-02    0.6945927466E+00    0.1201632314E-01    0.1178397705E+00
    0.3100000000E+04    0.2257029139E-02    0.2704533851E-02    0.6946853528E+00    0.1255843721E-01    0.1241262256E+00
    0.3300000000E+04    0.2330515827E-02    0.2794024712E-02    0.6947667583E+00    0.1307469910E-01    0.1302368771E+00
    0.3500000000E+04    0.2398463912E-02    0.2876953659E-02    0.6948388794E+00    0.1356652670E-01    0.1361798101E+00
    0.3700000000E+04    0.2461237031E-02    0.2953746421E-02    0.6949032191E+00    0.1403524190E-01    0.1419626035E+00
    0.3900000000E+04    0.2519172317E-02    0.3024797874E-02    0.6949609724E+00    0.1448207837E-01    0.1475923686E+00
    0.4100000000E+04    0.2572582606E-02    0.3090474600E-02    0.6950131017E+00    0.1490818861E-01    0.1530757859E+00
    0.4300000000E+04    0.2621758426E-02    0.3151117203E-02    0.6950603903E+00    0.1531465037E-01    0.1584191367E+00
    0.4500000000E+04    0.2666969810E-02    0.3207042414E-02    0.6951034829E+00    0.1570247247E-01    0.1636283333E+00
    0.4700000000E+04    0.2708467941E-02    0.3258544998E-02    0.6951429141E+00    0.1607260011E-01    0.1687089457E+00
    0.4900000000E+04    0.2746486647E-02    0.3305899491E-02    0.6951791318E+00    0.1642591962E-01    0.1736662264E+00
    0.1000000000E+04    0.1029921544E-02    0.1227133097E-02    0.6918775732E+00    0.5232097862E-02    0.4742008468E-01
    0.3000000000E+04    0.2218087341E-02    0.2657185536E-02    0.6946405895E+00    0.1229070430E-01    0.1210054997E+00
    0.5000000000E+04    0.2764259878E-02    0.3328101859E-02    0.6951961559E+00    0.1659653833E-01    0.1761001775E+00
    0.7000000000E+04    0.2982630099E-02    0.3607975879E-02    0.6954346187E+00    0.1930350700E-01    0.2193722161E+00
    0.9000000000E+04    0.3027039534E-02    0.3677989465E-02    0.6955672099E+00    0.2102103056E-01    0.2545499990E+00
    0.1100000000E+05    0.2977831468E-02    0.3633380871E-02    0.6956516351E+00    0.2209725539E-01    0.2838934740E+00
    0.1300000000E+05    0.2878938641E-02    0.3526635479E-02    0.6957101092E+00    0.2274333047E-01    0.3088608354E+00
    0.1500000000E+05    0.2755153236E-02    0.3387650523E-02    0.6957530059E+00    0.2309343750E-01    0.3304408767E+00
    0.1700000000E+05    0.2620736562E-02    0.3233821770E-02    0.6957858193E+00    0.2323607182E-01    0.3493316460E+00
    0.1900000000E+05    0.2483949498E-02    0.3075372683E-02    0.6958117317E+00    0.2323137129E-01    0.3660425522E+00
    0.2100000000E+05    0.2349542037E-02    0.2918296686E-02    0.6958327134E+00    0.2312121178E-01    0.3809557675E+00
    0.2300000000E+05    0.2220170172E-02    0.2766040722E-02    0.6958500500E+00    0.2293534128E-01    0.3943647757E+00
    0.2500000000E+05    0.2097225553E-02    0.2620497077E-02    0.6958646156E+00    0.2269524204E-01    0.4064994772E+00
    0.2700000000E+05    0.1981332532E-02    0.2482601676E-02    0.6958770257E+00    0.2241663721E-01    0.4175430685E+00
    0.2900000000E+05    0.1872651361E-02    0.2352701910E-02    0.6958877259E+00    0.2211116085E-01    0.4276437083E+00
    0.3100000000E+05    0.1771065663E-02    0.2230786121E-02    0.6958970469E+00    0.2178749618E-01    0.4369227805E+00
    0.3300000000E+05    0.1676299414E-02    0.2116628309E-02    0.6959052394E+00    0.2145216687E-01    0.4454808717E+00
    0.3500000000E+05    0.1587990266E-02    0.2009879976E-02    0.6959124966E+00    0.2111009683E-01    0.4534021808E+00
    0.3700000000E+05    0.1505735459E-02    0.1910128537E-02    0.6959189702E+00    0.2076501241E-01    0.4607578263E+00
    0.3900000000E+05    0.1429120351E-02    0.1816934329E-02    0.6959247806E+00    0.2041973521E-01    0.4676083650E+00
    0.4100000000E+05    0.1357735832E-02    0.1729853812E-02    0.6959300248E+00    0.2007639805E-01    0.4740057380E+00
    0.4300000000E+05    0.1291188602E-02    0.1648453799E-02    0.6959347818E+00    0.1973660583E-01    0.4799947913E+00
    0.4500000000E+05    0.1229106872E-02    0.1572319854E-02    0.6959391164E+00    0.1940155654E-01    0.4856144787E+00
    0.4700000000E+05    0.1171143138E-02    0.1501060882E-02    0.6959430825E+00    0.1907213317E-01    0.4908988225E+00
    0.4900000000E+05    0.1116975090E-02    0.1434311265E-02    0.6959467253E+00    0.1874897395E-01    0.4958776882E+00
    0.1000000000E+05    0.3010799976E-02    0.3666035586E-02    0.6956136386E+00    0.2162379532E-01    0.2698460200E+00
    0.3000000000E+05    0.1820986112E-02    0.2290756397E-02    0.6958925415E+00    0.2195115119E-01    0.4323792242E+00
    0.5000000000E+05    0.1091220574E-02    0.1402520338E-02    0.6959484375E+00    0.1858988950E-01    0.4982609207E+00
    0.7000000000E+05    0.7154533190E-03    0.9342680772E-03    0.6959724193E+00    0.1578354423E-01    0.5348966665E+00
    0.9000000000E+05    0.5026644414E-03    0.6646970045E-03    0.6959857528E+00    0.1362611357E-01    0.5583721873E+00
    0.1100000000E+06    0.3716590569E-03    0.4965912585E-03    0.6959942428E+00    0.1195510742E-01    0.5747363038E+00
    0.1300000000E+06    0.2856132275E-03    0.3850101516E-03    0.6960001232E+00    0.1063430102E-01    0.5868075667E+00
    0.1500000000E+06    0.2261835155E-03    0.3072531091E-03    0.6960044370E+00    0.9568464766E-02    0.5960840489E+00
    0.1700000000E+06    0.1834681471E-03    0.2509299229E-03    0.6960077367E+00    0.8692239865E-02    0.6034376647E+00
    0.1900000000E+06    0.1517600397E-03    0.2088329708E-03    0.6960103423E+00    0.7960148547E-02    0.6094110794E+00
    0.2100000000E+06    0.1275885856E-03    0.1765441714E-03    0.6960124519E+00    0.7339868387E-02    0.6143599917E+00
    0.2300000000E+06    0.1087473998E-03    0.1512351283E-03    0.6960141947E+00    0.6807916282E-02    0.6185273864E+00
    0.2500000000E+06    0.9378055307E-04    0.1310278056E-03    0.6960156588E+00    0.6346873826E-02    0.6220849580E+00
    0.2700000000E+06    0.8169640739E-04    0.1146358512E-03    0.6960169060E+00    0.5943574343E-02    0.6251574958E+00
    0.2900000000E+06    0.7180091470E-04    0.1011543140E-03    0.6960179811E+00    0.5587893823E-02    0.6278378920E+00
    0.3100000000E+06    0.6359668858E-04    0.8993159744E-04    0.6960189174E+00    0.5271927509E-02    0.6301967278E+00
    0.3300000000E+06    0.5671981745E-04    0.8048887519E-04    0.6960197401E+00    0.4989417719E-02    0.6322885971E+00
    0.3500000000E+06    0.5089912881E-04    0.7246789083E-04    0.6960204687E+00    0.4735348694E-02    0.6341563926E+00
    0.3700000000E+06    0.4592923898E-04    0.6559626964E-04    0.6960211184E+00    0.4505654687E-02    0.6358342830E+00
    0.3900000000E+06    0.4165230806E-04    0.5966393872E-04    0.6960217014E+00    0.4297006244E-02    0.6373498242E+00
    0.4100000000E+06    0.3794543148E-04    0.5450676900E-04    0.6960222274E+00    0.4106651438E-02    0.6387254862E+00
    0.4300000000E+06    0.3471176379E-04    0.4999501814E-04    0.6960227043E+00    0.3932296312E-02    0.6399797745E+00
    0.4500000000E+06    0.3187416444E-04    0.4602502888E-04    0.6960231387E+00    0.3772013736E-02    0.6411280682E+00
    0.4700000000E+06    0.2937057912E-04    0.4251317554E-04    0.6960235360E+00    0.3624173128E-02    0.6421832532E+00
    0.4900000000E+06    0.2715063564E-04    0.3939138881E-04    0.6960239008E+00    0.3487385687E-02    0.6431562082E+00
    0.1000000000E+06    0.4298592418E-03    0.5715100838E-03    0.6959904218E+00    0.1273938163E-01    0.5672231501E+00
    0.3000000000E+06    0.6751270525E-04    0.9529386150E-04    0.6960184649E+00    0.5425370692E-02    0.6290537761E+00
    0.5000000000E+06    0.2613384368E-04    0.3795891025E-04    0.6960240722E+00    0.3422758218E-02    0.6436147945E+00
    0.7000000000E+06    0.1376238874E-04    0.2036388429E-04    0.6960264671E+00    0.2495056592E-02    0.6501230640E+00
    0.9000000000E+06    0.8479791709E-05    0.1271699555E-04    0.6960277905E+00    0.1961016555E-02    0.6538105709E+00
    0.1100000000E+07    0.5748814940E-05    0.8710526381E-05    0.6960286270E+00    0.1614264008E-02    0.6561840019E+00
    0.1300000000E+07    0.4156505462E-05    0.6349318922E-05    0.6960292014E+00    0.1371119137E-02    0.6578392975E+00
    0.1500000000E+07    0.3147821675E-05    0.4840125774E-05    0.6960296187E+00    0.1191254245E-02    0.6590594248E+00
    0.1700000000E+07    0.2468828912E-05    0.3816433144E-05    0.6960299347E+00    0.1052851139E-02    0.6599959740E+00
    0.1900000000E+07    0.1990030977E-05    0.3089763591E-05    0.6960301813E+00    0.9430798067E-03    0.6607374668E+00
    0.2100000000E+07    0.1639779823E-05    0.2555075140E-05    0.6960303785E+00    0.8539043633E-03    0.6613390619E+00
    0.2300000000E+07    0.1375828905E-05    0.2150031813E-05    0.6960305394E+00    0.7800362171E-03    0.6618369172E+00
    0.2500000000E+07    0.1171961307E-05    0.1835726724E-05    0.6960306726E+00    0.7178530626E-03    0.6622557216E+00
    0.2700000000E+07    0.1011209594E-05    0.1586848217E-05    0.6960307844E+00    0.6647908909E-03    0.6626129078E+00
    0.2900000000E+07    0.8821996506E-06    0.1386347905E-05    0.6960308792E+00    0.6189840129E-03    0.6629211350E+00
    0.3100000000E+07    0.7770757250E-06    0.1222399530E-05    0.6960309605E+00    0.5790426065E-03    0.6631898180E+00
    0.3300000000E+07    0.6902708941E-06    0.1086588659E-05    0.6960310307E+00    0.5439101764E-03    0.6634261036E+00
    0.3500000000E+07    0.6177510719E-06    0.9727948942E-06    0.6960310917E+00    0.5127693342E-03    0.6636355149E+00
    0.3700000000E+07    0.5565350536E-06    0.8764794272E-06    0.6960311450E+00    0.4849778164E-03    0.6638223874E+00
    0.3900000000E+07    0.5043811507E-06    0.7942181792E-06    0.6960311920E+00    0.4600239958E-03    0.6639901720E+00
    0.4100000000E+07    0.4595774713E-06    0.7233882809E-06    0.6960312334E+00    0.4374952940E-03    0.6641416494E+00
    0.4300000000E+07    0.4207984445E-06    0.6619528890E-06    0.6960312701E+00    0.4170553332E-03    0.6642790854E+00
    0.4500000000E+07    0.3870047111E-06    0.6083105872E-06    0.6960313028E+00    0.3984271312E-03    0.6644043448E+00
    0.4700000000E+07    0.3573720248E-06    0.5611881192E-06    0.6960313320E+00    0.3813805537E-03    0.6645189763E+00
    0.4900000000E+07    0.3312399381E-06    0.5195627588E-06    0.6960313581E+00    0.3657228179E-03    0.6646242766E+00
    0.1000000000E+07    0.6915541268E-05    0.1042789545E-04    0.6960282513E+00    0.1770961312E-02    0.6551133808E+00
    0.3000000000E+07    0.8270429485E-06    0.1300394993E-05    0.6960309214E+00    0.5983526833E-03    0.6630599285E+00
    0.5000000000E+07    0.3193155582E-06    0.5005460499E-06    0.6960313702E+00    0.3583629079E-03    0.6646737763E+00
    0.7000000000E+07    0.1763564854E-06    0.2713426037E-06    0.6960315154E+00    0.2553045635E-03    0.6653672931E+00
    0.9000000000E+07    0.1161850627E-06    0.1741857196E-06    0.6960315652E+00    0.1980815006E-03    0.6657529268E+00
    0.1100000000E+08    0.8496542417E-07    0.1237093303E-06    0.6960315749E+00    0.1617092501E-03    0.6659984161E+00
    0.1300000000E+08    0.6652233060E-07    0.9396208422E-07    0.6960315648E+00    0.1365615678E-03    0.6661683940E+00
    0.1500000000E+08    0.5461542232E-07    0.7485386100E-07    0.6960315441E+00    0.1181442481E-03    0.6662930507E+00
    0.1700000000E+08    0.4641465677E-07    0.6178477247E-07    0.6960315173E+00    0.1040783241E-03    0.6663883778E+00
    0.1900000000E+08    0.4048137288E-07    0.5240851732E-07    0.6960314872E+00    0.9298706428E-04    0.6664636363E+00
    0.2100000000E+08    0.3601909913E-07    0.4542355560E-07    0.6960314550E+00    0.8401867593E-04    0.6665245603E+00
    0.2300000000E+08    0.3255665209E-07    0.4005924285E-07    0.6960314217E+00    0.7661798773E-04    0.6665748896E+00
    0.2500000000E+08    0.2980006995E-07    0.3583481262E-07    0.6960313879E+00    0.7040773069E-04    0.6666171673E+00
    0.2700000000E+08    0.2755778600E-07    0.3243721771E-07    0.6960313538E+00    0.6512259649E-04    0.6666531833E+00
