  Pressure (Pa) 22mC5-500 (mol/kg) 23mC5-500 (mol/kg) 24mC5-500 (mol/kg) 2mC6-500 (mol/kg) 3mC6-500 (mol/kg)
    0.1000000000E+01    0.2908159164E-05    0.1689741685E-05    0.2142846492E+00    0.1964053513E-04    0.2605347102E-04
    0.3000000000E+01    0.6406752576E-05    0.3734678560E-05    0.3978639862E+00    0.4673313786E-04    0.7814883881E-04
    0.5000000000E+01    0.9108706096E-05    0.5325464266E-05    0.4801322154E+00    0.7048562487E-04    0.1302290389E-03
    0.7000000000E+01    0.1159976709E-04    0.6798135476E-05    0.5268185838E+00    0.9370414407E-04    0.1822941620E-03
    0.9000000000E+01    0.1401995284E-04    0.8232124146E-05    0.5569031515E+00    0.1168921033E-03    0.2343442429E-03
    0.1100000000E+02    0.1641452501E-04    0.9652759899E-05    0.5779046699E+00    0.1401538160E-03    0.2863793010E-03
    0.1300000000E+02    0.1880061007E-04    0.1106945695E-04    0.5933971626E+00    0.1635024868E-03    0.3383993499E-03
    0.1500000000E+02    0.2118523288E-04    0.1248597743E-04    0.6052969728E+00    0.1869291321E-03    0.3904044010E-03
    0.1700000000E+02    0.2357133055E-04    0.1390382685E-04    0.6147239751E+00    0.2104206232E-03    0.4423944640E-03
    0.1900000000E+02    0.2596005460E-04    0.1532354213E-04    0.6223764149E+00    0.2339645857E-03    0.4943695479E-03
    0.2100000000E+02    0.2835174159E-04    0.1674522879E-04    0.6287122661E+00    0.2575505298E-03    0.5463296614E-03
    0.2300000000E+02    0.3074635139E-04    0.1816880036E-04    0.6340443947E+00    0.2811698723E-03    0.5982748126E-03
    0.2500000000E+02    0.3314367477E-04    0.1959408987E-04    0.6385938115E+00    0.3048156669E-03    0.6502050098E-03
    0.2700000000E+02    0.3554343465E-04    0.2102090301E-04    0.6425210778E+00    0.3284822961E-03    0.7021202608E-03
    0.2900000000E+02    0.3794533605E-04    0.2244904346E-04    0.6459456495E+00    0.3521652001E-03    0.7540205735E-03
    0.3100000000E+02    0.4034909032E-04    0.2387832460E-04    0.6489582405E+00    0.3758606554E-03    0.8059059555E-03
    0.3300000000E+02    0.4275442639E-04    0.2530857438E-04    0.6516289765E+00    0.3995656008E-03    0.8577764146E-03
    0.3500000000E+02    0.4516109519E-04    0.2673963673E-04    0.6540129221E+00    0.4232775018E-03    0.9096319583E-03
    0.3700000000E+02    0.4756887058E-04    0.2817137137E-04    0.6561539187E+00    0.4469942449E-03    0.9614725944E-03
    0.3900000000E+02    0.4997754868E-04    0.2960365273E-04    0.6580873045E+00    0.4707140563E-03    0.1013298330E-02
    0.4100000000E+02    0.5238694623E-04    0.3103636869E-04    0.6598418815E+00    0.4944354368E-03    0.1065109174E-02
    0.4300000000E+02    0.5479689879E-04    0.3246941910E-04    0.6614413591E+00    0.5181571123E-03    0.1116905132E-02
    0.4500000000E+02    0.5720725881E-04    0.3390271454E-04    0.6629054326E+00    0.5418779932E-03    0.1168686212E-02
    0.4700000000E+02    0.5961789380E-04    0.3533617499E-04    0.6642505982E+00    0.5655971426E-03    0.1220452423E-02
    0.4900000000E+02    0.6202868466E-04    0.3676972876E-04    0.6654907766E+00    0.5893137511E-03    0.1272203770E-02
    0.1000000000E+02    0.1521901694E-04    0.8943324268E-05    0.5682612032E+00    0.1285120066E-03    0.2603636488E-03
    0.3000000000E+02    0.3914699900E-04    0.2316355257E-04    0.6474986520E+00    0.3640115639E-03    0.7799651303E-03
    0.5000000000E+02    0.6323410460E-04    0.3748652026E-04    0.6660752631E+00    0.6011708791E-03    0.1298073873E-02
    0.7000000000E+02    0.8732965047E-04    0.5181468386E-04    0.6743673393E+00    0.8380502103E-03    0.1814697450E-02
    0.9000000000E+02    0.1113657547E-03    0.6610755814E-04    0.6790640024E+00    0.1074239039E-02    0.2329843250E-02
    0.1100000000E+03    0.1353141975E-03    0.8034858904E-04    0.6820870636E+00    0.1309604084E-02    0.2843518584E-02
    0.1300000000E+03    0.1591613386E-03    0.9452985088E-04    0.6841958047E+00    0.1544091226E-02    0.3355730705E-02
    0.1500000000E+03    0.1828998934E-03    0.1086471418E-03    0.6857505440E+00    0.1777675960E-02    0.3866486815E-02
    0.1700000000E+03    0.2065257314E-03    0.1226980946E-03    0.6869442543E+00    0.2010346923E-02    0.4375794065E-02
    0.1900000000E+03    0.2300364426E-03    0.1366813385E-03    0.6878896083E+00    0.2242099310E-02    0.4883659555E-02
    0.2100000000E+03    0.2534306261E-03    0.1505960839E-03    0.6886568115E+00    0.2472931885E-02    0.5390090340E-02
    0.2300000000E+03    0.2767075067E-03    0.1644419007E-03    0.6892918866E+00    0.2702845483E-02    0.5895093425E-02
    0.2500000000E+03    0.2998667154E-03    0.1782185912E-03    0.6898262610E+00    0.2931842203E-02    0.6398675768E-02
    0.2700000000E+03    0.3229081558E-03    0.1919261136E-03    0.6902821269E+00    0.3159924947E-02    0.6900844282E-02
    0.2900000000E+03    0.3458319208E-03    0.2055645336E-03    0.6906756022E+00    0.3387097141E-02    0.7401605831E-02
    0.3100000000E+03    0.3686382372E-03    0.2191339930E-03    0.6910186750E+00    0.3613362564E-02    0.7900967238E-02
    0.3300000000E+03    0.3913274290E-03    0.2326346888E-03    0.6913204472E+00    0.3838725234E-02    0.8398935275E-02
    0.3500000000E+03    0.4138998916E-03    0.2460668584E-03    0.6915879534E+00    0.4063189330E-02    0.8895516674E-02
    0.3700000000E+03    0.4363560740E-03    0.2594307691E-03    0.6918267165E+00    0.4286759146E-02    0.9390718119E-02
    0.3900000000E+03    0.4586964649E-03    0.2727267109E-03    0.6920411331E+00    0.4509439052E-02    0.9884546252E-02
    0.4100000000E+03    0.4809215838E-03    0.2859549910E-03    0.6922347464E+00    0.4731233468E-02    0.1037700767E-01
    0.4300000000E+03    0.5030319733E-03    0.2991159292E-03    0.6924104442E+00    0.4952146846E-02    0.1086810893E-01
    0.4500000000E+03    0.5250281938E-03    0.3122098555E-03    0.6925706030E+00    0.5172183655E-02    0.1135785654E-01
    0.4700000000E+03    0.5469108190E-03    0.3252371073E-03    0.6927171972E+00    0.5391348375E-02    0.1184625697E-01
    0.4900000000E+03    0.5686804331E-03    0.3381980277E-03    0.6928518800E+00    0.5609645485E-02    0.1233331664E-01
    0.1000000000E+03    0.1233519935E-03    0.7323517114E-04    0.6807233550E+00    0.1192028927E-02    0.2586864271E-02
    0.3000000000E+03    0.3572497418E-03    0.2123578721E-03    0.6908528136E+00    0.3500342953E-02    0.7651461128E-02
    0.5000000000E+03    0.5795230457E-03    0.3446537220E-03    0.6929151994E+00    0.5718470083E-02    0.1257634569E-01
    0.7000000000E+03    0.7905892066E-03    0.4703713354E-03    0.6938029102E+00    0.7850499350E-02    0.1736807671E-01
    0.9000000000E+03    0.9910451488E-03    0.5898601544E-03    0.6942970917E+00    0.9900783868E-02    0.2203279785E-01
    0.1100000000E+04    0.1181475063E-02    0.7034614361E-03    0.6946119513E+00    0.1187344465E-01    0.2657627039E-01
    0.1300000000E+04    0.1362431377E-02    0.8114976999E-03    0.6948301068E+00    0.1377234874E-01    0.3100390262E-01
    0.1500000000E+04    0.1534432525E-02    0.9142715797E-03    0.6949901803E+00    0.1560112084E-01    0.3532077666E-01
    0.1700000000E+04    0.1697964068E-02    0.1012066526E-02    0.6951126433E+00    0.1736315958E-01    0.3953167282E-01
    0.1900000000E+04    0.1853480623E-02    0.1105147954E-02    0.6952093580E+00    0.1906165391E-01    0.4364109175E-01
    0.2100000000E+04    0.2001407957E-02    0.1193764472E-02    0.6952876728E+00    0.2069959842E-01    0.4765327478E-01
    0.2300000000E+04    0.2142145035E-02    0.1278149078E-02    0.6953523827E+00    0.2227980759E-01    0.5157222243E-01
    0.2500000000E+04    0.2276065946E-02    0.1358520282E-02    0.6954067498E+00    0.2380492891E-01    0.5540171136E-01
    0.2700000000E+04    0.2403521704E-02    0.1435083157E-02    0.6954530703E+00    0.2527745483E-01    0.5914530994E-01
    0.2900000000E+04    0.2524841900E-02    0.1508030302E-02    0.6954930077E+00    0.2669973379E-01    0.6280639249E-01
    0.3100000000E+04    0.2640336240E-02    0.1577542732E-02    0.6955277964E+00    0.2807398032E-01    0.6638815244E-01
    0.3300000000E+04    0.2750295942E-02    0.1643790698E-02    0.6955583718E+00    0.2940228431E-01    0.6989361436E-01
    0.3500000000E+04    0.2854995040E-02    0.1706934439E-02    0.6955854557E+00    0.3068661956E-01    0.7332564507E-01
    0.3700000000E+04    0.2954691568E-02    0.1767124873E-02    0.6956096139E+00    0.3192885156E-01    0.7668696387E-01
    0.3900000000E+04    0.3049628660E-02    0.1824504241E-02    0.6956312962E+00    0.3313074481E-01    0.7998015203E-01
    0.4100000000E+04    0.3140035561E-02    0.1879206689E-02    0.6956508647E+00    0.3429396936E-01    0.8320766149E-01
    0.4300000000E+04    0.3226128558E-02    0.1931358812E-02    0.6956686142E+00    0.3542010707E-01    0.8637182293E-01
    0.4500000000E+04    0.3308111842E-02    0.1981080156E-02    0.6956847870E+00    0.3651065720E-01    0.8947485330E-01
    0.4700000000E+04    0.3386178297E-02    0.2028483678E-02    0.6956995843E+00    0.3756704169E-01    0.9251886268E-01
    0.4900000000E+04    0.3460510242E-02    0.2073676174E-02    0.6957131745E+00    0.3859061000E-01    0.9550586077E-01
    0.1000000000E+04    0.1087478035E-02    0.6473761120E-03    0.6944702275E+00    0.1089656968E-01    0.2431934423E-01
    0.3000000000E+04    0.2583298684E-02    0.1543204973E-02    0.6955109813E+00    0.2739272767E-01    0.6460699493E-01
    0.5000000000E+04    0.3496330024E-02    0.2095475074E-02    0.6957195621E+00    0.3909049110E-01    0.9697858263E-01
    0.7000000000E+04    0.4053909469E-02    0.2437210876E-02    0.6958090083E+00    0.4764466144E-01    0.1238608004E+00
    0.9000000000E+04    0.4385989592E-02    0.2644659769E-02    0.6958587177E+00    0.5404114899E-01    0.1467525599E+00
    0.1100000000E+05    0.4570808616E-02    0.2763871419E-02    0.6958903586E+00    0.5890141903E-01    0.1666329598E+00
    0.1300000000E+05    0.4657437783E-02    0.2823830969E-02    0.6959122680E+00    0.6263528255E-01    0.1841709259E+00
    0.1500000000E+05    0.4677678990E-02    0.2843397301E-02    0.6959283373E+00    0.6552312609E-01    0.1998406386E+00
    0.1700000000E+05    0.4652694935E-02    0.2835175034E-02    0.6959406272E+00    0.6776275681E-01    0.2139887524E+00
    0.1900000000E+05    0.4596874208E-02    0.2807775496E-02    0.6959503309E+00    0.6949737882E-01    0.2268754078E+00
    0.2100000000E+05    0.4520171270E-02    0.2767188122E-02    0.6959581871E+00    0.7083297946E-01    0.2387002563E+00
    0.2300000000E+05    0.4429569327E-02    0.2717639587E-02    0.6959646776E+00    0.7184950834E-01    0.2496195390E+00
    0.2500000000E+05    0.4330020414E-02    0.2662147168E-02    0.6959701301E+00    0.7260828019E-01    0.2597576285E+00
    0.2700000000E+05    0.4225064112E-02    0.2602883845E-02    0.6959747752E+00    0.7315700484E-01    0.2692150282E+00
    0.2900000000E+05    0.4117243309E-02    0.2541424288E-02    0.6959787798E+00    0.7353328330E-01    0.2780740440E+00
    0.3100000000E+05    0.4008388734E-02    0.2478913693E-02    0.6959822680E+00    0.7376708712E-01    0.2864028872E+00
    0.3300000000E+05    0.3899816825E-02    0.2416185542E-02    0.6959853336E+00    0.7388254857E-01    0.2942586954E+00
    0.3500000000E+05    0.3792469307E-02    0.2353844957E-02    0.6959880490E+00    0.7389927434E-01    0.3016897941E+00
    0.3700000000E+05    0.3687012889E-02    0.2292328438E-02    0.6959904709E+00    0.7383332359E-01    0.3087374138E+00
    0.3900000000E+05    0.3583911271E-02    0.2231947175E-02    0.6959926446E+00    0.7369794599E-01    0.3154370122E+00
    0.4100000000E+05    0.3483477670E-02    0.2172918767E-02    0.6959946063E+00    0.7350414524E-01    0.3218193034E+00
    0.4300000000E+05    0.3385913464E-02    0.2115390663E-02    0.6959963857E+00    0.7326111422E-01    0.3279110699E+00
    0.4500000000E+05    0.3291336840E-02    0.2059457615E-02    0.6959980069E+00    0.7297657431E-01    0.3337358078E+00
    0.4700000000E+05    0.3199804172E-02    0.2005174777E-02    0.6959994902E+00    0.7265704258E-01    0.3393142462E+00
    0.4900000000E+05    0.3111326064E-02    0.1952567574E-02    0.6960008525E+00    0.7230804388E-01    0.3446647672E+00
    0.1000000000E+05    0.4493230086E-02    0.2713185097E-02    0.6958761194E+00    0.5663393128E-01    0.1570217664E+00
    0.3000000000E+05    0.4062852779E-02    0.2510242086E-02    0.6959805820E+00    0.7366636673E-01    0.2823009362E+00
    0.5000000000E+05    0.3068226308E-02    0.1926894037E-02    0.6960014928E+00    0.7212399211E-01    0.3472597474E+00
    0.7000000000E+05    0.2351605738E-02    0.1495667159E-02    0.6960104584E+00    0.6772909574E-01    0.3903743742E+00
    0.9000000000E+05    0.1851571141E-02    0.1189901417E-02    0.6960154407E+00    0.6304008658E-01    0.4220285954E+00
    0.1100000000E+06    0.1493940584E-02    0.9685363218E-03    0.6960186118E+00    0.5865234513E-01    0.4466088434E+00
    0.1300000000E+06    0.1230453277E-02    0.8038162638E-03    0.6960208074E+00    0.5469487762E-01    0.4664033031E+00
    0.1500000000E+06    0.1031013449E-02    0.6780802559E-03    0.6960224175E+00    0.5116451738E-01    0.4827622760E+00
    0.1700000000E+06    0.8764873588E-03    0.5799419875E-03    0.6960236488E+00    0.4802065921E-01    0.4965498484E+00
    0.1900000000E+06    0.7543407955E-03    0.5018608213E-03    0.6960246209E+00    0.4521542521E-01    0.5083516576E+00
    0.2100000000E+06    0.6561130763E-03    0.4387007613E-03    0.6960254077E+00    0.4270348947E-01    0.5185820552E+00
    0.2300000000E+06    0.5759343152E-03    0.3868709472E-03    0.6960260577E+00    0.4044490664E-01    0.5275441910E+00
    0.2500000000E+06    0.5096311287E-03    0.3438009964E-03    0.6960266035E+00    0.3840545871E-01    0.5354659108E+00
    0.2700000000E+06    0.4541711976E-03    0.3076119791E-03    0.6960270685E+00    0.3655616022E-01    0.5425223053E+00
    0.2900000000E+06    0.4073084457E-03    0.2769045145E-03    0.6960274692E+00    0.3487253794E-01    0.5488504587E+00
    0.3100000000E+06    0.3673504176E-03    0.2506188624E-03    0.6960278181E+00    0.3333391383E-01    0.5545594227E+00
    0.3300000000E+06    0.3330021295E-03    0.2279404193E-03    0.6960281247E+00    0.3192276826E-01    0.5597371552E+00
    0.3500000000E+06    0.3032589912E-03    0.2082345484E-03    0.6960283962E+00    0.3062420081E-01    0.5644554633E+00
    0.3700000000E+06    0.2773319450E-03    0.1910007841E-03    0.6960286382E+00    0.2942548368E-01    0.5687735995E+00
    0.3900000000E+06    0.2545942024E-03    0.1758400952E-03    0.6960288554E+00    0.2831569543E-01    0.5727409256E+00
    0.4100000000E+06    0.2345427409E-03    0.1624311171E-03    0.6960290513E+00    0.2728542168E-01    0.5763989175E+00
    0.4300000000E+06    0.2167700604E-03    0.1505126472E-03    0.6960292289E+00    0.2632651052E-01    0.5797826964E+00
    0.4500000000E+06    0.2009431905E-03    0.1398705839E-03    0.6960293907E+00    0.2543187229E-01    0.5829222129E+00
    0.4700000000E+06    0.1867878940E-03    0.1303280647E-03    0.6960295387E+00    0.2459531512E-01    0.5858431733E+00
    0.4900000000E+06    0.1740766468E-03    0.1217379358E-03    0.6960296745E+00    0.2381140936E-01    0.5885677717E+00
    0.1000000000E+06    0.1658503990E-02    0.1070694358E-02    0.6960171847E+00    0.6079544100E-01    0.4350298211E+00
    0.3000000000E+06    0.3865551485E-03    0.2632647423E-03    0.6960276495E+00    0.3408626332E-01    0.5517764134E+00
    0.5000000000E+06    0.1682018940E-03    0.1177606984E-03    0.6960297384E+00    0.2343768439E-01    0.5898625569E+00
    0.7000000000E+06    0.9359836806E-04    0.6677227973E-04    0.6960306301E+00    0.1782389595E-01    0.6090139772E+00
    0.9000000000E+06    0.5949080831E-04    0.4304975175E-04    0.6960311230E+00    0.1436627991E-01    0.6205615979E+00
    0.1100000000E+07    0.4110804527E-04    0.3009115963E-04    0.6960314347E+00    0.1202527202E-01    0.6282868018E+00
    0.1300000000E+07    0.3008591538E-04    0.2223589457E-04    0.6960316490E+00    0.1033620260E-01    0.6338182230E+00
    0.1500000000E+07    0.2296299662E-04    0.1711248493E-04    0.6960318048E+00    0.9060538034E-02    0.6379739381E+00
    0.1700000000E+07    0.1809656959E-04    0.1358409188E-04    0.6960319230E+00    0.8063343092E-02    0.6412101639E+00
    0.1900000000E+07    0.1462578031E-04    0.1104984132E-04    0.6960320155E+00    0.7262585221E-02    0.6438014706E+00
    0.2100000000E+07    0.1206419336E-04    0.9167660529E-05    0.6960320896E+00    0.6605539331E-02    0.6459230178E+00
    0.2300000000E+07    0.1012013678E-04    0.7731078184E-05    0.6960321501E+00    0.6056780930E-02    0.6476918133E+00
    0.2500000000E+07    0.8610119929E-05    0.6609429192E-05    0.6960322004E+00    0.5591632465E-02    0.6491889965E+00
    0.2700000000E+07    0.7414037573E-05    0.5716722886E-05    0.6960322427E+00    0.5192377692E-02    0.6504726027E+00
    0.2900000000E+07    0.6450607779E-05    0.4994476118E-05    0.6960322788E+00    0.4845970242E-02    0.6515852395E+00
    0.3100000000E+07    0.5663235488E-05    0.4401781970E-05    0.6960323098E+00    0.4542591026E-02    0.6525588928E+00
    0.3300000000E+07    0.5011535231E-05    0.3909325900E-05    0.6960323366E+00    0.4274709059E-02    0.6534180421E+00
    0.3500000000E+07    0.4466064789E-05    0.3495652067E-05    0.6960323600E+00    0.4036452082E-02    0.6541817395E+00
    0.3700000000E+07    0.4004951645E-05    0.3144761816E-05    0.6960323806E+00    0.3823174015E-02    0.6548650350E+00
    0.3900000000E+07    0.3611672987E-05    0.2844527293E-05    0.6960323988E+00    0.3631150986E-02    0.6554799743E+00
    0.4100000000E+07    0.3273559581E-05    0.2585618509E-05    0.6960324149E+00    0.3457363488E-02    0.6560363127E+00
    0.4300000000E+07    0.2980765881E-05    0.2360762243E-05    0.6960324293E+00    0.3299337466E-02    0.6565420349E+00
    0.4500000000E+07    0.2725547427E-05    0.2164220419E-05    0.6960324422E+00    0.3155026554E-02    0.6570037384E+00
    0.4700000000E+07    0.2501745081E-05    0.1991416660E-05    0.6960324538E+00    0.3022723547E-02    0.6574269231E+00
    0.4900000000E+07    0.2304411117E-05    0.1838664765E-05    0.6960324642E+00    0.2900992979E-02    0.6578162094E+00
    0.1000000000E+07    0.4903512628E-04    0.3569803301E-04    0.6960312947E+00    0.1309285357E-01    0.6247726243E+00
    0.3000000000E+07    0.6037745093E-05    0.4683986887E-05    0.6960322948E+00    0.4689417868E-02    0.6520877615E+00
    0.5000000000E+07    0.2214385656E-05    0.1768849355E-05    0.6960324690E+00    0.2843705043E-02    0.6579993867E+00
    0.7000000000E+07    0.1138795944E-05    0.9267848384E-06    0.6960325297E+00    0.2036882682E-02    0.6605777481E+00
    0.9000000000E+07    0.6924095549E-06    0.5710557406E-06    0.6960325543E+00    0.1585118990E-02    0.6620207251E+00
    0.1100000000E+08    0.4654509371E-06    0.3877544637E-06    0.6960325635E+00    0.1296549368E-02    0.6629424643E+00
    0.1300000000E+08    0.3345657001E-06    0.2809086217E-06    0.6960325649E+00    0.1096383468E-02    0.6635819687E+00
    0.1500000000E+08    0.2522963222E-06    0.2131503748E-06    0.6960325621E+00    0.9494499836E-03    0.6640515450E+00
    0.1700000000E+08    0.1972376468E-06    0.1674594246E-06    0.6960325568E+00    0.8370383209E-03    0.6644109164E+00
    0.1900000000E+08    0.1585868189E-06    0.1351742490E-06    0.6960325499E+00    0.7482808768E-03    0.6646947658E+00
    0.2100000000E+08    0.1304141026E-06    0.1115061040E-06    0.6960325421E+00    0.6764349676E-03    0.6649246115E+00
    0.2300000000E+08    0.1092449742E-06    0.9363111126E-07    0.6960325337E+00    0.6170961909E-03    0.6651145100E+00
    0.2500000000E+08    0.9293420116E-07    0.7979580087E-07    0.6960325249E+00    0.5672661351E-03    0.6652740313E+00
    0.2700000000E+08    0.8009923977E-07    0.6886427743E-07    0.6960325160E+00    0.5248330747E-03    0.6654099164E+00
