  Pressure (Pa) 22mC5-500 (mol/kg) 23mC5-500 (mol/kg) 24mC5-500 (mol/kg) 2mC6-500 (mol/kg) 3mC6-500 (mol/kg)
    0.1000000000E+01    0.3300510370E-05    0.2874537525E-05    0.1266347250E+00    0.2730316716E-04    0.3647406563E-04
    0.3000000000E+01    0.7885226488E-05    0.6877793954E-05    0.2785359955E+00    0.6794268714E-04    0.1094009389E-03
    0.5000000000E+01    0.1130446603E-04    0.9876474637E-05    0.3664509519E+00    0.1012588748E-03    0.1822997023E-03
    0.7000000000E+01    0.1423008559E-04    0.1245249925E-04    0.4237770077E+00    0.1319125617E-03    0.2551704821E-03
    0.9000000000E+01    0.1691420333E-04    0.1482328460E-04    0.4641135208E+00    0.1614876475E-03    0.3280133437E-03
    0.1100000000E+02    0.1946886041E-04    0.1708499040E-04    0.4940387567E+00    0.1906120306E-03    0.4008283292E-03
    0.1300000000E+02    0.2194973143E-04    0.1928515085E-04    0.5171230296E+00    0.2195588249E-03    0.4736154708E-03
    0.1500000000E+02    0.2438675387E-04    0.2144917959E-04    0.5354716032E+00    0.2484531626E-03    0.5463747952E-03
    0.1700000000E+02    0.2679698808E-04    0.2359146632E-04    0.5504062484E+00    0.2773532911E-03    0.6191063262E-03
    0.1900000000E+02    0.2919058970E-04    0.2572051490E-04    0.5627987036E+00    0.3062855189E-03    0.6918100861E-03
    0.2100000000E+02    0.3157380655E-04    0.2784151317E-04    0.5732471854E+00    0.3352603664E-03    0.7644860957E-03
    0.2300000000E+02    0.3395057730E-04    0.2995769940E-04    0.5821758645E+00    0.3642804314E-03    0.8371343754E-03
    0.2500000000E+02    0.3632342785E-04    0.3207112553E-04    0.5898938717E+00    0.3933443703E-03    0.9097549449E-03
    0.2700000000E+02    0.3869399479E-04    0.3418310131E-04    0.5966318217E+00    0.4224489666E-03    0.9823478235E-03
    0.2900000000E+02    0.4106334187E-04    0.3629446165E-04    0.6025652535E+00    0.4515902214E-03    0.1054913030E-02
    0.3100000000E+02    0.4343215680E-04    0.3840573219E-04    0.6078301457E+00    0.4807639284E-03    0.1127450584E-02
    0.3300000000E+02    0.4580087688E-04    0.4051723441E-04    0.6125334665E+00    0.5099659710E-03    0.1199960504E-02
    0.3500000000E+02    0.4816977064E-04    0.4262915370E-04    0.6167605189E+00    0.5391924684E-03    0.1272442808E-02
    0.3700000000E+02    0.5053899210E-04    0.4474158422E-04    0.6205801614E+00    0.5684398387E-03    0.1344897515E-02
    0.3900000000E+02    0.5290861720E-04    0.4685455892E-04    0.6240485885E+00    0.5977048163E-03    0.1417324643E-02
    0.4100000000E+02    0.5527866869E-04    0.4896806986E-04    0.6272121141E+00    0.6269844462E-03    0.1489724211E-02
    0.4300000000E+02    0.5764913326E-04    0.5108208205E-04    0.6301092517E+00    0.6562760653E-03    0.1562096237E-02
    0.4500000000E+02    0.6001997343E-04    0.5319654307E-04    0.6327722904E+00    0.6855772791E-03    0.1634440739E-02
    0.4700000000E+02    0.6239113590E-04    0.5531138962E-04    0.6352285034E+00    0.7148859364E-03    0.1706757735E-02
    0.4900000000E+02    0.6476255739E-04    0.5742655216E-04    0.6375010857E+00    0.7442001048E-03    0.1779047243E-02
    0.1000000000E+02    0.1820340300E-04    0.1596408562E-04    0.4801082226E+00    0.1760841528E-03    0.3644243188E-03
    0.3000000000E+02    0.4224778377E-04    0.3735008420E-04    0.6052740002E+00    0.4661732800E-03    0.1091185263E-02
    0.5000000000E+02    0.6594834380E-04    0.5848422928E-04    0.6385748327E+00    0.7588587058E-03    0.1815181695E-02
    0.7000000000E+02    0.8966038934E-04    0.7963705979E-04    0.6539967866E+00    0.1051981474E-02    0.2536432045E-02
    0.9000000000E+02    0.1133246422E-03    0.1007499077E-03    0.6628913282E+00    0.1344460093E-02    0.3254954234E-02
    0.1100000000E+03    0.1368998840E-03    0.1217848398E-03    0.6686788291E+00    0.1635865980E-02    0.3970765965E-02
    0.1300000000E+03    0.1603621780E-03    0.1427202811E-03    0.6727452760E+00    0.1926003737E-02    0.4683884760E-02
    0.1500000000E+03    0.1836973187E-03    0.1635435707E-03    0.6757590101E+00    0.2214775157E-02    0.5394327980E-02
    0.1700000000E+03    0.2068965931E-03    0.1842470031E-03    0.6780819784E+00    0.2502128104E-02    0.6102112830E-02
    0.1900000000E+03    0.2299545352E-03    0.2048257737E-03    0.6799272598E+00    0.2788034503E-02    0.6807256358E-02
    0.2100000000E+03    0.2528676899E-03    0.2252768629E-03    0.6814284661E+00    0.3072479817E-02    0.7509775464E-02
    0.2300000000E+03    0.2756339014E-03    0.2455983976E-03    0.6826736287E+00    0.3355457588E-02    0.8209686899E-02
    0.2500000000E+03    0.2982518829E-03    0.2657892690E-03    0.6837231081E+00    0.3636966402E-02    0.8907007267E-02
    0.2700000000E+03    0.3207209470E-03    0.2858488930E-03    0.6846196740E+00    0.3917008115E-02    0.9601753026E-02
    0.2900000000E+03    0.3430408299E-03    0.3057770557E-03    0.6853944785E+00    0.4195586769E-02    0.1029394049E-01
    0.3100000000E+03    0.3652115740E-03    0.3255738095E-03    0.6860707497E+00    0.4472707902E-02    0.1098358584E-01
    0.3300000000E+03    0.3872334467E-03    0.3452394021E-03    0.6866661606E+00    0.4748378092E-02    0.1167070511E-01
    0.3500000000E+03    0.4091068835E-03    0.3647742270E-03    0.6871943961E+00    0.5022604655E-02    0.1235531419E-01
    0.3700000000E+03    0.4308324464E-03    0.3841787870E-03    0.6876662179E+00    0.5295395429E-02    0.1303742885E-01
    0.3900000000E+03    0.4524107947E-03    0.4034536686E-03    0.6880902056E+00    0.5566758631E-02    0.1371706470E-01
    0.4100000000E+03    0.4738426617E-03    0.4225995224E-03    0.6884732827E+00    0.5836702741E-02    0.1439423725E-01
    0.4300000000E+03    0.4951288384E-03    0.4416170480E-03    0.6888210982E+00    0.6105236431E-02    0.1506896184E-01
    0.4500000000E+03    0.5162701603E-03    0.4605069836E-03    0.6891383068E+00    0.6372368505E-02    0.1574125370E-01
    0.4700000000E+03    0.5372674974E-03    0.4792700964E-03    0.6894287784E+00    0.6638107851E-02    0.1641112794E-01
    0.4900000000E+03    0.5581217464E-03    0.4979071765E-03    0.6896957569E+00    0.6902463413E-02    0.1707859953E-01
    0.1000000000E+03    0.1251251833E-03    0.1112787366E-03    0.6660619672E+00    0.1490312564E-02    0.3613197808E-02
    0.3000000000E+03    0.3541448321E-03    0.3156918472E-03    0.6857437174E+00    0.4334329135E-02    0.1063907993E-01
    0.5000000000E+03    0.5684954988E-03    0.5071787061E-03    0.6898213093E+00    0.7034125078E-02    0.1741143897E-01
    0.7000000000E+03    0.7686891641E-03    0.6861954464E-03    0.6915839408E+00    0.9596900335E-02    0.2394565122E-01
    0.9000000000E+03    0.9556666929E-03    0.8535684646E-03    0.6925671687E+00    0.1203141837E-01    0.3025584269E-01
    0.1100000000E+04    0.1130355252E-02    0.1010110439E-02    0.6931943647E+00    0.1434593715E-01    0.3635501455E-01
    0.1300000000E+04    0.1293621180E-02    0.1156580299E-02    0.6936292729E+00    0.1654808859E-01    0.4225515344E-01
    0.1500000000E+04    0.1446264394E-02    0.1293678703E-02    0.6939485722E+00    0.1864490502E-01    0.4796732904E-01
    0.1700000000E+04    0.1589021118E-02    0.1422050563E-02    0.6941929546E+00    0.2064286717E-01    0.5350178057E-01
    0.1900000000E+04    0.1722568564E-02    0.1542289200E-02    0.6943860198E+00    0.2254795313E-01    0.5886799370E-01
    0.2100000000E+04    0.1847529928E-02    0.1654940722E-02    0.6945423970E+00    0.2436568411E-01    0.6407476903E-01
    0.2300000000E+04    0.1964479157E-02    0.1760508209E-02    0.6946716374E+00    0.2610116605E-01    0.6913028323E-01
    0.2500000000E+04    0.2073945373E-02    0.1859455577E-02    0.6947802413E+00    0.2775912703E-01    0.7404214381E-01
    0.2700000000E+04    0.2176416886E-02    0.1952211082E-02    0.6948727864E+00    0.2934395093E-01    0.7881743810E-01
    0.2900000000E+04    0.2272344835E-02    0.2039170502E-02    0.6949525897E+00    0.3085970764E-01    0.8346277737E-01
    0.3100000000E+04    0.2362146464E-02    0.2120699999E-02    0.6950221135E+00    0.3231018025E-01    0.8798433644E-01
    0.3300000000E+04    0.2446208086E-02    0.2197138701E-02    0.6950832239E+00    0.3369888942E-01    0.9238788946E-01
    0.3500000000E+04    0.2524887746E-02    0.2268801027E-02    0.6951373612E+00    0.3502911546E-01    0.9667884217E-01
    0.3700000000E+04    0.2598517628E-02    0.2335978790E-02    0.6951856546E+00    0.3630391813E-01    0.1008622611E+00
    0.3900000000E+04    0.2667406232E-02    0.2398943094E-02    0.6952290020E+00    0.3752615466E-01    0.1049429001E+00
    0.4100000000E+04    0.2731840333E-02    0.2457946044E-02    0.6952681263E+00    0.3869849590E-01    0.1089252243E+00
    0.4300000000E+04    0.2792086763E-02    0.2513222304E-02    0.6953036162E+00    0.3982344111E-01    0.1128134318E+00
    0.4500000000E+04    0.2848394025E-02    0.2564990500E-02    0.6953359555E+00    0.4090333131E-01    0.1166114740E+00
    0.4700000000E+04    0.2900993751E-02    0.2613454497E-02    0.6953655461E+00    0.4194036140E-01    0.1203230732E+00
    0.4900000000E+04    0.2950102036E-02    0.2658804563E-02    0.6953927241E+00    0.4293659121E-01    0.1239517395E+00
    0.1000000000E+04    0.1044491387E-02    0.9331445281E-03    0.6929119804E+00    0.1320318611E-01    0.3333103433E-01
    0.3000000000E+04    0.2317986602E-02    0.2080592190E-02    0.6949885083E+00    0.3159287854E-01    0.8573865955E-01
    0.5000000000E+04    0.2973410467E-02    0.2680367872E-02    0.6954054989E+00    0.4342001528E-01    0.1257360154E+00
    0.7000000000E+04    0.3298714677E-02    0.2985566705E-02    0.6955844168E+00    0.5135895258E-01    0.1577811764E+00
    0.9000000000E+04    0.3438080215E-02    0.3123442551E-02    0.6956838800E+00    0.5683306102E-01    0.1843655796E+00
    0.1100000000E+05    0.3469162836E-02    0.3162873024E-02    0.6957472030E+00    0.6066407791E-01    0.2069993021E+00
    0.1300000000E+05    0.3436113685E-02    0.3143242360E-02    0.6957910570E+00    0.6335677817E-01    0.2266564789E+00
    0.1500000000E+05    0.3365073936E-02    0.3088022346E-02    0.6958232256E+00    0.6523673916E-01    0.2439973475E+00
    0.1700000000E+05    0.3271997101E-02    0.3011645643E-02    0.6958478310E+00    0.6652236915E-01    0.2594877190E+00
    0.1900000000E+05    0.3166834880E-02    0.2923194475E-02    0.6958672604E+00    0.6736497877E-01    0.2734673294E+00
    0.2100000000E+05    0.3055885618E-02    0.2828476931E-02    0.6958829919E+00    0.6787224078E-01    0.2861909743E+00
    0.2300000000E+05    0.2943164327E-02    0.2731242657E-02    0.6958959896E+00    0.6812252326E-01    0.2978543360E+00
    0.2500000000E+05    0.2831228390E-02    0.2633918484E-02    0.6959069095E+00    0.6817396970E-01    0.3086107980E+00
    0.2700000000E+05    0.2721689006E-02    0.2538066109E-02    0.6959162129E+00    0.6807043306E-01    0.3185827363E+00
    0.2900000000E+05    0.2615535401E-02    0.2444673626E-02    0.6959242342E+00    0.6784545992E-01    0.3278693128E+00
    0.3100000000E+05    0.2513344392E-02    0.2354344982E-02    0.6959312213E+00    0.6752502942E-01    0.3365519823E+00
    0.3300000000E+05    0.2415418100E-02    0.2267425194E-02    0.6959373623E+00    0.6712947589E-01    0.3446984684E+00
    0.3500000000E+05    0.2321875674E-02    0.2184084311E-02    0.6959428021E+00    0.6667486362E-01    0.3523656882E+00
    0.3700000000E+05    0.2232715076E-02    0.2104374376E-02    0.6959476543E+00    0.6617398623E-01    0.3596019406E+00
    0.3900000000E+05    0.2147855056E-02    0.2028268439E-02    0.6959520092E+00    0.6563710415E-01    0.3664485685E+00
    0.4100000000E+05    0.2067163847E-02    0.1955687489E-02    0.6959559397E+00    0.6507249597E-01    0.3729412393E+00
    0.4300000000E+05    0.1990478845E-02    0.1886519125E-02    0.6959595049E+00    0.6448687585E-01    0.3791109440E+00
    0.4500000000E+05    0.1917620129E-02    0.1820630547E-02    0.6959627535E+00    0.6388571287E-01    0.3849847854E+00
    0.4700000000E+05    0.1848399713E-02    0.1757877584E-02    0.6959657258E+00    0.6327347792E-01    0.3905866066E+00
    0.4900000000E+05    0.1782627835E-02    0.1698110961E-02    0.6959684558E+00    0.6265383628E-01    0.3959374970E+00
    0.1000000000E+05    0.3463846008E-02    0.3152515501E-02    0.6957187046E+00    0.5891703699E-01    0.1961061198E+00
    0.3000000000E+05    0.2563920503E-02    0.2399099836E-02    0.6959278441E+00    0.6769579193E-01    0.3322816199E+00
    0.5000000000E+05    0.1750976383E-02    0.1669300573E-02    0.6959697389E+00    0.6234220102E-01    0.3985247836E+00
    0.7000000000E+05    0.1257306550E-02    0.1215668481E-02    0.6959877091E+00    0.5621649065E-01    0.4407223324E+00
    0.9000000000E+05    0.9444859201E-03    0.9236130050E-03    0.6959976985E+00    0.5078143385E-01    0.4706854836E+00
    0.1100000000E+06    0.7351023415E-03    0.7257059676E-03    0.6960040582E+00    0.4615496661E-01    0.4933060632E+00
    0.1300000000E+06    0.5883306497E-03    0.5855683540E-03    0.6960084626E+00    0.4223363175E-01    0.5110880000E+00
    0.1500000000E+06    0.4815222220E-03    0.4827061019E-03    0.6960116934E+00    0.3889159764E-01    0.5254798408E+00
    0.1700000000E+06    0.4013850744E-03    0.4049487739E-03    0.6960141645E+00    0.3601980973E-01    0.5373900458E+00
    0.1900000000E+06    0.3397210781E-03    0.3447168466E-03    0.6960161157E+00    0.3353068546E-01    0.5474222568E+00
    0.2100000000E+06    0.2912556204E-03    0.2970932563E-03    0.6960176953E+00    0.3135526818E-01    0.5559955087E+00
    0.2300000000E+06    0.2524712148E-03    0.2587752076E-03    0.6960190004E+00    0.2943934287E-01    0.5634108868E+00
    0.2500000000E+06    0.2209492643E-03    0.2274771080E-03    0.6960200966E+00    0.2774004652E-01    0.5698908661E+00
    0.2700000000E+06    0.1949823494E-03    0.2015760807E-03    0.6960210305E+00    0.2622320969E-01    0.5756037039E+00
    0.2900000000E+06    0.1733371833E-03    0.1798937211E-03    0.6960218354E+00    0.2486134252E-01    0.5806791827E+00
    0.3100000000E+06    0.1551048861E-03    0.1615573896E-03    0.6960225365E+00    0.2363212371E-01    0.5852191168E+00
    0.3300000000E+06    0.1396036677E-03    0.1459095517E-03    0.6960231525E+00    0.2251726580E-01    0.5893045639E+00
    0.3500000000E+06    0.1263139554E-03    0.1324470331E-03    0.6960236981E+00    0.2150165841E-01    0.5930008977E+00
    0.3700000000E+06    0.1148341646E-03    0.1207794110E-03    0.6960241846E+00    0.2057271614E-01    0.5963614517E+00
    0.3900000000E+06    0.1048499320E-03    0.1105999438E-03    0.6960246212E+00    0.1971987815E-01    0.5994301857E+00
    0.4100000000E+06    0.9611232159E-04    0.1016648948E-03    0.6960250150E+00    0.1893422052E-01    0.6022436698E+00
    0.4300000000E+06    0.8842213182E-04    0.9377858859E-04    0.6960253722E+00    0.1820815346E-01    0.6048325820E+00
    0.4500000000E+06    0.8161842685E-04    0.8678245035E-04    0.6960256975E+00    0.1753518262E-01    0.6072228543E+00
    0.4700000000E+06    0.7557003980E-04    0.8054685826E-04    0.6960259951E+00    0.1690971958E-01    0.6094365602E+00
    0.4900000000E+06    0.7016919929E-04    0.7496501251E-04    0.6960262683E+00    0.1632693000E-01    0.6114926088E+00
    0.1000000000E+06    0.8299944921E-03    0.8156660227E-03    0.6960011960E+00    0.4837210775E-01    0.4827230379E+00
    0.3000000000E+06    0.1638414768E-03    0.1703526134E-03    0.6960221977E+00    0.2423137838E-01    0.5830106081E+00
    0.5000000000E+06    0.6768311298E-04    0.7239093825E-04    0.6960263967E+00    0.1605020261E-01    0.6124666932E+00
    0.7000000000E+06    0.3671607993E-04    0.4002171866E-04    0.6960281912E+00    0.1197752894E-01    0.6266492960E+00
    0.9000000000E+06    0.2299042134E-04    0.2541933737E-04    0.6960291838E+00    0.9544502220E-02    0.6349970141E+00
    0.1100000000E+07    0.1573354522E-04    0.1759410371E-04    0.6960298120E+00    0.7928381765E-02    0.6404960671E+00
    0.1300000000E+07    0.1143896649E-04    0.1291226220E-04    0.6960302442E+00    0.6777539210E-02    0.6443915336E+00
    0.1500000000E+07    0.8689817397E-05    0.9887522980E-05    0.6960305587E+00    0.5916664446E-02    0.6472951807E+00
    0.1700000000E+07    0.6824973925E-05    0.7819398776E-05    0.6960307973E+00    0.5248618753E-02    0.6495427432E+00
    0.1900000000E+07    0.5502344551E-05    0.6342335328E-05    0.6960309840E+00    0.4715256067E-02    0.6513338264E+00
    0.2100000000E+07    0.4530524203E-05    0.5250280085E-05    0.6960311337E+00    0.4279652356E-02    0.6527945466E+00
    0.2300000000E+07    0.3795647439E-05    0.4419847165E-05    0.6960312561E+00    0.3917238341E-02    0.6540084971E+00
    0.2500000000E+07    0.3226543512E-05    0.3773459443E-05    0.6960313578E+00    0.3611033801E-02    0.6550332741E+00
    0.2700000000E+07    0.2776877662E-05    0.3260340563E-05    0.6960314434E+00    0.3348929072E-02    0.6559098517E+00
    0.2900000000E+07    0.2415435342E-05    0.2846115902E-05    0.6960315163E+00    0.3122056550E-02    0.6566681735E+00
    0.3100000000E+07    0.2120567250E-05    0.2506836569E-05    0.6960315790E+00    0.2923774401E-02    0.6573306295E+00
    0.3300000000E+07    0.1876876914E-05    0.2225399193E-05    0.6960316333E+00    0.2749009865E-02    0.6579142960E+00
    0.3500000000E+07    0.1673172947E-05    0.1989323033E-05    0.6960316808E+00    0.2593822020E-02    0.6584324230E+00
    0.3700000000E+07    0.1501162890E-05    0.1789326371E-05    0.6960317224E+00    0.2455102974E-02    0.6588954491E+00
    0.3900000000E+07    0.1354596904E-05    0.1618389682E-05    0.6960317593E+00    0.2330368944E-02    0.6593117092E+00
    0.4100000000E+07    0.1228692603E-05    0.1471124157E-05    0.6960317920E+00    0.2217611175E-02    0.6596879387E+00
    0.4300000000E+07    0.1119740306E-05    0.1343336856E-05    0.6960318211E+00    0.2115187633E-02    0.6600296396E+00
    0.4500000000E+07    0.1024826812E-05    0.1231725463E-05    0.6960318472E+00    0.2021743020E-02    0.6603413507E+00
    0.4700000000E+07    0.9416387176E-06    0.1133660296E-05    0.6960318707E+00    0.1936148848E-02    0.6606268487E+00
    0.4900000000E+07    0.8683201415E-06    0.1047026159E-05    0.6960318918E+00    0.1857457922E-02    0.6608893026E+00
    0.1000000000E+07    0.1884935015E-04    0.2096530369E-04    0.6960295298E+00    0.8662321441E-02    0.6380030423E+00
    0.3000000000E+07    0.2260759781E-05    0.2668306505E-05    0.6960315488E+00    0.3019689548E-02    0.6570102132E+00
    0.5000000000E+07    0.8348807819E-06    0.1007446122E-05    0.6960319016E+00    0.1820445976E-02    0.6610127414E+00
    0.7000000000E+07    0.4356600777E-06    0.5308261226E-06    0.6960320246E+00    0.1300607008E-02    0.6627463248E+00
    0.9000000000E+07    0.2698664893E-06    0.3297930127E-06    0.6960320746E+00    0.1010691521E-02    0.6637133675E+00
    0.1100000000E+08    0.1853172803E-06    0.2261615207E-06    0.6960320932E+00    0.8259380820E-03    0.6643299293E+00
    0.1300000000E+08    0.1363439570E-06    0.1656660162E-06    0.6960320961E+00    0.6979823965E-03    0.6647571805E+00
    0.1500000000E+08    0.1053960158E-06    0.1272190631E-06    0.6960320902E+00    0.6041587141E-03    0.6650706386E+00
    0.1700000000E+08    0.8455755803E-07    0.1012249509E-06    0.6960320793E+00    0.5324377903E-03    0.6653103840E+00
    0.1900000000E+08    0.6983080746E-07    0.8280217476E-07    0.6960320652E+00    0.4758448737E-03    0.6654996599E+00
    0.2100000000E+08    0.5901879063E-07    0.6925169963E-07    0.6960320492E+00    0.4300583252E-03    0.6656528709E+00
    0.2300000000E+08    0.5083220765E-07    0.5898135956E-07    0.6960320320E+00    0.3922581777E-03    0.6657794188E+00
    0.2500000000E+08    0.4447356090E-07    0.5100193382E-07    0.6960320140E+00    0.3605263111E-03    0.6658857002E+00
    0.2700000000E+08    0.3942781696E-07    0.4467212055E-07    0.6960319956E+00    0.3335127886E-03    0.6659762182E+00
