  Pressure (Pa) 22mC5-500 (mol/kg) 23mC5-500 (mol/kg) 24mC5-500 (mol/kg) 2mC6-500 (mol/kg) 3mC6-500 (mol/kg)
    0.1000000000E+01    0.3424281282E-05    0.1987912626E-05    0.9950245287E-01    0.2255058588E-04    0.5210502554E-04
    0.3000000000E+01    0.8487332153E-05    0.4932372042E-05    0.2321273823E+00    0.5761438139E-04    0.1562799159E-03
    0.5000000000E+01    0.1233440664E-04    0.7176765796E-05    0.3164998010E+00    0.8630704452E-04    0.2604081863E-03
    0.7000000000E+01    0.1558160732E-04    0.9077401003E-05    0.3749009252E+00    0.1121658179E-03    0.3644900049E-03
    0.9000000000E+01    0.1849994702E-04    0.1079053475E-04    0.4177234461E+00    0.1366454415E-03    0.4685254715E-03
    0.1100000000E+02    0.2122441818E-04    0.1239374401E-04    0.4504675370E+00    0.1604178636E-03    0.5725146563E-03
    0.1300000000E+02    0.2382841496E-04    0.1392905856E-04    0.4763167559E+00    0.1838189776E-03    0.6764576155E-03
    0.1500000000E+02    0.2635452096E-04    0.1542077253E-04    0.4972415344E+00    0.2070261762E-03    0.7803543971E-03
    0.1700000000E+02    0.2882870977E-04    0.1688364422E-04    0.5145267679E+00    0.2301367042E-03    0.8842050446E-03
    0.1900000000E+02    0.3126746056E-04    0.1832699638E-04    0.5290460966E+00    0.2532050785E-03    0.9880095989E-03
    0.2100000000E+02    0.3368156427E-04    0.1975690490E-04    0.5414142555E+00    0.2762620966E-03    0.1091768099E-02
    0.2300000000E+02    0.3607827021E-04    0.2117743039E-04    0.5520763692E+00    0.2993249803E-03    0.1195480582E-02
    0.2500000000E+02    0.3846255083E-04    0.2259134215E-04    0.5613626746E+00    0.3224030059E-03    0.1299147085E-02
    0.2700000000E+02    0.4083787478E-04    0.2400055959E-04    0.5695233409E+00    0.3455007332E-03    0.1402767643E-02
    0.2900000000E+02    0.4320669450E-04    0.2540642996E-04    0.5767513491E+00    0.3686199048E-03    0.1506342294E-02
    0.3100000000E+02    0.4557076210E-04    0.2680990777E-04    0.5831979505E+00    0.3917605870E-03    0.1609871071E-02
    0.3300000000E+02    0.4793133887E-04    0.2821167348E-04    0.5889833676E+00    0.4149218655E-03    0.1713354009E-02
    0.3500000000E+02    0.5028933708E-04    0.2961221358E-04    0.5942043633E+00    0.4381022748E-03    0.1816791143E-02
    0.3700000000E+02    0.5264541770E-04    0.3101187565E-04    0.5989396965E+00    0.4613000640E-03    0.1920182508E-02
    0.3900000000E+02    0.5500005890E-04    0.3241090672E-04    0.6032541239E+00    0.4845133618E-03    0.2023528138E-02
    0.4100000000E+02    0.5735360458E-04    0.3380948049E-04    0.6072013793E+00    0.5077402777E-03    0.2126828067E-02
    0.4300000000E+02    0.5970629935E-04    0.3520771682E-04    0.6108264229E+00    0.5309789633E-03    0.2230082330E-02
    0.4500000000E+02    0.6205831396E-04    0.3660569576E-04    0.6141671623E+00    0.5542276474E-03    0.2333290959E-02
    0.4700000000E+02    0.6440976394E-04    0.3800346795E-04    0.6172557830E+00    0.5774846555E-03    0.2436453988E-02
    0.4900000000E+02    0.6676072342E-04    0.3940106217E-04    0.6201197887E+00    0.6007484181E-03    0.2539571453E-02
    0.1000000000E+02    0.1988086369E-04    0.1160269684E-04    0.4351190016E+00    0.1485939748E-03    0.5205258454E-03
    0.3000000000E+02    0.4438923391E-04    0.2610842007E-04    0.5800641855E+00    0.3801875973E-03    0.1558112414E-02
    0.5000000000E+02    0.6793603367E-04    0.4009979698E-04    0.6214750815E+00    0.6123823714E-03    0.2591113109E-02
    0.7000000000E+02    0.9141761473E-04    0.5406350337E-04    0.6410915719E+00    0.8451156911E-03    0.3619562257E-02
    0.9000000000E+02    0.1148300932E-03    0.6799003026E-04    0.6525350218E+00    0.1077415181E-02    0.4643493226E-02
    0.1100000000E+03    0.1381386365E-03    0.8185680781E-04    0.6600327470E+00    0.1308829804E-02    0.5662938939E-02
    0.1300000000E+03    0.1613181295E-03    0.9564832032E-04    0.6653254415E+00    0.1539138573E-02    0.6677931959E-02
    0.1500000000E+03    0.1843522473E-03    0.1093546696E-03    0.6692611557E+00    0.1768225043E-02    0.7688504508E-02
    0.1700000000E+03    0.2072304465E-03    0.1229695310E-03    0.6723024736E+00    0.1996024825E-02    0.8694688487E-02
    0.1900000000E+03    0.2299458818E-03    0.1364888278E-03    0.6747231753E+00    0.2222501618E-02    0.9696515477E-02
    0.2100000000E+03    0.2524941143E-03    0.1499099310E-03    0.6766956446E+00    0.2447635299E-02    0.1069401675E-01
    0.2300000000E+03    0.2748723124E-03    0.1632311717E-03    0.6783338322E+00    0.2671415571E-02    0.1168722327E-01
    0.2500000000E+03    0.2970787469E-03    0.1764515356E-03    0.6797160807E+00    0.2893838358E-02    0.1267616570E-01
    0.2700000000E+03    0.3191124631E-03    0.1895704660E-03    0.6808980254E+00    0.3114903672E-02    0.1366087441E-01
    0.2900000000E+03    0.3409730624E-03    0.2025877337E-03    0.6819202661E+00    0.3334614278E-02    0.1464137946E-01
    0.3100000000E+03    0.3626605518E-03    0.2155033478E-03    0.6828131242E+00    0.3552974845E-02    0.1561771064E-01
    0.3300000000E+03    0.3841752404E-03    0.2283174938E-03    0.6835997022E+00    0.3769991382E-02    0.1658989743E-01
    0.3500000000E+03    0.4055176635E-03    0.2410304898E-03    0.6842979114E+00    0.3985670849E-02    0.1755796904E-01
    0.3700000000E+03    0.4266885293E-03    0.2536427540E-03    0.6849218521E+00    0.4200020897E-02    0.1852195442E-01
    0.3900000000E+03    0.4476886778E-03    0.2661547815E-03    0.6854827764E+00    0.4413049669E-02    0.1948188220E-01
    0.4100000000E+03    0.4685190514E-03    0.2785671264E-03    0.6859897725E+00    0.4624765671E-02    0.2043778076E-01
    0.4300000000E+03    0.4891806711E-03    0.2908803889E-03    0.6864502612E+00    0.4835177665E-02    0.2138967822E-01
    0.4500000000E+03    0.5096746198E-03    0.3030952043E-03    0.6868703615E+00    0.5044294599E-02    0.2233760243E-01
    0.4700000000E+03    0.5300020277E-03    0.3152122354E-03    0.6872551639E+00    0.5252125545E-02    0.2328158094E-01
    0.4900000000E+03    0.5501640619E-03    0.3272321661E-03    0.6876089381E+00    0.5458679659E-02    0.2422164110E-01
    0.1000000000E+03    0.1264991718E-03    0.7493201768E-04    0.6566375169E+00    0.1193250303E-02    0.5153774696E-02
    0.3000000000E+03    0.3518384326E-03    0.2090582394E-03    0.6823812825E+00    0.3443962967E-02    0.1513006493E-01
    0.5000000000E+03    0.5601834365E-03    0.3332059371E-03    0.6877753392E+00    0.5561480780E-02    0.2469021026E-01
    0.7000000000E+03    0.7521899322E-03    0.4477597881E-03    0.6901135566E+00    0.7552723245E-02    0.3386236019E-01
    0.9000000000E+03    0.9290845363E-03    0.5534370271E-03    0.6914195703E+00    0.9426701782E-02    0.4267212878E-01
    0.1100000000E+04    0.1092071116E-02    0.6509405548E-03    0.6922533118E+00    0.1119188997E-01    0.5114287488E-01
    0.1300000000E+04    0.1242265271E-02    0.7409214780E-03    0.6928317358E+00    0.1285605959E-01    0.5929594573E-01
    0.1500000000E+04    0.1380687432E-02    0.8239753503E-03    0.6932565543E+00    0.1442631031E-01    0.6715088956E-01
    0.1700000000E+04    0.1508267705E-02    0.9006450944E-03    0.6935817854E+00    0.1590912772E-01    0.7472564182E-01
    0.1900000000E+04    0.1625853362E-02    0.9714254031E-03    0.6938387759E+00    0.1731044286E-01    0.8203668883E-01
    0.2100000000E+04    0.1734216589E-02    0.1036767268E-02    0.6940469655E+00    0.1863568730E-01    0.8909921183E-01
    0.2300000000E+04    0.1834061801E-02    0.1097082238E-02    0.6942190505E+00    0.1988984282E-01    0.9592721430E-01
    0.2500000000E+04    0.1926032309E-02    0.1152746305E-02    0.6943636741E+00    0.2107748565E-01    0.1025336346E+00
    0.2700000000E+04    0.2010716326E-02    0.1204103393E-02    0.6944869247E+00    0.2220282591E-01    0.1089304459E+00
    0.2900000000E+04    0.2088652341E-02    0.1251468484E-02    0.6945932146E+00    0.2326974266E-01    0.1151287452E+00
    0.3100000000E+04    0.2160333920E-02    0.1295130411E-02    0.6946858198E+00    0.2428181505E-01    0.1211388327E+00
    0.3300000000E+04    0.2226213995E-02    0.1335354345E-02    0.6947672234E+00    0.2524235012E-01    0.1269702823E+00
    0.3500000000E+04    0.2286708689E-02    0.1372384025E-02    0.6948393423E+00    0.2615440766E-01    0.1326320054E+00
    0.3700000000E+04    0.2342200740E-02    0.1406443740E-02    0.6949036794E+00    0.2702082235E-01    0.1381323074E+00
    0.3900000000E+04    0.2393042566E-02    0.1437740117E-02    0.6949614299E+00    0.2784422365E-01    0.1434789391E+00
    0.4100000000E+04    0.2439559006E-02    0.1466463710E-02    0.6950135562E+00    0.2862705365E-01    0.1486791426E+00
    0.4300000000E+04    0.2482049787E-02    0.1492790435E-02    0.6950608417E+00    0.2937158312E-01    0.1537396928E+00
    0.4500000000E+04    0.2520791740E-02    0.1516882858E-02    0.6951039310E+00    0.3007992590E-01    0.1586669348E+00
    0.4700000000E+04    0.2556040788E-02    0.1538891351E-02    0.6951433590E+00    0.3075405195E-01    0.1634668180E+00
    0.4900000000E+04    0.2588033747E-02    0.1558955138E-02    0.6951795734E+00    0.3139579911E-01    0.1681449268E+00
    0.1000000000E+04    0.1012244356E-02    0.6031684967E-03    0.6918778721E+00    0.1032239257E-01    0.4694850092E-01
    0.3000000000E+04    0.2125245721E-02    0.1273745243E-02    0.6946410571E+00    0.2378242164E-01    0.1181567008E+00
    0.5000000000E+04    0.2602878377E-02    0.1568298460E-02    0.6951965959E+00    0.3170507146E-01    0.1704399681E+00
    0.7000000000E+04    0.2774180163E-02    0.1679781663E-02    0.6954350273E+00    0.3655219118E-01    0.2110679047E+00
    0.9000000000E+04    0.2790659970E-02    0.1697565540E-02    0.6955675919E+00    0.3955714862E-01    0.2439187989E+00
    0.1100000000E+05    0.2727679648E-02    0.1666427508E-02    0.6956519949E+00    0.4139755244E-01    0.2712656408E+00
    0.1300000000E+05    0.2624782898E-02    0.1610069580E-02    0.6957104504E+00    0.4247212673E-01    0.2945384272E+00
    0.1500000000E+05    0.2503469393E-02    0.1541516083E-02    0.6957533311E+00    0.4302819470E-01    0.3146879555E+00
    0.1700000000E+05    0.2375667221E-02    0.1468089452E-02    0.6957861308E+00    0.4322566575E-01    0.3323750112E+00
    0.1900000000E+05    0.2248025369E-02    0.1393942863E-02    0.6958120312E+00    0.4317142334E-01    0.3480757205E+00
    0.2100000000E+05    0.2124195976E-02    0.1321414005E-02    0.6958330023E+00    0.4293885930E-01    0.3621435887E+00
    0.2300000000E+05    0.2006095507E-02    0.1251777719E-02    0.6958503293E+00    0.4257949080E-01    0.3748477753E+00
    0.2500000000E+05    0.1894623507E-02    0.1185677904E-02    0.6958648863E+00    0.4213013992E-01    0.3863976554E+00
    0.2700000000E+05    0.1790082365E-02    0.1123381736E-02    0.6958772886E+00    0.4161751811E-01    0.3969591224E+00
    0.2900000000E+05    0.1692427087E-02    0.1064932316E-02    0.6958879817E+00    0.4106123700E-01    0.4066657304E+00
    0.3100000000E+05    0.1601415918E-02    0.1010241693E-02    0.6958972962E+00    0.4047583427E-01    0.4156265059E+00
    0.3300000000E+05    0.1516701902E-02    0.9591481393E-03    0.6959054827E+00    0.3987216595E-01    0.4239315494E+00
    0.3500000000E+05    0.1437888625E-02    0.9114515682E-03    0.6959127344E+00    0.3925838143E-01    0.4316561331E+00
    0.3700000000E+05    0.1364563971E-02    0.8669354129E-03    0.6959192028E+00    0.3864061737E-01    0.4388637521E+00
    0.3900000000E+05    0.1296320215E-02    0.8253800149E-03    0.6959250084E+00    0.3802349893E-01    0.4456084329E+00
    0.4100000000E+05    0.1232765599E-02    0.7865706466E-03    0.6959302480E+00    0.3741050649E-01    0.4519365053E+00
    0.4300000000E+05    0.1173530573E-02    0.7503021284E-03    0.6959350007E+00    0.3680424708E-01    0.4578879803E+00
    0.4500000000E+05    0.1118270717E-02    0.7163812843E-03    0.6959393313E+00    0.3620665740E-01    0.4634976338E+00
    0.4700000000E+05    0.1066667610E-02    0.6846280322E-03    0.6959432937E+00    0.3561915703E-01    0.4687958693E+00
    0.4900000000E+05    0.1018428458E-02    0.6548756229E-03    0.6959469329E+00    0.3504276510E-01    0.4738094102E+00
    0.1000000000E+05    0.2766064228E-02    0.1686295893E-02    0.6956140090E+00    0.4059339276E-01    0.2581765427E+00
    0.3000000000E+05    0.1646110995E-02    0.1037126031E-02    0.6958927941E+00    0.4077142411E-01    0.4112333264E+00
    0.5000000000E+05    0.9954856187E-03    0.6407012087E-03    0.6959486434E+00    0.3475896622E-01    0.4762169053E+00
    0.7000000000E+05    0.6596371750E-03    0.4312549615E-03    0.6959725982E+00    0.2973709621E-01    0.5139271374E+00
    0.9000000000E+05    0.4677300457E-03    0.3096050563E-03    0.6959859135E+00    0.2584289850E-01    0.5389032566E+00
    0.1100000000E+06    0.3484756622E-03    0.2330430157E-03    0.6959943902E+00    0.2279902255E-01    0.5567646930E+00
    0.1300000000E+06    0.2694898258E-03    0.1818019248E-03    0.6960002601E+00    0.2037311976E-01    0.5702091287E+00
    0.1500000000E+06    0.2145382748E-03    0.1458356377E-03    0.6960045656E+00    0.1840139431E-01    0.5807101087E+00
    0.1700000000E+06    0.1747931862E-03    0.1196210333E-03    0.6960078583E+00    0.1677034162E-01    0.5891460763E+00
    0.1900000000E+06    0.1451296362E-03    0.9992214203E-04    0.6960104580E+00    0.1540024693E-01    0.5960752458E+00
    0.2100000000E+06    0.1224100383E-03    0.8474210513E-04    0.6960125625E+00    0.1423396918E-01    0.6018701634E+00
    0.2300000000E+06    0.1046274639E-03    0.7279473351E-04    0.6960143009E+00    0.1322967242E-01    0.6067893490E+00
    0.2500000000E+06    0.9045023635E-04    0.6322126995E-04    0.6960157610E+00    0.1235610923E-01    0.6110180020E+00
    0.2700000000E+06    0.7896679344E-04    0.5543056450E-04    0.6960170047E+00    0.1158951183E-01    0.6146923674E+00
    0.2900000000E+06    0.6953623834E-04    0.4900485759E-04    0.6960180766E+00    0.1091150203E-01    0.6179149586E+00
    0.3100000000E+06    0.6169738873E-04    0.4364211266E-04    0.6960190101E+00    0.1030765737E-01    0.6207644165E+00
    0.3300000000E+06    0.5511156313E-04    0.3911955013E-04    0.6960198302E+00    0.9766508002E-02    0.6233020928E+00
    0.3500000000E+06    0.4952553214E-04    0.3526992054E-04    0.6960205564E+00    0.9278821957E-02    0.6255765636E+00
    0.3700000000E+06    0.4474690660E-04    0.3196567276E-04    0.6960212039E+00    0.8837087311E-02    0.6276267965E+00
    0.3900000000E+06    0.4062741231E-04    0.2910815097E-04    0.6960217848E+00    0.8435131048E-02    0.6294844183E+00
    0.4100000000E+06    0.3705129107E-04    0.2662007395E-04    0.6960223089E+00    0.8067834562E-02    0.6311753682E+00
    0.4300000000E+06    0.3392710850E-04    0.2444020411E-04    0.6960227841E+00    0.7730918476E-02    0.6327211231E+00
    0.4500000000E+06    0.3118187161E-04    0.2251950653E-04    0.6960232168E+00    0.7420777922E-02    0.6341396188E+00
    0.4700000000E+06    0.2875674103E-04    0.2081834027E-04    0.6960236126E+00    0.7134355044E-02    0.6354459515E+00
    0.4900000000E+06    0.2660386240E-04    0.1930437640E-04    0.6960239759E+00    0.6869039288E-02    0.6366529189E+00
    0.1000000000E+06    0.4015857221E-03    0.2672468587E-03    0.6959905754E+00    0.2423096181E-01    0.5485144181E+00
    0.3000000000E+06    0.6544137970E-04    0.4620607049E-04    0.6960185589E+00    0.1060108561E-01    0.6193821504E+00
    0.5000000000E+06    0.2561697071E-04    0.1860909921E-04    0.6960241466E+00    0.6743583375E-02    0.6372226171E+00
    0.7000000000E+06    0.1356234650E-04    0.1003574534E-04    0.6960265307E+00    0.4935307789E-02    0.6453647340E+00
    0.9000000000E+06    0.8382620229E-05    0.6286419625E-05    0.6960278471E+00    0.3887948530E-02    0.6500258368E+00
    0.1100000000E+07    0.5694562420E-05    0.4314538974E-05    0.6960286784E+00    0.3205330054E-02    0.6530444142E+00
    0.1300000000E+07    0.4123225634E-05    0.3149428916E-05    0.6960292489E+00    0.2725450683E-02    0.6551582135E+00
    0.1500000000E+07    0.3125972350E-05    0.2403356431E-05    0.6960296632E+00    0.2369807508E-02    0.6567207745E+00
    0.1700000000E+07    0.2453728629E-05    0.1896584087E-05    0.6960299766E+00    0.2095763674E-02    0.6579227124E+00
    0.1900000000E+07    0.1979167429E-05    0.1536457334E-05    0.6960302211E+00    0.1878174259E-02    0.6588758650E+00
    0.2100000000E+07    0.1631707917E-05    0.1271240436E-05    0.6960304164E+00    0.1701254695E-02    0.6596501723E+00
    0.2300000000E+07    0.1369670132E-05    0.1070185067E-05    0.6960305757E+00    0.1554598139E-02    0.6602916134E+00
    0.2500000000E+07    0.1167156918E-05    0.9140760389E-06    0.6960307075E+00    0.1431066166E-02    0.6608316565E+00
    0.2700000000E+07    0.1007390595E-05    0.7903996782E-06    0.6960308180E+00    0.1325599726E-02    0.6612925632E+00
    0.2900000000E+07    0.8791144888E-06    0.6907202064E-06    0.6960309117E+00    0.1234513804E-02    0.6616905255E+00
    0.3100000000E+07    0.7745481721E-06    0.6091814621E-06    0.6960309920E+00    0.1155060848E-02    0.6620376021E+00
    0.3300000000E+07    0.6881745419E-06    0.5416140688E-06    0.6960310612E+00    0.1085150650E-02    0.6623429574E+00
    0.3500000000E+07    0.6159933549E-06    0.4849836327E-06    0.6960311214E+00    0.1023164968E-02    0.6626136809E+00
    0.3700000000E+07    0.5550469412E-06    0.4370387620E-06    0.6960311740E+00    0.9678315067E-03    0.6628553427E+00
    0.3900000000E+07    0.5031103221E-06    0.3960802512E-06    0.6960312202E+00    0.9181362174E-03    0.6630723797E+00
    0.4100000000E+07    0.4584836911E-06    0.3608059780E-06    0.6960312609E+00    0.8732609786E-03    0.6632683696E+00
    0.4300000000E+07    0.4198503641E-06    0.3302043902E-06    0.6960312971E+00    0.8325384849E-03    0.6634462296E+00
    0.4500000000E+07    0.3861776157E-06    0.3034799227E-06    0.6960313292E+00    0.7954190466E-03    0.6636083617E+00
    0.4700000000E+07    0.3566462191E-06    0.2799998496E-06    0.6960313578E+00    0.7614457864E-03    0.6637567619E+00
    0.4900000000E+07    0.3305995717E-06    0.2592558054E-06    0.6960313834E+00    0.7302358561E-03    0.6638931020E+00
    0.1000000000E+07    0.6843941683E-05    0.5160505209E-05    0.6960283052E+00    0.3514057713E-02    0.6516809823E+00
    0.3000000000E+07    0.8242550443E-06    0.6479756652E-06    0.6960309534E+00    0.1193476721E-02    0.6618697951E+00
    0.5000000000E+07    0.3187129259E-06    0.2497778210E-06    0.6960313952E+00    0.7155641278E-03    0.6639571994E+00
    0.7000000000E+07    0.1761376332E-06    0.1354877943E-06    0.6960315367E+00    0.5100187373E-03    0.6648556231E+00
    0.9000000000E+07    0.1160825059E-06    0.8700555785E-07    0.6960315841E+00    0.3958073437E-03    0.6653554354E+00
    0.1100000000E+08    0.8490947134E-07    0.6180645721E-07    0.6960315920E+00    0.3231813520E-03    0.6656736500E+00
    0.1300000000E+08    0.6648855525E-07    0.4695164814E-07    0.6960315806E+00    0.2729539553E-03    0.6658939787E+00
    0.1500000000E+08    0.5459350880E-07    0.3740769480E-07    0.6960315588E+00    0.2361618411E-03    0.6660555464E+00
    0.1700000000E+08    0.4639964916E-07    0.3087911299E-07    0.6960315312E+00    0.2080583380E-03    0.6661790840E+00
    0.1900000000E+08    0.4047065343E-07    0.2619471436E-07    0.6960315003E+00    0.1858956436E-03    0.6662765997E+00
    0.2100000000E+08    0.3601118068E-07    0.2270468483E-07    0.6960314675E+00    0.1679732686E-03    0.6663555288E+00
    0.2300000000E+08    0.3255063956E-07    0.2002420610E-07    0.6960314337E+00    0.1531826792E-03    0.6664207213E+00
    0.2500000000E+08    0.2979539869E-07    0.1791317786E-07    0.6960313994E+00    0.1407704511E-03    0.6664754753E+00
    0.2700000000E+08    0.2755408570E-07    0.1621524376E-07    0.6960313649E+00    0.1302066837E-03    0.6665221117E+00
