  Pressure (Pa) 22mC5-500 (mol/kg) 23mC5-500 (mol/kg) 24mC5-500 (mol/kg) 2mC6-500 (mol/kg) 3mC6-500 (mol/kg)
    0.1000000000E+01    0.2993400455E-05    0.1738945590E-05    0.1950033644E+00    0.2011280096E-04    0.3126393313E-04
    0.3000000000E+01    0.6681829971E-05    0.3892654593E-05    0.3749193317E+00    0.4810026767E-04    0.9377645651E-04
    0.5000000000E+01    0.9483638069E-05    0.5539876401E-05    0.4597583308E+00    0.7218613796E-04    0.1562688199E-03
    0.7000000000E+01    0.1202466629E-04    0.7040247342E-05    0.5091350640E+00    0.9548646355E-04    0.2187411355E-03
    0.9000000000E+01    0.1446946854E-04    0.8487458724E-05    0.5414407456E+00    0.1186535071E-03    0.2811934493E-03
    0.1100000000E+02    0.1687504527E-04    0.9913615712E-05    0.5642236704E+00    0.1418522426E-03    0.3436257877E-03
    0.1300000000E+02    0.1926442155E-04    0.1133151537E-04    0.5811535857E+00    0.1651217145E-03    0.4060381700E-03
    0.1500000000E+02    0.2164777852E-04    0.1274671805E-04    0.5942292712E+00    0.1884644027E-03    0.4684306121E-03
    0.1700000000E+02    0.2402983550E-04    0.1416173747E-04    0.6046324092E+00    0.2118723269E-03    0.5308031279E-03
    0.1900000000E+02    0.2641279483E-04    0.1557770041E-04    0.6131064064E+00    0.2353353467E-03    0.5931557306E-03
    0.2100000000E+02    0.2879763400E-04    0.1699506902E-04    0.6201423444E+00    0.2588438161E-03    0.6554884324E-03
    0.2300000000E+02    0.3118471415E-04    0.1841397787E-04    0.6260776607E+00    0.2823893252E-03    0.7178012455E-03
    0.2500000000E+02    0.3357408216E-04    0.1983439940E-04    0.6311518785E+00    0.3059647821E-03    0.7800941814E-03
    0.2700000000E+02    0.3596562650E-04    0.2125622806E-04    0.6355397195E+00    0.3295642815E-03    0.8423672517E-03
    0.2900000000E+02    0.3835915987E-04    0.2267932426E-04    0.6393716299E+00    0.3531829225E-03    0.9046204677E-03
    0.3100000000E+02    0.4075446359E-04    0.2410353732E-04    0.6427469702E+00    0.3768166331E-03    0.9668538406E-03
    0.3300000000E+02    0.4315131159E-04    0.2552871751E-04    0.6457427536E+00    0.4004620181E-03    0.1029067382E-02
    0.3500000000E+02    0.4554948303E-04    0.2695472209E-04    0.6484195950E+00    0.4241162330E-03    0.1091261102E-02
    0.3700000000E+02    0.4794876868E-04    0.2838141800E-04    0.6508258543E+00    0.4477768826E-03    0.1153435013E-02
    0.3900000000E+02    0.5034897382E-04    0.2980868291E-04    0.6530005853E+00    0.4714419389E-03    0.1215589124E-02
    0.4100000000E+02    0.5274991915E-04    0.3123640518E-04    0.6549756707E+00    0.4951096757E-03    0.1277723448E-02
    0.4300000000E+02    0.5515144057E-04    0.3266448340E-04    0.6567773963E+00    0.5187786157E-03    0.1339837995E-02
    0.4500000000E+02    0.5755338846E-04    0.3409282567E-04    0.6584276276E+00    0.5424474888E-03    0.1401932776E-02
    0.4700000000E+02    0.5995562667E-04    0.3552134877E-04    0.6599447009E+00    0.5661151970E-03    0.1464007802E-02
    0.4900000000E+02    0.6235803141E-04    0.3694997738E-04    0.6613441085E+00    0.5897807874E-03    0.1526063084E-02
    0.1000000000E+02    0.1567527940E-04    0.9202119570E-05    0.5537384511E+00    0.1302450790E-03    0.3124121141E-03
    0.3000000000E+02    0.3955660458E-04    0.2339130065E-04    0.6411111147E+00    0.3649981206E-03    0.9357396338E-03
    0.5000000000E+02    0.6355926064E-04    0.3766430966E-04    0.6620038843E+00    0.6016125244E-03    0.1557083324E-02
    0.7000000000E+02    0.8757018183E-04    0.5194298974E-04    0.6713810820E+00    0.8379815639E-03    0.2176454196E-02
    0.9000000000E+02    0.1115168095E-03    0.6618369254E-04    0.6767064918E+00    0.1073616345E-02    0.2793862998E-02
    0.1100000000E+03    0.1353675875E-03    0.8036779736E-04    0.6801396780E+00    0.1308354048E-02    0.3409320361E-02
    0.1300000000E+03    0.1591069720E-03    0.9448622664E-04    0.6825370240E+00    0.1542127631E-02    0.4022836832E-02
    0.1500000000E+03    0.1827265821E-03    0.1085341226E-03    0.6843058763E+00    0.1774906408E-02    0.4634422871E-02
    0.1700000000E+03    0.2062216428E-03    0.1225087361E-03    0.6856647467E+00    0.2006675960E-02    0.5244088860E-02
    0.1900000000E+03    0.2295893658E-03    0.1364084729E-03    0.6867413719E+00    0.2237430045E-02    0.5851845104E-02
    0.2100000000E+03    0.2528281353E-03    0.1502324175E-03    0.6876154160E+00    0.2467166879E-02    0.6457701829E-02
    0.2300000000E+03    0.2759370664E-03    0.1639800760E-03    0.6883391406E+00    0.2695887280E-02    0.7061669189E-02
    0.2500000000E+03    0.2989157499E-03    0.1776512276E-03    0.6889482543E+00    0.2923593656E-02    0.7663757261E-02
    0.2700000000E+03    0.3217640971E-03    0.1912458355E-03    0.6894679851E+00    0.3150289426E-02    0.8263976050E-02
    0.2900000000E+03    0.3444822416E-03    0.2047639897E-03    0.6899166631E+00    0.3375978669E-02    0.8862335488E-02
    0.3100000000E+03    0.3670704752E-03    0.2182058707E-03    0.6903079268E+00    0.3600665910E-02    0.9458845433E-02
    0.3300000000E+03    0.3895292040E-03    0.2315717237E-03    0.6906521342E+00    0.3824355972E-02    0.1005351567E-01
    0.3500000000E+03    0.4118589183E-03    0.2448618419E-03    0.6909572930E+00    0.4047053886E-02    0.1064635593E-01
    0.3700000000E+03    0.4340601710E-03    0.2580765536E-03    0.6912296915E+00    0.4268764823E-02    0.1123737584E-01
    0.3900000000E+03    0.4561335621E-03    0.2712162141E-03    0.6914743365E+00    0.4489494050E-02    0.1182658499E-01
    0.4100000000E+03    0.4780797273E-03    0.2842811985E-03    0.6916952641E+00    0.4709246895E-02    0.1241399288E-01
    0.4300000000E+03    0.4998993293E-03    0.2972718971E-03    0.6918957639E+00    0.4928028728E-02    0.1299960896E-01
    0.4500000000E+03    0.5215930513E-03    0.3101887118E-03    0.6920785440E+00    0.5145844937E-02    0.1358344259E-01
    0.4700000000E+03    0.5431615921E-03    0.3230320529E-03    0.6922458542E+00    0.5362700923E-02    0.1416550309E-01
    0.4900000000E+03    0.5646056618E-03    0.3358023371E-03    0.6923995787E+00    0.5578602082E-02    0.1474579969E-01
    0.1000000000E+03    0.1234553832E-03    0.7328352416E-04    0.6785904344E+00    0.1191102757E-02    0.3101834948E-02
    0.3000000000E+03    0.3557925742E-03    0.2114944504E-03    0.6901187602E+00    0.3488447244E-02    0.9160821033E-02
    0.5000000000E+03    0.5752812445E-03    0.3421602145E-03    0.6924718532E+00    0.5686196287E-02    0.1503528940E-01
    0.7000000000E+03    0.7824363506E-03    0.4655866216E-03    0.6934853114E+00    0.7789260123E-02    0.2073468806E-01
    0.9000000000E+03    0.9779795870E-03    0.5821959374E-03    0.6940496578E+00    0.9802868302E-02    0.2626781472E-01
    0.1100000000E+04    0.1162612279E-02    0.6923977241E-03    0.6944092827E+00    0.1173194503E-01    0.3164287222E-01
    0.1300000000E+04    0.1336993365E-02    0.7965766016E-03    0.6946584826E+00    0.1358108448E-01    0.3686751819E-01
    0.1500000000E+04    0.1501737403E-02    0.8950912522E-03    0.6948413498E+00    0.1535456828E-01    0.4194890987E-01
    0.1700000000E+04    0.1657416497E-02    0.9882756008E-03    0.6949812594E+00    0.1705638864E-01    0.4689374442E-01
    0.1900000000E+04    0.1804563127E-02    0.1076440488E-02    0.6950917577E+00    0.1869027097E-01    0.5170829560E-01
    0.2100000000E+04    0.1943673100E-02    0.1159875396E-02    0.6951812372E+00    0.2025969516E-01    0.5639844681E-01
    0.2300000000E+04    0.2075208382E-02    0.1238850107E-02    0.6952551746E+00    0.2176791489E-01    0.6096972117E-01
    0.2500000000E+04    0.2199599744E-02    0.1313616239E-02    0.6953172959E+00    0.2321797541E-01    0.6542730890E-01
    0.2700000000E+04    0.2317249191E-02    0.1384408663E-02    0.6953702242E+00    0.2461272965E-01    0.6977609213E-01
    0.2900000000E+04    0.2428532199E-02    0.1451446804E-02    0.6954158596E+00    0.2595485290E-01    0.7402066762E-01
    0.3100000000E+04    0.2533799746E-02    0.1514935825E-02    0.6954556125E+00    0.2724685623E-01    0.7816536744E-01
    0.3300000000E+04    0.2633380188E-02    0.1575067714E-02    0.6954905514E+00    0.2849109865E-01    0.8221427793E-01
    0.3500000000E+04    0.2727580951E-02    0.1632022270E-02    0.6955215009E+00    0.2968979832E-01    0.8617125699E-01
    0.3700000000E+04    0.2816690096E-02    0.1685968016E-02    0.6955491075E+00    0.3084504273E-01    0.9003994994E-01
    0.3900000000E+04    0.2900977744E-02    0.1737063021E-02    0.6955738850E+00    0.3195879802E-01    0.9382380415E-01
    0.4100000000E+04    0.2980697376E-02    0.1785455663E-02    0.6955962471E+00    0.3303291755E-01    0.9752608238E-01
    0.4300000000E+04    0.3056087035E-02    0.1831285323E-02    0.6956165308E+00    0.3406914975E-01    0.1011498751E+00
    0.4500000000E+04    0.3127370422E-02    0.1874683024E-02    0.6956350128E+00    0.3506914533E-01    0.1046981118E+00
    0.4700000000E+04    0.3194757902E-02    0.1915772017E-02    0.6956519231E+00    0.3603446390E-01    0.1081735715E+00
    0.4900000000E+04    0.3258447433E-02    0.1954668321E-02    0.6956674539E+00    0.3696658006E-01    0.1115788924E+00
    0.1000000000E+04    0.1071617518E-02    0.6380731187E-03    0.6942474034E+00    0.1077767838E-01    0.2897461128E-01
    0.3000000000E+04    0.2481896873E-02    0.1483622658E-02    0.6954363979E+00    0.2660696869E-01    0.7610524104E-01
    0.5000000000E+04    0.3288964147E-02    0.1973328615E-02    0.6956747538E+00    0.3742062621E-01    0.1132560389E+00
    0.7000000000E+04    0.3745050936E-02    0.2254824367E-02    0.6957769759E+00    0.4506031382E-01    0.1436637946E+00
    0.9000000000E+04    0.3988020330E-02    0.2409065187E-02    0.6958337877E+00    0.5058298866E-01    0.1692638030E+00
    0.1100000000E+05    0.4097694439E-02    0.2483103273E-02    0.6958699502E+00    0.5463515237E-01    0.1912890316E+00
    0.1300000000E+05    0.4122392681E-02    0.2505545643E-02    0.6958949910E+00    0.5763260178E-01    0.2105655248E+00
    0.1500000000E+05    0.4092399906E-02    0.2494410531E-02    0.6959133573E+00    0.5985381022E-01    0.2276697901E+00
    0.1700000000E+05    0.4027223761E-02    0.2461368487E-02    0.6959274041E+00    0.6149159806E-01    0.2430180376E+00
    0.1900000000E+05    0.3939701427E-02    0.2414147355E-02    0.6959384951E+00    0.6268324415E-01    0.2569194371E+00
    0.2100000000E+05    0.3838419777E-02    0.2357952944E-02    0.6959474745E+00    0.6352881079E-01    0.2696092953E+00
    0.2300000000E+05    0.3729191110E-02    0.2296337629E-02    0.6959548931E+00    0.6410271409E-01    0.2812704919E+00
    0.2500000000E+05    0.3615979489E-02    0.2231747181E-02    0.6959611252E+00    0.6446126437E-01    0.2920477726E+00
    0.2700000000E+05    0.3501496861E-02    0.2165873793E-02    0.6959664345E+00    0.6464771728E-01    0.3020575448E+00
    0.2900000000E+05    0.3387594973E-02    0.2099888985E-02    0.6959710119E+00    0.6469573991E-01    0.3113947544E+00
    0.3100000000E+05    0.3275527880E-02    0.2034600188E-02    0.6959749989E+00    0.6463184050E-01    0.3201378181E+00
    0.3300000000E+05    0.3166130612E-02    0.1970557763E-02    0.6959785028E+00    0.6447710414E-01    0.3283522288E+00
    0.3500000000E+05    0.3059942509E-02    0.1908129195E-02    0.6959816066E+00    0.6424845389E-01    0.3360932375E+00
    0.3700000000E+05    0.2957293378E-02    0.1847551174E-02    0.6959843749E+00    0.6395958119E-01    0.3434078778E+00
    0.3900000000E+05    0.2858364323E-02    0.1788966555E-02    0.6959868595E+00    0.6362164164E-01    0.3503365176E+00
    0.4100000000E+05    0.2763231058E-02    0.1732450833E-02    0.6959891018E+00    0.6324378207E-01    0.3569140624E+00
    0.4300000000E+05    0.2671894985E-02    0.1678031249E-02    0.6959911356E+00    0.6283354415E-01    0.3631708996E+00
    0.4500000000E+05    0.2584305617E-02    0.1625700680E-02    0.6959929887E+00    0.6239717687E-01    0.3691336480E+00
    0.4700000000E+05    0.2500376829E-02    0.1575427782E-02    0.6959946842E+00    0.6193988060E-01    0.3748257584E+00
    0.4900000000E+05    0.2419998671E-02    0.1527164427E-02    0.6959962413E+00    0.6146599958E-01    0.3802679988E+00
    0.1000000000E+05    0.4055960014E-02    0.2454005364E-02    0.6958536761E+00    0.5276285916E-01    0.1806643896E+00
    0.3000000000E+05    0.3331271730E-02    0.2067118161E-02    0.6959730718E+00    0.6467635222E-01    0.3158361935E+00
    0.5000000000E+05    0.2381102371E-02    0.1503768075E-02    0.6959969732E+00    0.6122400153E-01    0.3829012733E+00
    0.7000000000E+05    0.1756861456E-02    0.1124613645E-02    0.6960072213E+00    0.5613837787E-01    0.4260286832E+00
    0.9000000000E+05    0.1344381446E-02    0.8700527471E-03    0.6960129162E+00    0.5130424630E-01    0.4568851604E+00
    0.1100000000E+06    0.1060640373E-02    0.6927817519E-03    0.6960165409E+00    0.4703821197E-01    0.4803318194E+00
    0.1300000000E+06    0.8577947902E-03    0.5647705653E-03    0.6960190506E+00    0.4333691041E-01    0.4988672399E+00
    0.1500000000E+06    0.7079475585E-03    0.4693933606E-03    0.6960208910E+00    0.4012889519E-01    0.5139429508E+00
    0.1700000000E+06    0.5941709082E-03    0.3964333660E-03    0.6960222984E+00    0.3733650270E-01    0.5264732370E+00
    0.1900000000E+06    0.5057654173E-03    0.3393669520E-03    0.6960234094E+00    0.3489114998E-01    0.5370682600E+00
    0.2100000000E+06    0.4357151347E-03    0.2938795929E-03    0.6960243087E+00    0.3273582219E-01    0.5461533875E+00
    0.2300000000E+06    0.3792691950E-03    0.2570279387E-03    0.6960250515E+00    0.3082404152E-01    0.5540355082E+00
    0.2500000000E+06    0.3331193226E-03    0.2267488851E-03    0.6960256753E+00    0.2911808328E-01    0.5609422693E+00
    0.2700000000E+06    0.2949049193E-03    0.2015616187E-03    0.6960262066E+00    0.2758725969E-01    0.5670464730E+00
    0.2900000000E+06    0.2629051787E-03    0.1803808804E-03    0.6960266645E+00    0.2620647892E-01    0.5724818689E+00
    0.3100000000E+06    0.2358417764E-03    0.1623965098E-03    0.6960270633E+00    0.2495509302E-01    0.5773537232E+00
    0.3300000000E+06    0.2127490335E-03    0.1469937154E-03    0.6960274136E+00    0.2381599407E-01    0.5817460969E+00
    0.3500000000E+06    0.1928864375E-03    0.1336990710E-03    0.6960277238E+00    0.2277490919E-01    0.5857269787E+00
    0.3700000000E+06    0.1756784421E-03    0.1221431701E-03    0.6960280003E+00    0.2181985038E-01    0.5893519832E+00
    0.3900000000E+06    0.1606722423E-03    0.1120343143E-03    0.6960282484E+00    0.2094068348E-01    0.5926670652E+00
    0.4100000000E+06    0.1475076430E-03    0.1031396592E-03    0.6960284722E+00    0.2012878880E-01    0.5957105440E+00
    0.4300000000E+06    0.1358952193E-03    0.9527149519E-04    0.6960286752E+00    0.1937679205E-01    0.5985146358E+00
    0.4500000000E+06    0.1256002586E-03    0.8827712327E-04    0.6960288600E+00    0.1867834980E-01    0.6011066295E+00
    0.4700000000E+06    0.1164307993E-03    0.8203128840E-04    0.6960290290E+00    0.1802797716E-01    0.6035097986E+00
    0.4900000000E+06    0.1082286140E-03    0.7643045618E-04    0.6960291841E+00    0.1742090851E-01    0.6057441171E+00
    0.1000000000E+06    0.1190022998E-02    0.7738552994E-03    0.6960149098E+00    0.4909746893E-01    0.4693447951E+00
    0.3000000000E+06    0.2488229305E-03    0.1710314209E-03    0.6960268706E+00    0.2556575471E-01    0.5749825565E+00
    0.5000000000E+06    0.1044483013E-03    0.7384440229E-04    0.6960292570E+00    0.1713229228E-01    0.6068034392E+00
    0.7000000000E+06    0.5708068135E-04    0.4113123353E-04    0.6960302752E+00    0.1285796361E-01    0.6222854154E+00
    0.9000000000E+06    0.3588842250E-04    0.2623516642E-04    0.6960308374E+00    0.1028076231E-01    0.6314508543E+00
    0.1100000000E+07    0.2462041792E-04    0.1820716087E-04    0.6960311927E+00    0.8559116962E-02    0.6375109643E+00
    0.1300000000E+07    0.1792692470E-04    0.1338569649E-04    0.6960314367E+00    0.7328385898E-02    0.6418149454E+00
    0.1500000000E+07    0.1363068136E-04    0.1026227291E-04    0.6960316139E+00    0.6405170677E-02    0.6450291895E+00
    0.1700000000E+07    0.1071064857E-04    0.8122336116E-05    0.6960317482E+00    0.5687225163E-02    0.6475207987E+00
    0.1900000000E+07    0.8636536738E-05    0.6591592935E-05    0.6960318530E+00    0.5113066445E-02    0.6495086591E+00
    0.2100000000E+07    0.7110792420E-05    0.5458454683E-05    0.6960319370E+00    0.4643513579E-02    0.6511313850E+00
    0.2300000000E+07    0.5956001697E-05    0.4595928989E-05    0.6960320054E+00    0.4252422068E-02    0.6524810232E+00
    0.2500000000E+07    0.5061069232E-05    0.3924021739E-05    0.6960320622E+00    0.3921681442E-02    0.6536210915E+00
    0.2700000000E+07    0.4353557953E-05    0.3390293339E-05    0.6960321099E+00    0.3638351222E-02    0.6545968347E+00
    0.2900000000E+07    0.3784606696E-05    0.2959196817E-05    0.6960321504E+00    0.3392940051E-02    0.6554413536E+00
    0.3100000000E+07    0.3320290501E-05    0.2605938939E-05    0.6960321852E+00    0.3178329022E-02    0.6561794225E+00
    0.3300000000E+07    0.2936460435E-05    0.2312796372E-05    0.6960322153E+00    0.2989074448E-02    0.6568299517E+00
    0.3500000000E+07    0.2615549125E-05    0.2066825207E-05    0.6960322414E+00    0.2820942778E-02    0.6574076251E+00
    0.3700000000E+07    0.2344530694E-05    0.1858392263E-05    0.6960322644E+00    0.2670592241E-02    0.6579240181E+00
    0.3900000000E+07    0.2113581890E-05    0.1680207535E-05    0.6960322846E+00    0.2535349922E-02    0.6583883788E+00
    0.4100000000E+07    0.1915181960E-05    0.1526671392E-05    0.6960323025E+00    0.2413052507E-02    0.6588081845E+00
    0.4300000000E+07    0.1743494351E-05    0.1393424648E-05    0.6960323184E+00    0.2301930435E-02    0.6591895461E+00
    0.4500000000E+07    0.1593933747E-05    0.1277032505E-05    0.6960323326E+00    0.2200522269E-02    0.6595375066E+00
    0.4700000000E+07    0.1462857572E-05    0.1174758670E-05    0.6960323453E+00    0.2107610472E-02    0.6598562643E+00
    0.4900000000E+07    0.1347342697E-05    0.1084401393E-05    0.6960323567E+00    0.2022172597E-02    0.6601493427E+00
    0.1000000000E+07    0.2946453084E-04    0.2167009574E-04    0.6960310332E+00    0.9341944043E-02    0.6347613382E+00
    0.3000000000E+07    0.3541063104E-05    0.2774079562E-05    0.6960321685E+00    0.3282157684E-02    0.6558223973E+00
    0.5000000000E+07    0.1294662725E-05    0.1043119200E-05    0.6960323619E+00    0.1981980790E-02    0.6602872014E+00
    0.7000000000E+07    0.6662386313E-06    0.5460458008E-06    0.6960324267E+00    0.1417042753E-02    0.6622244203E+00
    0.9000000000E+07    0.4059857777E-06    0.3365800385E-06    0.6960324510E+00    0.1101619908E-02    0.6633059770E+00
    0.1100000000E+08    0.2737690614E-06    0.2287788985E-06    0.6960324580E+00    0.9004782745E-03    0.6639958994E+00
    0.1300000000E+08    0.1975290847E-06    0.1659802287E-06    0.6960324565E+00    0.7611116038E-03    0.6644741470E+00
    0.1500000000E+08    0.1495927743E-06    0.1261651075E-06    0.6960324504E+00    0.6588890558E-03    0.6648251027E+00
    0.1700000000E+08    0.1174923299E-06    0.9931710871E-07    0.6960324416E+00    0.5807297075E-03    0.6650935751E+00
    0.1900000000E+08    0.9493979484E-07    0.8034337043E-07    0.6960324312E+00    0.5190453027E-03    0.6653055589E+00
    0.2100000000E+08    0.7848512539E-07    0.6642989215E-07    0.6960324199E+00    0.4691322986E-03    0.6654771689E+00
    0.2300000000E+08    0.6610722911E-07    0.5591799885E-07    0.6960324081E+00    0.4279206131E-03    0.6656189255E+00
    0.2500000000E+08    0.5655835229E-07    0.4777805625E-07    0.6960323959E+00    0.3933214946E-03    0.6657379876E+00
    0.2700000000E+08    0.4903433090E-07    0.4134320388E-07    0.6960323836E+00    0.3638646248E-03    0.6658393959E+00
