  Pressure (Pa) 22mC5-500 (mol/kg) 23mC5-500 (mol/kg) 24mC5-500 (mol/kg) 2mC6-500 (mol/kg) 3mC6-500 (mol/kg)
    0.1000000000E+01    0.6377033386E-05    0.8332374250E-05    0.1514068714E+00    0.1590538217E-04    0.5210839851E-05
    0.3000000000E+01    0.1480759134E-04    0.1938556738E-04    0.3165059533E+00    0.3885538493E-04    0.1563104675E-04
    0.5000000000E+01    0.2108164827E-04    0.2765599824E-04    0.4047859344E+00    0.5791183290E-04    0.2604932842E-04
    0.7000000000E+01    0.2655748269E-04    0.3490555829E-04    0.4597435933E+00    0.7580413095E-04    0.3646570202E-04
    0.9000000000E+01    0.3168076179E-04    0.4170898144E-04    0.4972508195E+00    0.9331404371E-04    0.4688017471E-04
    0.1100000000E+02    0.3663176655E-04    0.4829725610E-04    0.5244805193E+00    0.1107102654E-03    0.5729275029E-04
    0.1300000000E+02    0.4149359572E-04    0.5477607988E-04    0.5451480910E+00    0.1280937518E-03    0.6770343118E-04
    0.1500000000E+02    0.4630807492E-04    0.6119820856E-04    0.5613706445E+00    0.1455029613E-03    0.7811221908E-04
    0.1700000000E+02    0.5109758633E-04    0.6759159514E-04    0.5744429934E+00    0.1629511451E-03    0.8851911534E-04
    0.1900000000E+02    0.5587462684E-04    0.7397165951E-04    0.5852015543E+00    0.1804409826E-03    0.9892412109E-04
    0.2100000000E+02    0.6064636856E-04    0.8034711664E-04    0.5942107096E+00    0.1979707421E-03    0.1093272373E-03
    0.2300000000E+02    0.6541698489E-04    0.8672293485E-04    0.6018650874E+00    0.2155369917E-03    0.1197284649E-03
    0.2500000000E+02    0.7018890151E-04    0.9310191860E-04    0.6084489214E+00    0.2331358154E-03    0.1301278048E-03
    0.2700000000E+02    0.7496349871E-04    0.9948559182E-04    0.6141721311E+00    0.2507633534E-03    0.1405252576E-03
    0.2900000000E+02    0.7974151966E-04    0.1058747082E-03    0.6191931186E+00    0.2684160274E-03    0.1509208242E-03
    0.3100000000E+02    0.8452331470E-04    0.1122695544E-03    0.6236336598E+00    0.2860906179E-03    0.1613145054E-03
    0.3300000000E+02    0.8930899093E-04    0.1186701339E-03    0.6275889115E+00    0.3037842721E-03    0.1717063018E-03
    0.3500000000E+02    0.9409850550E-04    0.1250762809E-03    0.6311343082E+00    0.3214944825E-03    0.1820962142E-03
    0.3700000000E+02    0.9889172471E-04    0.1314877313E-03    0.6343304200E+00    0.3392190521E-03    0.1924842433E-03
    0.3900000000E+02    0.1036884618E-03    0.1379041680E-03    0.6372264420E+00    0.3569560585E-03    0.2028703897E-03
    0.4100000000E+02    0.1084885011E-03    0.1443252487E-03    0.6398627450E+00    0.3747038184E-03    0.2132546542E-03
    0.4300000000E+02    0.1132916139E-03    0.1507506242E-03    0.6422727690E+00    0.3924608556E-03    0.2236370375E-03
    0.4500000000E+02    0.1180975685E-03    0.1571799496E-03    0.6444844493E+00    0.4102258729E-03    0.2340175401E-03
    0.4700000000E+02    0.1229061362E-03    0.1636128906E-03    0.6465213047E+00    0.4279977279E-03    0.2443961629E-03
    0.4900000000E+02    0.1277170955E-03    0.1700491278E-03    0.6484032767E+00    0.4457754113E-03    0.2547729064E-03
    0.1000000000E+02    0.3417123855E-04    0.4502165035E-04    0.5118669125E+00    0.1020178805E-03    0.5208669946E-04
    0.3000000000E+02    0.8213193433E-04    0.1090714099E-03    0.6214794667E+00    0.2772507698E-03    0.1561179005E-03
    0.5000000000E+02    0.1301234053E-03    0.1732683872E-03    0.6492915994E+00    0.4546661552E-03    0.2599605736E-03
    0.7000000000E+02    0.1783297233E-03    0.2377627031E-03    0.6619891600E+00    0.6326166805E-03    0.3636154202E-03
    0.9000000000E+02    0.2266005450E-03    0.3023437687E-03    0.6692608119E+00    0.8105600846E-03    0.4670830975E-03
    0.1100000000E+03    0.2748557652E-03    0.3669032561E-03    0.6739722582E+00    0.9882958051E-03    0.5703642520E-03
    0.1300000000E+03    0.3230518641E-03    0.4313831524E-03    0.6772732417E+00    0.1165733966E-02    0.6734595249E-03
    0.1500000000E+03    0.3711634376E-03    0.4957498923E-03    0.6797146958E+00    0.1342828803E-02    0.7763695531E-03
    0.1700000000E+03    0.4191747195E-03    0.5599827785E-03    0.6815936754E+00    0.1519554918E-02    0.8790949699E-03
    0.1900000000E+03    0.4670754463E-03    0.6240684074E-03    0.6830844897E+00    0.1695897372E-02    0.9816364054E-03
    0.2100000000E+03    0.5148586895E-03    0.6879977720E-03    0.6842961664E+00    0.1871847056E-02    0.1083994486E-02
    0.2300000000E+03    0.5625196435E-03    0.7517646508E-03    0.6853003963E+00    0.2047398310E-02    0.1186169837E-02
    0.2500000000E+03    0.6100549096E-03    0.8153646622E-03    0.6861462561E+00    0.2222547628E-02    0.1288163077E-02
    0.2700000000E+03    0.6574620542E-03    0.8787946825E-03    0.6868684732E+00    0.2397292903E-02    0.1389974824E-02
    0.2900000000E+03    0.7047393248E-03    0.9420524731E-03    0.6874923129E+00    0.2571632968E-02    0.1491605695E-02
    0.3100000000E+03    0.7518854618E-03    0.1005136434E-02    0.6880365958E+00    0.2745567305E-02    0.1593056299E-02
    0.3300000000E+03    0.7988995696E-03    0.1068045437E-02    0.6885156293E+00    0.2919095857E-02    0.1694327247E-02
    0.3500000000E+03    0.8457810264E-03    0.1130778708E-02    0.6889404841E+00    0.3092218903E-02    0.1795419144E-02
    0.3700000000E+03    0.8925294205E-03    0.1193335740E-02    0.6893198603E+00    0.3264936963E-02    0.1896332594E-02
    0.3900000000E+03    0.9391445024E-03    0.1255716239E-02    0.6896606900E+00    0.3437250744E-02    0.1997068197E-02
    0.4100000000E+03    0.9856261506E-03    0.1317920072E-02    0.6899685645E+00    0.3609161092E-02    0.2097626550E-02
    0.4300000000E+03    0.1031974345E-02    0.1379947239E-02    0.6902480434E+00    0.3780668957E-02    0.2198008249E-02
    0.4500000000E+03    0.1078189147E-02    0.1441797841E-02    0.6905028823E+00    0.3951775375E-02    0.2298213886E-02
    0.4700000000E+03    0.1124270684E-02    0.1503472066E-02    0.6907362027E+00    0.4122481442E-02    0.2398244049E-02
    0.4900000000E+03    0.1170219137E-02    0.1564970169E-02    0.6909506197E+00    0.4292788308E-02    0.2498099325E-02
    0.1000000000E+03    0.2507333969E-03    0.3346306108E-03    0.6718438939E+00    0.8994610024E-03    0.5187469499E-03
    0.3000000000E+03    0.7283288484E-03    0.9736162624E-03    0.6877734164E+00    0.2658650865E-02    0.1542353492E-02
    0.5000000000E+03    0.1193143525E-02    0.1595653269E-02    0.6910514433E+00    0.4377792411E-02    0.2547961563E-02
    0.7000000000E+03    0.1644716247E-02    0.2200166425E-02    0.6924661921E+00    0.6057220588E-02    0.3536166206E-02
    0.9000000000E+03    0.2083381565E-02    0.2787605620E-02    0.6932548027E+00    0.7698195996E-02    0.4507535434E-02
    0.1100000000E+04    0.2509568327E-02    0.3358539201E-02    0.6937576552E+00    0.9302019088E-02    0.5462611816E-02
    0.1300000000E+04    0.2923716006E-02    0.3913547570E-02    0.6941062571E+00    0.1086995407E-01    0.6401913914E-02
    0.1500000000E+04    0.3326255098E-02    0.4453198515E-02    0.6943621518E+00    0.1240321551E-01    0.7325937615E-02
    0.1700000000E+04    0.3717601294E-02    0.4978039964E-02    0.6945579851E+00    0.1390296650E-01    0.8235157372E-02
    0.1900000000E+04    0.4098153758E-02    0.5488597902E-02    0.6947126845E+00    0.1537031981E-01    0.9130027372E-02
    0.2100000000E+04    0.4468294867E-02    0.5985376124E-02    0.6948379801E+00    0.1680633986E-01    0.1001098261E-01
    0.2300000000E+04    0.4828390544E-02    0.6468856722E-02    0.6949415290E+00    0.1821204506E-01    0.1087843993E-01
    0.2500000000E+04    0.5178790836E-02    0.6939500871E-02    0.6950285416E+00    0.1958841009E-01    0.1173279894E-01
    0.2700000000E+04    0.5519830589E-02    0.7397749735E-02    0.6951026871E+00    0.2093636813E-01    0.1257444293E-01
    0.2900000000E+04    0.5851830157E-02    0.7844025402E-02    0.6951666235E+00    0.2225681299E-01    0.1340373971E-01
    0.3100000000E+04    0.6175096099E-02    0.8278731817E-02    0.6952223240E+00    0.2355060113E-01    0.1422104240E-01
    0.3300000000E+04    0.6489921867E-02    0.8702255680E-02    0.6952712841E+00    0.2481855361E-01    0.1502669012E-01
    0.3500000000E+04    0.6796588460E-02    0.9114967312E-02    0.6953146578E+00    0.2606145784E-01    0.1582100877E-01
    0.3700000000E+04    0.7095365045E-02    0.9517221476E-02    0.6953533497E+00    0.2728006931E-01    0.1660431160E-01
    0.3900000000E+04    0.7386509559E-02    0.9909358163E-02    0.6953880794E+00    0.2847511318E-01    0.1737689987E-01
    0.4100000000E+04    0.7670269262E-02    0.1029170332E-01    0.6954194259E+00    0.2964728578E-01    0.1813906341E-01
    0.4300000000E+04    0.7946881274E-02    0.1066456957E-01    0.6954478608E+00    0.3079725603E-01    0.1889108119E-01
    0.4500000000E+04    0.8216573071E-02    0.1102825684E-01    0.6954737719E+00    0.3192566678E-01    0.1963322179E-01
    0.4700000000E+04    0.8479562965E-02    0.1138305300E-01    0.6954974810E+00    0.3303313606E-01    0.2036574392E-01
    0.4900000000E+04    0.8736060544E-02    0.1172923447E-01    0.6955192574E+00    0.3412025829E-01    0.2108889688E-01
    0.1000000000E+04    0.2298007208E-02    0.3075099190E-02    0.6935312729E+00    0.8504671467E-02    0.4987077274E-02
    0.3000000000E+04    0.6014536191E-02    0.8062800204E-02    0.6951954004E+00    0.2290698703E-01    0.1381386880E-01
    0.5000000000E+04    0.8861937932E-02    0.1189917806E-01    0.6955294932E+00    0.3465636882E-01    0.2144703535E-01
    0.7000000000E+04    0.1108358529E-01    0.1490507431E-01    0.6956728655E+00    0.4443858578E-01    0.2817202987E-01
    0.9000000000E+04    0.1284218430E-01    0.1729521087E-01    0.6957525842E+00    0.5272025316E-01    0.3418676626E-01
    0.1100000000E+05    0.1425018078E-01    0.1921815608E-01    0.6958033470E+00    0.5982997303E-01    0.3963316857E-01
    0.1300000000E+05    0.1538753468E-01    0.2077968688E-01    0.6958385094E+00    0.6600594726E-01    0.4461592447E-01
    0.1500000000E+05    0.1631250354E-01    0.2205696955E-01    0.6958643072E+00    0.7142514833E-01    0.4921413007E-01
    0.1700000000E+05    0.1706842904E-01    0.2310748939E-01    0.6958840432E+00    0.7622187312E-01    0.5348879262E-01
    0.1900000000E+05    0.1768814629E-01    0.2397485624E-01    0.6958996303E+00    0.8049992934E-01    0.5748781999E-01
    0.2100000000E+05    0.1819692945E-01    0.2469268522E-01    0.6959122528E+00    0.8434086637E-01    0.6124943095E-01
    0.2300000000E+05    0.1861450772E-01    0.2528725465E-01    0.6959226835E+00    0.8780967182E-01    0.6480454289E-01
    0.2500000000E+05    0.1895647526E-01    0.2577936620E-01    0.6959314481E+00    0.9095880038E-01    0.6817847935E-01
    0.2700000000E+05    0.1923529615E-01    0.2618567167E-01    0.6959389165E+00    0.9383107820E-01    0.7139221441E-01
    0.2900000000E+05    0.1946103309E-01    0.2651963589E-01    0.6959453565E+00    0.9646183325E-01    0.7446329512E-01
    0.3100000000E+05    0.1964188406E-01    0.2679224617E-01    0.6959509671E+00    0.9888048207E-01    0.7740653559E-01
    0.3300000000E+05    0.1978458296E-01    0.2701254262E-01    0.6959558989E+00    0.1011117287E+00    0.8023454666E-01
    0.3500000000E+05    0.1989470265E-01    0.2718801940E-01    0.6959602682E+00    0.1031764816E+00    0.8295814517E-01
    0.3700000000E+05    0.1997688679E-01    0.2732493206E-01    0.6959641661E+00    0.1050925644E+00    0.8558667381E-01
    0.3900000000E+05    0.2003502909E-01    0.2742853526E-01    0.6959676650E+00    0.1068752707E+00    0.8812825378E-01
    0.4100000000E+05    0.2007241330E-01    0.2750326868E-01    0.6959708232E+00    0.1085378040E+00    0.9058998625E-01
    0.4300000000E+05    0.2009182346E-01    0.2755290352E-01    0.6959736884E+00    0.1100916273E+00    0.9297811456E-01
    0.4500000000E+05    0.2009563158E-01    0.2758065907E-01    0.6959762994E+00    0.1115467450E+00    0.9529815573E-01
    0.4700000000E+05    0.2008586774E-01    0.2758929609E-01    0.6959786887E+00    0.1129119313E+00    0.9755500809E-01
    0.4900000000E+05    0.2006427670E-01    0.2758119220E-01    0.6959808834E+00    0.1141949164E+00    0.9975303986E-01
    0.1000000000E+05    0.1358440020E-01    0.1830766724E-01    0.6957805001E+00    0.5640500782E-01    0.3697375548E-01
    0.3000000000E+05    0.1955661809E-01    0.2666300486E-01    0.6959482551E+00    0.9769602840E-01    0.7595006087E-01
    0.5000000000E+05    0.2004952469E-01    0.2757151597E-01    0.6959819150E+00    0.1148077521E+00    0.1008312365E+00
    0.7000000000E+05    0.1940722593E-01    0.2687441547E-01    0.6959963711E+00    0.1240563551E+00    0.1200724329E+00
    0.9000000000E+05    0.1848075963E-01    0.2574208862E-01    0.6960044160E+00    0.1296481637E+00    0.1361765864E+00
    0.1100000000E+06    0.1751044972E-01    0.2451523241E-01    0.6960095430E+00    0.1332046707E+00    0.1502280127E+00
    0.1300000000E+06    0.1657455837E-01    0.2331016161E-01    0.6960130971E+00    0.1354997398E+00    0.1628015725E+00
    0.1500000000E+06    0.1569826642E-01    0.2216789342E-01    0.6960157066E+00    0.1369556562E+00    0.1742430450E+00
    0.1700000000E+06    0.1488729614E-01    0.2110090106E-01    0.6960177043E+00    0.1378250460E+00    0.1847791553E+00
    0.1900000000E+06    0.1413992670E-01    0.2011016110E-01    0.6960192831E+00    0.1382694817E+00    0.1945681441E+00
    0.2100000000E+06    0.1345170474E-01    0.1919201247E-01    0.6960205624E+00    0.1383976586E+00    0.2037257809E+00
    0.2300000000E+06    0.1281739021E-01    0.1834109300E-01    0.6960216202E+00    0.1382856403E+00    0.2123399275E+00
    0.2500000000E+06    0.1223177054E-01    0.1755163575E-01    0.6960225095E+00    0.1379883578E+00    0.2204792458E+00
    0.2700000000E+06    0.1168998664E-01    0.1681803853E-01    0.6960232677E+00    0.1375465095E+00    0.2281986889E+00
    0.2900000000E+06    0.1118764241E-01    0.1613509865E-01    0.6960239218E+00    0.1369908937E+00    0.2355431160E+00
    0.3100000000E+06    0.1072081804E-01    0.1549809074E-01    0.6960244920E+00    0.1363452326E+00    0.2425497601E+00
    0.3300000000E+06    0.1028604229E-01    0.1490277133E-01    0.6960249934E+00    0.1356280731E+00    0.2492499644E+00
    0.3500000000E+06    0.9880249408E-02    0.1434535081E-01    0.6960254378E+00    0.1348541012E+00    0.2556704375E+00
    0.3700000000E+06    0.9500732648E-02    0.1382245258E-01    0.6960258345E+00    0.1340350728E+00    0.2618341807E+00
    0.3900000000E+06    0.9145099736E-02    0.1333106904E-01    0.6960261907E+00    0.1331804867E+00    0.2677611864E+00
    0.4100000000E+06    0.8811232403E-02    0.1286851910E-01    0.6960265123E+00    0.1322980798E+00    0.2734689749E+00
    0.4300000000E+06    0.8497250651E-02    0.1243240910E-01    0.6960268042E+00    0.1313941980E+00    0.2789730120E+00
    0.4500000000E+06    0.8201481652E-02    0.1202059777E-01    0.6960270704E+00    0.1304740768E+00    0.2842870384E+00
    0.4700000000E+06    0.7922432904E-02    0.1163116552E-01    0.6960273140E+00    0.1295420577E+00    0.2894233339E+00
    0.4900000000E+06    0.7658769148E-02    0.1126238740E-01    0.6960275379E+00    0.1286017564E+00    0.2943929309E+00
    0.1000000000E+06    0.1799428004E-01    0.2513051757E-01    0.6960072349E+00    0.1316208524E+00    0.1434156082E+00
    0.3000000000E+06    0.1095001724E-01    0.1581112948E-01    0.6960242163E+00    0.1366780560E+00    0.2390865806E+00
    0.5000000000E+06    0.7532327436E-02    0.1108525200E-01    0.6960276431E+00    0.1281294644E+00    0.2968183673E+00
    0.7000000000E+06    0.5577183476E-02    0.8321243202E-02    0.6960291203E+00    0.1187645866E+00    0.3385596599E+00
    0.9000000000E+06    0.4327471858E-02    0.6527010716E-02    0.6960299446E+00    0.1101308200E+00    0.3709135636E+00
    0.1100000000E+07    0.3469947818E-02    0.5280987015E-02    0.6960304711E+00    0.1024482400E+00    0.3970116691E+00
    0.1300000000E+07    0.2851622354E-02    0.4373629390E-02    0.6960308367E+00    0.9566294090E-01    0.4186363803E+00
    0.1500000000E+07    0.2389003434E-02    0.3689044182E-02    0.6960311055E+00    0.8966425171E-01    0.4369117013E+00
    0.1700000000E+07    0.2032785769E-02    0.3158044163E-02    0.6960313115E+00    0.8434027678E-01    0.4525952984E+00
    0.1900000000E+07    0.1752078382E-02    0.2736881907E-02    0.6960314745E+00    0.7959208514E-01    0.4662226282E+00
    0.2100000000E+07    0.1526612581E-02    0.2396623517E-02    0.6960316067E+00    0.7533591621E-01    0.4781858144E+00
    0.2300000000E+07    0.1342585516E-02    0.2117425956E-02    0.6960317160E+00    0.7150189252E-01    0.4887801499E+00
    0.2500000000E+07    0.1190304758E-02    0.1885267120E-02    0.6960318079E+00    0.6803191631E-01    0.4982331005E+00
    0.2700000000E+07    0.1062786391E-02    0.1689985375E-02    0.6960318863E+00    0.6487760359E-01    0.5067232124E+00
    0.2900000000E+07    0.9548860000E-03    0.1524056318E-02    0.6960319540E+00    0.6199849834E-01    0.5143928852E+00
    0.3100000000E+07    0.8627411801E-03    0.1381803379E-02    0.6960320130E+00    0.5936060146E-01    0.5213572595E+00
    0.3300000000E+07    0.7834032324E-03    0.1258873461E-02    0.6960320648E+00    0.5693518280E-01    0.5277105565E+00
    0.3500000000E+07    0.7145875599E-03    0.1151879802E-02    0.6960321108E+00    0.5469782873E-01    0.5335306976E+00
    0.3700000000E+07    0.6545006869E-03    0.1058153314E-02    0.6960321517E+00    0.5262767940E-01    0.5388827325E+00
    0.3900000000E+07    0.6017179874E-03    0.9755660605E-03    0.6960321885E+00    0.5070681655E-01    0.5438214254E+00
    0.4100000000E+07    0.5550957200E-03    0.9024037436E-03    0.6960322217E+00    0.4891977031E-01    0.5483932344E+00
    0.4300000000E+07    0.5137067344E-03    0.8372721517E-03    0.6960322519E+00    0.4725311989E-01    0.5526378444E+00
    0.4500000000E+07    0.4767928029E-03    0.7790275485E-03    0.6960322793E+00    0.4569516868E-01    0.5565893702E+00
    0.4700000000E+07    0.4437288159E-03    0.7267242090E-03    0.6960323044E+00    0.4423567835E-01    0.5602773090E+00
    0.4900000000E+07    0.4139955681E-03    0.6795744150E-03    0.6960323274E+00    0.4286565020E-01    0.5637273020E+00
    0.1000000000E+07    0.3861519486E-02    0.5851612394E-02    0.6960302339E+00    0.1061714643E+00    0.3846126600E+00
    0.3000000000E+07    0.9070464724E-03    0.1450268593E-02    0.6960319845E+00    0.6065130579E-01    0.5179569165E+00
    0.5000000000E+07    0.4002394305E-03    0.6577214045E-03    0.6960323383E+00    0.4221166612E-01    0.5653701812E+00
    0.7000000000E+07    0.2245979962E-03    0.3760420915E-03    0.6960324894E+00    0.3232116723E-01    0.5899228163E+00
    0.9000000000E+07    0.1435287802E-03    0.2437436541E-03    0.6960325724E+00    0.2616396306E-01    0.6049536823E+00
    0.1100000000E+08    0.9954949908E-04    0.1710046189E-03    0.6960326244E+00    0.2196541916E-01    0.6151026589E+00
    0.1300000000E+08    0.7305587000E-04    0.1267050917E-03    0.6960326596E+00    0.1892079519E-01    0.6224147778E+00
    0.1500000000E+08    0.5587422106E-04    0.9771018313E-04    0.6960326847E+00    0.1661270533E-01    0.6279326657E+00
    0.1700000000E+08    0.4410342201E-04    0.7768740676E-04    0.6960327034E+00    0.1480322049E-01    0.6322438501E+00
    0.1900000000E+08    0.3569000909E-04    0.6327480077E-04    0.6960327176E+00    0.1334683479E-01    0.6357046628E+00
    0.2100000000E+08    0.2946950129E-04    0.5255157004E-04    0.6960327287E+00    0.1214958587E-01    0.6385437711E+00
    0.2300000000E+08    0.2474161857E-04    0.4435493938E-04    0.6960327374E+00    0.1114810134E-01    0.6409146445E+00
    0.2500000000E+08    0.2106473995E-04    0.3794724637E-04    0.6960327444E+00    0.1029809452E-01    0.6429241108E+00
    0.2700000000E+08    0.1814920226E-04    0.3284202982E-04    0.6960327500E+00    0.9567686735E-02    0.6446488192E+00
