  Pressure (Pa) 22mC5-500 (mol/kg) 23mC5-500 (mol/kg) 24mC5-500 (mol/kg) 2mC6-500 (mol/kg) 3mC6-500 (mol/kg)
    0.1000000000E+01    0.7429315010E-05    0.6467662789E-05    0.3666133497E-01    0.1817463240E-04    0.4168466884E-04
    0.3000000000E+01    0.2054221169E-04    0.1788817138E-04    0.9949588798E-01    0.5072977478E-04    0.1250296400E-03
    0.5000000000E+01    0.3187242083E-04    0.2776341392E-04    0.1513903059E+00    0.7949316497E-04    0.2083421812E-03
    0.7000000000E+01    0.4188381495E-04    0.3649701088E-04    0.1949733474E+00    0.1055290102E-03    0.2916223498E-03
    0.9000000000E+01    0.5089702783E-04    0.4436771779E-04    0.2320939850E+00    0.1295604868E-03    0.3748701928E-03
    0.1100000000E+02    0.5914004799E-04    0.5157357306E-04    0.2640905876E+00    0.1520925122E-03    0.4580857506E-03
    0.1300000000E+02    0.6677892308E-04    0.5825868040E-04    0.2919557984E+00    0.1734857689E-03    0.5412690587E-03
    0.1500000000E+02    0.7393710318E-04    0.6453007471E-04    0.3164413994E+00    0.1940029913E-03    0.6244201494E-03
    0.1700000000E+02    0.8070802232E-04    0.7046868741E-04    0.3381271904E+00    0.2138388225E-03    0.7075390526E-03
    0.1900000000E+02    0.8716351126E-04    0.7613667508E-04    0.3574675091E+00    0.2331395962E-03    0.7906257964E-03
    0.2100000000E+02    0.9335956008E-04    0.8158243721E-04    0.3748234268E+00    0.2520167545E-03    0.8736804076E-03
    0.2300000000E+02    0.9934035052E-04    0.8684412545E-04    0.3904855129E+00    0.2705561377E-03    0.9567029121E-03
    0.2500000000E+02    0.1051411314E-03    0.9195214467E-04    0.4046902422E+00    0.2888245352E-03    0.1039693335E-02
    0.2700000000E+02    0.1107903038E-03    0.9693096598E-04    0.4176320242E+00    0.3068743809E-03    0.1122651700E-02
    0.2900000000E+02    0.1163109569E-03    0.1018004608E-03    0.4294721585E+00    0.3247471681E-03    0.1205578031E-02
    0.3100000000E+02    0.1217220143E-03    0.1065768967E-03    0.4403455960E+00    0.3424759666E-03    0.1288472352E-02
    0.3300000000E+02    0.1270391005E-03    0.1112736892E-03    0.4503661084E+00    0.3600873005E-03    0.1371334686E-02
    0.3500000000E+02    0.1322752039E-03    0.1159019766E-03    0.4596302861E+00    0.3776025637E-03    0.1454165055E-02
    0.3700000000E+02    0.1374411887E-03    0.1204710642E-03    0.4682206642E+00    0.3950390993E-03    0.1536963482E-02
    0.3900000000E+02    0.1425461943E-03    0.1249887699E-03    0.4762081888E+00    0.4124110282E-03    0.1619729990E-02
    0.4100000000E+02    0.1475979501E-03    0.1294616966E-03    0.4836541826E+00    0.4297298924E-03    0.1702464600E-02
    0.4300000000E+02    0.1526030246E-03    0.1338954485E-03    0.4906119234E+00    0.4470051575E-03    0.1785167335E-02
    0.4500000000E+02    0.1575670255E-03    0.1382948028E-03    0.4971279208E+00    0.4642446078E-03    0.1867838216E-02
    0.4700000000E+02    0.1624947600E-03    0.1426638496E-03    0.5032429587E+00    0.4814546600E-03    0.1950477266E-02
    0.4900000000E+02    0.1673903656E-03    0.1470061036E-03    0.5089929498E+00    0.4986406128E-03    0.2033084505E-02
    0.1000000000E+02    0.5510325037E-04    0.4804371509E-04    0.2486640961E+00    0.1409886510E-03    0.4164820051E-03
    0.3000000000E+02    0.1190291398E-03    0.1041994133E-03    0.4350221589E+00    0.3336277733E-03    0.1247029191E-02
    0.5000000000E+02    0.1698272564E-03    0.1491681474E-03    0.5117411198E+00    0.5072259524E-03    0.2074376203E-02
    0.7000000000E+02    0.2175288286E-03    0.1915525792E-03    0.5535899925E+00    0.6783957490E-03    0.2898545378E-02
    0.9000000000E+02    0.2641550145E-03    0.2330588748E-03    0.5799421997E+00    0.8492795972E-03    0.3719557978E-02
    0.1100000000E+03    0.3102790232E-03    0.2741607987E-03    0.5980615566E+00    0.1020088358E-02    0.4537434860E-02
    0.1300000000E+03    0.3560896998E-03    0.3150094124E-03    0.6112853785E+00    0.1190710776E-02    0.5352196619E-02
    0.1500000000E+03    0.4016512134E-03    0.3556529338E-03    0.6213618197E+00    0.1361003021E-02    0.6163863631E-02
    0.1700000000E+03    0.4469825674E-03    0.3961032464E-03    0.6292951852E+00    0.1530843424E-02    0.6972456074E-02
    0.1900000000E+03    0.4920856361E-03    0.4363590021E-03    0.6357035442E+00    0.1700138054E-02    0.7777993937E-02
    0.2100000000E+03    0.5369559809E-03    0.4764143570E-03    0.6409881244E+00    0.1868816282E-02    0.8580497027E-02
    0.2300000000E+03    0.5815872418E-03    0.5162624176E-03    0.6454207425E+00    0.2036825365E-02    0.9379984970E-02
    0.2500000000E+03    0.6259729434E-03    0.5558965930E-03    0.6491920880E+00    0.2204125934E-02    0.1017647722E-01
    0.2700000000E+03    0.6701072058E-03    0.5953110794E-03    0.6524398895E+00    0.2370688591E-02    0.1096999305E-01
    0.2900000000E+03    0.7139849805E-03    0.6345009817E-03    0.6552661080E+00    0.2536491414E-02    0.1176055158E-01
    0.3100000000E+03    0.7576020799E-03    0.6734622830E-03    0.6577478406E+00    0.2701518127E-02    0.1254817174E-01
    0.3300000000E+03    0.8009551209E-03    0.7121917598E-03    0.6599444642E+00    0.2865756771E-02    0.1333287231E-01
    0.3500000000E+03    0.8440414388E-03    0.7506868812E-03    0.6619024501E+00    0.3029198710E-02    0.1411467190E-01
    0.3700000000E+03    0.8868589951E-03    0.7889457113E-03    0.6636586898E+00    0.3191837903E-02    0.1489358895E-01
    0.3900000000E+03    0.9294062908E-03    0.8269668212E-03    0.6652428429E+00    0.3353670345E-02    0.1566964175E-01
    0.4100000000E+03    0.9716822883E-03    0.8647492124E-03    0.6666790259E+00    0.3514693647E-02    0.1644284844E-01
    0.4300000000E+03    0.1013686344E-02    0.9022922507E-03    0.6679870501E+00    0.3674906708E-02    0.1721322697E-01
    0.4500000000E+03    0.1055418150E-02    0.9395956111E-03    0.6691833407E+00    0.3834309468E-02    0.1798079518E-01
    0.4700000000E+03    0.1096877685E-02    0.9766592310E-03    0.6702816309E+00    0.3992902706E-02    0.1874557071E-01
    0.4900000000E+03    0.1138065170E-02    0.1013483270E-02    0.6712934919E+00    0.4150687888E-02    0.1950757109E-01
    0.1000000000E+03    0.2872634756E-03    0.2536471942E-03    0.5897693733E+00    0.9346981825E-03    0.4128887091E-02
    0.3000000000E+03    0.7358263440E-03    0.6540104264E-03    0.6565459740E+00    0.2619102620E-02    0.1215472778E-01
    0.5000000000E+03    0.1158557022E-02    0.1031805550E-02    0.6717701389E+00    0.4229278071E-02    0.1988753603E-01
    0.7000000000E+03    0.1554301936E-02    0.1385835725E-02    0.6785162893E+00    0.5759363463E-02    0.2734530513E-01
    0.9000000000E+03    0.1924079118E-02    0.1716979723E-02    0.6823244100E+00    0.7212712778E-02    0.3454454683E-01
    0.1100000000E+04    0.2269416010E-02    0.2026574757E-02    0.6847708389E+00    0.8593742857E-02    0.4150044204E-01
    0.1300000000E+04    0.2591906427E-02    0.2316017558E-02    0.6864752762E+00    0.9906864348E-02    0.4822697262E-01
    0.1500000000E+04    0.2893089282E-02    0.2586656857E-02    0.6877308998E+00    0.1115625677E-01    0.5473703779E-01
    0.1700000000E+04    0.3174412241E-02    0.2839761452E-02    0.6886943973E+00    0.1234581943E-01    0.6104255718E-01
    0.1900000000E+04    0.3437222904E-02    0.3076512526E-02    0.6894571173E+00    0.1347917088E-01    0.6715456240E-01
    0.2100000000E+04    0.3682770020E-02    0.3298004771E-02    0.6900759137E+00    0.1455966339E-01    0.7308327856E-01
    0.2300000000E+04    0.3912208547E-02    0.3505250838E-02    0.6905880236E+00    0.1559040195E-01    0.7883819690E-01
    0.2500000000E+04    0.4126606042E-02    0.3699186954E-02    0.6910188573E+00    0.1657426394E-01    0.8442813986E-01
    0.2700000000E+04    0.4326949346E-02    0.3880678771E-02    0.6913863477E+00    0.1751391792E-01    0.8986131922E-01
    0.2900000000E+04    0.4514151092E-02    0.4050527067E-02    0.6917035132E+00    0.1841184124E-01    0.9514538840E-01
    0.3100000000E+04    0.4689055838E-02    0.4209473103E-02    0.6919800326E+00    0.1927033616E-01    0.1002874894E+00
    0.3300000000E+04    0.4852445744E-02    0.4358203588E-02    0.6922232523E+00    0.2009154453E-01    0.1052942952E+00
    0.3500000000E+04    0.5005045791E-02    0.4497355237E-02    0.6924388483E+00    0.2087746115E-01    0.1101720477E+00
    0.3700000000E+04    0.5147528549E-02    0.4627518934E-02    0.6926312760E+00    0.2162994586E-01    0.1149265927E+00
    0.3900000000E+04    0.5280518511E-02    0.4749243520E-02    0.6928040812E+00    0.2235073455E-01    0.1195634108E+00
    0.4100000000E+04    0.5404596046E-02    0.4863039243E-02    0.6929601213E+00    0.2304144908E-01    0.1240876456E+00
    0.4300000000E+04    0.5520300992E-02    0.4969380891E-02    0.6931017245E+00    0.2370360638E-01    0.1285041301E+00
    0.4500000000E+04    0.5628135912E-02    0.5068710646E-02    0.6932308067E+00    0.2433862656E-01    0.1328174092E+00
    0.4700000000E+04    0.5728569075E-02    0.5161440672E-02    0.6933489592E+00    0.2494784050E-01    0.1370317620E+00
    0.4900000000E+04    0.5822037148E-02    0.5247955480E-02    0.6934575146E+00    0.2553249653E-01    0.1411512205E+00
    0.1000000000E+04    0.2099702461E-02    0.1874383111E-02    0.6836676939E+00    0.7911987845E-02    0.3805201221E-01
    0.3000000000E+04    0.4603090306E-02    0.4131318725E-02    0.6918463489E+00    0.1884587979E-01    0.9773375733E-01
    0.5000000000E+04    0.5866287706E-02    0.5288995307E-02    0.6935085518E+00    0.2581598442E-01    0.1431765614E+00
    0.7000000000E+04    0.6471262469E-02    0.5858997548E-02    0.6942242161E+00    0.3044607063E-01    0.1795195545E+00
    0.9000000000E+04    0.6708636784E-02    0.6097863682E-02    0.6946228290E+00    0.3359680441E-01    0.2096155283E+00
    0.1100000000E+05    0.6734204366E-02    0.6143820764E-02    0.6948769421E+00    0.3576344839E-01    0.2351856693E+00
    0.1300000000E+05    0.6636120434E-02    0.6075554890E-02    0.6950531073E+00    0.3724968620E-01    0.2573374173E+00
    0.1500000000E+05    0.6466313406E-02    0.5939741017E-02    0.6951824403E+00    0.3825126144E-01    0.2768207372E+00
    0.1700000000E+05    0.6256284406E-02    0.5764924411E-02    0.6952814374E+00    0.3889949729E-01    0.2941651022E+00
    0.1900000000E+05    0.6025536185E-02    0.5568948104E-02    0.6953596594E+00    0.3928542006E-01    0.3097574187E+00
    0.2100000000E+05    0.5786290561E-02    0.5363123903E-02    0.6954230304E+00    0.3947384729E-01    0.3238886944E+00
    0.2300000000E+05    0.5546234834E-02    0.5154669949E-02    0.6954754169E+00    0.3951198269E-01    0.3367832262E+00
    0.2500000000E+05    0.5310173949E-02    0.4948183335E-02    0.6955194501E+00    0.3943485826E-01    0.3486175442E+00
    0.2700000000E+05    0.5081051957E-02    0.4746554871E-02    0.6955569824E+00    0.3926889171E-01    0.3595331074E+00
    0.2900000000E+05    0.4860598169E-02    0.4551550783E-02    0.6955893563E+00    0.3903427708E-01    0.3696450554E+00
    0.3100000000E+05    0.4649743790E-02    0.4364189968E-02    0.6956175680E+00    0.3874663054E-01    0.3790483910E+00
    0.3300000000E+05    0.4448894816E-02    0.4184992702E-02    0.6956423728E+00    0.3841814773E-01    0.3878224449E+00
    0.3500000000E+05    0.4258113108E-02    0.4014146860E-02    0.6956643535E+00    0.3805843306E-01    0.3960341645E+00
    0.3700000000E+05    0.4077237718E-02    0.3851620205E-02    0.6956839671E+00    0.3767510388E-01    0.4037405791E+00
    0.3900000000E+05    0.3905966782E-02    0.3697236903E-02    0.6957015770E+00    0.3727423732E-01    0.4109906767E+00
    0.4100000000E+05    0.3743913035E-02    0.3550729945E-02    0.6957174757E+00    0.3686070520E-01    0.4178268543E+00
    0.4300000000E+05    0.3590641478E-02    0.3411777194E-02    0.6957319015E+00    0.3643842803E-01    0.4242860531E+00
    0.4500000000E+05    0.3445694882E-02    0.3280026162E-02    0.6957450503E+00    0.3601056979E-01    0.4304006571E+00
    0.4700000000E+05    0.3308610913E-02    0.3155110993E-02    0.6957570848E+00    0.3557968876E-01    0.4361992132E+00
    0.4900000000E+05    0.3178933487E-02    0.3036663996E-02    0.6957681412E+00    0.3514785538E-01    0.4417070130E+00
    0.1000000000E+05    0.6741276021E-02    0.6139058133E-02    0.6947625437E+00    0.3478091888E-01    0.2228865315E+00
    0.3000000000E+05    0.4753935845E-02    0.4456873029E-02    0.6956039305E+00    0.3889625142E-01    0.3744300176E+00
    0.5000000000E+05    0.3116733278E-02    0.2979752620E-02    0.6957733391E+00    0.3493211841E-01    0.4443590115E+00
    0.7000000000E+05    0.2165419309E-02    0.2100950896E-02    0.6958462277E+00    0.3083313053E-01    0.4864916425E+00
    0.9000000000E+05    0.1584013394E-02    0.1555060769E-02    0.6958868455E+00    0.2736027581E-01    0.5149829541E+00
    0.1100000000E+06    0.1206463514E-02    0.1196079453E-02    0.6959127603E+00    0.2450079708E-01    0.5356240793E+00
    0.1300000000E+06    0.9484861968E-03    0.9482421772E-03    0.6959307422E+00    0.2214079387E-01    0.5512975544E+00
    0.1500000000E+06    0.7647844703E-03    0.7702060120E-03    0.6959439560E+00    0.2017346686E-01    0.5636166820E+00
    0.1700000000E+06    0.6294989291E-03    0.6380889992E-03    0.6959540796E+00    0.1851442942E-01    0.5735599089E+00
    0.1900000000E+06    0.5270638190E-03    0.5373756855E-03    0.6959620858E+00    0.1709954064E-01    0.5817569284E+00
    0.2100000000E+06    0.4476781100E-03    0.4588505754E-03    0.6959685773E+00    0.1588027066E-01    0.5886320711E+00
    0.2300000000E+06    0.3849302726E-03    0.3964415653E-03    0.6959739480E+00    0.1481964834E-01    0.5944820302E+00
    0.2500000000E+06    0.3344870222E-03    0.3460184133E-03    0.6959784657E+00    0.1388920034E-01    0.5995206476E+00
    0.2700000000E+06    0.2933362349E-03    0.3046935384E-03    0.6959823193E+00    0.1306673251E-01    0.6039060237E+00
    0.2900000000E+06    0.2593324151E-03    0.2703993441E-03    0.6959856456E+00    0.1233473611E-01    0.6077576095E+00
    0.3100000000E+06    0.2309143323E-03    0.2416240314E-03    0.6959885461E+00    0.1167923897E-01    0.6111673597E+00
    0.3300000000E+06    0.2069242715E-03    0.2172415480E-03    0.6959910980E+00    0.1108897023E-01    0.6142072268E+00
    0.3500000000E+06    0.1864892199E-03    0.1963992430E-03    0.6959933607E+00    0.1055474642E-01    0.6169343269E+00
    0.3700000000E+06    0.1689409031E-03    0.1784419056E-03    0.6959953809E+00    0.1006901507E-01    0.6193945815E+00
    0.3900000000E+06    0.1537608200E-03    0.1628593266E-03    0.6959971957E+00    0.9625511545E-02    0.6216253346E+00
    0.4100000000E+06    0.1405417364E-03    0.1492494154E-03    0.6959988350E+00    0.9218998012E-02    0.6236572680E+00
    0.4300000000E+06    0.1289602419E-03    0.1372918156E-03    0.6960003231E+00    0.8845062926E-02    0.6255158250E+00
    0.4500000000E+06    0.1187568843E-03    0.1267287388E-03    0.6960016802E+00    0.8499965323E-02    0.6272222830E+00
    0.4700000000E+06    0.1097215834E-03    0.1173508445E-03    0.6960029229E+00    0.8180512811E-02    0.6287945737E+00
    0.4900000000E+06    0.1016827802E-03    0.1089867041E-03    0.6960040650E+00    0.7883965104E-02    0.6302479156E+00
    0.1000000000E+06    0.1376281298E-02    0.1358043231E-02    0.6959010910E+00    0.2586069562E-01    0.5260633681E+00
    0.3000000000E+06    0.2445053454E-03    0.2553997121E-03    0.6959871438E+00    0.1199818478E-01    0.6095128178E+00
    0.5000000000E+06    0.9799193319E-04    0.1051395875E-03    0.6960046021E+00    0.7743528581E-02    0.6309341188E+00
    0.7000000000E+06    0.5257423987E-04    0.5735650824E-04    0.6960121464E+00    0.5704330834E-02    0.6407559903E+00
    0.9000000000E+06    0.3282393995E-04    0.3621794608E-04    0.6960163614E+00    0.4510562480E-02    0.6463906483E+00
    0.1100000000E+07    0.2249559564E-04    0.2502060994E-04    0.6960190543E+00    0.3727597863E-02    0.6500441716E+00
    0.1300000000E+07    0.1642395436E-04    0.1837076445E-04    0.6960209237E+00    0.3174869435E-02    0.6526046369E+00
    0.1500000000E+07    0.1255305895E-04    0.1409573308E-04    0.6960222969E+00    0.2764015634E-02    0.6544984426E+00
    0.1700000000E+07    0.9933531727E-05    0.1118243290E-04    0.6960233480E+00    0.2446722104E-02    0.6559557842E+00
    0.1900000000E+07    0.8077837417E-05    0.9106325736E-05    0.6960241779E+00    0.2194355739E-02    0.6571118476E+00
    0.2100000000E+07    0.6714739623E-05    0.7573512402E-05    0.6960248495E+00    0.1988874911E-02    0.6580512339E+00
    0.2300000000E+07    0.5683582409E-05    0.6408825920E-05    0.6960254037E+00    0.1818349492E-02    0.6588295912E+00
    0.2500000000E+07    0.4884286896E-05    0.5502541541E-05    0.6960258685E+00    0.1674576563E-02    0.6594850217E+00
    0.2700000000E+07    0.4251868932E-05    0.4783056093E-05    0.6960262637E+00    0.1551731132E-02    0.6600444905E+00
    0.2900000000E+07    0.3742639730E-05    0.4202013221E-05    0.6960266036E+00    0.1445563194E-02    0.6605276164E+00
    0.3100000000E+07    0.3326346087E-05    0.3725789608E-05    0.6960268988E+00    0.1352899433E-02    0.6609490139E+00
    0.3300000000E+07    0.2981498417E-05    0.3330411629E-05    0.6960271573E+00    0.1271322774E-02    0.6613197926E+00
    0.3500000000E+07    0.2692490176E-05    0.2998408241E-05    0.6960273855E+00    0.1198959907E-02    0.6616485480E+00
    0.3700000000E+07    0.2447764574E-05    0.2716800445E-05    0.6960275882E+00    0.1134336612E-02    0.6619420349E+00
    0.3900000000E+07    0.2238614942E-05    0.2475781008E-05    0.6960277694E+00    0.1076276917E-02    0.6622056345E+00
    0.4100000000E+07    0.2058380247E-05    0.2267826169E-05    0.6960279321E+00    0.1023831356E-02    0.6624436868E+00
    0.4300000000E+07    0.1901893690E-05    0.2087084900E-05    0.6960280790E+00    0.9762249708E-03    0.6626597308E+00
    0.4500000000E+07    0.1765097307E-05    0.1928950804E-05    0.6960282121E+00    0.9328190079E-03    0.6628566808E+00
    0.4700000000E+07    0.1644767808E-05    0.1789756741E-05    0.6960283332E+00    0.8930822714E-03    0.6630369587E+00
    0.4900000000E+07    0.1538318405E-05    0.1666553530E-05    0.6960284438E+00    0.8565694134E-03    0.6632025936E+00
    0.1000000000E+07    0.2691981486E-04    0.2983236018E-04    0.6960178415E+00    0.4082187599E-02    0.6483935198E+00
    0.3000000000E+07    0.3524384242E-05    0.3952479642E-05    0.6960267562E+00    0.1397709186E-02    0.6607452683E+00
    0.5000000000E+07    0.1489627831E-05    0.1610182248E-05    0.6960284955E+00    0.8394020612E-03    0.6632804657E+00
    0.7000000000E+07    0.8974666002E-06    0.9246623028E-06    0.6960291960E+00    0.5987104674E-03    0.6643721387E+00
    0.9000000000E+07    0.6396316066E-06    0.6279696173E-06    0.6960295510E+00    0.4648219692E-03    0.6649796116E+00
    0.1100000000E+08    0.5011187244E-06    0.4705040237E-06    0.6960297507E+00    0.3796283870E-03    0.6653664356E+00
    0.1300000000E+08    0.4163709584E-06    0.3756569459E-06    0.6960298681E+00    0.3206842836E-03    0.6656343033E+00
    0.1500000000E+08    0.3597213361E-06    0.3133673016E-06    0.6960299372E+00    0.2774940528E-03    0.6658307526E+00
    0.1700000000E+08    0.3193536837E-06    0.2698044875E-06    0.6960299759E+00    0.2444959414E-03    0.6659809757E+00
    0.1900000000E+08    0.2891684504E-06    0.2378479910E-06    0.6960299945E+00    0.2184687659E-03    0.6660995658E+00
    0.2100000000E+08    0.2657357186E-06    0.2135104750E-06    0.6960299992E+00    0.1974183545E-03    0.6661955603E+00
    0.2300000000E+08    0.2469940622E-06    0.1944082860E-06    0.6960299940E+00    0.1800443487E-03    0.6662748542E+00
    0.2500000000E+08    0.2316367308E-06    0.1790398481E-06    0.6960299817E+00    0.1654627419E-03    0.6663414566E+00
    0.2700000000E+08    0.2187984065E-06    0.1664177461E-06    0.6960299641E+00    0.1530516712E-03    0.6663981888E+00
