  Pressure (Pa) 22mC5-500 (mol/kg) 23mC5-500 (mol/kg) 24mC5-500 (mol/kg) 2mC6-500 (mol/kg) 3mC6-500 (mol/kg)
    0.1000000000E+01    0.7429260690E-05    0.4311743305E-05    0.3666142858E-01    0.1817447681E-04    0.5210513557E-04
    0.3000000000E+01    0.2054169448E-04    0.1192514417E-04    0.9949656549E-01    0.5072831001E-04    0.1562807484E-03
    0.5000000000E+01    0.3187092692E-04    0.1850806665E-04    0.1513918482E+00    0.7948896783E-04    0.2604102295E-03
    0.7000000000E+01    0.4188080334E-04    0.2432957531E-04    0.1949758643E+00    0.1055205990E-03    0.3644936578E-03
    0.9000000000E+01    0.5089194438E-04    0.2957549963E-04    0.2320974957E+00    0.1295463535E-03    0.4685310993E-03
    0.1100000000E+02    0.5913233275E-04    0.3437786187E-04    0.2640950644E+00    0.1520711386E-03    0.5725226115E-03
    0.1300000000E+02    0.6676801407E-04    0.3883273004E-04    0.2919611897E+00    0.1734556348E-03    0.6764682460E-03
    0.1500000000E+02    0.7392243843E-04    0.4301146076E-04    0.3164476432E+00    0.1939625785E-03    0.7803680504E-03
    0.1700000000E+02    0.8068904093E-04    0.4696800895E-04    0.3381342212E+00    0.2137866166E-03    0.8842220691E-03
    0.1900000000E+02    0.8713965387E-04    0.5074381325E-04    0.3574752623E+00    0.2330740876E-03    0.9880303445E-03
    0.2100000000E+02    0.9333026915E-04    0.5437114104E-04    0.3748318405E+00    0.2519364387E-03    0.1091792917E-02
    0.2300000000E+02    0.9930507038E-04    0.5787542785E-04    0.3904945292E+00    0.2704595151E-03    0.1195509826E-02
    0.2500000000E+02    0.1050993082E-03    0.6127694469E-04    0.4046998074E+00    0.2887101108E-03    0.1299181110E-02
    0.2700000000E+02    0.1107413856E-03    0.6459200666E-04    0.4176420891E+00    0.3067406642E-03    0.1402806807E-02
    0.2900000000E+02    0.1162543934E-03    0.6783386244E-04    0.4294826780E+00    0.3245926729E-03    0.1506386952E-02
    0.3100000000E+02    0.1216572568E-03    0.7101335793E-04    0.4403565291E+00    0.3422992105E-03    0.1609921583E-02
    0.3300000000E+02    0.1269656019E-03    0.7413943774E-04    0.4503774178E+00    0.3598868047E-03    0.1713410736E-02
    0.3500000000E+02    0.1321924187E-03    0.7721952835E-04    0.4596419380E+00    0.3773768532E-03    0.1816854445E-02
    0.3700000000E+02    0.1373485726E-03    0.8025983401E-04    0.4682326275E+00    0.3947867020E-03    0.1920252747E-02
    0.3900000000E+02    0.1424432046E-03    0.8326556748E-04    0.4762204356E+00    0.4121304754E-03    0.2023605675E-02
    0.4100000000E+02    0.1474840451E-03    0.8624113151E-04    0.4836666876E+00    0.4294197183E-03    0.2126913266E-02
    0.4300000000E+02    0.1524776641E-03    0.8919026279E-04    0.4906246631E+00    0.4466638990E-03    0.2230175553E-02
    0.4500000000E+02    0.1574296703E-03    0.9211614699E-04    0.4971408742E+00    0.4638708047E-03    0.2333392570E-02
    0.4700000000E+02    0.1623448722E-03    0.9502151137E-04    0.5032561066E+00    0.4810468547E-03    0.2436564353E-02
    0.4900000000E+02    0.1672274083E-03    0.9790869982E-04    0.5090062746E+00    0.4981973504E-03    0.2539690934E-02
    0.1000000000E+02    0.5509692120E-04    0.3202543492E-04    0.2486680952E+00    0.1409710876E-03    0.5205325932E-03
    0.3000000000E+02    0.1189685478E-03    0.6943080660E-04    0.4350328902E+00    0.3334623326E-03    0.1558159955E-02
    0.5000000000E+02    0.1696575633E-03    0.9934612098E-04    0.5117545270E+00    0.5067644164E-03    0.2591237285E-02
    0.7000000000E+02    0.2171964890E-03    0.1275072366E-03    0.5536044217E+00    0.6774929364E-03    0.3619799517E-02
    0.9000000000E+02    0.2636074668E-03    0.1550521684E-03    0.5799569496E+00    0.8477926133E-03    0.4643880144E-02
    0.1100000000E+03    0.3094645858E-03    0.1822972703E-03    0.5980763039E+00    0.1017876392E-02    0.5663512059E-02
    0.1300000000E+03    0.3549575306E-03    0.2093437377E-03    0.6112999667E+00    0.1187635031E-02    0.6678727733E-02
    0.1500000000E+03    0.4001512880E-03    0.2362241910E-03    0.6213761726E+00    0.1356926675E-02    0.7689559272E-02
    0.1700000000E+03    0.4450656637E-03    0.2629470189E-03    0.6293092676E+00    0.1525631600E-02    0.8696038448E-02
    0.1900000000E+03    0.4897033211E-03    0.2895117815E-03    0.6357173427E+00    0.1693657792E-02    0.9698196703E-02
    0.2100000000E+03    0.5340605987E-03    0.3159150345E-03    0.6410016376E+00    0.1860936515E-02    0.1069606517E-01
    0.2300000000E+03    0.5781319023E-03    0.3421526276E-03    0.6454339755E+00    0.2027416891E-02    0.1168967466E-01
    0.2500000000E+03    0.6219115107E-03    0.3682206055E-03    0.6492050493E+00    0.2193061391E-02    0.1267905569E-01
    0.2700000000E+03    0.6653942877E-03    0.3941155314E-03    0.6524525894E+00    0.2357842433E-02    0.1366423849E-01
    0.2900000000E+03    0.7085759176E-03    0.4198345680E-03    0.6552785575E+00    0.2521739884E-02    0.1464525296E-01
    0.3100000000E+03    0.7514529350E-03    0.4453754574E-03    0.6577600509E+00    0.2684739233E-02    0.1562212874E-01
    0.3300000000E+03    0.7940226685E-03    0.4707364645E-03    0.6599564463E+00    0.2846830261E-02    0.1659489518E-01
    0.3500000000E+03    0.8362831550E-03    0.4959163100E-03    0.6619142145E+00    0.3008006050E-02    0.1756358132E-01
    0.3700000000E+03    0.8782330474E-03    0.5209141056E-03    0.6636702467E+00    0.3168262251E-02    0.1852821594E-01
    0.3900000000E+03    0.9198715280E-03    0.5457292950E-03    0.6652542018E+00    0.3327596528E-02    0.1948882756E-01
    0.4100000000E+03    0.9611982311E-03    0.5703616030E-03    0.6666901959E+00    0.3486008136E-02    0.2044544438E-01
    0.4300000000E+03    0.1002213175E-02    0.5948109921E-03    0.6679980396E+00    0.3643497602E-02    0.2139809438E-01
    0.4500000000E+03    0.1042916704E-02    0.6190776250E-03    0.6691941577E+00    0.3800066463E-02    0.2234680525E-01
    0.4700000000E+03    0.1083309439E-02    0.6431618340E-03    0.6702922830E+00    0.3955717080E-02    0.2329160441E-01
    0.4900000000E+03    0.1123392238E-02    0.6670640946E-03    0.6713039859E+00    0.4110452473E-02    0.2423251902E-01
    0.1000000000E+03    0.2865888902E-03    0.1687033746E-03    0.5897841490E+00    0.9328661820E-03    0.5154250152E-02
    0.3000000000E+03    0.7300526875E-03    0.4326274010E-03    0.6565583025E+00    0.2603352548E-02    0.1513420635E-01
    0.5000000000E+03    0.1143317733E-02    0.6789471766E-03    0.6717805563E+00    0.4187478056E-02    0.2470152805E-01
    0.7000000000E+03    0.1525894223E-02    0.9072508985E-03    0.6785254534E+00    0.5681009080E-02    0.3388421393E-01
    0.9000000000E+03    0.1879374673E-02    0.1118458697E-02    0.6823326830E+00    0.7088716723E-02    0.4270772752E-01
    0.1100000000E+04    0.2205784307E-02    0.1313751813E-02    0.6847784389E+00    0.8416253819E-02    0.5119527928E-01
    0.1300000000E+04    0.2507148729E-02    0.1494312863E-02    0.6864823450E+00    0.9669110913E-02    0.5936807079E-01
    0.1500000000E+04    0.2785381750E-02    0.1661259448E-02    0.6877375359E+00    0.1085241256E-01    0.6724550794E-01
    0.1700000000E+04    0.3042256790E-02    0.1815627347E-02    0.6887006719E+00    0.1197088636E-01    0.7484538745E-01
    0.1900000000E+04    0.3279404665E-02    0.1958369237E-02    0.6894630842E+00    0.1302887780E-01    0.8218406081E-01
    0.2100000000E+04    0.3498320452E-02    0.2090358715E-02    0.6900816143E+00    0.1403037799E-01    0.8927657854E-01
    0.2300000000E+04    0.3700373389E-02    0.2212396072E-02    0.6905934911E+00    0.1497905394E-01    0.9613681757E-01
    0.2500000000E+04    0.3886817430E-02    0.2325214453E-02    0.6910241183E+00    0.1587827797E-01    0.1027775940E+00
    0.2700000000E+04    0.4058801511E-02    0.2429485834E-02    0.6913914242E+00    0.1673115492E-01    0.1092107631E+00
    0.2900000000E+04    0.4217379146E-02    0.2525826615E-02    0.6917084233E+00    0.1754054701E-01    0.1154473083E+00
    0.3100000000E+04    0.4363517241E-02    0.2614802743E-02    0.6919847920E+00    0.1830909620E-01    0.1214974203E+00
    0.3300000000E+04    0.4498104084E-02    0.2696934365E-02    0.6922278740E+00    0.1903924435E-01    0.1273705680E+00
    0.3500000000E+04    0.4621956580E-02    0.2772700035E-02    0.6924433438E+00    0.1973325130E-01    0.1330755619E+00
    0.3700000000E+04    0.4735826760E-02    0.2842540504E-02    0.6926356551E+00    0.2039321113E-01    0.1386206104E+00
    0.3900000000E+04    0.4840407649E-02    0.2906862127E-02    0.6928083527E+00    0.2102106669E-01    0.1440133716E+00
    0.4100000000E+04    0.4936338544E-02    0.2966039937E-02    0.6929642927E+00    0.2161862274E-01    0.1492609985E+00
    0.4300000000E+04    0.5024209765E-02    0.3020420409E-02    0.6931058026E+00    0.2218755775E-01    0.1543701806E+00
    0.4500000000E+04    0.5104566944E-02    0.3070323950E-02    0.6932347975E+00    0.2272943452E-01    0.1593471817E+00
    0.4700000000E+04    0.5177914875E-02    0.3116047145E-02    0.6933528682E+00    0.2324570978E-01    0.1641978730E+00
    0.4900000000E+04    0.5244721012E-02    0.3157864783E-02    0.6934613466E+00    0.2373774287E-01    0.1689277644E+00
    0.1000000000E+04    0.2045834783E-02    0.1218019542E-02    0.6836756089E+00    0.7762155826E-02    0.4699212909E-01
    0.3000000000E+04    0.4291945864E-02    0.2571201729E-02    0.6918511818E+00    0.1792976988E-01    0.1184950605E+00
    0.5000000000E+04    0.5275807555E-02    0.3177389386E-02    0.6935123470E+00    0.2397506869E-01    0.1712490400E+00
    0.7000000000E+04    0.5643830119E-02    0.3415685451E-02    0.6942274446E+00    0.2771651068E-01    0.2124371296E+00
    0.9000000000E+04    0.5696322123E-02    0.3463190888E-02    0.6946256871E+00    0.3006781176E-01    0.2458823629E+00
    0.1100000000E+05    0.5584014299E-02    0.3409413218E-02    0.6948795338E+00    0.3153293251E-01    0.2738237238E+00
    0.1300000000E+05    0.5386857884E-02    0.3302227407E-02    0.6950554953E+00    0.3241000010E-01    0.2976709631E+00
    0.1500000000E+05    0.5148881291E-02    0.3168265107E-02    0.6951846661E+00    0.3288512801E-01    0.3183634118E+00
    0.1700000000E+05    0.4894885853E-02    0.3022716083E-02    0.6952835298E+00    0.3307951653E-01    0.3365559537E+00
    0.1900000000E+05    0.4638957831E-02    0.2874346839E-02    0.6953616397E+00    0.3307480060E-01    0.3527223147E+00
    0.2100000000E+05    0.4389028625E-02    0.2728202715E-02    0.6954249147E+00    0.3292748486E-01    0.3672157755E+00
    0.2300000000E+05    0.4149416836E-02    0.2587122754E-02    0.6954772178E+00    0.3267755785E-01    0.3803065903E+00
    0.2500000000E+05    0.3922291284E-02    0.2452617181E-02    0.6955211776E+00    0.3235383860E-01    0.3922059962E+00
    0.2700000000E+05    0.3708534714E-02    0.2325389245E-02    0.6955586447E+00    0.3197740772E-01    0.4030821585E+00
    0.2900000000E+05    0.3508263932E-02    0.2205652128E-02    0.6955909601E+00    0.3156387290E-01    0.4130710848E+00
    0.3100000000E+05    0.3321147693E-02    0.2093324523E-02    0.6956191190E+00    0.3112490229E-01    0.4222842915E+00
    0.3300000000E+05    0.3146602885E-02    0.1988152725E-02    0.6956438757E+00    0.3066928492E-01    0.4308143152E+00
    0.3500000000E+05    0.2983916151E-02    0.1889787373E-02    0.6956658124E+00    0.3020367778E-01    0.4387387573E+00
    0.3700000000E+05    0.2832319132E-02    0.1797831769E-02    0.6956853855E+00    0.2973314110E-01    0.4461233053E+00
    0.3900000000E+05    0.2691034575E-02    0.1711872155E-02    0.6957029580E+00    0.2926152742E-01    0.4530240268E+00
    0.4100000000E+05    0.2559303960E-02    0.1631496435E-02    0.6957188221E+00    0.2879176810E-01    0.4594891375E+00
    0.4300000000E+05    0.2436403390E-02    0.1556305457E-02    0.6957332156E+00    0.2832608677E-01    0.4655603813E+00
    0.4500000000E+05    0.2321652000E-02    0.1485919481E-02    0.6957463343E+00    0.2786615991E-01    0.4712741203E+00
    0.4700000000E+05    0.2214415638E-02    0.1419981552E-02    0.6957583406E+00    0.2741323895E-01    0.4766622052E+00
    0.4900000000E+05    0.2114107599E-02    0.1358158875E-02    0.6957693704E+00    0.2696824367E-01    0.4817526776E+00
    0.1000000000E+05    0.5654646814E-02    0.3445306829E-02    0.6947652589E+00    0.3088910770E-01    0.2604388628E+00
    0.3000000000E+05    0.3413093742E-02    0.2148575024E-02    0.6956055072E+00    0.3134696026E-01    0.4177684780E+00
    0.5000000000E+05    0.2066381090E-02    0.1328693413E-02    0.6957745557E+00    0.2674893299E-01    0.4841941732E+00
    0.7000000000E+05    0.1366797304E-02    0.8926853013E-03    0.6958472497E+00    0.2285342071E-01    0.5221431206E+00
    0.9000000000E+05    0.9669683682E-03    0.6393726043E-03    0.6958877404E+00    0.1982450706E-01    0.5469058028E+00
    0.1100000000E+06    0.7189126916E-03    0.4801999674E-03    0.6959135636E+00    0.1745813197E-01    0.5643927126E+00
    0.1300000000E+06    0.5549668517E-03    0.3738941764E-03    0.6959314753E+00    0.1557506689E-01    0.5774183121E+00
    0.1500000000E+06    0.4411532538E-03    0.2994385795E-03    0.6959446328E+00    0.1404735462E-01    0.5875040874E+00
    0.1700000000E+06    0.3590011028E-03    0.2452807351E-03    0.6959547100E+00    0.1278594289E-01    0.5955476277E+00
    0.1900000000E+06    0.2977998366E-03    0.2046595321E-03    0.6959626769E+00    0.1172822091E-01    0.6021137499E+00
    0.2100000000E+06    0.2510022831E-03    0.1734090285E-03    0.6959691347E+00    0.1082932328E-01    0.6075760540E+00
    0.2300000000E+06    0.2144275503E-03    0.1488502980E-03    0.6959744758E+00    0.1005643539E-01    0.6121917124E+00
    0.2500000000E+06    0.1853060688E-03    0.1291976389E-03    0.6959789674E+00    0.9385080959E-02    0.6161436321E+00
    0.2700000000E+06    0.1617450606E-03    0.1132237861E-03    0.6959827976E+00    0.8796670157E-02    0.6195655003E+00
    0.2900000000E+06    0.1424157953E-03    0.1000627704E-03    0.6959861028E+00    0.8276850426E-02    0.6225573200E+00
    0.3100000000E+06    0.1263635066E-03    0.8908940632E-04    0.6959889842E+00    0.7814375347E-02    0.6251954024E+00
    0.3300000000E+06    0.1128879769E-03    0.7984318436E-04    0.6959915186E+00    0.7400313870E-02    0.6275389980E+00
    0.3500000000E+06    0.1014663125E-03    0.7197881728E-04    0.6959937652E+00    0.7027487475E-02    0.6296348158E+00
    0.3700000000E+06    0.9170170981E-04    0.6523328397E-04    0.6959957705E+00    0.6690062793E-02    0.6315201778E+00
    0.3900000000E+06    0.8328868153E-04    0.5940336999E-04    0.6959975714E+00    0.6383252166E-02    0.6332252653E+00
    0.4100000000E+06    0.7598897115E-04    0.5433005070E-04    0.6959991978E+00    0.6103090388E-02    0.6347747501E+00
    0.4300000000E+06    0.6961456079E-04    0.4988743433E-04    0.6960006739E+00    0.5846266059E-02    0.6361889972E+00
    0.4500000000E+06    0.6401548341E-04    0.4597480421E-04    0.6960020197E+00    0.5609992634E-02    0.6374849657E+00
    0.4700000000E+06    0.5907094818E-04    0.4251080562E-04    0.6960032517E+00    0.5391908740E-02    0.6386768924E+00
    0.4900000000E+06    0.5468278873E-04    0.3942914121E-04    0.6960043837E+00    0.5190000300E-02    0.6397768172E+00
    0.1000000000E+06    0.8293228037E-03    0.5512707061E-03    0.6959019368E+00    0.1857098993E-01    0.5563401751E+00
    0.3000000000E+06    0.1340286963E-03    0.9433459423E-04    0.6959875912E+00    0.8039049763E-02    0.6239165364E+00
    0.5000000000E+06    0.5267162785E-04    0.3801427236E-04    0.6960049160E+00    0.5094562057E-02    0.6402955430E+00
    0.7000000000E+06    0.2812208216E-04    0.2058613440E-04    0.6960123841E+00    0.3721514793E-02    0.6476776551E+00
    0.9000000000E+06    0.1757403723E-04    0.1297259857E-04    0.6960165468E+00    0.2928495962E-02    0.6518770684E+00
    0.1100000000E+07    0.1209220211E-04    0.8967479410E-05    0.6960192003E+00    0.2412562387E-02    0.6545863174E+00
    0.1300000000E+07    0.8880206249E-05    0.6598668253E-05    0.6960210381E+00    0.2050303753E-02    0.6564786981E+00
    0.1500000000E+07    0.6835607058E-05    0.5079557508E-05    0.6960223850E+00    0.1782068492E-02    0.6578750593E+00
    0.1700000000E+07    0.5452548587E-05    0.4045789096E-05    0.6960234136E+00    0.1575517002E-02    0.6589477113E+00
    0.1900000000E+07    0.4472401401E-05    0.3309599909E-05    0.6960242238E+00    0.1411603168E-02    0.6597974570E+00
    0.2100000000E+07    0.3751732234E-05    0.2766151982E-05    0.6960248778E+00    0.1278383680E-02    0.6604871940E+00
    0.2300000000E+07    0.3205777822E-05    0.2353124964E-05    0.6960254162E+00    0.1167991020E-02    0.6610581977E+00
    0.2500000000E+07    0.2781822680E-05    0.2031559905E-05    0.6960258667E+00    0.1075032390E-02    0.6615386759E+00
    0.2700000000E+07    0.2445676987E-05    0.1776072784E-05    0.6960262486E+00    0.9956881350E-03    0.6619485597E+00
    0.2900000000E+07    0.2174373150E-05    0.1569541305E-05    0.6960265762E+00    0.9271774123E-03    0.6623023314E+00
    0.3100000000E+07    0.1952014610E-05    0.1400070820E-05    0.6960268599E+00    0.8674277184E-03    0.6626107670E+00
    0.3300000000E+07    0.1767312455E-05    0.1259186200E-05    0.6960271077E+00    0.8148629818E-03    0.6628820500E+00
    0.3500000000E+07    0.1612068615E-05    0.1140714190E-05    0.6960273258E+00    0.7682634062E-03    0.6631225071E+00
    0.3700000000E+07    0.1480211572E-05    0.1040070341E-05    0.6960275190E+00    0.7266702430E-03    0.6633371061E+00
    0.3900000000E+07    0.1367165901E-05    0.9537912730E-06    0.6960276911E+00    0.6893195452E-03    0.6635298021E+00
    0.4100000000E+07    0.1269429768E-05    0.8792202647E-06    0.6960278451E+00    0.6555951137E-03    0.6637037831E+00
    0.4300000000E+07    0.1184285488E-05    0.8142912589E-06    0.6960279837E+00    0.6249944471E-03    0.6638616474E+00
    0.4500000000E+07    0.1109597306E-05    0.7573775525E-06    0.6960281089E+00    0.5971036914E-03    0.6640055336E+00
    0.4700000000E+07    0.1043667575E-05    0.7071839255E-06    0.6960282225E+00    0.5715789289E-03    0.6641372182E+00
    0.4900000000E+07    0.9851328204E-06    0.6626685032E-06    0.6960283257E+00    0.5481320135E-03    0.6642581890E+00
    0.1000000000E+07    0.1443748936E-04    0.1068607646E-04    0.6960180059E+00    0.2645812719E-02    0.6533636062E+00
    0.3000000000E+07    0.2057868081E-05    0.1480767688E-05    0.6960267230E+00    0.8963156640E-03    0.6624616540E+00
    0.5000000000E+07    0.9582846617E-06    0.6422693544E-06    0.6960283739E+00    0.5371102278E-03    0.6643150569E+00
    0.7000000000E+07    0.6261622086E-06    0.3917885536E-06    0.6960290139E+00    0.3827371698E-03    0.6651119102E+00
    0.9000000000E+07    0.4756161343E-06    0.2807691064E-06    0.6960293216E+00    0.2969904445E-03    0.6655550711E+00
    0.1100000000E+08    0.3914440948E-06    0.2203549653E-06    0.6960294817E+00    0.2424763292E-03    0.6658371985E+00
    0.1300000000E+08    0.3379435529E-06    0.1830365408E-06    0.6960295647E+00    0.2047801373E-03    0.6660325511E+00
    0.1500000000E+08    0.3008874499E-06    0.1579123430E-06    0.6960296031E+00    0.1771699756E-03    0.6661758211E+00
    0.1700000000E+08    0.2736047748E-06    0.1399135338E-06    0.6960296139E+00    0.1560816128E-03    0.6662853858E+00
    0.1900000000E+08    0.2525869901E-06    0.1264015513E-06    0.6960296068E+00    0.1394520695E-03    0.6663718882E+00
    0.2100000000E+08    0.2358238795E-06    0.1158820238E-06    0.6960295876E+00    0.1260048137E-03    0.6664419180E+00
    0.2300000000E+08    0.2220846469E-06    0.1074512660E-06    0.6960295600E+00    0.1149077638E-03    0.6664997731E+00
    0.2500000000E+08    0.2105747193E-06    0.1005333629E-06    0.6960295266E+00    0.1055954317E-03    0.6665483762E+00
    0.2700000000E+08    0.2007584781E-06    0.9474517612E-07    0.6960294890E+00    0.9767012156E-04    0.6665897839E+00
