  Pressure (Pa) 22mC5-500 (mol/kg) 23mC5-500 (mol/kg) 24mC5-500 (mol/kg) 2mC6-500 (mol/kg) 3mC6-500 (mol/kg)
    0.1000000000E+01    0.6172946361E-05    0.2689035862E-05    0.1741127661E+00    0.2579075365E-04    0.2084271452E-04
    0.3000000000E+01    0.1401803270E-04    0.6121106086E-05    0.3481436230E+00    0.6220047759E-04    0.6251842724E-04
    0.5000000000E+01    0.1989878947E-04    0.8709893054E-05    0.4351309987E+00    0.9295335698E-04    0.1041813645E-03
    0.7000000000E+01    0.2513417282E-04    0.1102477501E-04    0.4873156378E+00    0.1223097949E-03    0.1458316009E-03
    0.9000000000E+01    0.3010916733E-04    0.1323071193E-04    0.5221026312E+00    0.1513102048E-03    0.1874691679E-03
    0.1100000000E+02    0.3496732212E-04    0.1538869371E-04    0.5469493497E+00    0.1802638685E-03    0.2290940839E-03
    0.1300000000E+02    0.3977048840E-04    0.1752473985E-04    0.5655838825E+00    0.2092676466E-03    0.2707063620E-03
    0.1500000000E+02    0.4454788746E-04    0.1965099561E-04    0.5800771719E+00    0.2383479114E-03    0.3123060126E-03
    0.1700000000E+02    0.4931415907E-04    0.2177345259E-04    0.5916716929E+00    0.2675062637E-03    0.3538930452E-03
    0.1900000000E+02    0.5407688412E-04    0.2389514898E-04    0.6011580705E+00    0.2967358250E-03    0.3954674680E-03
    0.2100000000E+02    0.5884002137E-04    0.2601762282E-04    0.6090633676E+00    0.3260273747E-03    0.4370292892E-03
    0.2300000000E+02    0.6360559104E-04    0.2814161923E-04    0.6157524638E+00    0.3553716813E-03    0.4785785164E-03
    0.2500000000E+02    0.6837454561E-04    0.3026745329E-04    0.6214859817E+00    0.3847603324E-03    0.5201151570E-03
    0.2700000000E+02    0.7314723963E-04    0.3239520423E-04    0.6264550415E+00    0.4141859588E-03    0.5616392185E-03
    0.2900000000E+02    0.7792369175E-04    0.3452482257E-04    0.6308029814E+00    0.4436422193E-03    0.6031507079E-03
    0.3100000000E+02    0.8270373461E-04    0.3665619064E-04    0.6346394119E+00    0.4731236979E-03    0.6446496324E-03
    0.3300000000E+02    0.8748710200E-04    0.3878915727E-04    0.6380495852E+00    0.5026257797E-03    0.6861359991E-03
    0.3500000000E+02    0.9227348023E-04    0.4092355782E-04    0.6411008051E+00    0.5321445295E-03    0.7276098150E-03
    0.3700000000E+02    0.9706253828E-04    0.4305922557E-04    0.6438469146E+00    0.5616765841E-03    0.7690710870E-03
    0.3900000000E+02    0.1018539455E-03    0.4519599827E-04    0.6463315005E+00    0.5912190599E-03    0.8105198222E-03
    0.4100000000E+02    0.1066473817E-03    0.4733372151E-04    0.6485902248E+00    0.6207694759E-03    0.8519560273E-03
    0.4300000000E+02    0.1114425426E-03    0.4947225043E-04    0.6506525474E+00    0.6503256885E-03    0.8933797094E-03
    0.4500000000E+02    0.1162391422E-03    0.5161145037E-04    0.6525430182E+00    0.6798858389E-03    0.9347908752E-03
    0.4700000000E+02    0.1210369142E-03    0.5375119677E-04    0.6542822591E+00    0.7094483085E-03    0.9761895316E-03
    0.4900000000E+02    0.1258356115E-03    0.5589137490E-04    0.6558877193E+00    0.7390116826E-03    0.1017575685E-02
    0.1000000000E+02    0.3254788198E-04    0.1431360125E-04    0.5354817386E+00    0.1657842694E-03    0.2082832064E-03
    0.3000000000E+02    0.8031327939E-04    0.3559029684E-04    0.6327793226E+00    0.4583801120E-03    0.6239017403E-03
    0.5000000000E+02    0.1282352351E-03    0.5696159255E-04    0.6566450144E+00    0.7537933148E-03    0.1038264076E-02
    0.7000000000E+02    0.1762296725E-03    0.7836726032E-04    0.6674340923E+00    0.1049240409E-02    0.1451377168E-02
    0.9000000000E+02    0.2241445957E-03    0.9973785663E-04    0.6735829514E+00    0.1343982509E-02    0.1863247780E-02
    0.1100000000E+03    0.2719088256E-03    0.1210416395E-03    0.6775553616E+00    0.1637763036E-02    0.2273882601E-02
    0.1300000000E+03    0.3194859826E-03    0.1422625745E-03    0.6803331480E+00    0.1930472763E-02    0.2683288262E-02
    0.1500000000E+03    0.3668558607E-03    0.1633918265E-03    0.6823847731E+00    0.2222059510E-02    0.3091471341E-02
    0.1700000000E+03    0.4140065727E-03    0.1844242311E-03    0.6839620743E+00    0.2512496960E-02    0.3498438365E-02
    0.1900000000E+03    0.4609308798E-03    0.2053566623E-03    0.6852125032E+00    0.2801771900E-02    0.3904195814E-02
    0.2100000000E+03    0.5076243152E-03    0.2261872039E-03    0.6862281323E+00    0.3089878332E-02    0.4308750120E-02
    0.2300000000E+03    0.5540841539E-03    0.2469146970E-03    0.6870694218E+00    0.3376814488E-02    0.4712107664E-02
    0.2500000000E+03    0.6003088130E-03    0.2675384771E-03    0.6877777151E+00    0.3662581206E-02    0.5114274784E-02
    0.2700000000E+03    0.6462974842E-03    0.2880582145E-03    0.6883822404E+00    0.3947180996E-02    0.5515257771E-02
    0.2900000000E+03    0.6920498998E-03    0.3084738121E-03    0.6889042459E+00    0.4230617472E-02    0.5915062870E-02
    0.3100000000E+03    0.7375661792E-03    0.3287853392E-03    0.6893595492E+00    0.4512894996E-02    0.6313696279E-02
    0.3300000000E+03    0.7828467235E-03    0.3489929861E-03    0.6897601680E+00    0.4794018450E-02    0.6711164153E-02
    0.3500000000E+03    0.8278921434E-03    0.3690970322E-03    0.6901153964E+00    0.5073993075E-02    0.7107472602E-02
    0.3700000000E+03    0.8727032067E-03    0.3890978243E-03    0.6904325355E+00    0.5352824367E-02    0.7502627692E-02
    0.3900000000E+03    0.9172808006E-03    0.4089957600E-03    0.6907174000E+00    0.5630518006E-02    0.7896635446E-02
    0.4100000000E+03    0.9616259045E-03    0.4287912759E-03    0.6909746784E+00    0.5907079794E-02    0.8289501842E-02
    0.4300000000E+03    0.1005739568E-02    0.4484848385E-03    0.6912081930E+00    0.6182515623E-02    0.8681232816E-02
    0.4500000000E+03    0.1049622896E-02    0.4680769376E-03    0.6914210911E+00    0.6456831443E-02    0.9071834264E-02
    0.4700000000E+03    0.1093277036E-02    0.4875680807E-03    0.6916159876E+00    0.6730033241E-02    0.9461312035E-02
    0.4900000000E+03    0.1136703169E-02    0.5069587894E-03    0.6917950734E+00    0.7002127025E-02    0.9849671941E-02
    0.1000000000E+03    0.2480483397E-03    0.1103993336E-03    0.6757619760E+00    0.1491001725E-02    0.2068719249E-02
    0.3000000000E+03    0.7148375371E-03    0.3186425750E-03    0.6891394098E+00    0.4371900808E-02    0.6114525650E-02
    0.5000000000E+03    0.1158331108E-02    0.5166166467E-03    0.6918792765E+00    0.7137760291E-02    0.1004343450E-01
    0.7000000000E+03    0.1579222694E-02    0.7046345397E-03    0.6930603410E+00    0.9793721692E-02    0.1386138692E-01
    0.9000000000E+03    0.1978751490E-02    0.8832414259E-03    0.6937183010E+00    0.1234566471E-01    0.1757391577E-01
    0.1100000000E+04    0.2358147959E-02    0.1052977168E-02    0.6941376916E+00    0.1479916540E-01    0.2118618054E-01
    0.1300000000E+04    0.2718575995E-02    0.1214352034E-02    0.6944283595E+00    0.1715943772E-01    0.2470299855E-01
    0.1500000000E+04    0.3061124666E-02    0.1367843379E-02    0.6946416864E+00    0.1943134673E-01    0.2812887308E-01
    0.1700000000E+04    0.3386809964E-02    0.1513896522E-02    0.6948049183E+00    0.2161943257E-01    0.3146801875E-01
    0.1900000000E+04    0.3696579103E-02    0.1652926665E-02    0.6949338479E+00    0.2372793529E-01    0.3472438448E-01
    0.2100000000E+04    0.3991315370E-02    0.1785321039E-02    0.6950382608E+00    0.2576081831E-01    0.3790167427E-01
    0.2300000000E+04    0.4271842923E-02    0.1911441009E-02    0.6951245436E+00    0.2772179014E-01    0.4100336608E-01
    0.2500000000E+04    0.4538931320E-02    0.2031624061E-02    0.6951970415E+00    0.2961432419E-01    0.4403272895E-01
    0.2700000000E+04    0.4793299728E-02    0.2146185640E-02    0.6952588142E+00    0.3144167691E-01    0.4699283861E-01
    0.2900000000E+04    0.5035620788E-02    0.2255420844E-02    0.6953120779E+00    0.3320690424E-01    0.4988659174E-01
    0.3100000000E+04    0.5266524156E-02    0.2359605971E-02    0.6953584778E+00    0.3491287665E-01    0.5271671887E-01
    0.3300000000E+04    0.5486599755E-02    0.2458999938E-02    0.6953992605E+00    0.3656229294E-01    0.5548579631E-01
    0.3500000000E+04    0.5696400736E-02    0.2553845576E-02    0.6954353879E+00    0.3815769268E-01    0.5819625701E-01
    0.3700000000E+04    0.5896446192E-02    0.2644370819E-02    0.6954676142E+00    0.3970146776E-01    0.6085040044E-01
    0.3900000000E+04    0.6087223649E-02    0.2730789788E-02    0.6954965390E+00    0.4119587282E-01    0.6345040181E-01
    0.4100000000E+04    0.6269191337E-02    0.2813303784E-02    0.6955226450E+00    0.4264303494E-01    0.6599832038E-01
    0.4300000000E+04    0.6442780279E-02    0.2892102202E-02    0.6955463252E+00    0.4404496242E-01    0.6849610725E-01
    0.4500000000E+04    0.6608396210E-02    0.2967363369E-02    0.6955679027E+00    0.4540355289E-01    0.7094561241E-01
    0.4700000000E+04    0.6766421329E-02    0.3039255308E-02    0.6955876458E+00    0.4672060080E-01    0.7334859128E-01
    0.4900000000E+04    0.6917215925E-02    0.3107936451E-02    0.6956057789E+00    0.4799780429E-01    0.7570671081E-01
    0.1000000000E+04    0.2170891782E-02    0.9691855312E-03    0.6939488987E+00    0.1358438604E-01    0.1939227241E-01
    0.3000000000E+04    0.5152461918E-02    0.2308128093E-02    0.6953360502E+00    0.3406712476E-01    0.5130944405E-01
    0.5000000000E+04    0.6990008744E-02    0.3141120022E-02    0.6956143020E+00    0.4862197027E-01    0.7686944643E-01
    0.7000000000E+04    0.8139301161E-02    0.3668368981E-02    0.6957336666E+00    0.5936209957E-01    0.9811505908E-01
    0.9000000000E+04    0.8854012360E-02    0.4001594449E-02    0.6958000188E+00    0.6751108285E-01    0.1162711484E+00
    0.1100000000E+05    0.9284235686E-02    0.4207092525E-02    0.6958422609E+00    0.7382467588E-01    0.1321202901E+00
    0.1300000000E+05    0.9523131044E-02    0.4326145631E-02    0.6958715157E+00    0.7879406820E-01    0.1461881739E+00
    0.1500000000E+05    0.9630768031E-02    0.4385467591E-02    0.6958929755E+00    0.8275191035E-01    0.1588425641E+00
    0.1700000000E+05    0.9647093860E-02    0.4402892577E-02    0.6959093902E+00    0.8593126069E-01    0.1703495319E+00
    0.1900000000E+05    0.9599354000E-02    0.4390635630E-02    0.6959223523E+00    0.8850011357E-01    0.1809070913E+00
    0.2100000000E+05    0.9506521922E-02    0.4357242415E-02    0.6959328476E+00    0.9058252603E-01    0.1906661996E+00
    0.2300000000E+05    0.9382039620E-02    0.4308797716E-02    0.6959415194E+00    0.9227203201E-01    0.1997443556E+00
    0.2500000000E+05    0.9235565664E-02    0.4249697860E-02    0.6959488051E+00    0.9364043500E-01    0.2082346846E+00
    0.2700000000E+05    0.9074120023E-02    0.4183157680E-02    0.6959550125E+00    0.9474373287E-01    0.2162121764E+00
    0.2900000000E+05    0.8902851264E-02    0.4111551037E-02    0.6959603646E+00    0.9562620853E-01    0.2237380714E+00
    0.3100000000E+05    0.8725561167E-02    0.4036644248E-02    0.6959650269E+00    0.9632331523E-01    0.2308630111E+00
    0.3300000000E+05    0.8545069906E-02    0.3959758996E-02    0.6959691246E+00    0.9686375118E-01    0.2376293440E+00
    0.3500000000E+05    0.8363474291E-02    0.3881887851E-02    0.6959727546E+00    0.9727097682E-01    0.2440728426E+00
    0.3700000000E+05    0.8182332985E-02    0.3803777362E-02    0.6959759926E+00    0.9756434190E-01    0.2502240005E+00
    0.3900000000E+05    0.8002801007E-02    0.3725988595E-02    0.6959788988E+00    0.9775993441E-01    0.2561090279E+00
    0.4100000000E+05    0.7825728534E-02    0.3648941736E-02    0.6959815219E+00    0.9787122823E-01    0.2617506228E+00
    0.4300000000E+05    0.7651734194E-02    0.3572949301E-02    0.6959839013E+00    0.9790958296E-01    0.2671685781E+00
    0.4500000000E+05    0.7481259937E-02    0.3498241085E-02    0.6959860694E+00    0.9788463384E-01    0.2723802624E+00
    0.4700000000E+05    0.7314612447E-02    0.3424983073E-02    0.6959880532E+00    0.9780459892E-01    0.2774010058E+00
    0.4900000000E+05    0.7151994622E-02    0.3353291864E-02    0.6959898754E+00    0.9767652317E-01    0.2822444117E+00
    0.1000000000E+05    0.9097879561E-02    0.4117296888E-02    0.6958232500E+00    0.7086195545E-01    0.1244466502E+00
    0.3000000000E+05    0.8814763066E-02    0.4074418676E-02    0.6959627734E+00    0.9599600106E-01    0.2273478420E+00
    0.5000000000E+05    0.7072237908E-02    0.3318059529E-02    0.6959907318E+00    0.9759639976E-01    0.2846034556E+00
    0.7000000000E+05    0.5693471286E-02    0.2702323919E-02    0.6960027280E+00    0.9457412735E-01    0.3248354056E+00
    0.9000000000E+05    0.4667655159E-02    0.2236625911E-02    0.6960093985E+00    0.9037447797E-01    0.3557775418E+00
    0.1100000000E+06    0.3895657090E-02    0.1881882139E-02    0.6960136465E+00    0.8598634007E-01    0.3807587990E+00
    0.1300000000E+06    0.3302261587E-02    0.1606529856E-02    0.6960165893E+00    0.8174442323E-01    0.4015583641E+00
    0.1500000000E+06    0.2836564121E-02    0.1388641628E-02    0.6960187484E+00    0.7776263757E-01    0.4192540848E+00
    0.1700000000E+06    0.2464235249E-02    0.1213184253E-02    0.6960204004E+00    0.7407058487E-01    0.4345543196E+00
    0.1900000000E+06    0.2161692656E-02    0.1069704287E-02    0.6960217051E+00    0.7066395338E-01    0.4479519192E+00
    0.2100000000E+06    0.1912364335E-02    0.9507836866E-03    0.6960227617E+00    0.6752505909E-01    0.4598045509E+00
    0.2300000000E+06    0.1704342179E-02    0.8510481311E-03    0.6960236348E+00    0.6463172037E-01    0.4703803350E+00
    0.2500000000E+06    0.1528891817E-02    0.7665274900E-03    0.6960243684E+00    0.6196118059E-01    0.4798855099E+00
    0.2700000000E+06    0.1379486836E-02    0.6942364809E-03    0.6960249935E+00    0.5949180712E-01    0.4884820815E+00
    0.2900000000E+06    0.1251168813E-02    0.6318941520E-03    0.6960255325E+00    0.5720375741E-01    0.4962995538E+00
    0.3100000000E+06    0.1140113948E-02    0.5777324041E-03    0.6960260020E+00    0.5507915915E-01    0.5034429929E+00
    0.3300000000E+06    0.1043333589E-02    0.5303627483E-03    0.6960264147E+00    0.5310206568E-01    0.5099987301E+00
    0.3500000000E+06    0.9584633702E-03    0.4886819105E-03    0.6960267803E+00    0.5125831413E-01    0.5160384918E+00
    0.3700000000E+06    0.8836121700E-03    0.4518038434E-03    0.6960271064E+00    0.4953534891E-01    0.5216224534E+00
    0.3900000000E+06    0.8172522225E-03    0.4190100087E-03    0.6960273991E+00    0.4792204093E-01    0.5268015373E+00
    0.4100000000E+06    0.7581380053E-03    0.3897125110E-03    0.6960276632E+00    0.4640851685E-01    0.5316191703E+00
    0.4300000000E+06    0.7052455819E-03    0.3634264097E-03    0.6960279028E+00    0.4498600400E-01    0.5361126461E+00
    0.4500000000E+06    0.6577266899E-03    0.3397486776E-03    0.6960281211E+00    0.4364669272E-01    0.5403141937E+00
    0.4700000000E+06    0.6148736019E-03    0.3183420364E-03    0.6960283209E+00    0.4238361568E-01    0.5442518270E+00
    0.4900000000E+06    0.5760919549E-03    0.2989224138E-03    0.6960285043E+00    0.4119054279E-01    0.5479500242E+00
    0.1000000000E+06    0.4255291952E-02    0.2047611042E-02    0.6960117345E+00    0.8817518763E-01    0.3688796720E+00
    0.3000000000E+06    0.1193687030E-02    0.6038851233E-03    0.6960257751E+00    0.5612206726E-01    0.4999497473E+00
    0.5000000000E+06    0.5580678645E-03    0.2898810483E-03    0.6960285905E+00    0.4061848992E-01    0.5497161547E+00
    0.7000000000E+06    0.3227450822E-03    0.1707197346E-03    0.6960297972E+00    0.3176498954E-01    0.5765237344E+00
    0.9000000000E+06    0.2101363081E-03    0.1127083266E-03    0.6960304667E+00    0.2605808429E-01    0.5933501726E+00
    0.1100000000E+07    0.1476170331E-03    0.8007093401E-04    0.6960308919E+00    0.2207801098E-01    0.6049083765E+00
    0.1300000000E+07    0.1093398808E-03    0.5987152364E-04    0.6960311853E+00    0.1914575721E-01    0.6133408558E+00
    0.1500000000E+07    0.8421674240E-04    0.4649193844E-04    0.6960313996E+00    0.1689653704E-01    0.6197652945E+00
    0.1700000000E+07    0.6684526186E-04    0.3716703417E-04    0.6960315629E+00    0.1511707842E-01    0.6248227254E+00
    0.1900000000E+07    0.5433679710E-04    0.3040549657E-04    0.6960316911E+00    0.1367442915E-01    0.6289074018E+00
    0.2100000000E+07    0.4503285024E-04    0.2534464777E-04    0.6960317944E+00    0.1248142850E-01    0.6322752133E+00
    0.2300000000E+07    0.3792599894E-04    0.2145697454E-04    0.6960318792E+00    0.1147856981E-01    0.6350995200E+00
    0.2500000000E+07    0.3237562860E-04    0.1840502391E-04    0.6960319500E+00    0.1062384645E-01    0.6375019537E+00
    0.2700000000E+07    0.2795860480E-04    0.1596469133E-04    0.6960320099E+00    0.9886763525E-02    0.6395703769E+00
    0.2900000000E+07    0.2438634332E-04    0.1398237267E-04    0.6960320612E+00    0.9244649913E-02    0.6413698428E+00
    0.3100000000E+07    0.2145655886E-04    0.1234990321E-04    0.6960321055E+00    0.8680302017E-02    0.6429495466E+00
    0.3300000000E+07    0.1902405687E-04    0.1098931433E-04    0.6960321442E+00    0.8180430340E-02    0.6443473797E+00
    0.3500000000E+07    0.1698243947E-04    0.9843243664E-05    0.6960321781E+00    0.7734606968E-02    0.6455929997E+00
    0.3700000000E+07    0.1525230174E-04    0.8868721943E-05    0.6960322081E+00    0.7334535193E-02    0.6467099516E+00
    0.3900000000E+07    0.1377341439E-04    0.8033042222E-05    0.6960322348E+00    0.6973531887E-02    0.6477171648E+00
    0.4100000000E+07    0.1249942523E-04    0.7310949973E-05    0.6960322587E+00    0.6646153677E-02    0.6486300314E+00
    0.4300000000E+07    0.1139419301E-04    0.6682692200E-05    0.6960322801E+00    0.6347922400E-02    0.6494611952E+00
    0.4500000000E+07    0.1042920330E-04    0.6132637854E-05    0.6960322995E+00    0.6075120393E-02    0.6502211386E+00
    0.4700000000E+07    0.9581716145E-05    0.5648285946E-05    0.6960323170E+00    0.5824635735E-02    0.6509186258E+00
    0.4900000000E+07    0.8833418044E-05    0.5219541586E-05    0.6960323329E+00    0.5593843787E-02    0.6515610404E+00
    0.1000000000E+07    0.1747609652E-03    0.9428804668E-04    0.6960307007E+00    0.2390498367E-01    0.5996195910E+00
    0.3000000000E+07    0.2285130002E-04    0.1312785450E-04    0.6960320841E+00    0.8953663331E-02    0.6421845734E+00
    0.5000000000E+07    0.8491701981E-05    0.5023390727E-05    0.6960323403E+00    0.5485122618E-02    0.6518635910E+00
    0.7000000000E+07    0.4390649356E-05    0.2646863575E-05    0.6960324380E+00    0.3946572777E-02    0.6561401999E+00
    0.9000000000E+07    0.2676705197E-05    0.1635820027E-05    0.6960324843E+00    0.3079037391E-02    0.6585481970E+00
    0.1100000000E+08    0.1801770752E-05    0.1112714049E-05    0.6960325080E+00    0.2522588998E-02    0.6600917845E+00
    0.1300000000E+08    0.1295906868E-05    0.8069856822E-06    0.6960325200E+00    0.2135549438E-02    0.6611651665E+00
    0.1500000000E+08    0.9773852380E-06    0.6127429982E-06    0.6960325252E+00    0.1850884635E-02    0.6619545774E+00
    0.1700000000E+08    0.7639525292E-06    0.4815835153E-06    0.6960325263E+00    0.1632783040E-02    0.6625594179E+00
    0.1900000000E+08    0.6139914709E-06    0.3888119806E-06    0.6960325248E+00    0.1460379940E-02    0.6630375679E+00
    0.2100000000E+08    0.5046143385E-06    0.3207481862E-06    0.6960325214E+00    0.1320699306E-02    0.6634250101E+00
    0.2300000000E+08    0.4223900228E-06    0.2693125893E-06    0.6960325169E+00    0.1205249087E-02    0.6637452869E+00
    0.2500000000E+08    0.3590160155E-06    0.2294820098E-06    0.6960325115E+00    0.1108239260E-02    0.6640144477E+00
    0.2700000000E+08    0.3091363877E-06    0.1979991163E-06    0.6960325056E+00    0.1025586849E-02    0.6642438087E+00
