  Pressure (Pa) 22mC5-500 (mol/kg) 23mC5-500 (mol/kg) 24mC5-500 (mol/kg) 2mC6-500 (mol/kg) 3mC6-500 (mol/kg)
    0.1000000000E+01    0.7429207914E-05    0.4311712913E-05    0.3666095628E-01    0.3029061630E-04    0.4168419314E-04
    0.3000000000E+01    0.2054136963E-04    0.1192495761E-04    0.9949320026E-01    0.8454613726E-04    0.1250253608E-03
    0.5000000000E+01    0.3187032522E-04    0.1850772241E-04    0.1513843049E+00    0.1324798105E-03    0.2083303002E-03
    0.7000000000E+01    0.4188005987E-04    0.2432915268E-04    0.1949637404E+00    0.1758657074E-03    0.2915990744E-03
    0.9000000000E+01    0.5089126000E-04    0.2957511573E-04    0.2320808346E+00    0.2159092922E-03    0.3748317358E-03
    0.1100000000E+02    0.5913193690E-04    0.3437765014E-04    0.2640741268E+00    0.2534521580E-03    0.4580283302E-03
    0.1300000000E+02    0.6676814591E-04    0.3883282943E-04    0.2919363327E+00    0.2890954554E-03    0.5411888987E-03
    0.1500000000E+02    0.7392333745E-04    0.4301201028E-04    0.3164192555E+00    0.3232770654E-03    0.6243134790E-03
    0.1700000000E+02    0.8069094243E-04    0.4696914507E-04    0.3381026885E+00    0.3563213737E-03    0.7074021066E-03
    0.1900000000E+02    0.8714278703E-04    0.5074566888E-04    0.3574409504E+00    0.3884722484E-03    0.7904548149E-03
    0.2100000000E+02    0.9333485648E-04    0.5437384517E-04    0.3747950872E+00    0.4199154055E-03    0.8734716363E-03
    0.2300000000E+02    0.9931132781E-04    0.5787910562E-04    0.3904556413E+00    0.4507938932E-03    0.9564526019E-03
    0.2500000000E+02    0.1051074455E-03    0.6128171769E-04    0.4046590612E+00    0.4812190114E-03    0.1039397742E-02
    0.2700000000E+02    0.1107516070E-03    0.6459799325E-04    0.4175997313E+00    0.5112781360E-03    0.1122307087E-02
    0.2900000000E+02    0.1162668982E-03    0.6784117810E-04    0.4294389283E+00    0.5410404119E-03    0.1205180665E-02
    0.3100000000E+02    0.1216722400E-03    0.7102211565E-04    0.4403115827E+00    0.5705609464E-03    0.1288018505E-02
    0.3300000000E+02    0.1269832546E-03    0.7414974829E-04    0.4503314477E+00    0.5998839395E-03    0.1370820637E-02
    0.3500000000E+02    0.1322129286E-03    0.7723150057E-04    0.4595950975E+00    0.6290450426E-03    0.1453587087E-02
    0.3700000000E+02    0.1373721246E-03    0.8027357507E-04    0.4681850524E+00    0.6580731568E-03    0.1536317885E-02
    0.3900000000E+02    0.1424699810E-03    0.8328118309E-04    0.4761722460E+00    0.6869918143E-03    0.1619013057E-02
    0.4100000000E+02    0.1475142260E-03    0.8625872611E-04    0.4836179899E+00    0.7158202501E-03    0.1701672631E-02
    0.4300000000E+02    0.1525114277E-03    0.8920993972E-04    0.4905755516E+00    0.7445742389E-03    0.1784296635E-02
    0.4500000000E+02    0.1574671932E-03    0.9213800863E-04    0.4970914325E+00    0.7732667545E-03    0.1866885095E-02
    0.4700000000E+02    0.1623863294E-03    0.9504565926E-04    0.5032064087E+00    0.8019084917E-03    0.1949438040E-02
    0.4900000000E+02    0.1672729735E-03    0.9793523473E-04    0.5089563860E+00    0.8305082825E-03    0.2031955496E-02
    0.1000000000E+02    0.5509635150E-04    0.3202511991E-04    0.2486492552E+00    0.2349511802E-03    0.4164345387E-03
    0.3000000000E+02    0.1189822677E-03    0.6943882932E-04    0.4349885192E+00    0.5558279095E-03    0.1246604051E-02
    0.5000000000E+02    0.1697052473E-03    0.9937388699E-04    0.5117045653E+00    0.8447947823E-03    0.2073200923E-02
    0.7000000000E+02    0.2172954529E-03    0.1275647923E-03    0.5535550423E+00    0.1129536718E-02    0.2896252855E-02
    0.9000000000E+02    0.2637743269E-03    0.1551491618E-03    0.5799099703E+00    0.1413626531E-02    0.3715786390E-02
    0.1100000000E+03    0.3097156644E-03    0.1824431832E-03    0.5980321538E+00    0.1697418515E-02    0.4531827592E-02
    0.1300000000E+03    0.3553089565E-03    0.2095479420E-03    0.6112586043E+00    0.1980730168E-02    0.5344402186E-02
    0.1500000000E+03    0.4006190221E-03    0.2364959634E-03    0.6213374010E+00    0.2263324645E-02    0.6153535605E-02
    0.1700000000E+03    0.4456655057E-03    0.2632955438E-03    0.6292728505E+00    0.2545001972E-02    0.6959253012E-02
    0.1900000000E+03    0.4904509104E-03    0.2899461515E-03    0.6356830476E+00    0.2825608342E-02    0.7761579308E-02
    0.2100000000E+03    0.5349714142E-03    0.3164442505E-03    0.6409692513E+00    0.3105028736E-02    0.8560539140E-02
    0.2300000000E+03    0.5792212620E-03    0.3427855982E-03    0.6454033078E+00    0.3383177889E-02    0.9356156910E-02
    0.2500000000E+03    0.6231945718E-03    0.3689661470E-03    0.6491759328E+00    0.3659992782E-02    0.1014845677E-01
    0.2700000000E+03    0.6668860469E-03    0.3949823681E-03    0.6524248777E+00    0.3935426975E-02    0.1093746264E-01
    0.2900000000E+03    0.7102912117E-03    0.4208313325E-03    0.6552521223E+00    0.4209446436E-02    0.1172319820E-01
    0.3100000000E+03    0.7534064414E-03    0.4465106907E-03    0.6577347798E+00    0.4482026515E-02    0.1250568690E-01
    0.3300000000E+03    0.7962289063E-03    0.4720186170E-03    0.6599322404E+00    0.4753149706E-02    0.1328495194E-01
    0.3500000000E+03    0.8387564860E-03    0.4973537417E-03    0.6618909866E+00    0.5022804015E-02    0.1406101632E-01
    0.3700000000E+03    0.8809876773E-03    0.5225150868E-03    0.6636479197E+00    0.5290981726E-02    0.1483390281E-01
    0.3900000000E+03    0.9229215073E-03    0.5475020070E-03    0.6652327070E+00    0.5557678485E-02    0.1560363394E-01
    0.4100000000E+03    0.9645574564E-03    0.5723141389E-03    0.6666694722E+00    0.5822892594E-02    0.1637023203E-01
    0.4300000000E+03    0.1005895390E-02    0.5969513572E-03    0.6679780323E+00    0.6086624470E-02    0.1713371920E-01
    0.4500000000E+03    0.1046935502E-02    0.6214137377E-03    0.6691748176E+00    0.6348876225E-02    0.1789411734E-01
    0.4700000000E+03    0.1087678263E-02    0.6457015268E-03    0.6702735658E+00    0.6609651343E-02    0.1865144813E-01
    0.4900000000E+03    0.1128124380E-02    0.6698151143E-03    0.6712858517E+00    0.6868954410E-02    0.1940573305E-01
    0.1000000000E+03    0.2867958324E-03    0.1688236499E-03    0.5897385714E+00    0.1555567600E-02    0.4124241917E-02
    0.3000000000E+03    0.7318852630E-03    0.4336923380E-03    0.6565324625E+00    0.4345917638E-02    0.1211484695E-01
    0.5000000000E+03    0.1148236474E-02    0.6818067382E-03    0.6717626997E+00    0.6998055610E-02    0.1978173996E-01
    0.7000000000E+03    0.1535207477E-02    0.9126676920E-03    0.6785117487E+00    0.9504471285E-02    0.2714706148E-01
    0.9000000000E+03    0.1894250877E-02    0.1127114957E-02    0.6823215251E+00    0.1187269217E-01    0.3423092454E-01
    0.1100000000E+04    0.2227264198E-02    0.1326256366E-02    0.6847690064E+00    0.1411174654E-01    0.4105164344E-01
    0.1300000000E+04    0.2536156677E-02    0.1511207592E-02    0.6864741613E+00    0.1623042159E-01    0.4762593141E-01
    0.1500000000E+04    0.2822736152E-02    0.1683025223E-02    0.6877302991E+00    0.1823692202E-01    0.5396907258E-01
    0.1700000000E+04    0.3088679588E-02    0.1842689462E-02    0.6886941789E+00    0.2013881636E-01    0.6009507233E-01
    0.1900000000E+04    0.3335530037E-02    0.1991102373E-02    0.6894571914E+00    0.2194305989E-01    0.6601678901E-01
    0.2100000000E+04    0.3564702752E-02    0.2129091476E-02    0.6900762166E+00    0.2365603905E-01    0.7174604974E-01
    0.2300000000E+04    0.3777494387E-02    0.2257415126E-02    0.6905885088E+00    0.2528362027E-01    0.7729375238E-01
    0.2500000000E+04    0.3975092912E-02    0.2376768305E-02    0.6910194898E+00    0.2683119733E-01    0.8266995576E-01
    0.2700000000E+04    0.4158587301E-02    0.2487788273E-02    0.6913871010E+00    0.2830373540E-01    0.8788395946E-01
    0.2900000000E+04    0.4328976596E-02    0.2591059855E-02    0.6917043662E+00    0.2970581095E-01    0.9294437471E-01
    0.3100000000E+04    0.4487178230E-02    0.2687120289E-02    0.6919809689E+00    0.3104164794E-01    0.9785918753E-01
    0.3300000000E+04    0.4634035581E-02    0.2776463627E-02    0.6922242585E+00    0.3231515017E-01    0.1026358150E+00
    0.3500000000E+04    0.4770324803E-02    0.2859544710E-02    0.6924399137E+00    0.3352993042E-01    0.1072811553E+00
    0.3700000000E+04    0.4896760964E-02    0.2936782753E-02    0.6926323917E+00    0.3468933649E-01    0.1118016334E+00
    0.3900000000E+04    0.5014003590E-02    0.3008564559E-02    0.6928052399E+00    0.3579647465E-01    0.1162032406E+00
    0.4100000000E+04    0.5122661627E-02    0.3075247423E-02    0.6929613168E+00    0.3685423067E-01    0.1204915716E+00
    0.4300000000E+04    0.5223297929E-02    0.3137161734E-02    0.6931029516E+00    0.3786528869E-01    0.1246718568E+00
    0.4500000000E+04    0.5316433281E-02    0.3194613324E-02    0.6932320610E+00    0.3883214829E-01    0.1287489922E+00
    0.4700000000E+04    0.5402550035E-02    0.3247885583E-02    0.6933502370E+00    0.3975713984E-01    0.1327275656E+00
    0.4900000000E+04    0.5482095384E-02    0.3297241368E-02    0.6934588127E+00    0.4064243836E-01    0.1366118814E+00
    0.1000000000E+04    0.2063890266E-02    0.1228528174E-02    0.6836653891E+00    0.1300780396E-01    0.3767309704E-01
    0.3000000000E+04    0.4409546507E-02    0.2639959624E-02    0.6918472454E+00    0.3038175813E-01    0.9541950514E-01
    0.5000000000E+04    0.5519534652E-02    0.3320527538E-02    0.6935098589E+00    0.4107084307E-01    0.1385199656E+00
    0.7000000000E+04    0.6009532115E-02    0.3631387972E-02    0.6942256121E+00    0.4798368866E-01    0.1725953474E+00
    0.9000000000E+04    0.6169138977E-02    0.3743232361E-02    0.6946242317E+00    0.5258512701E-01    0.2006284522E+00
    0.1100000000E+05    0.6146464941E-02    0.3743866968E-02    0.6948783244E+00    0.5568694438E-01    0.2243625191E+00
    0.1300000000E+05    0.6022063971E-02    0.3681375909E-02    0.6950544598E+00    0.5777258535E-01    0.2448930271E+00
    0.1500000000E+05    0.5841744104E-02    0.3583322631E-02    0.6951837603E+00    0.5914640530E-01    0.2629484734E+00
    0.1700000000E+05    0.5632389270E-02    0.3466037263E-02    0.6952827247E+00    0.6000863089E-01    0.2790357752E+00
    0.1900000000E+05    0.5410105609E-02    0.3339415221E-02    0.6953609151E+00    0.6049575010E-01    0.2935209798E+00
    0.2100000000E+05    0.5184641886E-02    0.3209531421E-02    0.6954242561E+00    0.6070355412E-01    0.3066766745E+00
    0.2300000000E+05    0.4961892708E-02    0.3080127280E-02    0.6954766143E+00    0.6070091923E-01    0.3187111771E+00
    0.2500000000E+05    0.4745366643E-02    0.2953487156E-02    0.6955206209E+00    0.6053838476E-01    0.3297872380E+00
    0.2700000000E+05    0.4537072549E-02    0.2830970397E-02    0.6955581282E+00    0.6025367642E-01    0.3400344395E+00
    0.2900000000E+05    0.4338067612E-02    0.2713342343E-02    0.6955904786E+00    0.5987536811E-01    0.3495576624E+00
    0.3100000000E+05    0.4148802938E-02    0.2600984484E-02    0.6956186682E+00    0.5942537230E-01    0.3584430189E+00
    0.3300000000E+05    0.3969344933E-02    0.2494030133E-02    0.6956434521E+00    0.5892067166E-01    0.3667621061E+00
    0.3500000000E+05    0.3799518883E-02    0.2392453200E-02    0.6956654132E+00    0.5837454710E-01    0.3745751188E+00
    0.3700000000E+05    0.3639002896E-02    0.2296126863E-02    0.6956850081E+00    0.5779746401E-01    0.3819331672E+00
    0.3900000000E+05    0.3487389686E-02    0.2204862626E-02    0.6957026004E+00    0.5719772175E-01    0.3888800331E+00
    0.4100000000E+05    0.3344227279E-02    0.2118436422E-02    0.6957184824E+00    0.5658193644E-01    0.3954535188E+00
    0.4300000000E+05    0.3209045714E-02    0.2036606052E-02    0.6957328923E+00    0.5595540424E-01    0.4016864977E+00
    0.4500000000E+05    0.3081374421E-02    0.1959122784E-02    0.6957460261E+00    0.5532237793E-01    0.4076077427E+00
    0.4700000000E+05    0.2960753294E-02    0.1885738990E-02    0.6957580462E+00    0.5468627957E-01    0.4132425857E+00
    0.4900000000E+05    0.2846739537E-02    0.1816213073E-02    0.6957690889E+00    0.5404986557E-01    0.4186134497E+00
    0.1000000000E+05    0.6174471400E-02    0.3753808361E-02    0.6947639380E+00    0.5428783680E-01    0.2129534274E+00
    0.3000000000E+05    0.4242206555E-02    0.2656491710E-02    0.6956050415E+00    0.5965817057E-01    0.3540753000E+00
    0.5000000000E+05    0.2792077806E-02    0.1782823753E-02    0.6957742802E+00    0.5373225196E-01    0.4212062090E+00
    0.7000000000E+05    0.1956430216E-02    0.1267543552E-02    0.6958470612E+00    0.4771261111E-01    0.4630630087E+00
    0.9000000000E+05    0.1443609692E-02    0.9462138360E-03    0.6958876031E+00    0.4259919089E-01    0.4922163115E+00
    0.1100000000E+06    0.1108203485E-02    0.7334181131E-03    0.6959134605E+00    0.3836092366E-01    0.5138622891E+00
    0.1300000000E+06    0.8772659518E-03    0.5853966616E-03    0.6959313970E+00    0.3483714625E-01    0.5306377563E+00
    0.1500000000E+06    0.7116160773E-03    0.4782959070E-03    0.6959445737E+00    0.3187872169E-01    0.5440504763E+00
    0.1700000000E+06    0.5888057518E-03    0.3982908276E-03    0.6959546662E+00    0.2936745959E-01    0.5550342618E+00
    0.1900000000E+06    0.4952521534E-03    0.3369360710E-03    0.6959626457E+00    0.2721296025E-01    0.5642019410E+00
    0.2100000000E+06    0.4223535606E-03    0.2888395591E-03    0.6959691141E+00    0.2534633063E-01    0.5719739191E+00
    0.2300000000E+06    0.3644503178E-03    0.2504280522E-03    0.6959744645E+00    0.2371470070E-01    0.5786489388E+00
    0.2500000000E+06    0.3176957866E-03    0.2192574779E-03    0.6959789641E+00    0.2227706317E-01    0.5844454905E+00
    0.2700000000E+06    0.2794018423E-03    0.1936100429E-03    0.6959828015E+00    0.2100123902E-01    0.5895272608E+00
    0.2900000000E+06    0.2476441691E-03    0.1722496158E-03    0.6959861131E+00    0.1986168271E-01    0.5940194106E+00
    0.3100000000E+06    0.2210159268E-03    0.1542681364E-03    0.6959890003E+00    0.1883788917E-01    0.5980193432E+00
    0.3300000000E+06    0.1984693353E-03    0.1389862999E-03    0.6959915400E+00    0.1791322758E-01    0.6016040325E+00
    0.3500000000E+06    0.1792110743E-03    0.1258876504E-03    0.6959937915E+00    0.1707407871E-01    0.6048351357E+00
    0.3700000000E+06    0.1626315776E-03    0.1145738251E-03    0.6959958013E+00    0.1630918959E-01    0.6077626374E+00
    0.3900000000E+06    0.1482562304E-03    0.1047335308E-03    0.6959976065E+00    0.1560918530E-01    0.6104274964E+00
    0.4100000000E+06    0.1357110435E-03    0.9612063605E-04    0.6959992368E+00    0.1496619575E-01    0.6128636013E+00
    0.4300000000E+06    0.1246980990E-03    0.8853844085E-04    0.6960007166E+00    0.1437356729E-01    0.6150992374E+00
    0.4500000000E+06    0.1149777110E-03    0.8182820886E-04    0.6960020659E+00    0.1382563771E-01    0.6171582016E+00
    0.4700000000E+06    0.1063552839E-03    0.7586069045E-04    0.6960033012E+00    0.1331755916E-01    0.6190606604E+00
    0.4900000000E+06    0.9867150379E-04    0.7052977683E-04    0.6960044363E+00    0.1284515745E-01    0.6208238190E+00
    0.1000000000E+06    0.1259382082E-02    0.8296240652E-03    0.6959018180E+00    0.4038039117E-01    0.5037764088E+00
    0.3000000000E+06    0.2337613418E-03    0.1628834267E-03    0.6959876045E+00    0.1933643448E-01    0.5960756830E+00
    0.5000000000E+06    0.9513960743E-04    0.6807500805E-04    0.6960049701E+00    0.1262118700E-01    0.6216578589E+00
    0.7000000000E+06    0.5143794071E-04    0.3741785618E-04    0.6960124629E+00    0.9350205122E-02    0.6337074341E+00
    0.9000000000E+06    0.3226266391E-04    0.2373433927E-04    0.6960166437E+00    0.7418501187E-02    0.6407168984E+00
    0.1100000000E+07    0.2217878909E-04    0.1644568662E-04    0.6960193119E+00    0.6144559615E-02    0.6453006613E+00
    0.1300000000E+07    0.1622812116E-04    0.1210064450E-04    0.6960211622E+00    0.5241828770E-02    0.6485315086E+00
    0.1500000000E+07    0.1242375463E-04    0.9299579553E-05    0.6960225201E+00    0.4568961691E-02    0.6509309930E+00
    0.1700000000E+07    0.9843775596E-05    0.7386718043E-05    0.6960235586E+00    0.4048230276E-02    0.6527831761E+00
    0.1900000000E+07    0.8013039183E-05    0.6021293932E-05    0.6960243779E+00    0.3633371067E-02    0.6542559796E+00
    0.2100000000E+07    0.6666456221E-05    0.5011836273E-05    0.6960250404E+00    0.3295135460E-02    0.6554550284E+00
    0.2300000000E+07    0.5646656072E-05    0.4243967541E-05    0.6960255866E+00    0.3014130318E-02    0.6564500829E+00
    0.2500000000E+07    0.4855423999E-05    0.3645908121E-05    0.6960260445E+00    0.2776991669E-02    0.6572890673E+00
    0.2700000000E+07    0.4228887058E-05    0.3170743781E-05    0.6960264334E+00    0.2574211951E-02    0.6580059909E+00
    0.2900000000E+07    0.3724046788E-05    0.2786749661E-05    0.6960267677E+00    0.2398843352E-02    0.6586256558E+00
    0.3100000000E+07    0.3311094193E-05    0.2471841641E-05    0.6960270578E+00    0.2245691165E-02    0.6591665743E+00
    0.3300000000E+07    0.2968834303E-05    0.2210258058E-05    0.6960273118E+00    0.2110793980E-02    0.6596428432E+00
    0.3500000000E+07    0.2681861201E-05    0.1990502472E-05    0.6960275357E+00    0.1991078405E-02    0.6600653858E+00
    0.3700000000E+07    0.2438757915E-05    0.1804027787E-05    0.6960277346E+00    0.1884123588E-02    0.6604427973E+00
    0.3900000000E+07    0.2230917237E-05    0.1644371211E-05    0.6960279121E+00    0.1787996868E-02    0.6607819332E+00
    0.4100000000E+07    0.2051750192E-05    0.1506571683E-05    0.6960280715E+00    0.1701136695E-02    0.6610883282E+00
    0.4300000000E+07    0.1896143053E-05    0.1386768989E-05    0.6960282153E+00    0.1622267688E-02    0.6613664997E+00
    0.4500000000E+07    0.1760077523E-05    0.1281922539E-05    0.6960283455E+00    0.1550337995E-02    0.6616201711E+00
    0.4700000000E+07    0.1640360367E-05    0.1189610624E-05    0.6960284639E+00    0.1484472409E-02    0.6618524386E+00
    0.4900000000E+07    0.1534427846E-05    0.1107884852E-05    0.6960285719E+00    0.1423936802E-02    0.6620658984E+00
    0.1000000000E+07    0.2650376788E-04    0.1958172152E-04    0.6960181105E+00    0.6722197931E-02    0.6432259118E+00
    0.3000000000E+07    0.3507571683E-05    0.2621764502E-05    0.6960269177E+00    0.2319761996E-02    0.6589049908E+00
    0.5000000000E+07    0.1485965664E-05    0.1070485372E-05    0.6960286224E+00    0.1395470050E-02    0.6621662742E+00
    0.7000000000E+07    0.8961322636E-06    0.6153375296E-06    0.6960293041E+00    0.9960497441E-03    0.6635746450E+00
    0.9000000000E+07    0.6390051849E-06    0.4181202368E-06    0.6960296470E+00    0.7736165326E-03    0.6643592509E+00
    0.1100000000E+08    0.5007765740E-06    0.3133784631E-06    0.6960298379E+00    0.6319885875E-03    0.6648591454E+00
    0.1300000000E+08    0.4161642647E-06    0.2502604621E-06    0.6960299486E+00    0.5339559403E-03    0.6652054096E+00
    0.1500000000E+08    0.3595871604E-06    0.2087953099E-06    0.6960300124E+00    0.4621021867E-03    0.6654593882E+00
    0.1700000000E+08    0.3192617569E-06    0.1797894260E-06    0.6960300467E+00    0.4071920228E-03    0.6656536135E+00
    0.1900000000E+08    0.2891027713E-06    0.1585076166E-06    0.6960300616E+00    0.3638740622E-03    0.6658069404E+00
    0.2100000000E+08    0.2656871914E-06    0.1422974175E-06    0.6960300631E+00    0.3288341318E-03    0.6659310488E+00
    0.2300000000E+08    0.2469572097E-06    0.1295727650E-06    0.6960300552E+00    0.2999104899E-03    0.6660335596E+00
    0.2500000000E+08    0.2316080965E-06    0.1193343156E-06    0.6960300405E+00    0.2756331947E-03    0.6661196566E+00
    0.2700000000E+08    0.2187757227E-06    0.1109248020E-06    0.6960300207E+00    0.2549679968E-03    0.6661929881E+00
