  Pressure (Pa) 22mC5-500 (mol/kg) 23mC5-500 (mol/kg) 24mC5-500 (mol/kg) 2mC6-500 (mol/kg) 3mC6-500 (mol/kg)
    0.1000000000E+01    0.6848796943E-05    0.9939907169E-05    0.9950115877E-01    0.2255148240E-04    0.5210804072E-05
    0.3000000000E+01    0.1697705096E-04    0.2466535791E-04    0.2321206708E+00    0.5762327137E-04    0.1563070431E-04
    0.5000000000E+01    0.2467580202E-04    0.3589406366E-04    0.3164878560E+00    0.8633275995E-04    0.2604835136E-04
    0.7000000000E+01    0.3117728658E-04    0.4540760430E-04    0.3748848185E+00    0.1122172410E-03    0.3646375952E-04
    0.9000000000E+01    0.3702351459E-04    0.5398724197E-04    0.4177041673E+00    0.1367313873E-03    0.4687693625E-04
    0.1100000000E+02    0.4248445238E-04    0.6202083450E-04    0.4504458629E+00    0.1605470842E-03    0.5728788608E-04
    0.1300000000E+02    0.4770687332E-04    0.6971850892E-04    0.4762932737E+00    0.1840001783E-03    0.6769661209E-04
    0.1500000000E+02    0.5277593314E-04    0.7720171946E-04    0.4972166861E+00    0.2072680288E-03    0.7810311661E-04
    0.1700000000E+02    0.5774357020E-04    0.8454424475E-04    0.5145008878E+00    0.2304478555E-03    0.8850740149E-04
    0.1900000000E+02    0.6264273582E-04    0.9179268843E-04    0.5290194397E+00    0.2535941556E-03    0.9890946830E-04
    0.2100000000E+02    0.6749500609E-04    0.9897742158E-04    0.5413870183E+00    0.2767377107E-03    0.1093093184E-03
    0.2300000000E+02    0.7231487466E-04    0.1061187401E-03    0.5520487043E+00    0.2998957286E-03    0.1197069532E-03
    0.2500000000E+02    0.7711228201E-04    0.1132304840E-03    0.5613347018E+00    0.3230774733E-03    0.1301023737E-03
    0.2700000000E+02    0.8189416147E-04    0.1203222448E-03    0.5694951547E+00    0.3462874933E-03    0.1404955811E-03
    0.2900000000E+02    0.8666541420E-04    0.1274007532E-03    0.5767230247E+00    0.3695275203E-03    0.1508865764E-03
    0.3100000000E+02    0.9142954090E-04    0.1344707767E-03    0.5831695481E+00    0.3927976101E-03    0.1612753608E-03
    0.3300000000E+02    0.9618906079E-04    0.1415357128E-03    0.5889549355E+00    0.4160968385E-03    0.1716619352E-03
    0.3500000000E+02    0.1009457951E-03    0.1485979892E-03    0.5941759403E+00    0.4394237299E-03    0.1820463006E-03
    0.3700000000E+02    0.1057010627E-03    0.1556593391E-03    0.5989113141E+00    0.4627765237E-03    0.1924284580E-03
    0.3900000000E+02    0.1104558167E-03    0.1627209932E-03    0.6032258077E+00    0.4861533389E-03    0.2028084083E-03
    0.4100000000E+02    0.1152107419E-03    0.1697838156E-03    0.6071731497E+00    0.5095522754E-03    0.2131861525E-03
    0.4300000000E+02    0.1199663244E-03    0.1768484009E-03    0.6107982968E+00    0.5329714751E-03    0.2235616915E-03
    0.4500000000E+02    0.1247229027E-03    0.1839151454E-03    0.6141391531E+00    0.5564091572E-03    0.2339350264E-03
    0.4700000000E+02    0.1294807049E-03    0.1909842976E-03    0.6172279016E+00    0.5798636378E-03    0.2443061579E-03
    0.4900000000E+02    0.1342398762E-03    0.1980559971E-03    0.6200920437E+00    0.6033333378E-03    0.2546750870E-03
    0.1000000000E+02    0.3979104084E-04    0.5805637986E-04    0.4350984409E+00    0.1487004672E-03    0.5208268931E-04
    0.3000000000E+02    0.8904819169E-04    0.1309365865E-03    0.5800358154E+00    0.3811588482E-03    0.1560812449E-03
    0.5000000000E+02    0.1366200033E-03    0.2015928231E-03    0.6214474074E+00    0.6150734311E-03    0.2598587259E-03
    0.7000000000E+02    0.1842959578E-03    0.2724537981E-03    0.6410654696E+00    0.8503716297E-03    0.3634161026E-03
    0.9000000000E+02    0.2320653550E-03    0.3434677061E-03    0.6525104552E+00    0.1086071581E-02    0.4667542777E-03
    0.1100000000E+03    0.2798556433E-03    0.4145175014E-03    0.6600095412E+00    0.1321712835E-02    0.5698741374E-03
    0.1300000000E+03    0.3276137379E-03    0.4855214551E-03    0.6653034200E+00    0.1557065079E-02    0.6727765590E-03
    0.1500000000E+03    0.3753041671E-03    0.5564259733E-03    0.6692401661E+00    0.1792002643E-02    0.7754624134E-03
    0.1700000000E+03    0.4229030556E-03    0.6271953775E-03    0.6722823888E+00    0.2026452017E-02    0.8779325657E-03
    0.1900000000E+03    0.4703939570E-03    0.6978052769E-03    0.6747038902E+00    0.2260367883E-02    0.9801878761E-03
    0.2100000000E+03    0.5177652707E-03    0.7682385676E-03    0.6766770720E+00    0.2493721208E-02    0.1082229199E-02
    0.2300000000E+03    0.5650086436E-03    0.8384829928E-03    0.6783158989E+00    0.2726492885E-02    0.1184057385E-02
    0.2500000000E+03    0.6121179600E-03    0.9085296162E-03    0.6796987249E+00    0.2958670136E-02    0.1285673279E-02
    0.2700000000E+03    0.6590886854E-03    0.9783718373E-03    0.6808811946E+00    0.3190244368E-02    0.1387077721E-02
    0.2900000000E+03    0.7059174287E-03    0.1048004738E-02    0.6819039149E+00    0.3421209847E-02    0.1488271548E-02
    0.3100000000E+03    0.7526016424E-03    0.1117424637E-02    0.6827972136E+00    0.3651562838E-02    0.1589255590E-02
    0.3300000000E+03    0.7991394127E-03    0.1186628782E-02    0.6835841980E+00    0.3881301046E-02    0.1690030674E-02
    0.3500000000E+03    0.8455293103E-03    0.1255615125E-02    0.6842827835E+00    0.4110423224E-02    0.1790597622E-02
    0.3700000000E+03    0.8917702806E-03    0.1324382163E-02    0.6849070741E+00    0.4338928910E-02    0.1890957251E-02
    0.3900000000E+03    0.9378615631E-03    0.1392928824E-02    0.6854683248E+00    0.4566818231E-02    0.1991110375E-02
    0.4100000000E+03    0.9838026311E-03    0.1461254370E-02    0.6859756262E+00    0.4794091768E-02    0.2091057801E-02
    0.4300000000E+03    0.1029593145E-02    0.1529358335E-02    0.6864364014E+00    0.5020750450E-02    0.2190800335E-02
    0.4500000000E+03    0.1075232915E-02    0.1597240474E-02    0.6868567711E+00    0.5246795483E-02    0.2290338776E-02
    0.4700000000E+03    0.1120721878E-02    0.1664900717E-02    0.6872418276E+00    0.5472228286E-02    0.2389673920E-02
    0.4900000000E+03    0.1166060069E-02    0.1732339142E-02    0.6875958418E+00    0.5697050453E-02    0.2488806557E-02
    0.1000000000E+03    0.2559616971E-03    0.3789940282E-03    0.6566136539E+00    0.1203917333E-02    0.5183414420E-03
    0.3000000000E+03    0.7292777342E-03    0.1082741504E-02    0.6823651562E+00    0.3536463075E-02    0.1538789740E-02
    0.5000000000E+03    0.1188672660E-02    0.1765975230E-02    0.6877623582E+00    0.5809233083E-02    0.2538297182E-02
    0.7000000000E+03    0.1633070889E-02    0.2427146427E-02    0.6901023784E+00    0.8021299395E-02    0.3517668382E-02
    0.9000000000E+03    0.2062808737E-02    0.3066761261E-02    0.6914095979E+00    0.1017468293E-01    0.4477665546E-02
    0.1100000000E+04    0.2478413876E-02    0.3685598042E-02    0.6922442190E+00    0.1227161909E-01    0.5419011332E-02
    0.1300000000E+04    0.2880445476E-02    0.4284478111E-02    0.6928233215E+00    0.1431430341E-01    0.6342391430E-02
    0.1500000000E+04    0.3269455476E-02    0.4864210871E-02    0.6932486842E+00    0.1630484298E-01    0.7248456927E-02
    0.1700000000E+04    0.3645976659E-02    0.5425577045E-02    0.6935743645E+00    0.1824524667E-01    0.8137826497E-02
    0.1900000000E+04    0.4010518846E-02    0.5969323426E-02    0.6938317340E+00    0.2013742563E-01    0.9011088422E-02
    0.2100000000E+04    0.4363568030E-02    0.6496161770E-02    0.6940402492E+00    0.2198319689E-01    0.9868802459E-02
    0.2300000000E+04    0.4705586707E-02    0.7006769367E-02    0.6942126177E+00    0.2378428812E-01    0.1071150158E-01
    0.2500000000E+04    0.5037014695E-02    0.7501790289E-02    0.6943574913E+00    0.2554234247E-01    0.1153969357E-01
    0.2700000000E+04    0.5358270179E-02    0.7981836941E-02    0.6944809644E+00    0.2725892341E-01    0.1235386253E-01
    0.2900000000E+04    0.5669750807E-02    0.8447491688E-02    0.6945874541E+00    0.2893551932E-01    0.1315447025E-01
    0.3100000000E+04    0.5971834799E-02    0.8899308481E-02    0.6946802400E+00    0.3057354787E-01    0.1394195752E-01
    0.3300000000E+04    0.6264882025E-02    0.9337814442E-02    0.6947618081E+00    0.3217436008E-01    0.1471674529E-01
    0.3500000000E+04    0.6549235036E-02    0.9763511369E-02    0.6948340776E+00    0.3373924417E-01    0.1547923586E-01
    0.3700000000E+04    0.6825220039E-02    0.1017687717E-01    0.6948985533E+00    0.3526942915E-01    0.1622981383E-01
    0.3900000000E+04    0.7093147823E-02    0.1057836722E-01    0.6949564318E+00    0.3676608816E-01    0.1696884716E-01
    0.4100000000E+04    0.7353314625E-02    0.1096841562E-01    0.6950086769E+00    0.3823034160E-01    0.1769668802E-01
    0.4300000000E+04    0.7606002948E-02    0.1134743638E-01    0.6950560731E+00    0.3966326007E-01    0.1841367367E-01
    0.4500000000E+04    0.7851482322E-02    0.1171582456E-01    0.6950992658E+00    0.4106586707E-01    0.1912012725E-01
    0.4700000000E+04    0.8090010022E-02    0.1207395730E-01    0.6951387906E+00    0.4243914162E-01    0.1981635852E-01
    0.4900000000E+04    0.8321831741E-02    0.1242219481E-01    0.6951750960E+00    0.4378402058E-01    0.2050266454E-01
    0.1000000000E+04    0.2272343018E-02    0.3378725633E-02    0.6918683705E+00    0.1123006788E-01    0.4950626168E-02
    0.3000000000E+04    0.5821944473E-02    0.8675096273E-02    0.6946353891E+00    0.2975926856E-01    0.1354982718E-01
    0.5000000000E+04    0.8435301624E-02    0.1259271102E-01    0.6951921620E+00    0.4444609353E-01    0.2084218512E-01
    0.7000000000E+04    0.1040446678E-01    0.1555955754E-01    0.6954312612E+00    0.5639580588E-01    0.2717507353E-01
    0.9000000000E+04    0.1191475687E-01    0.1784754407E-01    0.6955642607E+00    0.6632425827E-01    0.3277841056E-01
    0.1100000000E+05    0.1308874230E-01    0.1963676789E-01    0.6956489764E+00    0.7471563403E-01    0.3781100699E-01
    0.1300000000E+05    0.1401039610E-01    0.2105079815E-01    0.6957076709E+00    0.8190935199E-01    0.4238645919E-01
    0.1500000000E+05    0.1473896738E-01    0.2217695797E-01    0.6957507421E+00    0.8815056793E-01    0.4658842627E-01
    0.1700000000E+05    0.1531731611E-01    0.2307851787E-01    0.6957836984E+00    0.9362089669E-01    0.5048006101E-01
    0.1900000000E+05    0.1577711586E-01    0.2380231322E-01    0.6958097305E+00    0.9845783961E-01    0.5411005792E-01
    0.2100000000E+05    0.1614221025E-01    0.2438366233E-01    0.6958308145E+00    0.1027674835E+00    0.5751666042E-01
    0.2300000000E+05    0.1643084078E-01    0.2484963365E-01    0.6958482398E+00    0.1066330428E+00    0.6073039174E-01
    0.2500000000E+05    0.1665716290E-01    0.2522127106E-01    0.6958628834E+00    0.1101207518E+00    0.6377596238E-01
    0.2700000000E+05    0.1683230057E-01    0.2551514309E-01    0.6958753627E+00    0.1132840190E+00    0.6667363175E-01
    0.2900000000E+05    0.1696509422E-01    0.2574444287E-01    0.6958861249E+00    0.1161664151E+00    0.6944019903E-01
    0.3100000000E+05    0.1706264066E-01    0.2591978271E-01    0.6958955020E+00    0.1188038597E+00    0.7208973688E-01
    0.3300000000E+05    0.1713068882E-01    0.2604977723E-01    0.6959037454E+00    0.1212262472E+00    0.7463414311E-01
    0.3500000000E+05    0.1717393414E-01    0.2614147744E-01    0.6959110492E+00    0.1234586731E+00    0.7708356140E-01
    0.3700000000E+05    0.1719624018E-01    0.2620069799E-01    0.6959175657E+00    0.1255223709E+00    0.7944670631E-01
    0.3900000000E+05    0.1720080766E-01    0.2623226687E-01    0.6959234156E+00    0.1274354368E+00    0.8173111721E-01
    0.4100000000E+05    0.1719030453E-01    0.2624021793E-01    0.6959286965E+00    0.1292133962E+00    0.8394335892E-01
    0.4300000000E+05    0.1716696729E-01    0.2622794089E-01    0.6959334876E+00    0.1308696505E+00    0.8608918170E-01
    0.4500000000E+05    0.1713268046E-01    0.2619829915E-01    0.6959378541E+00    0.1324158339E+00    0.8817365004E-01
    0.4700000000E+05    0.1708903953E-01    0.2615372326E-01    0.6959418502E+00    0.1338620996E+00    0.9020124723E-01
    0.4900000000E+05    0.1703740119E-01    0.2609628557E-01    0.6959455211E+00    0.1352173520E+00    0.9217596089E-01
    0.1000000000E+05    0.1253783249E-01    0.1879574242E-01    0.6956108456E+00    0.7068819113E-01    0.3535810770E-01
    0.3000000000E+05    0.1701788630E-01    0.2583827824E-01    0.6958909693E+00    0.1175137627E+00    0.7077880752E-01
    0.5000000000E+05    0.1700895176E-01    0.2606330821E-01    0.6959472468E+00    0.1358633366E+00    0.9314461459E-01
    0.7000000000E+05    0.1622659085E-01    0.2504660123E-01    0.6959714354E+00    0.1454936716E+00    0.1104358359E+00
    0.9000000000E+05    0.1530763313E-01    0.2377249814E-01    0.6959849050E+00    0.1511820415E+00    0.1249221215E+00
    0.1100000000E+06    0.1441054166E-01    0.2249711364E-01    0.6959934938E+00    0.1547175051E+00    0.1375768473E+00
    0.1300000000E+06    0.1357770808E-01    0.2129521402E-01    0.6959994507E+00    0.1569384668E+00    0.1489148479E+00
    0.1500000000E+06    0.1281706275E-01    0.2018570595E-01    0.6960038263E+00    0.1582961465E+00    0.1592457481E+00
    0.1700000000E+06    0.1212552713E-01    0.1916854275E-01    0.6960071774E+00    0.1590573475E+00    0.1687726115E+00
    0.1900000000E+06    0.1149674583E-01    0.1823727701E-01    0.6960098268E+00    0.1593909347E+00    0.1776371615E+00
    0.2100000000E+06    0.1092381331E-01    0.1738369585E-01    0.6960119744E+00    0.1594094174E+00    0.1859430387E+00
    0.2300000000E+06    0.1040023149E-01    0.1659958148E-01    0.6960137508E+00    0.1591908171E+00    0.1937688320E+00
    0.2500000000E+06    0.9920202888E-02    0.1587735101E-01    0.6960152447E+00    0.1587909964E+00    0.2011758826E+00
    0.2700000000E+06    0.9478669560E-02    0.1521024258E-01    0.6960165188E+00    0.1582510069E+00    0.2082132099E+00
    0.2900000000E+06    0.9071258838E-02    0.1459231795E-01    0.6960176184E+00    0.1576016729E+00    0.2149207607E+00
    0.3100000000E+06    0.8694200683E-02    0.1401839517E-01    0.6960185771E+00    0.1568665605E+00    0.2213316282E+00
    0.3300000000E+06    0.8344242692E-02    0.1348396027E-01    0.6960194205E+00    0.1560639638E+00    0.2274736157E+00
    0.3500000000E+06    0.8018572421E-02    0.1298507820E-01    0.6960201682E+00    0.1552082698E+00    0.2333703675E+00
    0.3700000000E+06    0.7714749910E-02    0.1251831146E-01    0.6960208357E+00    0.1543109202E+00    0.2390422041E+00
    0.3900000000E+06    0.7430650448E-02    0.1208064857E-01    0.6960214354E+00    0.1533811018E+00    0.2445067520E+00
    0.4100000000E+06    0.7164416581E-02    0.1166944276E-01    0.6960219770E+00    0.1524262522E+00    0.2497794275E+00
    0.4300000000E+06    0.6914418075E-02    0.1128235984E-01    0.6960224686E+00    0.1514524360E+00    0.2548738125E+00
    0.4500000000E+06    0.6679218535E-02    0.1091733415E-01    0.6960229169E+00    0.1504646282E+00    0.2598019515E+00
    0.4700000000E+06    0.6457547565E-02    0.1057253144E-01    0.6960233275E+00    0.1494669319E+00    0.2645745892E+00
    0.4900000000E+06    0.6248277481E-02    0.1024631746E-01    0.6960237048E+00    0.1484627453E+00    0.2692013621E+00
    0.1000000000E+06    0.1485241667E-01    0.2312823564E-01    0.6959896269E+00    0.1531536308E+00    0.1314396601E+00
    0.3000000000E+06    0.8879150139E-02    0.1430015304E-01    0.6960181136E+00    0.1572435905E+00    0.2181614331E+00
    0.5000000000E+06    0.6147974521E-02    0.1008971863E-01    0.6960238822E+00    0.1479591204E+00    0.2714627967E+00
    0.7000000000E+06    0.4598911969E-02    0.7649787732E-02    0.6960263750E+00    0.1380235849E+00    0.3107591039E+00
    0.9000000000E+06    0.3606300320E-02    0.6062613212E-02    0.6960277689E+00    0.1288685120E+00    0.3417848020E+00
    0.1100000000E+07    0.2920852839E-02    0.4953671592E-02    0.6960286609E+00    0.1206783369E+00    0.3672379342E+00
    0.1300000000E+07    0.2422747086E-02    0.4140008830E-02    0.6960292813E+00    0.1133911753E+00    0.3886540287E+00
    0.1500000000E+07    0.2047013076E-02    0.3521177744E-02    0.6960297382E+00    0.1068969924E+00    0.4070060904E+00
    0.1700000000E+07    0.1755337720E-02    0.3037333479E-02    0.6960300890E+00    0.1010866643E+00    0.4229550918E+00
    0.1900000000E+07    0.1523680719E-02    0.2650595431E-02    0.6960303668E+00    0.9586402660E-01    0.4369725560E+00
    0.2100000000E+07    0.1336216924E-02    0.2335836532E-02    0.6960305924E+00    0.9114746699E-01    0.4494073380E+00
    0.2300000000E+07    0.1182122976E-02    0.2075754469E-02    0.6960307793E+00    0.8686855877E-01    0.4605249433E+00
    0.2500000000E+07    0.1053761103E-02    0.1858064566E-02    0.6960309367E+00    0.8297004876E-01    0.4705320776E+00
    0.2700000000E+07    0.9455987896E-03    0.1673818629E-02    0.6960310711E+00    0.7940392114E-01    0.4795927005E+00
    0.2900000000E+07    0.8535385290E-03    0.1516355513E-02    0.6960311872E+00    0.7612973337E-01    0.4878389190E+00
    0.3100000000E+07    0.7744870446E-03    0.1380622839E-02    0.6960312886E+00    0.7311324585E-01    0.4953786105E+00
    0.3300000000E+07    0.7060699453E-03    0.1262725384E-02    0.6960313778E+00    0.7032531252E-01    0.5023008934E+00
    0.3500000000E+07    0.6464377394E-03    0.1159616586E-02    0.6960314569E+00    0.6774098780E-01    0.5086801422E+00
    0.3700000000E+07    0.5941309251E-03    0.1068883042E-02    0.6960315276E+00    0.6533880782E-01    0.5145789871E+00
    0.3900000000E+07    0.5479842701E-03    0.9885909712E-03    0.6960315912E+00    0.6310021026E-01    0.5200505951E+00
    0.4100000000E+07    0.5070576778E-03    0.9171748822E-03    0.6960316486E+00    0.6100906418E-01    0.5251404273E+00
    0.4300000000E+07    0.4705854533E-03    0.8533555714E-03    0.6960317007E+00    0.5905128704E-01    0.5298876115E+00
    0.4500000000E+07    0.4379385356E-03    0.7960788648E-03    0.6960317483E+00    0.5721453111E-01    0.5343260263E+00
    0.4700000000E+07    0.4085960130E-03    0.7444692627E-03    0.6960317918E+00    0.5548792525E-01    0.5384851665E+00
    0.4900000000E+07    0.3821233848E-03    0.6977944524E-03    0.6960318319E+00    0.5386186120E-01    0.5423908397E+00
    0.1000000000E+07    0.3234473236E-02    0.5462496492E-02    0.6960282589E+00    0.1246544742E+00    0.3550943902E+00
    0.3000000000E+07    0.8125493144E-03    0.1446039277E-02    0.6960312396E+00    0.7459120668E-01    0.4916911239E+00
    0.5000000000E+07    0.3698469203E-03    0.6761110112E-03    0.6960318507E+00    0.5308383071E-01    0.5442558244E+00
    0.7000000000E+07    0.2112183276E-03    0.3932790890E-03    0.6960321149E+00    0.4116789663E-01    0.5725356539E+00
    0.9000000000E+07    0.1365083771E-03    0.2577516657E-03    0.6960322619E+00    0.3360081883E-01    0.5902455729E+00
    0.1100000000E+08    0.9542664918E-04    0.1822293358E-03    0.6960323550E+00    0.2837128321E-01    0.6023849899E+00
    0.1300000000E+08    0.7043706217E-04    0.1357891350E-03    0.6960324190E+00    0.2454230258E-01    0.6112256002E+00
    0.1500000000E+08    0.5411192727E-04    0.1051717331E-03    0.6960324653E+00    0.2161845045E-01    0.6179507841E+00
    0.1700000000E+08    0.4286394562E-04    0.8390850136E-04    0.6960325001E+00    0.1931319990E-01    0.6232381663E+00
    0.1900000000E+08    0.3478735816E-04    0.6853336260E-04    0.6960325272E+00    0.1744934230E-01    0.6275038621E+00
    0.2100000000E+08    0.2879342810E-04    0.5705133066E-04    0.6960325486E+00    0.1591140688E-01    0.6310175670E+00
    0.2300000000E+08    0.2422344571E-04    0.4824736708E-04    0.6960325658E+00    0.1462093805E-01    0.6339617597E+00
    0.2500000000E+08    0.2065989782E-04    0.4134673674E-04    0.6960325800E+00    0.1352276975E-01    0.6364643216E+00
    0.2700000000E+08    0.1782775586E-04    0.3583632959E-04    0.6960325916E+00    0.1257698439E-01    0.6386175330E+00
