  Pressure (Pa) 22mC5-500 (mol/kg) 23mC5-500 (mol/kg) 24mC5-500 (mol/kg) 2mC6-500 (mol/kg) 3mC6-500 (mol/kg)
    0.1000000000E+01    0.6376991435E-05    0.7406506035E-05    0.1514062711E+00    0.2120703533E-04    0.5210810116E-05
    0.3000000000E+01    0.1480731509E-04    0.1723129277E-04    0.3165037375E+00    0.5180619664E-04    0.1563077920E-04
    0.5000000000E+01    0.2108097034E-04    0.2458231615E-04    0.4047828141E+00    0.7721327926E-04    0.2604858541E-04
    0.7000000000E+01    0.2655622576E-04    0.3102569025E-04    0.4597400717E+00    0.1010674541E-03    0.3646424607E-04
    0.9000000000E+01    0.3167874100E-04    0.3707228094E-04    0.4972471679E+00    0.1244110532E-03    0.4687776849E-04
    0.1100000000E+02    0.3662879352E-04    0.4292740723E-04    0.5244768793E+00    0.1476023275E-03    0.5728915668E-04
    0.1300000000E+02    0.4148948053E-04    0.4868502080E-04    0.5451445358E+00    0.1707758818E-03    0.6769841319E-04
    0.1500000000E+02    0.4630262705E-04    0.5439201500E-04    0.5613672105E+00    0.1939829937E-03    0.7810553991E-04
    0.1700000000E+02    0.5109061505E-04    0.6007323674E-04    0.5744396970E+00    0.2172413314E-03    0.8851053836E-04
    0.1900000000E+02    0.5586594145E-04    0.6574239261E-04    0.5851984007E+00    0.2405544681E-03    0.9891340983E-04
    0.2100000000E+02    0.6063577847E-04    0.7140722940E-04    0.5942076979E+00    0.2639200958E-03    0.1093141555E-03
    0.2300000000E+02    0.6540429967E-04    0.7707216358E-04    0.6018622133E+00    0.2873336393E-03    0.1197127764E-03
    0.2500000000E+02    0.7017393091E-04    0.8273968821E-04    0.6084461790E+00    0.3107898780E-03    0.1301092735E-03
    0.2700000000E+02    0.7494605267E-04    0.8841115814E-04    0.6141695135E+00    0.3342836662E-03    0.1405036479E-03
    0.2900000000E+02    0.7972140831E-04    0.9408724355E-04    0.6191906190E+00    0.3578102337E-03    0.1508959004E-03
    0.3100000000E+02    0.8450034837E-04    0.9976819942E-04    0.6236312711E+00    0.3813652884E-03    0.1612860320E-03
    0.3300000000E+02    0.8928298013E-04    0.1054540291E-03    0.6275866270E+00    0.4049450273E-03    0.1716740436E-03
    0.3500000000E+02    0.9406926092E-04    0.1111445854E-03    0.6311321216E+00    0.4285461075E-03    0.1820599360E-03
    0.3700000000E+02    0.9885905722E-04    0.1168396338E-03    0.6343283253E+00    0.4521656007E-03    0.1924437101E-03
    0.3900000000E+02    0.1036521824E-03    0.1225388927E-03    0.6372244337E+00    0.4758009440E-03    0.2028253669E-03
    0.4100000000E+02    0.1084484211E-03    0.1282420579E-03    0.6398608179E+00    0.4994498937E-03    0.2132049070E-03
    0.4300000000E+02    0.1132475448E-03    0.1339488194E-03    0.6422709183E+00    0.5231104822E-03    0.2235823314E-03
    0.4500000000E+02    0.1180493217E-03    0.1396588706E-03    0.6444826705E+00    0.5467809806E-03    0.2339576410E-03
    0.4700000000E+02    0.1228535235E-03    0.1453719146E-03    0.6465195937E+00    0.5704598659E-03    0.2443308365E-03
    0.4900000000E+02    0.1276599288E-03    0.1510876679E-03    0.6484016297E+00    0.5941457933E-03    0.2547019188E-03
    0.1000000000E+02    0.3416876531E-04    0.4001634440E-04    0.5118632542E+00    0.1360144172E-03    0.5208372919E-04
    0.3000000000E+02    0.8211041919E-04    0.9692710799E-04    0.6214770234E+00    0.3695844491E-03    0.1560912313E-03
    0.5000000000E+02    0.1300638912E-03    0.1539464758E-03    0.6492899831E+00    0.6059910202E-03    0.2598866678E-03
    0.7000000000E+02    0.1782134255E-03    0.2112080902E-03    0.6619880132E+00    0.8430382771E-03    0.3634709069E-03
    0.9000000000E+02    0.2264088406E-03    0.2685249499E-03    0.6692599593E+00    0.1080003777E-02    0.4668447715E-03
    0.1100000000E+03    0.2745701878E-03    0.3258009465E-03    0.6739716047E+00    0.1316620663E-02    0.5700090728E-03
    0.1300000000E+03    0.3226541013E-03    0.3829846931E-03    0.6772727307E+00    0.1552769654E-02    0.6729646150E-03
    0.1500000000E+03    0.3706353300E-03    0.4400465323E-03    0.6797142911E+00    0.1788390275E-02    0.7757121970E-03
    0.1700000000E+03    0.4184982584E-03    0.4969682428E-03    0.6815933526E+00    0.2023449206E-02    0.8782526129E-03
    0.1900000000E+03    0.4662327730E-03    0.5537380857E-03    0.6830842317E+00    0.2257927070E-02    0.9805866524E-03
    0.2100000000E+03    0.5138320938E-03    0.6103482283E-03    0.6842959606E+00    0.2491812251E-02    0.1082715101E-02
    0.2300000000E+03    0.5612915625E-03    0.6667933126E-03    0.6853002334E+00    0.2725097736E-02    0.1184638739E-02
    0.2500000000E+03    0.6086079266E-03    0.7230696148E-03    0.6861461289E+00    0.2957779375E-02    0.1286358343E-02
    0.2700000000E+03    0.6557788976E-03    0.7791745276E-03    0.6868683761E+00    0.3189854881E-02    0.1387874687E-02
    0.2900000000E+03    0.7028028667E-03    0.8351062293E-03    0.6874922414E+00    0.3421323215E-02    0.1489188539E-02
    0.3100000000E+03    0.7496787168E-03    0.8908634646E-03    0.6880365463E+00    0.3652184201E-02    0.1590300662E-02
    0.3300000000E+03    0.7964056938E-03    0.9464453958E-03    0.6885155989E+00    0.3882438273E-02    0.1691211818E-02
    0.3500000000E+03    0.8429833166E-03    0.1001851498E-02    0.6889404702E+00    0.4112086307E-02    0.1791922763E-02
    0.3700000000E+03    0.8894113124E-03    0.1057081485E-02    0.6893198611E+00    0.4341129502E-02    0.1892434250E-02
    0.3900000000E+03    0.9356895700E-03    0.1112135257E-02    0.6896607037E+00    0.4569569296E-02    0.1992747026E-02
    0.4100000000E+03    0.9818181048E-03    0.1167012855E-02    0.6899685895E+00    0.4797407311E-02    0.2092861837E-02
    0.4300000000E+03    0.1027797033E-02    0.1221714437E-02    0.6902480786E+00    0.5024645306E-02    0.2192779424E-02
    0.4500000000E+03    0.1073626550E-02    0.1276240253E-02    0.6905029267E+00    0.5251285148E-02    0.2292500523E-02
    0.4700000000E+03    0.1119306918E-02    0.1330590624E-02    0.6907362552E+00    0.5477328782E-02    0.2392025867E-02
    0.4900000000E+03    0.1164838449E-02    0.1384765933E-02    0.6909506796E+00    0.5702778220E-02    0.2491356186E-02
    0.1000000000E+03    0.2504970546E-03    0.2971719569E-03    0.6718431497E+00    0.1198365225E-02    0.5184530672E-03
    0.3000000000E+03    0.7262593610E-03    0.8630067160E-03    0.6877733563E+00    0.3536829611E-02    0.1539769769E-02
    0.5000000000E+03    0.1187548512E-02    0.1411788072E-02    0.6910515065E+00    0.5815280757E-02    0.2540948438E-02
    0.7000000000E+03    0.1634039380E-02    0.1943163789E-02    0.6924662987E+00    0.8034656171E-02    0.3522730180E-02
    0.9000000000E+03    0.2066192133E-02    0.2457680656E-02    0.6932549282E+00    0.1019709121E-01    0.4485818699E-02
    0.1100000000E+04    0.2484551675E-02    0.2955979594E-02    0.6937577896E+00    0.1230474099E-01    0.5430882702E-02
    0.1300000000E+04    0.2889664757E-02    0.3438702002E-02    0.6941063956E+00    0.1435968161E-01    0.6358558087E-02
    0.1500000000E+04    0.3282061095E-02    0.3906468659E-02    0.6943622920E+00    0.1636389477E-01    0.7269449962E-02
    0.1700000000E+04    0.3662248196E-02    0.4359874043E-02    0.6945581256E+00    0.1831926752E-01    0.8164134506E-02
    0.1900000000E+04    0.4030710221E-02    0.4799485175E-02    0.6947128244E+00    0.2022759586E-01    0.9043160709E-02
    0.2100000000E+04    0.4387908273E-02    0.5225842027E-02    0.6948381190E+00    0.2209058924E-01    0.9907051973E-02
    0.2300000000E+04    0.4734281223E-02    0.5639458532E-02    0.6949416665E+00    0.2390987538E-01    0.1075630761E-01
    0.2500000000E+04    0.5070246736E-02    0.6040823811E-02    0.6950286777E+00    0.2568700481E-01    0.1159140424E-01
    0.2700000000E+04    0.5396202365E-02    0.6430403453E-02    0.6951028215E+00    0.2742345535E-01    0.1241279706E-01
    0.2900000000E+04    0.5712526629E-02    0.6808640797E-02    0.6951667563E+00    0.2912063621E-01    0.1322092109E-01
    0.3100000000E+04    0.6019580063E-02    0.7175958153E-02    0.6952224552E+00    0.3077989190E-01    0.1401619226E-01
    0.3300000000E+04    0.6317706218E-02    0.7532757976E-02    0.6952714137E+00    0.3240250589E-01    0.1479900847E-01
    0.3500000000E+04    0.6607232609E-02    0.7879423977E-02    0.6953147857E+00    0.3398970401E-01    0.1556975060E-01
    0.3700000000E+04    0.6888471602E-02    0.8216322161E-02    0.6953534761E+00    0.3554265764E-01    0.1632878339E-01
    0.3900000000E+04    0.7161721260E-02    0.8543801810E-02    0.6953882042E+00    0.3706248671E-01    0.1707645632E-01
    0.4100000000E+04    0.7427266125E-02    0.8862196401E-02    0.6954195492E+00    0.3855026247E-01    0.1781310438E-01
    0.4300000000E+04    0.7685377957E-02    0.9171824472E-02    0.6954479827E+00    0.4000701012E-01    0.1853904889E-01
    0.4500000000E+04    0.7936316428E-02    0.9472990428E-02    0.6954738923E+00    0.4143371125E-01    0.1925459813E-01
    0.4700000000E+04    0.8180329772E-02    0.9765985298E-02    0.6954976000E+00    0.4283130616E-01    0.1996004806E-01
    0.4900000000E+04    0.8417655391E-02    0.1005108745E-01    0.6955193751E+00    0.4420069597E-01    0.2065568292E-01
    0.1000000000E+04    0.2277061595E-02    0.2708816919E-02    0.6935314036E+00    0.1125763234E-01    0.4960563277E-02
    0.3000000000E+04    0.5867190341E-02    0.6993638868E-02    0.6951955324E+00    0.2995492309E-01    0.1362013800E-01
    0.5000000000E+04    0.8533881673E-02    0.1019076245E-01    0.6955296103E+00    0.4487508536E-01    0.2099990545E-01
    0.7000000000E+04    0.1055761140E-01    0.1262891045E-01    0.6956729715E+00    0.5707437944E-01    0.2743012871E-01
    0.9000000000E+04    0.1211886356E-01    0.1451987695E-01    0.6957526817E+00    0.6724666284E-01    0.3313243326E-01
    0.1100000000E+05    0.1333845766E-01    0.1600563657E-01    0.6958034380E+00    0.7586666461E-01    0.3826159359E-01
    0.1300000000E+05    0.1429999997E-01    0.1718457732E-01    0.6958385951E+00    0.8327031305E-01    0.4292931185E-01
    0.1500000000E+05    0.1506297894E-01    0.1812681125E-01    0.6958643885E+00    0.8970213432E-01    0.4721845993E-01
    0.1700000000E+05    0.1567073611E-01    0.1888350014E-01    0.6958841207E+00    0.9534445850E-01    0.5119198172E-01
    0.1900000000E+05    0.1615549795E-01    0.1949274708E-01    0.6958997044E+00    0.1003360894E+00    0.5489866252E-01
    0.2100000000E+05    0.1654165356E-01    0.1998343701E-01    0.6959123241E+00    0.1047846216E+00    0.5837698589E-01
    0.2300000000E+05    0.1684794851E-01    0.2037780961E-01    0.6959227523E+00    0.1087747923E+00    0.6165778247E-01
    0.2500000000E+05    0.1708898895E-01    0.2069322449E-01    0.6959315147E+00    0.1123742816E+00    0.6476609258E-01
    0.2700000000E+05    0.1727629453E-01    0.2094339824E-01    0.6959389810E+00    0.1156378283E+00    0.6772250358E-01
    0.2900000000E+05    0.1741904968E-01    0.2113928760E-01    0.6959454192E+00    0.1186102052E+00    0.7054412817E-01
    0.3100000000E+05    0.1752464856E-01    0.2128973089E-01    0.6959510281E+00    0.1213284068E+00    0.7324533201E-01
    0.3300000000E+05    0.1759909653E-01    0.2140192084E-01    0.6959559583E+00    0.1238232834E+00    0.7583828313E-01
    0.3500000000E+05    0.1764730988E-01    0.2148175805E-01    0.6959603261E+00    0.1261207781E+00    0.7833337245E-01
    0.3700000000E+05    0.1767334250E-01    0.2153411848E-01    0.6959642227E+00    0.1282428748E+00    0.8073953959E-01
    0.3900000000E+05    0.1768055918E-01    0.2156305822E-01    0.6959677204E+00    0.1302083344E+00    0.8306452834E-01
    0.4100000000E+05    0.1767176958E-01    0.2157197192E-01    0.6959708775E+00    0.1320332710E+00    0.8531508891E-01
    0.4300000000E+05    0.1764933277E-01    0.2156371654E-01    0.6959737415E+00    0.1337316085E+00    0.8749713963E-01
    0.4500000000E+05    0.1761523943E-01    0.2154070880E-01    0.6959763515E+00    0.1353154454E+00    0.8961589748E-01
    0.4700000000E+05    0.1757117725E-01    0.2150500274E-01    0.6959787398E+00    0.1367953479E+00    0.9167598415E-01
    0.4900000000E+05    0.1751858306E-01    0.2145835168E-01    0.6959809336E+00    0.1381805889E+00    0.9368151307E-01
    0.1000000000E+05    0.1276545612E-01    0.1530645402E-01    0.6957805942E+00    0.7172712017E-01    0.3576086588E-01
    0.3000000000E+05    0.1747608969E-01    0.2121970652E-01    0.6959483169E+00    0.1199990219E+00    0.7190897614E-01
    0.5000000000E+05    0.1748947741E-01    0.2143139998E-01    0.6959819649E+00    0.1388403041E+00    0.9466498275E-01
    0.7000000000E+05    0.1667876539E-01    0.2058760019E-01    0.6959964142E+00    0.1486173413E+00    0.1121875439E+00
    0.9000000000E+05    0.1572033617E-01    0.1952327244E-01    0.6960044545E+00    0.1543104142E+00    0.1268213244E+00
    0.1100000000E+06    0.1478377272E-01    0.1845701437E-01    0.6960095782E+00    0.1577861571E+00    0.1395736972E+00
    0.1300000000E+06    0.1391468071E-01    0.1745278801E-01    0.6960131298E+00    0.1599172067E+00    0.1509771835E+00
    0.1500000000E+06    0.1312170129E-01    0.1652677316E-01    0.6960157373E+00    0.1611714256E+00    0.1613516020E+00
    0.1700000000E+06    0.1240163512E-01    0.1567892256E-01    0.6960177333E+00    0.1618242317E+00    0.1709063494E+00
    0.1900000000E+06    0.1174774815E-01    0.1490371460E-01    0.6960193106E+00    0.1620491156E+00    0.1797873125E+00
    0.2100000000E+06    0.1115270558E-01    0.1419412532E-01    0.6960205887E+00    0.1619611023E+00    0.1881009906E+00
    0.2300000000E+06    0.1060960345E-01    0.1354313555E-01    0.6960216454E+00    0.1616395623E+00    0.1959280048E+00
    0.2500000000E+06    0.1011228494E-01    0.1294427694E-01    0.6960225338E+00    0.1611410396E+00    0.2033311812E+00
    0.2700000000E+06    0.9655382874E-02    0.1239178925E-01    0.6960232911E+00    0.1605068783E+00    0.2103606497E+00
    0.2900000000E+06    0.9234261691E-02    0.1188062067E-01    0.6960239445E+00    0.1597679660E+00    0.2170572031E+00
    0.3100000000E+06    0.8844928905E-02    0.1140636875E-01    0.6960245139E+00    0.1589477972E+00    0.2234545896E+00
    0.3300000000E+06    0.8483944002E-02    0.1096520358E-01    0.6960250147E+00    0.1580645173E+00    0.2295811270E+00
    0.3500000000E+06    0.8148335215E-02    0.1055379087E-01    0.6960254586E+00    0.1571323223E+00    0.2354608673E+00
    0.3700000000E+06    0.7835527258E-02    0.1016922160E-01    0.6960258547E+00    0.1561624423E+00    0.2411144584E+00
    0.3900000000E+06    0.7543280087E-02    0.9808950496E-02    0.6960262104E+00    0.1551638454E+00    0.2465597913E+00
    0.4100000000E+06    0.7269637578E-02    0.9470743217E-02    0.6960265316E+00    0.1541437517E+00    0.2518124978E+00
    0.4300000000E+06    0.7012884753E-02    0.9152631635E-02    0.6960268231E+00    0.1531080143E+00    0.2568863363E+00
    0.4500000000E+06    0.6771512153E-02    0.8852876050E-02    0.6960270889E+00    0.1520614061E+00    0.2617934968E+00
    0.4700000000E+06    0.6544186137E-02    0.8569933355E-02    0.6960273321E+00    0.1510078380E+00    0.2665448444E+00
    0.4900000000E+06    0.6329724077E-02    0.8302430201E-02    0.6960275556E+00    0.1499505277E+00    0.2711501155E+00
    0.1000000000E+06    0.1524509066E-01    0.1898462801E-01    0.6960072717E+00    0.1562574665E+00    0.1333925716E+00
    0.3000000000E+06    0.9035848691E-02    0.1163913199E-01    0.6960242386E+00    0.1593667981E+00    0.2202914105E+00
    0.5000000000E+06    0.6226983562E-02    0.8174080042E-02    0.6960276607E+00    0.1494213181E+00    0.2734007465E+00
    0.7000000000E+06    0.4644595421E-02    0.6179816651E-02    0.6960291353E+00    0.1390830017E+00    0.3124839700E+00
    0.9000000000E+06    0.3635076095E-02    0.4888298851E-02    0.6960299579E+00    0.1296664959E+00    0.3433175079E+00
    0.1100000000E+07    0.2940086811E-02    0.3988716563E-02    0.6960304832E+00    0.1212974790E+00    0.3686044921E+00
    0.1300000000E+07    0.2436181635E-02    0.3330161501E-02    0.6960308479E+00    0.1138829104E+00    0.3898782589E+00
    0.1500000000E+07    0.2056723099E-02    0.2830160491E-02    0.6960311160E+00    0.1072950164E+00    0.4081083244E+00
    0.1700000000E+07    0.1762551035E-02    0.2439752852E-02    0.6960313214E+00    0.1014139576E+00    0.4239523283E+00
    0.1900000000E+07    0.1529161712E-02    0.2128035799E-02    0.6960314839E+00    0.9613678034E-01    0.4378789442E+00
    0.2100000000E+07    0.1340461311E-02    0.1874558347E-02    0.6960316156E+00    0.9137740009E-01    0.4502346769E+00
    0.2300000000E+07    0.1185463253E-02    0.1665265080E-02    0.6960317245E+00    0.8706434783E-01    0.4612831158E+00
    0.2500000000E+07    0.1056426709E-02    0.1490192632E-02    0.6960318161E+00    0.8313824376E-01    0.4712294074E+00
    0.2700000000E+07    0.9477519359E-03    0.1342093513E-02    0.6960318942E+00    0.7954955060E-01    0.4802362390E+00
    0.2900000000E+07    0.8552963357E-03    0.1215578868E-02    0.6960319616E+00    0.7625671512E-01    0.4884346749E+00
    0.3100000000E+07    0.7759356477E-03    0.1106565426E-02    0.6960320204E+00    0.7322467254E-01    0.4959317328E+00
    0.3300000000E+07    0.7072737352E-03    0.1011907848E-02    0.6960320720E+00    0.7042365404E-01    0.5028158186E+00
    0.3500000000E+07    0.6474455557E-03    0.9291479542E-03    0.6960321177E+00    0.6782823748E-01    0.5091607122E+00
    0.3700000000E+07    0.5949802994E-03    0.8563397456E-03    0.6960321585E+00    0.6541658971E-01    0.5150285455E+00
    0.3900000000E+07    0.5487043869E-03    0.7919248805E-03    0.6960321952E+00    0.6316985903E-01    0.5204720649E+00
    0.4100000000E+07    0.5076714755E-03    0.7346424700E-03    0.6960322282E+00    0.6107168537E-01    0.5255363749E+00
    0.4300000000E+07    0.4711111388E-03    0.6834626951E-03    0.6960322582E+00    0.5910780306E-01    0.5302602995E+00
    0.4500000000E+07    0.4383906903E-03    0.6375372554E-03    0.6960322855E+00    0.5726571672E-01    0.5346774571E+00
    0.4700000000E+07    0.4089864122E-03    0.5961618996E-03    0.6960323105E+00    0.5553443526E-01    0.5388171186E+00
    0.4900000000E+07    0.3824616105E-03    0.5587477590E-03    0.6960323334E+00    0.5390425220E-01    0.5427048980E+00
    0.1000000000E+07    0.3257851745E-02    0.4401190379E-02    0.6960302466E+00    0.1253550863E+00    0.3565408447E+00
    0.3000000000E+07    0.8141432856E-03    0.1159099675E-02    0.6960319920E+00    0.7471006722E-01    0.4922649671E+00
    0.5000000000E+07    0.3701620973E-03    0.5413681120E-03    0.6960323441E+00    0.5312434507E-01    0.5445614769E+00
    0.7000000000E+07    0.2113022084E-03    0.3147685141E-03    0.6960324944E+00    0.4118640395E-01    0.5727255253E+00
    0.9000000000E+07    0.1365274615E-03    0.2062500528E-03    0.6960325769E+00    0.3361079560E-01    0.5903750547E+00
    0.1100000000E+08    0.9542286718E-04    0.1457968038E-03    0.6960326284E+00    0.2837727011E-01    0.6024789968E+00
    0.1300000000E+08    0.7042410312E-04    0.1086296515E-03    0.6960326633E+00    0.2454617617E-01    0.6112969908E+00
    0.1500000000E+08    0.5409506683E-04    0.8412878856E-04    0.6960326882E+00    0.2162110066E-01    0.6180068664E+00
    0.1700000000E+08    0.4284545745E-04    0.6711483420E-04    0.6960327066E+00    0.1931509296E-01    0.6232834019E+00
    0.1900000000E+08    0.3476829910E-04    0.5481307895E-04    0.6960327207E+00    0.1745074168E-01    0.6275411296E+00
    0.2100000000E+08    0.2877431325E-04    0.4562669433E-04    0.6960327316E+00    0.1591247062E-01    0.6310488074E+00
    0.2300000000E+08    0.2420453135E-04    0.3858323866E-04    0.6960327402E+00    0.1462176563E-01    0.6339883297E+00
    0.2500000000E+08    0.2064130997E-04    0.3306271075E-04    0.6960327471E+00    0.1352342632E-01    0.6364871982E+00
    0.2700000000E+08    0.1780955243E-04    0.2865450687E-04    0.6960327526E+00    0.1257751407E-01    0.6386374379E+00
