  Pressure (Pa) 22mC5-500 (mol/kg) 23mC5-500 (mol/kg) 24mC5-500 (mol/kg) 2mC6-500 (mol/kg) 3mC6-500 (mol/kg)
    0.1000000000E+01    0.5816424358E-05    0.4224431969E-05    0.2142834304E+00    0.1964093464E-04    0.5210820601E-05
    0.3000000000E+01    0.1281460311E-04    0.9337499944E-05    0.3978602159E+00    0.4673713695E-04    0.1563090505E-04
    0.5000000000E+01    0.1822055998E-04    0.1331596306E-04    0.4801271832E+00    0.7049698142E-04    0.2604896610E-04
    0.7000000000E+01    0.2320577304E-04    0.1699990089E-04    0.5268129520E+00    0.9372656252E-04    0.3646502113E-04
    0.9000000000E+01    0.2805026923E-04    0.2058788781E-04    0.5568972417E+00    0.1169292680E-03    0.4687907628E-04
    0.1100000000E+02    0.3284456834E-04    0.2414324536E-04    0.5778986481E+00    0.1402094029E-03    0.5729113468E-04
    0.1300000000E+02    0.3762292132E-04    0.2768950764E-04    0.5933911191E+00    0.1635801676E-03    0.6770119829E-04
    0.1500000000E+02    0.4239937652E-04    0.3123607900E-04    0.6052909583E+00    0.1870325747E-03    0.7810926856E-04
    0.1700000000E+02    0.4717980700E-04    0.3478672239E-04    0.6147180188E+00    0.2105534926E-03    0.8851534668E-04
    0.1900000000E+02    0.5196651484E-04    0.3834277938E-04    0.6223705332E+00    0.2341305442E-03    0.9891943369E-04
    0.2100000000E+02    0.5676017217E-04    0.4190451311E-04    0.6287064680E+00    0.2577532367E-03    0.1093215305E-03
    0.2300000000E+02    0.6156069783E-04    0.4547170673E-04    0.6340386845E+00    0.2814129840E-03    0.1197216381E-03
    0.2500000000E+02    0.6636767243E-04    0.4904394215E-04    0.6385881908E+00    0.3051028369E-03    0.1301197571E-03
    0.2700000000E+02    0.7118054092E-04    0.5262073290E-04    0.6425155464E+00    0.3288171752E-03    0.1405158886E-03
    0.2900000000E+02    0.7599871239E-04    0.5620158756E-04    0.6459402061E+00    0.3525514359E-03    0.1509100332E-03
    0.3100000000E+02    0.8082160868E-04    0.5978603891E-04    0.6489528831E+00    0.3763018927E-03    0.1613021917E-03
    0.3300000000E+02    0.8564868672E-04    0.6337365615E-04    0.6516237026E+00    0.4000654814E-03    0.1716923649E-03
    0.3500000000E+02    0.9047944745E-04    0.6696404849E-04    0.6540077293E+00    0.4238396645E-03    0.1820805535E-03
    0.3700000000E+02    0.9531343772E-04    0.7055686452E-04    0.6561488041E+00    0.4476223257E-03    0.1924667584E-03
    0.3900000000E+02    0.1001502488E-03    0.7415178969E-04    0.6580822656E+00    0.4714116880E-03    0.2028509801E-03
    0.4100000000E+02    0.1049895133E-03    0.7774854299E-04    0.6598369153E+00    0.4952062494E-03    0.2132332196E-03
    0.4300000000E+02    0.1098309015E-03    0.8134687346E-04    0.6614364632E+00    0.5190047327E-03    0.2236134774E-03
    0.4500000000E+02    0.1146741173E-03    0.8494655683E-04    0.6629006044E+00    0.5428060453E-03    0.2339917544E-03
    0.4700000000E+02    0.1195188948E-03    0.8854739239E-04    0.6642458351E+00    0.5666092475E-03    0.2443680512E-03
    0.4900000000E+02    0.1243649949E-03    0.9214920027E-04    0.6654860764E+00    0.5904135267E-03    0.2547423686E-03
    0.1000000000E+02    0.3045084621E-04    0.2236767819E-04    0.5682552226E+00    0.1285579232E-03    0.5208535494E-04
    0.3000000000E+02    0.7840960484E-04    0.5799339150E-04    0.6474932519E+00    0.3644248451E-03    0.1561063606E-03
    0.5000000000E+02    0.1267884728E-03    0.9395041769E-04    0.6660705936E+00    0.6023158459E-03    0.2599287852E-03
    0.7000000000E+02    0.1752851729E-03    0.1299942362E-03    0.6743631821E+00    0.8402882142E-03    0.3635533748E-03
    0.9000000000E+02    0.2237630338E-03    0.1660229742E-03    0.6790602205E+00    0.1077928456E-02    0.4669808445E-03
    0.1100000000E+03    0.2721647149E-03    0.2019945910E-03    0.6820835703E+00    0.1315100334E-02    0.5702119008E-03
    0.1300000000E+03    0.3204620409E-03    0.2378886223E-03    0.6841925418E+00    0.1551746797E-02    0.6732472450E-03
    0.1500000000E+03    0.3686395567E-03    0.2736939186E-03    0.6857474705E+00    0.1787840434E-02    0.7760875742E-03
    0.1700000000E+03    0.4166881223E-03    0.3094039235E-03    0.6869413400E+00    0.2023366998E-02    0.8787335816E-03
    0.1900000000E+03    0.4646020465E-03    0.3450145759E-03    0.6878868303E+00    0.2258318829E-02    0.9811859567E-03
    0.2100000000E+03    0.5123776644E-03    0.3805232744E-03    0.6886541518E+00    0.2492691857E-02    0.1083445386E-02
    0.2300000000E+03    0.5600125701E-03    0.4159283215E-03    0.6892893311E+00    0.2726484109E-02    0.1185512551E-02
    0.2500000000E+03    0.6075051771E-03    0.4512286062E-03    0.6898237979E+00    0.2959694900E-02    0.1287388132E-02
    0.2700000000E+03    0.6548544523E-03    0.4864234125E-03    0.6902797467E+00    0.3192324371E-02    0.1389072803E-02
    0.2900000000E+03    0.7020597479E-03    0.5215122986E-03    0.6906732968E+00    0.3424373214E-02    0.1490567239E-02
    0.3100000000E+03    0.7491206917E-03    0.5564950188E-03    0.6910164377E+00    0.3655842492E-02    0.1591872108E-02
    0.3300000000E+03    0.7960371133E-03    0.5913714701E-03    0.6913182720E+00    0.3886733535E-02    0.1692988075E-02
    0.3500000000E+03    0.8428089921E-03    0.6261416557E-03    0.6915858354E+00    0.4117047855E-02    0.1793915803E-02
    0.3700000000E+03    0.8894364215E-03    0.6608056591E-03    0.6918246512E+00    0.4346787103E-02    0.1894655953E-02
    0.3900000000E+03    0.9359195820E-03    0.6953636256E-03    0.6920391167E+00    0.4575953026E-02    0.1995209179E-02
    0.4100000000E+03    0.9822587224E-03    0.7298157480E-03    0.6922327755E+00    0.4804547445E-02    0.2095576135E-02
    0.4300000000E+03    0.1028454145E-02    0.7641622568E-03    0.6924085157E+00    0.5032572237E-02    0.2195757470E-02
    0.4500000000E+03    0.1074506193E-02    0.7984034120E-03    0.6925687144E+00    0.5260029315E-02    0.2295753832E-02
    0.4700000000E+03    0.1120415245E-02    0.8325394974E-03    0.6927153459E+00    0.5486920627E-02    0.2395565864E-02
    0.4900000000E+03    0.1166181707E-02    0.8665708157E-03    0.6928500639E+00    0.5713248137E-02    0.2495194206E-02
    0.1000000000E+03    0.2479755724E-03    0.1840175063E-03    0.6807197260E+00    0.1196577517E-02    0.5186208804E-03
    0.3000000000E+03    0.7256082784E-03    0.5390169388E-03    0.6908505430E+00    0.3540180221E-02    0.1541243328E-02
    0.5000000000E+03    0.1189011599E-02    0.8835472860E-03    0.6929134000E+00    0.5826201086E-02    0.2544939693E-02
    0.7000000000E+03    0.1638236037E-02    0.1217659808E-02    0.6938013707E+00    0.8056149702E-02    0.3530360052E-02
    0.9000000000E+03    0.2073757141E-02    0.1541705611E-02    0.6942957229E+00    0.1023201012E-01    0.4498123858E-02
    0.1100000000E+04    0.2496084736E-02    0.1856058716E-02    0.6946107059E+00    0.1235572547E-01    0.5448821783E-02
    0.1300000000E+04    0.2905719425E-02    0.2161085737E-02    0.6948289559E+00    0.1442915883E-01    0.6383017398E-02
    0.1500000000E+04    0.3303143244E-02    0.2457139456E-02    0.6949891049E+00    0.1645408941E-01    0.7301248731E-02
    0.1700000000E+04    0.3688817499E-02    0.2744557390E-02    0.6951116299E+00    0.1843221485E-01    0.8204029718E-02
    0.1900000000E+04    0.4063182666E-02    0.3023661784E-02    0.6952083969E+00    0.2036515501E-01    0.9091851555E-02
    0.2100000000E+04    0.4426659006E-02    0.3294760086E-02    0.6952867566E+00    0.2225445599E-01    0.9965183959E-02
    0.2300000000E+04    0.4779647422E-02    0.3558145595E-02    0.6953515055E+00    0.2410159410E-01    0.1082447634E-01
    0.2500000000E+04    0.5122530400E-02    0.3814098149E-02    0.6954059068E+00    0.2590797971E-01    0.1167015892E-01
    0.2700000000E+04    0.5455672955E-02    0.4062884827E-02    0.6954522579E+00    0.2767496079E-01    0.1250264374E-01
    0.2900000000E+04    0.5779423550E-02    0.4304760617E-02    0.6954922227E+00    0.2940382630E-01    0.1332232563E-01
    0.3100000000E+04    0.6094114979E-02    0.4539969065E-02    0.6955270362E+00    0.3109580940E-01    0.1412958312E-01
    0.3300000000E+04    0.6400065199E-02    0.4768742882E-02    0.6955576341E+00    0.3275209039E-01    0.1492477927E-01
    0.3500000000E+04    0.6697578118E-02    0.4991304523E-02    0.6955847387E+00    0.3437379953E-01    0.1570826249E-01
    0.3700000000E+04    0.6986944346E-02    0.5207866727E-02    0.6956089159E+00    0.3596201962E-01    0.1648036725E-01
    0.3900000000E+04    0.7268441890E-02    0.5418633035E-02    0.6956306157E+00    0.3751778853E-01    0.1724141480E-01
    0.4100000000E+04    0.7542336812E-02    0.5623798261E-02    0.6956502005E+00    0.3904210143E-01    0.1799171382E-01
    0.4300000000E+04    0.7808883852E-02    0.5823548954E-02    0.6956679651E+00    0.4053591300E-01    0.1873156107E-01
    0.4500000000E+04    0.8068327007E-02    0.6018063813E-02    0.6956841520E+00    0.4200013949E-01    0.1946124190E-01
    0.4700000000E+04    0.8320900082E-02    0.6207514096E-02    0.6956989626E+00    0.4343566058E-01    0.2018103087E-01
    0.4900000000E+04    0.8566827202E-02    0.6392063989E-02    0.6957125653E+00    0.4484332123E-01    0.2089119224E-01
    0.1000000000E+04    0.2286538456E-02    0.1700070548E-02    0.6944689249E+00    0.1130026751E-01    0.4975570216E-02
    0.3000000000E+04    0.5937881450E-02    0.4423183468E-02    0.6955102090E+00    0.3025435318E-01    0.1372748438E-01
    0.5000000000E+04    0.8687366041E-02    0.6482550752E-02    0.6957189589E+00    0.4553695886E-01    0.2124274246E-01
    0.7000000000E+04    0.1079706843E-01    0.8070074218E-02    0.6958084965E+00    0.5812857670E-01    0.2782544861E-01
    0.9000000000E+04    0.1243953429E-01    0.9312250442E-02    0.6958582656E+00    0.6868774352E-01    0.3368407894E-01
    0.1100000000E+05    0.1373248355E-01    0.1029549553E-01    0.6958899494E+00    0.7767320913E-01    0.3896675392E-01
    0.1300000000E+05    0.1475867591E-01    0.1108064577E-01    0.6959118917E+00    0.8541443854E-01    0.4378189362E-01
    0.1500000000E+05    0.1557778776E-01    0.1171163223E-01    0.6959279873E+00    0.9215423192E-01    0.4821088446E-01
    0.1700000000E+05    0.1623379484E-01    0.1222087633E-01    0.6959402989E+00    0.9807552516E-01    0.5231615467E-01
    0.1900000000E+05    0.1675971713E-01    0.1263276007E-01    0.6959500208E+00    0.1033188202E+00    0.5614649630E-01
    0.2100000000E+05    0.1718075795E-01    0.1296592346E-01    0.6959578927E+00    0.1079938558E+00    0.5974067438E-01
    0.2300000000E+05    0.1751643373E-01    0.1323482454E-01    0.6959643968E+00    0.1121876240E+00    0.6312993666E-01
    0.2500000000E+05    0.1778205152E-01    0.1345082236E-01    0.6959698614E+00    0.1159700001E+00    0.6633979760E-01
    0.2700000000E+05    0.1798975439E-01    0.1362294396E-01    0.6959745172E+00    0.1193977768E+00    0.6939133165E-01
    0.2900000000E+05    0.1814927422E-01    0.1375843707E-01    0.6959785315E+00    0.1225176068E+00    0.7230212719E-01
    0.3100000000E+05    0.1826848247E-01    0.1386317492E-01    0.6959820285E+00    0.1253681830E+00    0.7508700146E-01
    0.3300000000E+05    0.1835379896E-01    0.1394195683E-01    0.6959851020E+00    0.1279818787E+00    0.7775854396E-01
    0.3500000000E+05    0.1841049915E-01    0.1399873450E-01    0.6959878247E+00    0.1303859963E+00    0.8032753485E-01
    0.3700000000E+05    0.1844294802E-01    0.1403678434E-01    0.6959902535E+00    0.1326037307E+00    0.8280327099E-01
    0.3900000000E+05    0.1845477985E-01    0.1405884006E-01    0.6959924334E+00    0.1346549200E+00    0.8519382267E-01
    0.4100000000E+05    0.1844903795E-01    0.1406719585E-01    0.6959944010E+00    0.1365566374E+00    0.8750623791E-01
    0.4300000000E+05    0.1842828414E-01    0.1406378730E-01    0.6959961857E+00    0.1383236604E+00    0.8974670635E-01
    0.4500000000E+05    0.1839468538E-01    0.1405025550E-01    0.6959978120E+00    0.1399688484E+00    0.9192069209E-01
    0.4700000000E+05    0.1835008276E-01    0.1402799811E-01    0.6959993001E+00    0.1415034473E+00    0.9403304201E-01
    0.4900000000E+05    0.1829604687E-01    0.1399821044E-01    0.6960006669E+00    0.1429373371E+00    0.9608807482E-01
    0.1000000000E+05    0.1312387392E-01    0.9831959740E-02    0.6958756903E+00    0.7335416533E-01    0.3638988102E-01
    0.3000000000E+05    0.1821348605E-01    0.1381432823E-01    0.6959803382E+00    0.1239743964E+00    0.7370947085E-01
    0.5000000000E+05    0.1826591951E-01    0.1398081927E-01    0.6960013094E+00    0.1436192810E+00    0.9709532090E-01
    0.7000000000E+05    0.1740900171E-01    0.1342242218E-01    0.6960103086E+00    0.1536288256E+00    0.1149862134E+00
    0.9000000000E+05    0.1638547434E-01    0.1271074190E-01    0.6960153133E+00    0.1593197925E+00    0.1298502712E+00
    0.1100000000E+06    0.1538377267E-01    0.1199690216E-01    0.6960185009E+00    0.1626883316E+00    0.1427514285E+00
    0.1300000000E+06    0.1445495551E-01    0.1132526747E-01    0.6960207095E+00    0.1646640780E+00    0.1542516525E+00
    0.1500000000E+06    0.1360885723E-01    0.1070705210E-01    0.6960223302E+00    0.1657423794E+00    0.1646876681E+00
    0.1700000000E+06    0.1284205905E-01    0.1014220072E-01    0.6960235705E+00    0.1662127013E+00    0.1742793106E+00
    0.1900000000E+06    0.1214717357E-01    0.9626865253E-02    0.6960245502E+00    0.1662559437E+00    0.1831792775E+00
    0.2100000000E+06    0.1151613118E-01    0.9156167370E-02    0.6960253438E+00    0.1659910612E+00    0.1914987061E+00
    0.2300000000E+06    0.1094133662E-01    0.8725244431E-02    0.6960259997E+00    0.1654994491E+00    0.1993214853E+00
    0.2500000000E+06    0.1041602361E-01    0.8329626066E-02    0.6960265509E+00    0.1648386032E+00    0.2067128078E+00
    0.2700000000E+06    0.9934302384E-02    0.7965340606E-02    0.6960270207E+00    0.1640502043E+00    0.2137245570E+00
    0.2900000000E+06    0.9491094688E-02    0.7628912872E-02    0.6960274259E+00    0.1631651228E+00    0.2203988494E+00
    0.3100000000E+06    0.9082034703E-02    0.7317321239E-02    0.6960277789E+00    0.1622066351E+00    0.2267704485E+00
    0.3300000000E+06    0.8703367205E-02    0.7027942887E-02    0.6960280893E+00    0.1611925579E+00    0.2328684610E+00
    0.3500000000E+06    0.8351854673E-02    0.6758499325E-02    0.6960283643E+00    0.1601367042E+00    0.2387175595E+00
    0.3700000000E+06    0.8024696761E-02    0.6507006859E-02    0.6960286097E+00    0.1590498989E+00    0.2443388843E+00
    0.3900000000E+06    0.7719462135E-02    0.6271733363E-02    0.6960288300E+00    0.1579407030E+00    0.2497507207E+00
    0.4100000000E+06    0.7434031457E-02    0.6051161330E-02    0.6960290289E+00    0.1568159400E+00    0.2549690183E+00
    0.4300000000E+06    0.7166549928E-02    0.5843956610E-02    0.6960292093E+00    0.1556810830E+00    0.2600077929E+00
    0.4500000000E+06    0.6915387824E-02    0.5648942081E-02    0.6960293737E+00    0.1545405454E+00    0.2648794446E+00
    0.4700000000E+06    0.6679107657E-02    0.5465075515E-02    0.6960295242E+00    0.1533979007E+00    0.2695950101E+00
    0.4900000000E+06    0.6456436770E-02    0.5291430941E-02    0.6960296625E+00    0.1522560514E+00    0.2741643667E+00
    0.1000000000E+06    0.1587716696E-01    0.1235009972E-01    0.6960170661E+00    0.1612218274E+00    0.1365038550E+00
    0.3000000000E+06    0.9282544099E-02    0.7470185160E-02    0.6960276083E+00    0.1626938329E+00    0.2236205500E+00
    0.5000000000E+06    0.6349846455E-02    0.5208180409E-02    0.6960297275E+00    0.1516861814E+00    0.2763970278E+00
    0.7000000000E+06    0.4715119188E-02    0.3920225929E-02    0.6960306385E+00    0.1407123105E+00    0.3151329717E+00
    0.9000000000E+06    0.3679295019E-02    0.3091851980E-02    0.6960311457E+00    0.1308878434E+00    0.3456607519E+00
    0.1100000000E+07    0.2969556460E-02    0.2517606814E-02    0.6960314690E+00    0.1222418354E+00    0.3706869423E+00
    0.1300000000E+07    0.2456728521E-02    0.2098679134E-02    0.6960316931E+00    0.1146310019E+00    0.3917392851E+00
    0.1500000000E+07    0.2071559436E-02    0.1781449520E-02    0.6960318575E+00    0.1078993349E+00    0.4097807471E+00
    0.1700000000E+07    0.1773569443E-02    0.1534261028E-02    0.6960319833E+00    0.1019101008E+00    0.4254631840E+00
    0.1900000000E+07    0.1537536461E-02    0.1337219659E-02    0.6960320827E+00    0.9654971898E-01    0.4392505070E+00
    0.2100000000E+07    0.1346951867E-02    0.1177206405E-02    0.6960321631E+00    0.9172514454E-01    0.4514853818E+00
    0.2300000000E+07    0.1190577906E-02    0.1045231198E-02    0.6960322296E+00    0.8736019477E-01    0.4624283153E+00
    0.2500000000E+07    0.1060515571E-02    0.9349368267E-03    0.6960322854E+00    0.8339220726E-01    0.4722819734E+00
    0.2700000000E+07    0.9510621691E-03    0.8417084888E-03    0.6960323329E+00    0.7976930339E-01    0.4812070362E+00
    0.2900000000E+07    0.8580061775E-03    0.7621208896E-03    0.6960323738E+00    0.7644822527E-01    0.4893329335E+00
    0.3100000000E+07    0.7781760503E-03    0.6935825256E-03    0.6960324094E+00    0.7339264432E-01    0.4967653426E+00
    0.3300000000E+07    0.7091425089E-03    0.6340997924E-03    0.6960324407E+00    0.7057183979E-01    0.5035915633E+00
    0.3500000000E+07    0.6490168378E-03    0.5821164141E-03    0.6960324684E+00    0.6795966230E-01    0.5098844560E+00
    0.3700000000E+07    0.5963110303E-03    0.5364016241E-03    0.6960324930E+00    0.6553371598E-01    0.5157053839E+00
    0.3900000000E+07    0.5498388231E-03    0.4959707145E-03    0.6960325151E+00    0.6327470866E-01    0.5211064467E+00
    0.4100000000E+07    0.5086443898E-03    0.4600275700E-03    0.6960325350E+00    0.6116593193E-01    0.5261322014E+00
    0.4300000000E+07    0.4719501239E-03    0.4279224330E-03    0.6960325531E+00    0.5919284200E-01    0.5308210067E+00
    0.4500000000E+07    0.4391178412E-03    0.3991204150E-03    0.6960325695E+00    0.5734271944E-01    0.5352060831E+00
    0.4700000000E+07    0.4096195695E-03    0.3731777115E-03    0.6960325845E+00    0.5560439126E-01    0.5393163593E+00
    0.4900000000E+07    0.3830152915E-03    0.3497234227E-03    0.6960325982E+00    0.5396800219E-01    0.5431771547E+00
    0.1000000000E+07    0.3293718153E-02    0.2780624728E-02    0.6960313235E+00    0.1264254105E+00    0.3587483578E+00
    0.3000000000E+07    0.8166043766E-03    0.7266069960E-03    0.6960323922E+00    0.7488928577E-01    0.4931299890E+00
    0.5000000000E+07    0.3706806428E-03    0.3388299385E-03    0.6960326046E+00    0.5318526814E-01    0.5450210607E+00
    0.7000000000E+07    0.2114662091E-03    0.1968873019E-03    0.6960326941E+00    0.4121420588E-01    0.5730107563E+00
    0.9000000000E+07    0.1365898660E-03    0.1289702099E-03    0.6960327424E+00    0.3362577546E-01    0.5905694871E+00
    0.1100000000E+08    0.9544790476E-04    0.9115200818E-04    0.6960327722E+00    0.2838625684E-01    0.6026201337E+00
    0.1300000000E+08    0.7043305490E-04    0.6790717461E-04    0.6960327921E+00    0.2455198973E-01    0.6114041660E+00
    0.1500000000E+08    0.5409632489E-04    0.5258659491E-04    0.6960328060E+00    0.2162507771E-01    0.6180910613E+00
    0.1700000000E+08    0.4284276351E-04    0.4194887142E-04    0.6960328161E+00    0.1931793358E-01    0.6233513176E+00
    0.1900000000E+08    0.3476347978E-04    0.3425802633E-04    0.6960328235E+00    0.1745284142E-01    0.6275970886E+00
    0.2100000000E+08    0.2876832374E-04    0.2851522095E-04    0.6960328292E+00    0.1591406669E-01    0.6310957237E+00
    0.2300000000E+08    0.2419789835E-04    0.2411227098E-04    0.6960328336E+00    0.1462300732E-01    0.6340282396E+00
    0.2500000000E+08    0.2063433593E-04    0.2066145949E-04    0.6960328369E+00    0.1352441142E-01    0.6365215680E+00
    0.2700000000E+08    0.1780241645E-04    0.1790603865E-04    0.6960328394E+00    0.1257830880E-01    0.6386673505E+00
