  Pressure (Pa) 22mC5-500 (mol/kg) 23mC5-500 (mol/kg) 24mC5-500 (mol/kg) 2mC6-500 (mol/kg) 3mC6-500 (mol/kg)
    0.1000000000E+01    0.6173136865E-05    0.7170984451E-05    0.1741151970E+00    0.5158314441E-05    0.1563249778E-04
    0.3000000000E+01    0.1401938278E-04    0.1632452830E-04    0.3481515342E+00    0.1244131639E-04    0.4689297620E-04
    0.5000000000E+01    0.1990226115E-04    0.2323044676E-04    0.4351413261E+00    0.1859388601E-04    0.7814756390E-04
    0.7000000000E+01    0.2514077214E-04    0.2940713303E-04    0.4873266919E+00    0.2446813873E-04    0.1093963135E-03
    0.9000000000E+01    0.3011992231E-04    0.3529450565E-04    0.5221136404E+00    0.3027217091E-04    0.1406392456E-03
    0.1100000000E+02    0.3498326879E-04    0.4105521342E-04    0.5469599724E+00    0.3606784257E-04    0.1718763708E-03
    0.1300000000E+02    0.3979266519E-04    0.4675864436E-04    0.5655939773E+00    0.4187452619E-04    0.2031076955E-03
    0.1500000000E+02    0.4457733297E-04    0.5243718599E-04    0.5800866933E+00    0.4769749548E-04    0.2343332247E-03
    0.1700000000E+02    0.4935191124E-04    0.5810681502E-04    0.5916806415E+00    0.5353706948E-04    0.2655529621E-03
    0.1900000000E+02    0.5412397981E-04    0.6377563203E-04    0.6011664686E+00    0.5939187132E-04    0.2967669109E-03
    0.2100000000E+02    0.5889749622E-04    0.6944773707E-04    0.6090712472E+00    0.6526005571E-04    0.3279750738E-03
    0.2300000000E+02    0.6367447948E-04    0.7512511563E-04    0.6157598601E+00    0.7113977524E-04    0.3591774535E-03
    0.2500000000E+02    0.6845588081E-04    0.8080860649E-04    0.6214929299E+00    0.7702934630E-04    0.3903740525E-03
    0.2700000000E+02    0.7324205352E-04    0.8649841948E-04    0.6264615754E+00    0.8292729399E-04    0.4215648731E-03
    0.2900000000E+02    0.7803301505E-04    0.9219442124E-04    0.6308091326E+00    0.8883234902E-04    0.4527499174E-03
    0.3100000000E+02    0.8282859685E-04    0.9789629660E-04    0.6346452096E+00    0.9474342721E-04    0.4839291879E-03
    0.3300000000E+02    0.8762853155E-04    0.1036036411E-03    0.6380550559E+00    0.1006596045E-03    0.5151026864E-03
    0.3500000000E+02    0.9243250427E-04    0.1093160142E-03    0.6411059732E+00    0.1065800930E-03    0.5462704153E-03
    0.3700000000E+02    0.9724018287E-04    0.1150329702E-03    0.6438518020E+00    0.1125042190E-03    0.5774323766E-03
    0.3900000000E+02    0.1020512356E-03    0.1207540749E-03    0.6463361273E+00    0.1184314048E-03    0.6085885723E-03
    0.4100000000E+02    0.1068653410E-03    0.1264789154E-03    0.6485946092E+00    0.1243611532E-03    0.6397390046E-03
    0.4300000000E+02    0.1116821938E-03    0.1322071040E-03    0.6506567060E+00    0.1302930347E-03    0.6708836753E-03
    0.4500000000E+02    0.1165015069E-03    0.1379382804E-03    0.6525469660E+00    0.1362266764E-03    0.7020225867E-03
    0.4700000000E+02    0.1213230129E-03    0.1436721111E-03    0.6542860098E+00    0.1421617538E-03    0.7331557406E-03
    0.4900000000E+02    0.1261464635E-03    0.1494082888E-03    0.6558912855E+00    0.1480979829E-03    0.7642831391E-03
    0.1000000000E+02    0.3256110308E-04    0.3818510313E-04    0.5354925813E+00    0.3316932962E-04    0.1562585336E-03
    0.3000000000E+02    0.8043024355E-04    0.9504464867E-04    0.6327852936E+00    0.9178719643E-04    0.4683402743E-03
    0.5000000000E+02    0.1285588457E-03    0.1522771686E-03    0.6566484927E+00    0.1510664503E-03    0.7798446807E-03
    0.7000000000E+02    0.1768617067E-03    0.2097207411E-03    0.6674362635E+00    0.2104494284E-03    0.1090773839E-02
    0.9000000000E+02    0.2251857576E-03    0.2671889313E-03    0.6735843421E+00    0.2697874282E-03    0.1401129720E-02
    0.1100000000E+03    0.2734587659E-03    0.3245958655E-03    0.6775562432E+00    0.3290282216E-03    0.1710914267E-02
    0.1300000000E+03    0.3216433125E-03    0.3818975724E-03    0.6803336765E+00    0.3881490610E-03    0.2020129409E-02
    0.1500000000E+03    0.3697181624E-03    0.4390692910E-03    0.6823850454E+00    0.4471386172E-03    0.2328777061E-02
    0.1700000000E+03    0.4176704108E-03    0.4960960617E-03    0.6839621545E+00    0.5059907421E-03    0.2636859129E-02
    0.1900000000E+03    0.4654918107E-03    0.5529683727E-03    0.6852124355E+00    0.5647019170E-03    0.2944377508E-02
    0.2100000000E+03    0.5131768976E-03    0.6096799498E-03    0.6862279482E+00    0.6232700742E-03    0.3251334087E-02
    0.2300000000E+03    0.5607219588E-03    0.6662265496E-03    0.6870691446E+00    0.6816940007E-03    0.3557730742E-02
    0.2500000000E+03    0.6081244331E-03    0.7226052591E-03    0.6877773623E+00    0.7399730126E-03    0.3863569343E-02
    0.2700000000E+03    0.6553825437E-03    0.7788140683E-03    0.6883818256E+00    0.7981067685E-03    0.4168851750E-02
    0.2900000000E+03    0.7024950641E-03    0.8348515998E-03    0.6889037797E+00    0.8560951557E-03    0.4473579814E-02
    0.3100000000E+03    0.7494611642E-03    0.8907169302E-03    0.6893590400E+00    0.9139382194E-03    0.4777755379E-02
    0.3300000000E+03    0.7962803050E-03    0.9464094693E-03    0.6897596225E+00    0.9716361159E-03    0.5081380278E-02
    0.3500000000E+03    0.8429521662E-03    0.1001928876E-02    0.6901148203E+00    0.1029189082E-02    0.5384456338E-02
    0.3700000000E+03    0.8894765938E-03    0.1057275000E-02    0.6904319334E+00    0.1086597412E-02    0.5686985378E-02
    0.3900000000E+03    0.9358535624E-03    0.1112447835E-02    0.6907167756E+00    0.1143861445E-02    0.5988969205E-02
    0.4100000000E+03    0.9820831473E-03    0.1167447491E-02    0.6909740348E+00    0.1200981552E-02    0.6290409623E-02
    0.4300000000E+03    0.1028165503E-02    0.1222274168E-02    0.6912075330E+00    0.1257958131E-02    0.6591308422E-02
    0.4500000000E+03    0.1074100849E-02    0.1276928136E-02    0.6914204169E+00    0.1314791596E-02    0.6891667389E-02
    0.4700000000E+03    0.1119889455E-02    0.1331409726E-02    0.6916153012E+00    0.1371482378E-02    0.7191488301E-02
    0.4900000000E+03    0.1165531631E-02    0.1385719313E-02    0.6917943764E+00    0.1428030918E-02    0.7490772925E-02
    0.1000000000E+03    0.2493314997E-03    0.2959034219E-03    0.6757630873E+00    0.2994217834E-03    0.1556093289E-02
    0.3000000000E+03    0.7259964562E-03    0.8628058337E-03    0.6891389212E+00    0.8850348454E-03    0.4625736544E-02
    0.5000000000E+03    0.1188297916E-02    0.1412809734E-02    0.6918785748E+00    0.1456251987E-02    0.7640214680E-02
    0.7000000000E+03    0.1636033363E-02    0.1945703786E-02    0.6930595933E+00    0.2013318686E-02    0.1060132139E-01
    0.9000000000E+03    0.2069629350E-02    0.2461993061E-02    0.6937175503E+00    0.2556698119E-02    0.1351077093E-01
    0.1100000000E+04    0.2489578803E-02    0.2962255943E-02    0.6941369521E+00    0.3086855887E-02    0.1637020267E-01
    0.1300000000E+04    0.2896375715E-02    0.3447070681E-02    0.6944276362E+00    0.3604242164E-02    0.1918118512E-01
    0.1500000000E+04    0.3290500236E-02    0.3916998799E-02    0.6946409806E+00    0.4109288860E-02    0.2194521976E-01
    0.1700000000E+04    0.3672414509E-02    0.4372580544E-02    0.6948042301E+00    0.4602409521E-02    0.2466374459E-01
    0.1900000000E+04    0.4042561665E-02    0.4814333847E-02    0.6949331767E+00    0.5083999908E-02    0.2733813751E-01
    0.2100000000E+04    0.4401365950E-02    0.5242754531E-02    0.6950376058E+00    0.5554438780E-02    0.2996971935E-01
    0.2300000000E+04    0.4749233277E-02    0.5658316997E-02    0.6951239037E+00    0.6014088711E-02    0.3255975690E-01
    0.2500000000E+04    0.5086551964E-02    0.6061475095E-02    0.6951964160E+00    0.6463296901E-02    0.3510946560E-01
    0.2700000000E+04    0.5413693522E-02    0.6452663062E-02    0.6952582022E+00    0.6902395953E-02    0.3762001217E-01
    0.2900000000E+04    0.5731013451E-02    0.6832296450E-02    0.6953114786E+00    0.7331704614E-02    0.4009251698E-01
    0.3100000000E+04    0.6038852027E-02    0.7200773052E-02    0.6953578904E+00    0.7751528473E-02    0.4252805642E-01
    0.3300000000E+04    0.6337535050E-02    0.7558473774E-02    0.6953986842E+00    0.8162160628E-02    0.4492766498E-01
    0.3500000000E+04    0.6627374565E-02    0.7905763480E-02    0.6954348222E+00    0.8563882303E-02    0.4729233734E-01
    0.3700000000E+04    0.6908669548E-02    0.8242991785E-02    0.6954670586E+00    0.8956963442E-02    0.4962303021E-01
    0.3900000000E+04    0.7181706551E-02    0.8570493818E-02    0.6954959928E+00    0.9341663259E-02    0.5192066420E-01
    0.4100000000E+04    0.7446760313E-02    0.8888590931E-02    0.6955221079E+00    0.9718230765E-02    0.5418612550E-01
    0.4300000000E+04    0.7704094348E-02    0.9197591375E-02    0.6955457966E+00    0.1008690526E-01    0.5642026745E-01
    0.4500000000E+04    0.7953961483E-02    0.9497790943E-02    0.6955673823E+00    0.1044791678E-01    0.5862391212E-01
    0.4700000000E+04    0.8196604383E-02    0.9789473569E-02    0.6955871331E+00    0.1080148659E-01    0.6079785167E-01
    0.4900000000E+04    0.8432256034E-02    0.1007291190E-01    0.6956052736E+00    0.1114782751E-01    0.6294284978E-01
    0.1000000000E+04    0.2281278783E-02    0.2714091366E-02    0.6939481527E+00    0.2823401158E-02    0.1494663938E-01
    0.3000000000E+04    0.5886097215E-02    0.7017905157E-02    0.6953354568E+00    0.7542783540E-02    0.4131484176E-01
    0.5000000000E+04    0.8547530417E-02    0.1021162170E-01    0.6956138002E+00    0.1131835146E-01    0.6400472695E-01
    0.7000000000E+04    0.1053594145E-01    0.1261148532E-01    0.6957332229E+00    0.1439526694E-01    0.8388879542E-01
    0.9000000000E+04    0.1203213051E-01    0.1442924158E-01    0.6957996160E+00    0.1694081344E-01    0.1015745138E+00
    0.1100000000E+05    0.1316080534E-01    0.1581114995E-01    0.6958418892E+00    0.1907291432E-01    0.1174984490E+00
    0.1300000000E+05    0.1401030491E-01    0.1686097554E-01    0.6958711685E+00    0.2087703216E-01    0.1319829003E+00
    0.1500000000E+05    0.1464464672E-01    0.1765403934E-01    0.6958926484E+00    0.2241659549E-01    0.1452713724E+00
    0.1700000000E+05    0.1511114235E-01    0.1824610512E-01    0.6959090800E+00    0.2373966220E-01    0.1575515741E+00
    0.1900000000E+05    0.1544535820E-01    0.1867917217E-01    0.6959220565E+00    0.2488330949E-01    0.1689707790E+00
    0.2100000000E+05    0.1567443303E-01    0.1898535176E-01    0.6959325644E+00    0.2587660407E-01    0.1796463560E+00
    0.2300000000E+05    0.1581934830E-01    0.1918952228E-01    0.6959412473E+00    0.2674265943E-01    0.1896731552E+00
    0.2500000000E+05    0.1589651438E-01    0.1931118547E-01    0.6959485428E+00    0.2750009083E-01    0.1991287950E+00
    0.2700000000E+05    0.1591889907E-01    0.1936578845E-01    0.6959547591E+00    0.2816406369E-01    0.2080775156E+00
    0.2900000000E+05    0.1589684399E-01    0.1936568072E-01    0.6959601192E+00    0.2874706176E-01    0.2165730350E+00
    0.3100000000E+05    0.1583866392E-01    0.1932081760E-01    0.6959647887E+00    0.2925945862E-01    0.2246606956E+00
    0.3300000000E+05    0.1575109285E-01    0.1923928409E-01    0.6959688931E+00    0.2970994876E-01    0.2323791016E+00
    0.3500000000E+05    0.1563961998E-01    0.1912769004E-01    0.6959725292E+00    0.3010587687E-01    0.2397613807E+00
    0.3700000000E+05    0.1550874575E-01    0.1899147151E-01    0.6959757729E+00    0.3045349233E-01    0.2468361703E+00
    0.3900000000E+05    0.1536217892E-01    0.1883512302E-01    0.6959786844E+00    0.3075814790E-01    0.2536283934E+00
    0.4100000000E+05    0.1520298971E-01    0.1866237825E-01    0.6959813124E+00    0.3102445660E-01    0.2601598776E+00
    0.4300000000E+05    0.1503372988E-01    0.1847635192E-01    0.6959836964E+00    0.3125641640E-01    0.2664498511E+00
    0.4500000000E+05    0.1485652762E-01    0.1827965196E-01    0.6959858688E+00    0.3145751050E-01    0.2725153447E+00
    0.4700000000E+05    0.1467316310E-01    0.1807446910E-01    0.6959878567E+00    0.3163078836E-01    0.2783715199E+00
    0.4900000000E+05    0.1448512908E-01    0.1786264865E-01    0.6959896827E+00    0.3177893180E-01    0.2840319384E+00
    0.1000000000E+05    0.1263620227E-01    0.1516739212E-01    0.6958228637E+00    0.1805258781E-01    0.1097343748E+00
    0.3000000000E+05    0.1587181605E-01    0.1934829960E-01    0.6959625316E+00    0.2901150686E-01    0.2206652933E+00
    0.5000000000E+05    0.1438976113E-01    0.1775474610E-01    0.6959905409E+00    0.3184432922E-01    0.2867925951E+00
    0.7000000000E+05    0.1245232409E-01    0.1551821384E-01    0.6960025657E+00    0.3228358462E-01    0.3341323163E+00
    0.9000000000E+05    0.1069848777E-01    0.1344663479E-01    0.6960092553E+00    0.3177318383E-01    0.3706221282E+00
    0.1100000000E+06    0.9218916999E-02    0.1167363519E-01    0.6960135173E+00    0.3084933390E-01    0.3998944859E+00
    0.1300000000E+06    0.7992201703E-02    0.1018753289E-01    0.6960164709E+00    0.2975126014E-01    0.4239907244E+00
    0.1500000000E+06    0.6976603343E-02    0.8946170255E-02    0.6960186389E+00    0.2859627395E-01    0.4442004336E+00
    0.1700000000E+06    0.6132169969E-02    0.7906136228E-02    0.6960202981E+00    0.2744450552E-01    0.4613993824E+00
    0.1900000000E+06    0.5425503913E-02    0.7029955099E-02    0.6960216090E+00    0.2632695777E-01    0.4762116344E+00
    0.2100000000E+06    0.4829872664E-02    0.6287032887E-02    0.6960226710E+00    0.2525900967E-01    0.4890974051E+00
    0.2300000000E+06    0.4324179920E-02    0.5652883238E-02    0.6960235488E+00    0.2424740038E-01    0.5004049882E+00
    0.2500000000E+06    0.3891817260E-02    0.5108016039E-02    0.6960242866E+00    0.2329402818E-01    0.5104034424E+00
    0.2700000000E+06    0.3519671500E-02    0.4636903463E-02    0.6960249155E+00    0.2239809117E-01    0.5193041579E+00
    0.2900000000E+06    0.3197333181E-02    0.4227124328E-02    0.6960254579E+00    0.2155732291E-01    0.5272756094E+00
    0.3100000000E+06    0.2916484943E-02    0.3868687235E-02    0.6960259305E+00    0.2076871611E-01    0.5344537410E+00
    0.3300000000E+06    0.2670434454E-02    0.3553504963E-02    0.6960263461E+00    0.2002894860E-01    0.5409494489E+00
    0.3500000000E+06    0.2453758686E-02    0.3274988988E-02    0.6960267143E+00    0.1933463283E-01    0.5468540797E+00
    0.3700000000E+06    0.2262032459E-02    0.3027736824E-02    0.6960270428E+00    0.1868245911E-01    0.5522435375E+00
    0.3900000000E+06    0.2091620391E-02    0.2807290304E-02    0.6960273378E+00    0.1806927441E-01    0.5571813970E+00
    0.4100000000E+06    0.1939516536E-02    0.2609947853E-02    0.6960276041E+00    0.1749212186E-01    0.5617212945E+00
    0.4300000000E+06    0.1803219987E-02    0.2432617917E-02    0.6960278456E+00    0.1694825660E-01    0.5659087836E+00
    0.4500000000E+06    0.1680637756E-02    0.2272703854E-02    0.6960280658E+00    0.1643514733E-01    0.5697827922E+00
    0.4700000000E+06    0.1570008434E-02    0.2128012965E-02    0.6960282673E+00    0.1595046964E-01    0.5733767762E+00
    0.4900000000E+06    0.1469841789E-02    0.1996684187E-02    0.6960284524E+00    0.1549209483E-01    0.5767196414E+00
    0.1000000000E+06    0.9924784073E-02    0.1252218894E-01    0.6960115988E+00    0.3134393529E-01    0.3860092834E+00
    0.3000000000E+06    0.3052174520E-02    0.4042032841E-02    0.6960257021E+00    0.2115670316E-01    0.5309563945E+00
    0.5000000000E+06    0.1423278382E-02    0.1935525213E-02    0.6960285394E+00    0.1527215604E-01    0.5783048791E+00
    0.7000000000E+06    0.8159379707E-03    0.1130154765E-02    0.6960297589E+00    0.1186448900E-01    0.6014639281E+00
    0.9000000000E+06    0.5270846172E-03    0.7403905182E-03    0.6960304372E+00    0.9675998528E-02    0.6151225712E+00
    0.1100000000E+07    0.3679068311E-03    0.5227074446E-03    0.6960308690E+00    0.8159306726E-02    0.6241098506E+00
    0.1300000000E+07    0.2711072283E-03    0.3888776791E-03    0.6960311679E+00    0.7048734988E-02    0.6304642749E+00
    0.1500000000E+07    0.2079395098E-03    0.3007376752E-03    0.6960313868E+00    0.6201447273E-02    0.6351915316E+00
    0.1700000000E+07    0.1644754827E-03    0.2396055877E-03    0.6960315539E+00    0.5534228229E-02    0.6388439943E+00
    0.1900000000E+07    0.1333088651E-03    0.1954606207E-03    0.6960316856E+00    0.4995448974E-02    0.6417498907E+00
    0.2100000000E+07    0.1102091411E-03    0.1625354200E-03    0.6960317919E+00    0.4551429895E-02    0.6441163716E+00
    0.2300000000E+07    0.9261843996E-04    0.1373195170E-03    0.6960318795E+00    0.4179285869E-02    0.6460805558E+00
    0.2500000000E+07    0.7891695190E-04    0.1175764795E-03    0.6960319528E+00    0.3862932761E-02    0.6477367850E+00
    0.2700000000E+07    0.6803872366E-04    0.1018265416E-03    0.6960320150E+00    0.3590741020E-02    0.6491520804E+00
    0.2900000000E+07    0.5925916151E-04    0.8905879226E-04    0.6960320685E+00    0.3354096267E-02    0.6503753550E+00
    0.3100000000E+07    0.5207186212E-04    0.7856347421E-04    0.6960321148E+00    0.3146483258E-02    0.6514431367E+00
    0.3300000000E+07    0.4611431453E-04    0.6983033433E-04    0.6960321554E+00    0.2962884206E-02    0.6523832514E+00
    0.3500000000E+07    0.4112151368E-04    0.6248487789E-04    0.6960321911E+00    0.2799372559E-02    0.6532172666E+00
    0.3700000000E+07    0.3689611916E-04    0.5624718991E-04    0.6960322228E+00    0.2652832061E-02    0.6539621557E+00
    0.3900000000E+07    0.3328874528E-04    0.5090463178E-04    0.6960322511E+00    0.2520758254E-02    0.6546314586E+00
    0.4100000000E+07    0.3018463530E-04    0.4629331454E-04    0.6960322766E+00    0.2401115550E-02    0.6552361073E+00
    0.4300000000E+07    0.2749446208E-04    0.4228526552E-04    0.6960322995E+00    0.2292232537E-02    0.6557850247E+00
    0.4500000000E+07    0.2514785755E-04    0.3877937246E-04    0.6960323202E+00    0.2192724121E-02    0.6562855655E+00
    0.4700000000E+07    0.2308878376E-04    0.3569488529E-04    0.6960323390E+00    0.2101432800E-02    0.6567438459E+00
    0.4900000000E+07    0.2127217031E-04    0.3296668180E-04    0.6960323562E+00    0.2017383812E-02    0.6571649936E+00
    0.1000000000E+07    0.4368770074E-03    0.6173432744E-03    0.6960306747E+00    0.8854311779E-02    0.6200373533E+00
    0.3000000000E+07    0.5549186324E-04    0.8356276072E-04    0.6960320925E+00    0.3247003997E-02    0.6509267727E+00
    0.5000000000E+07    0.2044307727E-04    0.3171922909E-04    0.6960323643E+00    0.1977811854E-02    0.6573630231E+00
    0.7000000000E+07    0.1051970078E-04    0.1664512165E-04    0.6960324729E+00    0.1419324400E-02    0.6601409809E+00
    0.9000000000E+07    0.6390821318E-05    0.1025939891E-04    0.6960325277E+00    0.1105672710E-02    0.6616880746E+00
    0.1100000000E+08    0.4289071529E-05    0.6964170600E-05    0.6960325585E+00    0.9049783387E-03    0.6626735732E+00
    0.1300000000E+08    0.3076390350E-05    0.5041820226E-05    0.6960325767E+00    0.7656105651E-03    0.6633561100E+00
    0.1500000000E+08    0.2314056283E-05    0.3822166111E-05    0.6960325876E+00    0.6632254988E-03    0.6638566872E+00
    0.1700000000E+08    0.1803936808E-05    0.2999532994E-05    0.6960325937E+00    0.5848495996E-03    0.6642394607E+00
    0.1900000000E+08    0.1445952620E-05    0.2418215283E-05    0.6960325969E+00    0.5229378227E-03    0.6645416080E+00
    0.2100000000E+08    0.1185138134E-05    0.1992067360E-05    0.6960325979E+00    0.4728043671E-03    0.6647861575E+00
    0.2300000000E+08    0.9892738425E-06    0.1670263824E-05    0.6960325974E+00    0.4313860665E-03    0.6649881331E+00
    0.2500000000E+08    0.8384618575E-06    0.1421232800E-05    0.6960325959E+00    0.3965963002E-03    0.6651577538E+00
    0.2700000000E+08    0.7198766452E-06    0.1224516152E-05    0.6960325936E+00    0.3669647499E-03    0.6653022114E+00
