  Pressure (Pa) 22mC5-500 (mol/kg) 23mC5-500 (mol/kg) 24mC5-500 (mol/kg) 2mC6-500 (mol/kg) 3mC6-500 (mol/kg)
    0.1000000000E+01    0.6600953220E-05    0.2874508635E-05    0.1266309020E+00    0.5460595870E-04    0.5210628583E-05
    0.3000000000E+01    0.1577057422E-04    0.6877849990E-05    0.2785195044E+00    0.1358872258E-03    0.1562913547E-04
    0.5000000000E+01    0.2261003606E-04    0.9876961996E-05    0.3664251863E+00    0.2025280877E-03    0.2604400849E-04
    0.7000000000E+01    0.2846302654E-04    0.1245375268E-04    0.4237455754E+00    0.2638498226E-03    0.3645526541E-04
    0.9000000000E+01    0.3383372290E-04    0.1482561306E-04    0.4640788245E+00    0.3230197643E-03    0.4686291523E-04
    0.1100000000E+02    0.3894616991E-04    0.1708868660E-04    0.4940023051E+00    0.3812934510E-03    0.5726696370E-04
    0.1300000000E+02    0.4391169523E-04    0.1929049822E-04    0.5170857668E+00    0.4392169780E-03    0.6766741508E-04
    0.1500000000E+02    0.4879016145E-04    0.2145645623E-04    0.5354341242E+00    0.4970405420E-03    0.7806427291E-04
    0.1700000000E+02    0.5361568200E-04    0.2360094726E-04    0.5503689300E+00    0.5548806027E-03    0.8845754029E-04
    0.1900000000E+02    0.5840856376E-04    0.2573247326E-04    0.5627617841E+00    0.6127897582E-03    0.9884722007E-04
    0.2100000000E+02    0.6318129955E-04    0.2785622092E-04    0.5732108136E+00    0.6707890390E-03    0.1092333150E-03
    0.2300000000E+02    0.6794176487E-04    0.2997542772E-04    0.5821401309E+00    0.7288836345E-03    0.1196158275E-03
    0.2500000000E+02    0.7269501020E-04    0.3209214504E-04    0.5898588277E+00    0.7870708535E-03    0.1299947603E-03
    0.2700000000E+02    0.7744430777E-04    0.3420768223E-04    0.5965974931E+00    0.8453442601E-03    0.1403701158E-03
    0.2900000000E+02    0.8219178426E-04    0.3632287387E-04    0.6025316486E+00    0.9036958539E-03    0.1507418964E-03
    0.3100000000E+02    0.8693881448E-04    0.3843824532E-04    0.6077972612E+00    0.9621172196E-03    0.1611101044E-03
    0.3300000000E+02    0.9168627237E-04    0.4055411781E-04    0.6125012916E+00    0.1020600122E-02    0.1714747424E-03
    0.3500000000E+02    0.9643469446E-04    0.4267067648E-04    0.6167290378E+00    0.1079136795E-02    0.1818358125E-03
    0.3700000000E+02    0.1011843882E-03    0.4478801527E-04    0.6205493550E+00    0.1137720075E-02    0.1921933173E-03
    0.3900000000E+02    0.1059355050E-03    0.4690616689E-04    0.6240184359E+00    0.1196343425E-02    0.2025472589E-03
    0.4100000000E+02    0.1106880898E-03    0.4902512316E-04    0.6271825935E+00    0.1255000933E-02    0.2128976398E-03
    0.4300000000E+02    0.1154421154E-03    0.5114484889E-04    0.6300803408E+00    0.1313687269E-02    0.2232444621E-03
    0.4500000000E+02    0.1201975063E-03    0.5326529139E-04    0.6327439671E+00    0.1372397641E-02    0.2335877283E-03
    0.4700000000E+02    0.1249541555E-03    0.5538638715E-04    0.6352007459E+00    0.1431127743E-02    0.2439274407E-03
    0.4900000000E+02    0.1297119356E-03    0.5750806637E-04    0.6374738728E+00    0.1489873707E-02    0.2542636014E-03
    0.1000000000E+02    0.3641360630E-04    0.1596706206E-04    0.4800725017E+00    0.3522246016E-03    0.5206538934E-04
    0.3000000000E+02    0.8456529104E-04    0.3738051320E-04    0.6052407564E+00    0.9328983387E-03    0.1559264468E-03
    0.5000000000E+02    0.1320912068E-03    0.5856910206E-04    0.6385478843E+00    0.1519251536E-02    0.2594303507E-03
    0.7000000000E+02    0.1797013065E-03    0.7980308581E-04    0.6539742007E+00    0.2106962710E-02    0.3625794348E-03
    0.9000000000E+02    0.2272764456E-03    0.1010235421E-03    0.6628718111E+00    0.2693864867E-02    0.4653759637E-03
    0.1100000000E+03    0.2747335750E-03    0.1221922725E-03    0.6686615738E+00    0.3279096605E-02    0.5678221728E-03
    0.1300000000E+03    0.3220242032E-03    0.1432874344E-03    0.6727297565E+00    0.3862262851E-02    0.6699202751E-03
    0.1500000000E+03    0.3691193017E-03    0.1642960998E-03    0.6757448664E+00    0.4443162936E-02    0.7716724631E-03
    0.1700000000E+03    0.4160008321E-03    0.1852102978E-03    0.6780689538E+00    0.5021688355E-02    0.8730809093E-03
    0.1900000000E+03    0.4626572539E-03    0.2060249606E-03    0.6799151648E+00    0.5597778767E-02    0.9741477673E-03
    0.2100000000E+03    0.5090810549E-03    0.2267368075E-03    0.6814171565E+00    0.6171400945E-02    0.1074875171E-02
    0.2300000000E+03    0.5552673267E-03    0.2473437075E-03    0.6826629924E+00    0.6742537856E-02    0.1175265237E-02
    0.2500000000E+03    0.6012129052E-03    0.2678442958E-03    0.6837130560E+00    0.7311182597E-02    0.1275320063E-02
    0.2700000000E+03    0.6469158308E-03    0.2882377354E-03    0.6846101343E+00    0.7877334846E-02    0.1375041727E-02
    0.2900000000E+03    0.6923749973E-03    0.3085235615E-03    0.6853853921E+00    0.8440998691E-02    0.1474432291E-02
    0.3100000000E+03    0.7375899163E-03    0.3287015785E-03    0.6860620676E+00    0.9002181252E-02    0.1573493800E-02
    0.3300000000E+03    0.7825605558E-03    0.3487717886E-03    0.6866578415E+00    0.9560891768E-02    0.1672228278E-02
    0.3500000000E+03    0.8272872250E-03    0.3687343421E-03    0.6871864051E+00    0.1011714099E-01    0.1770637736E-02
    0.3700000000E+03    0.8717704929E-03    0.3885895015E-03    0.6876585250E+00    0.1067094075E-01    0.1868724164E-02
    0.3900000000E+03    0.9160111276E-03    0.4083376150E-03    0.6880827848E+00    0.1122230369E-01    0.1966489538E-02
    0.4100000000E+03    0.9600100518E-03    0.4279790974E-03    0.6884661115E+00    0.1177124299E-01    0.2063935817E-02
    0.4300000000E+03    0.1003768309E-02    0.4475144151E-03    0.6888141569E+00    0.1231777227E-01    0.2161064940E-02
    0.4500000000E+03    0.1047287036E-02    0.4669440752E-03    0.6891315779E+00    0.1286190544E-01    0.2257878834E-02
    0.4700000000E+03    0.1090567445E-02    0.4862686165E-03    0.6894222466E+00    0.1340365663E-01    0.2354379407E-02
    0.4900000000E+03    0.1133610807E-02    0.5054886026E-03    0.6896894084E+00    0.1394304010E-01    0.2450568553E-02
    0.1000000000E+03    0.2510233877E-03    0.1116160131E-03    0.6660436608E+00    0.2986720677E-02    0.5166427194E-03
    0.3000000000E+03    0.7150129989E-03    0.3186260499E-03    0.6857348387E+00    0.8721899596E-02    0.1524004050E-02
    0.5000000000E+03    0.1155044006E-02    0.5150595692E-03    0.6898150478E+00    0.1421184842E-01    0.2498546928E-02
    0.7000000000E+03    0.1571600871E-02    0.7011390709E-03    0.6915789603E+00    0.1946723247E-01    0.3442215136E-02
    0.9000000000E+03    0.1966078016E-02    0.8774798687E-03    0.6925629645E+00    0.2450219057E-01    0.4356795968E-02
    0.1100000000E+04    0.2339889188E-02    0.1044703742E-02    0.6931906882E+00    0.2933016069E-01    0.5243935935E-02
    0.1300000000E+04    0.2694368294E-02    0.1203396785E-02    0.6936259818E+00    0.3396360657E-01    0.6105154555E-02
    0.1500000000E+04    0.3030753879E-02    0.1354103015E-02    0.6939455769E+00    0.3841404222E-01    0.6941856551E-02
    0.1700000000E+04    0.3350190739E-02    0.1497325239E-02    0.6941901945E+00    0.4269210258E-01    0.7755342643E-02
    0.1900000000E+04    0.3653735902E-02    0.1633527737E-02    0.6943834521E+00    0.4680761923E-01    0.8546819153E-02
    0.2100000000E+04    0.3942365581E-02    0.1763139342E-02    0.6945399901E+00    0.5076969203E-01    0.9317406538E-02
    0.2300000000E+04    0.4216982042E-02    0.1886556465E-02    0.6946693672E+00    0.5458675469E-01    0.1006814703E-01
    0.2500000000E+04    0.4478420043E-02    0.2004145923E-02    0.6947780891E+00    0.5826663391E-01    0.1080001143E-01
    0.2700000000E+04    0.4727452743E-02    0.2116247526E-02    0.6948707372E+00    0.6181660266E-01    0.1151390527E-01
    0.2900000000E+04    0.4964797066E-02    0.2223176437E-02    0.6949506314E+00    0.6524342813E-01    0.1221067426E-01
    0.3100000000E+04    0.5191118561E-02    0.2325225294E-02    0.6950202360E+00    0.6855341478E-01    0.1289110924E-01
    0.3300000000E+04    0.5407035784E-02    0.2422666131E-02    0.6950814190E+00    0.7175244316E-01    0.1355595065E-01
    0.3500000000E+04    0.5613124267E-02    0.2515752120E-02    0.6951356218E+00    0.7484600492E-01    0.1420589255E-01
    0.3700000000E+04    0.5809920094E-02    0.2604719132E-02    0.6951839748E+00    0.7783923440E-01    0.1484158625E-01
    0.3900000000E+04    0.5997923139E-02    0.2689787160E-02    0.6952273766E+00    0.8073693721E-01    0.1546364364E-01
    0.4100000000E+04    0.6177599999E-02    0.2771161598E-02    0.6952665508E+00    0.8354361610E-01    0.1607264014E-01
    0.4300000000E+04    0.6349386647E-02    0.2849034406E-02    0.6953020866E+00    0.8626349448E-01    0.1666911748E-01
    0.4500000000E+04    0.6513690841E-02    0.2923585167E-02    0.6953344685E+00    0.8890053772E-01    0.1725358615E-01
    0.4700000000E+04    0.6670894319E-02    0.2994982043E-02    0.6953640987E+00    0.9145847260E-01    0.1782652766E-01
    0.4900000000E+04    0.6821354784E-02    0.3063382648E-02    0.6953913135E+00    0.9394080496E-01    0.1838839662E-01
    0.1000000000E+04    0.2155481286E-02    0.9621938189E-03    0.6929080627E+00    0.2694124718E-01    0.4803698264E-02
    0.3000000000E+04    0.5079295954E-02    0.2274793408E-02    0.6949865915E+00    0.6691264926E-01    0.1255288609E-01
    0.5000000000E+04    0.6894162048E-02    0.3096505917E-02    0.6954041057E+00    0.9515465936E-01    0.1866531408E-01
    0.7000000000E+04    0.8067575548E-02    0.3633099050E-02    0.6955832834E+00    0.1161700555E+00    0.2371514472E-01
    0.9000000000E+04    0.8844549297E-02    0.3992689112E-02    0.6956829069E+00    0.1324146481E+00    0.2802727937E-01
    0.1100000000E+05    0.9364172002E-02    0.4236822187E-02    0.6957463410E+00    0.1453421494E+00    0.3180092741E-01
    0.1300000000E+05    0.9710354995E-02    0.4402738785E-02    0.6957902775E+00    0.1558683980E+00    0.3516590599E-01
    0.1500000000E+05    0.9936192262E-02    0.4514076448E-02    0.6958225105E+00    0.1645993561E+00    0.3821096398E-01
    0.1700000000E+05    0.1007658845E-01    0.4586426312E-02    0.6958471679E+00    0.1719521497E+00    0.4099916685E-01
    0.1900000000E+05    0.1015522002E-01    0.4630401112E-02    0.6958666404E+00    0.1782234508E+00    0.4357678112E-01
    0.2100000000E+05    0.1018857032E-01    0.4653416594E-02    0.6958824084E+00    0.1836301253E+00    0.4597866863E-01
    0.2300000000E+05    0.1018836850E-01    0.4660770204E-02    0.6958954376E+00    0.1883344443E+00    0.4823170148E-01
    0.2500000000E+05    0.1016311691E-01    0.4656317863E-02    0.6959063849E+00    0.1924602946E+00    0.5035700207E-01
    0.2700000000E+05    0.1011907707E-01    0.4642911708E-02    0.6959157125E+00    0.1961039279E+00    0.5237145777E-01
    0.2900000000E+05    0.1006092315E-01    0.4622690789E-02    0.6959237554E+00    0.1993412838E+00    0.5428877260E-01
    0.3100000000E+05    0.9992185119E-02    0.4597278633E-02    0.6959307619E+00    0.2022330973E+00    0.5612021460E-01
    0.3300000000E+05    0.9915555504E-02    0.4567920267E-02    0.6959369205E+00    0.2048285357E+00    0.5787515785E-01
    0.3500000000E+05    0.9833105480E-02    0.4535578990E-02    0.6959423762E+00    0.2071678370E+00    0.5956148295E-01
    0.3700000000E+05    0.9746439654E-02    0.4501005825E-02    0.6959472431E+00    0.2092842565E+00    0.6118587759E-01
    0.3900000000E+05    0.9656808486E-02    0.4464790102E-02    0.6959516116E+00    0.2112055235E+00    0.6275406572E-01
    0.4100000000E+05    0.9565191039E-02    0.4427396766E-02    0.6959555546E+00    0.2129549479E+00    0.6427098441E-01
    0.4300000000E+05    0.9472356600E-02    0.4389194245E-02    0.6959591315E+00    0.2145522697E+00    0.6574092219E-01
    0.4500000000E+05    0.9378911053E-02    0.4350475471E-02    0.6959623909E+00    0.2160143198E+00    0.6716762835E-01
    0.4700000000E+05    0.9285332138E-02    0.4311473907E-02    0.6959653734E+00    0.2173555388E+00    0.6855440019E-01
    0.4900000000E+05    0.9191996472E-02    0.4272375866E-02    0.6959681129E+00    0.2185883877E+00    0.6990415343E-01
    0.1000000000E+05    0.9130356722E-02    0.4126450814E-02    0.6957177916E+00    0.1392265797E+00    0.2997209252E-01
    0.3000000000E+05    0.1002769213E-01    0.4610548223E-02    0.6959273752E+00    0.2008270742E+00    0.5521460270E-01
    0.5000000000E+05    0.9145515145E-02    0.4252838396E-02    0.6959694006E+00    0.2191676087E+00    0.7056596919E-01
    0.7000000000E+05    0.8273173097E-02    0.3880123827E-02    0.6959874404E+00    0.2270600234E+00    0.8235994910E-01
    0.9000000000E+05    0.7537329475E-02    0.3559371674E-02    0.6959974755E+00    0.2308456467E+00    0.9223109403E-01
    0.1100000000E+06    0.6924801431E-02    0.3289024565E-02    0.6960038685E+00    0.2326228064E+00    0.1008625259E+00
    0.1300000000E+06    0.6410192261E-02    0.3059801047E-02    0.6960082988E+00    0.2332868396E+00    0.1086116238E+00
    0.1500000000E+06    0.5972153284E-02    0.2863247465E-02    0.6960115505E+00    0.2332826460E+00    0.1156918248E+00
    0.1700000000E+06    0.5594498203E-02    0.2692743234E-02    0.6960140392E+00    0.2328550830E+00    0.1222422798E+00
    0.1900000000E+06    0.5265139091E-02    0.2543250694E-02    0.6960160055E+00    0.2321491633E+00    0.1283595483E+00
    0.2100000000E+06    0.4974983080E-02    0.2410931684E-02    0.6960175984E+00    0.2312556266E+00    0.1341138347E+00
    0.2300000000E+06    0.4717095892E-02    0.2292831016E-02    0.6960189151E+00    0.2302337233E+00    0.1395580628E+00
    0.2500000000E+06    0.4486108794E-02    0.2186643144E-02    0.6960200219E+00    0.2291234696E+00    0.1447332995E+00
    0.2700000000E+06    0.4277803216E-02    0.2090544915E-02    0.6960209653E+00    0.2279526340E+00    0.1496721718E+00
    0.2900000000E+06    0.4088818202E-02    0.2003075895E-02    0.6960217790E+00    0.2267409140E+00    0.1544011151E+00
    0.3100000000E+06    0.3916441841E-02    0.1923052067E-02    0.6960224882E+00    0.2255025343E+00    0.1589419065E+00
    0.3300000000E+06    0.3758460462E-02    0.1849502847E-02    0.6960231117E+00    0.2242479165E+00    0.1633127421E+00
    0.3500000000E+06    0.3613047970E-02    0.1781624522E-02    0.6960236643E+00    0.2229847852E+00    0.1675290136E+00
    0.3700000000E+06    0.3478683500E-02    0.1718745388E-02    0.6960241573E+00    0.2217189168E+00    0.1716038810E+00
    0.3900000000E+06    0.3354089291E-02    0.1660299302E-02    0.6960246000E+00    0.2204546590E+00    0.1755487034E+00
    0.4100000000E+06    0.3238183241E-02    0.1605805386E-02    0.6960249997E+00    0.2191952980E+00    0.1793733676E+00
    0.4300000000E+06    0.3130042230E-02    0.1554852280E-02    0.6960253624E+00    0.2179433210E+00    0.1830865444E+00
    0.4500000000E+06    0.3028873467E-02    0.1507085785E-02    0.6960256930E+00    0.2167006089E+00    0.1866958891E+00
    0.4700000000E+06    0.2933991870E-02    0.1462199074E-02    0.6960259955E+00    0.2154685774E+00    0.1902082022E+00
    0.4900000000E+06    0.2844802052E-02    0.1419924878E-02    0.6960262735E+00    0.2142482831E+00    0.1936295580E+00
    0.1000000000E+06    0.7217281180E-02    0.3418464522E-02    0.6960009908E+00    0.2319139671E+00    0.9667480004E-01
    0.3000000000E+06    0.4000702513E-02    0.1962198383E-02    0.6960221454E+00    0.2261243312E+00    0.1566938189E+00
    0.5000000000E+06    0.2802176404E-02    0.1399693190E-02    0.6960264042E+00    0.2136427895E+00    0.1953078530E+00
    0.7000000000E+06    0.2151101751E-02    0.1088240163E-02    0.6960282371E+00    0.2022459142E+00    0.2251744369E+00
    0.9000000000E+06    0.1736181660E-02    0.8870545802E-03    0.6960292586E+00    0.1921719389E+00    0.2498547391E+00
    0.1100000000E+07    0.1447026626E-02    0.7453548578E-03    0.6960299103E+00    0.1832296296E+00    0.2709821420E+00
    0.1300000000E+07    0.1233564284E-02    0.6398256055E-03    0.6960303625E+00    0.1752236081E+00    0.2894756108E+00
    0.1500000000E+07    0.1069479679E-02    0.5580949760E-03    0.6960306946E+00    0.1679963270E+00    0.3059164118E+00
    0.1700000000E+07    0.9395049472E-03    0.4929264657E-03    0.6960309490E+00    0.1614246527E+00    0.3207014665E+00
    0.1900000000E+07    0.8341260388E-03    0.4397788592E-03    0.6960311501E+00    0.1554118533E+00    0.3341168624E+00
    0.2100000000E+07    0.7470848194E-03    0.3956463179E-03    0.6960313130E+00    0.1498809017E+00    0.3463772456E+00
    0.2300000000E+07    0.6740862867E-03    0.3584542498E-03    0.6960314477E+00    0.1447695450E+00    0.3576487220E+00
    0.2500000000E+07    0.6120800608E-03    0.3267216439E-03    0.6960315609E+00    0.1400267580E+00    0.3680630296E+00
    0.2700000000E+07    0.5588376983E-03    0.2993614108E-03    0.6960316574E+00    0.1356101824E+00    0.3777267533E+00
    0.2900000000E+07    0.5126922154E-03    0.2755567691E-03    0.6960317406E+00    0.1314842533E+00    0.3867275622E+00
    0.3100000000E+07    0.4723712414E-03    0.2546817216E-03    0.6960318131E+00    0.1276188076E+00    0.3951385732E+00
    0.3300000000E+07    0.4368865869E-03    0.2362482085E-03    0.6960318768E+00    0.1239880335E+00    0.4030214925E+00
    0.3500000000E+07    0.4054590697E-03    0.2198699971E-03    0.6960319333E+00    0.1205696661E+00    0.4104289295E+00
    0.3700000000E+07    0.3774660785E-03    0.2052374030E-03    0.6960319836E+00    0.1173443626E+00    0.4174061385E+00
    0.3900000000E+07    0.3524042075E-03    0.1920992172E-03    0.6960320288E+00    0.1142952107E+00    0.4239923524E+00
    0.4100000000E+07    0.3298621239E-03    0.1802495391E-03    0.6960320695E+00    0.1114073376E+00    0.4302218202E+00
    0.4300000000E+07    0.3095005311E-03    0.1695180242E-03    0.6960321064E+00    0.1086675947E+00    0.4361246257E+00
    0.4500000000E+07    0.2910371482E-03    0.1597625521E-03    0.6960321401E+00    0.1060643024E+00    0.4417273416E+00
    0.4700000000E+07    0.2742352973E-03    0.1508636386E-03    0.6960321708E+00    0.1035870400E+00    0.4470535577E+00
    0.4900000000E+07    0.2588951231E-03    0.1427201270E-03    0.6960321991E+00    0.1012264731E+00    0.4521243117E+00
    0.1000000000E+07    0.1579809527E-02    0.8105917836E-03    0.6960296169E+00    0.1875723612E+00    0.2607944858E+00
    0.3000000000E+07    0.4918710712E-03    0.2647862953E-03    0.6960317781E+00    0.1295206748E+00    0.3910026988E+00
    0.5000000000E+07    0.2517190661E-03    0.1389042040E-03    0.6960322123E+00    0.1000872943E+00    0.4545698553E+00
    0.7000000000E+07    0.1546165493E-03    0.8679453673E-04    0.6960323972E+00    0.8177809752E-01    0.4937542267E+00
    0.9000000000E+07    0.1050144695E-03    0.5973182702E-04    0.6960324986E+00    0.6919033676E-01    0.5205831631E+00
    0.1100000000E+08    0.7610392424E-04    0.4375439886E-04    0.6960325620E+00    0.5997723198E-01    0.5401736406E+00
    0.1300000000E+08    0.5773105450E-04    0.3349316092E-04    0.6960326048E+00    0.5293281558E-01    0.5551302209E+00
    0.1500000000E+08    0.4531204482E-04    0.2649494669E-04    0.6960326354E+00    0.4736840405E-01    0.5669322081E+00
    0.1700000000E+08    0.3651836324E-04    0.2150105630E-04    0.6960326581E+00    0.4286044058E-01    0.5764862391E+00
    0.1900000000E+08    0.3006118792E-04    0.1780882766E-04    0.6960326755E+00    0.3913351681E-01    0.5843804098E+00
    0.2100000000E+08    0.2517881017E-04    0.1499986265E-04    0.6960326889E+00    0.3600057080E-01    0.5910134591E+00
    0.2300000000E+08    0.2139703116E-04    0.1281195261E-04    0.6960326996E+00    0.3332998852E-01    0.5966655562E+00
    0.2500000000E+08    0.1840787863E-04    0.1107378263E-04    0.6960327081E+00    0.3102642874E-01    0.6015394421E+00
    0.2700000000E+08    0.1600417465E-04    0.9669478102E-05    0.6960327150E+00    0.2901910894E-01    0.6057855063E+00
