  Pressure (Pa) 22mC5-500 (mol/kg) 23mC5-500 (mol/kg) 24mC5-500 (mol/kg) 2mC6-500 (mol/kg) 3mC6-500 (mol/kg)
    0.1000000000E+01    0.6172917421E-05    0.2689023479E-05    0.1741103107E+00    0.4126507433E-04    0.5210694509E-05
    0.3000000000E+01    0.1401813710E-04    0.6121152619E-05    0.3481353764E+00    0.9952161969E-04    0.1562974969E-04
    0.5000000000E+01    0.1989936471E-04    0.8710145304E-05    0.4351198983E+00    0.1487292111E-03    0.2604573795E-04
    0.7000000000E+01    0.2513551418E-04    0.1102536132E-04    0.4873034002E+00    0.1957042165E-03    0.3645867783E-04
    0.9000000000E+01    0.3011154681E-04    0.1323175059E-04    0.5220900911E+00    0.2421111757E-03    0.4686857716E-04
    0.1100000000E+02    0.3497100197E-04    0.1539029882E-04    0.5469369121E+00    0.2884448969E-03    0.5727544044E-04
    0.1300000000E+02    0.3977572670E-04    0.1752702373E-04    0.5655717427E+00    0.3348603427E-03    0.6767927087E-04
    0.1500000000E+02    0.4455494041E-04    0.1965406982E-04    0.5800654194E+00    0.3813997045E-03    0.7808007101E-04
    0.1700000000E+02    0.4932328206E-04    0.2177742832E-04    0.5916603626E+00    0.4280655424E-03    0.8847784311E-04
    0.1900000000E+02    0.5408833212E-04    0.2390013727E-04    0.6011471684E+00    0.4748468510E-03    0.9887258920E-04
    0.2100000000E+02    0.5885404912E-04    0.2602373463E-04    0.6090528846E+00    0.5217288775E-03    0.1092643112E-03
    0.2300000000E+02    0.6362245317E-04    0.2814896543E-04    0.6157423833E+00    0.5686968520E-03    0.1196530110E-03
    0.2500000000E+02    0.6839449663E-04    0.3027614475E-04    0.6214762834E+00    0.6157373144E-03    0.1300386903E-03
    0.2700000000E+02    0.7317053394E-04    0.3240535175E-04    0.6264457039E+00    0.6628384741E-03    0.1404213509E-03
    0.2900000000E+02    0.7795058366E-04    0.3453653691E-04    0.6307939830E+00    0.7099901845E-03    0.1508009946E-03
    0.3100000000E+02    0.8273447831E-04    0.3666958253E-04    0.6346307320E+00    0.7571837801E-03    0.1611776230E-03
    0.3300000000E+02    0.8752195157E-04    0.3880433737E-04    0.6380412042E+00    0.8044118763E-03    0.1715512378E-03
    0.3500000000E+02    0.9231268959E-04    0.4094063673E-04    0.6410927046E+00    0.8516681760E-03    0.1819218408E-03
    0.3700000000E+02    0.9710636123E-04    0.4307831385E-04    0.6438390774E+00    0.8989472974E-03    0.1922894336E-03
    0.3900000000E+02    0.1019026357E-03    0.4521720639E-04    0.6463239107E+00    0.9462446262E-03    0.2026540178E-03
    0.4100000000E+02    0.1067011926E-03    0.4735715988E-04    0.6485828678E+00    0.9935561917E-03    0.2130155950E-03
    0.4300000000E+02    0.1115017275E-03    0.4949802941E-04    0.6506454097E+00    0.1040878563E-02    0.2233741671E-03
    0.4500000000E+02    0.1163039543E-03    0.5163968020E-04    0.6525360873E+00    0.1088208766E-02    0.2337297355E-03
    0.4700000000E+02    0.1211076064E-03    0.5378198766E-04    0.6542755234E+00    0.1135544210E-02    0.2440823020E-03
    0.4900000000E+02    0.1259124367E-03    0.5592483697E-04    0.6558811681E+00    0.1182882629E-02    0.2544318681E-03
    0.1000000000E+02    0.3255087921E-04    0.1431490901E-04    0.5354692157E+00    0.2652734153E-03    0.5207238809E-04
    0.3000000000E+02    0.8034206543E-04    0.3560283612E-04    0.6327704860E+00    0.7335822359E-03    0.1559896856E-03
    0.5000000000E+02    0.1283152214E-03    0.5699643147E-04    0.6566385517E+00    0.1206552324E-02    0.2596055265E-03
    0.7000000000E+02    0.1763861092E-03    0.7843539778E-04    0.6674290007E+00    0.1679729367E-02    0.3629215758E-03
    0.9000000000E+02    0.2244025432E-03    0.9985020952E-04    0.6735787429E+00    0.2151930144E-02    0.4659394511E-03
    0.1100000000E+03    0.2722931467E-03    0.1212090393E-03    0.6775517687E+00    0.2622743087E-02    0.5686607520E-03
    0.1300000000E+03    0.3200213417E-03    0.1424957672E-03    0.6803300090E+00    0.3091992391E-02    0.6710870638E-03
    0.1500000000E+03    0.3675667242E-03    0.1637014721E-03    0.6823819829E+00    0.3559593531E-02    0.7732199592E-03
    0.1700000000E+03    0.4149172103E-03    0.1848209048E-03    0.6839595608E+00    0.4025503367E-02    0.8750609990E-03
    0.1900000000E+03    0.4620653655E-03    0.2058508549E-03    0.6852102148E+00    0.4489699736E-02    0.9766117321E-03
    0.2100000000E+03    0.5090065292E-03    0.2267893223E-03    0.6862260306E+00    0.4952172024E-02    0.1077873696E-02
    0.2300000000E+03    0.5557377842E-03    0.2476350650E-03    0.6870674776E+00    0.5412916393E-02    0.1178848416E-02
    0.2500000000E+03    0.6022573564E-03    0.2683873360E-03    0.6877759056E+00    0.5871933183E-02    0.1279537407E-02
    0.2700000000E+03    0.6485642482E-03    0.2890457237E-03    0.6883805474E+00    0.6329225416E-02    0.1379942173E-02
    0.2900000000E+03    0.6946580041E-03    0.3096100500E-03    0.6889026549E+00    0.6784797887E-02    0.1480064206E-02
    0.3100000000E+03    0.7405385569E-03    0.3300803035E-03    0.6893580481E+00    0.7238656601E-02    0.1579904989E-02
    0.3300000000E+03    0.7862061231E-03    0.3504565945E-03    0.6897587468E+00    0.7690808393E-02    0.1679465991E-02
    0.3500000000E+03    0.8316611298E-03    0.3707391234E-03    0.6901140468E+00    0.8141260688E-02    0.1778748674E-02
    0.3700000000E+03    0.8769041630E-03    0.3909281583E-03    0.6904312503E+00    0.8590021323E-02    0.1877754486E-02
    0.3900000000E+03    0.9219359294E-03    0.4110240187E-03    0.6907161731E+00    0.9037098435E-02    0.1976484868E-02
    0.4100000000E+03    0.9667572293E-03    0.4310270640E-03    0.6909735045E+00    0.9482500366E-02    0.2074941247E-02
    0.4300000000E+03    0.1011368935E-02    0.4509376838E-03    0.6912070676E+00    0.9926235609E-02    0.2173125043E-02
    0.4500000000E+03    0.1055771975E-02    0.4707562918E-03    0.6914200101E+00    0.1036831276E-01    0.2271037664E-02
    0.4700000000E+03    0.1099967322E-02    0.4904833200E-03    0.6916149476E+00    0.1080874047E-01    0.2368680507E-02
    0.4900000000E+03    0.1143955983E-02    0.5101192151E-03    0.6917940712E+00    0.1124752744E-01    0.2466054962E-02
    0.1000000000E+03    0.2483663785E-03    0.1105378614E-03    0.6757581005E+00    0.2387524168E-02    0.5173370740E-03
    0.3000000000E+03    0.7176249230E-03    0.3198569314E-03    0.6891378652E+00    0.7011941053E-02    0.1530019662E-02
    0.5000000000E+03    0.1165873129E-02    0.5199031304E-03    0.6918782923E+00    0.1146630837E-01    0.2514641975E-02
    0.7000000000E+03    0.1593626907E-02    0.7109126373E-03    0.6930596129E+00    0.1575791696E-01    0.3472623738E-02
    0.9000000000E+03    0.2001961406E-02    0.8933597096E-03    0.6937177209E+00    0.1989530689E-01    0.4405286759E-02
    0.1100000000E+04    0.2391955578E-02    0.1067718699E-02    0.6941372082E+00    0.2388659502E-01    0.5313863383E-02
    0.1300000000E+04    0.2764633293E-02    0.1234439313E-02    0.6944279445E+00    0.2773937633E-01    0.6199504044E-02
    0.1500000000E+04    0.3120954122E-02    0.1393942887E-02    0.6946413225E+00    0.3146074054E-01    0.7063284058E-02
    0.1700000000E+04    0.3461814225E-02    0.1546622882E-02    0.6948045940E+00    0.3505730615E-01    0.7906209746E-02
    0.1900000000E+04    0.3788049856E-02    0.1692846474E-02    0.6949335554E+00    0.3853525637E-01    0.8729223955E-02
    0.2100000000E+04    0.4100441497E-02    0.1832956380E-02    0.6950379943E+00    0.4190037317E-01    0.9533211070E-02
    0.2300000000E+04    0.4399718003E-02    0.1967272686E-02    0.6951242987E+00    0.4515806877E-01    0.1031900154E-01
    0.2500000000E+04    0.4686560535E-02    0.2096094580E-02    0.6951968151E+00    0.4831341448E-01    0.1108737598E-01
    0.2700000000E+04    0.4961606220E-02    0.2219701949E-02    0.6952586035E+00    0.5137116693E-01    0.1183906893E-01
    0.2900000000E+04    0.5225451529E-02    0.2338356867E-02    0.6953118810E+00    0.5433579207E-01    0.1257477228E-01
    0.3100000000E+04    0.5478655356E-02    0.2452304938E-02    0.6953582930E+00    0.5721148692E-01    0.1329513830E-01
    0.3300000000E+04    0.5721741859E-02    0.2561776545E-02    0.6953990863E+00    0.6000219953E-01    0.1400078257E-01
    0.3500000000E+04    0.5955203039E-02    0.2666987976E-02    0.6954352232E+00    0.6271164714E-01    0.1469228652E-01
    0.3700000000E+04    0.6179501110E-02    0.2768142463E-02    0.6954674581E+00    0.6534333276E-01    0.1537019979E-01
    0.3900000000E+04    0.6395070665E-02    0.2865431128E-02    0.6954963906E+00    0.6790056042E-01    0.1603504247E-01
    0.4100000000E+04    0.6602320660E-02    0.2959033857E-02    0.6955225036E+00    0.7038644906E-01    0.1668730704E-01
    0.4300000000E+04    0.6801636233E-02    0.3049120089E-02    0.6955461902E+00    0.7280394533E-01    0.1732746026E-01
    0.4500000000E+04    0.6993380368E-02    0.3135849551E-02    0.6955677736E+00    0.7515583531E-01    0.1795594480E-01
    0.4700000000E+04    0.7177895436E-02    0.3219372928E-02    0.6955875221E+00    0.7744475532E-01    0.1857318086E-01
    0.4900000000E+04    0.7355504597E-02    0.3299832480E-02    0.6956056601E+00    0.7967320183E-01    0.1917956758E-01
    0.1000000000E+04    0.2199185559E-02    0.9815214519E-03    0.6939483715E+00    0.2190872679E-01    0.4862512132E-02
    0.3000000000E+04    0.5353350085E-02    0.2395904516E-02    0.6953358595E+00    0.5578450341E-01    0.1293683315E-01
    0.5000000000E+04    0.7441815518E-02    0.3338955614E-02    0.6956141856E+00    0.8076549170E-01    0.1947881173E-01
    0.7000000000E+04    0.8871276666E-02    0.3989554063E-02    0.6957335838E+00    0.9995014055E-01    0.2497704636E-01
    0.9000000000E+04    0.9871162930E-02    0.4448820084E-02    0.6957999554E+00    0.1151448237E+00    0.2972544141E-01
    0.1100000000E+05    0.1057946210E-01    0.4777708089E-02    0.6958422104E+00    0.1274739687E+00    0.3391250792E-01
    0.1300000000E+05    0.1108344062E-01    0.5014859000E-02    0.6958714744E+00    0.1376743662E+00    0.3766538432E-01
    0.1500000000E+05    0.1144055608E-01    0.5185778642E-02    0.6958929412E+00    0.1462491574E+00    0.4107335173E-01
    0.1700000000E+05    0.1168990777E-01    0.5307869300E-02    0.6959093614E+00    0.1535537975E+00    0.4420122337E-01
    0.1900000000E+05    0.1185884273E-01    0.5393336265E-02    0.6959223279E+00    0.1598466464E+00    0.4709737567E-01
    0.2100000000E+05    0.1196693630E-01    0.5450941547E-02    0.6959328270E+00    0.1653200810E+00    0.4979877840E-01
    0.2300000000E+05    0.1202848031E-01    0.5487101629E-02    0.6959415019E+00    0.1701203530E+00    0.5233426272E-01
    0.2500000000E+05    0.1205408806E-01    0.5506596608E-02    0.6959487903E+00    0.1743606727E+00    0.5472671205E-01
    0.2700000000E+05    0.1205175812E-01    0.5513040944E-02    0.6959550001E+00    0.1781300731E+00    0.5699457132E-01
    0.2900000000E+05    0.1202759645E-01    0.5509203506E-02    0.6959603544E+00    0.1814995594E+00    0.5915291171E-01
    0.3100000000E+05    0.1198631690E-01    0.5497229766E-02    0.6959650185E+00    0.1845264704E+00    0.6121419775E-01
    0.3300000000E+05    0.1193159469E-01    0.5478798975E-02    0.6959691179E+00    0.1872576283E+00    0.6318885046E-01
    0.3500000000E+05    0.1186632018E-01    0.5455237211E-02    0.6959727495E+00    0.1897316546E+00    0.6508566769E-01
    0.3700000000E+05    0.1179278382E-01    0.5427599913E-02    0.6959759889E+00    0.1919806978E+00    0.6691214270E-01
    0.3900000000E+05    0.1171281279E-01    0.5396732971E-02    0.6959788964E+00    0.1940317411E+00    0.6867470887E-01
    0.4100000000E+05    0.1162787318E-01    0.5363318481E-02    0.6959815207E+00    0.1959076047E+00    0.7037893007E-01
    0.4300000000E+05    0.1153914721E-01    0.5327909421E-02    0.6959839012E+00    0.1976277221E+00    0.7202965042E-01
    0.4500000000E+05    0.1144759228E-01    0.5290956189E-02    0.6959860704E+00    0.1992087494E+00    0.7363111333E-01
    0.4700000000E+05    0.1135398645E-01    0.5252827109E-02    0.6959880552E+00    0.2006650460E+00    0.7518705709E-01
    0.4900000000E+05    0.1125896383E-01    0.5213824406E-02    0.6959898782E+00    0.2020090598E+00    0.7670079219E-01
    0.1000000000E+05    0.1025542563E-01    0.4626758289E-02    0.6958231936E+00    0.1216147058E+00    0.3188009789E-01
    0.3000000000E+05    0.1200884574E-01    0.5504119295E-02    0.6959627641E+00    0.1830526945E+00    0.6019499282E-01
    0.5000000000E+05    0.1121108697E-01    0.5194074964E-02    0.6959907351E+00    0.2026424052E+00    0.7744276485E-01
    0.7000000000E+05    0.1026364647E-01    0.4794446522E-02    0.6960027382E+00    0.2114325209E+00    0.9063699646E-01
    0.9000000000E+05    0.9416558846E-02    0.4428320142E-02    0.6960094135E+00    0.2158423460E+00    0.1016391479E+00
    0.1100000000E+06    0.8689431508E-02    0.4109591367E-02    0.6960136651E+00    0.2180630139E+00    0.1112304145E+00
    0.1300000000E+06    0.8066556846E-02    0.3833817460E-02    0.6960166109E+00    0.2190488539E+00    0.1198193362E+00
    0.1500000000E+06    0.7529157173E-02    0.3594014427E-02    0.6960187727E+00    0.2192816258E+00    0.1276495536E+00
    0.1700000000E+06    0.7061216978E-02    0.3383845031E-02    0.6960204269E+00    0.2190299943E+00    0.1348796548E+00
    0.1900000000E+06    0.6650012951E-02    0.3198125145E-02    0.6960217336E+00    0.2184549324E+00    0.1416195215E+00
    0.2100000000E+06    0.6285592385E-02    0.3032726121E-02    0.6960227921E+00    0.2176582442E+00    0.1479489384E+00
    0.2300000000E+06    0.5960154293E-02    0.2884370922E-02    0.6960236669E+00    0.2167070758E+00    0.1539279829E+00
    0.2500000000E+06    0.5667533838E-02    0.2750444892E-02    0.6960244022E+00    0.2156472180E+00    0.1596032271E+00
    0.2700000000E+06    0.5402808731E-02    0.2628844233E-02    0.6960250288E+00    0.2145107526E+00    0.1650116418E+00
    0.2900000000E+06    0.5162006393E-02    0.2517860100E-02    0.6960255692E+00    0.2133206579E+00    0.1701831612E+00
    0.3100000000E+06    0.4941887033E-02    0.2416091151E-02    0.6960260401E+00    0.2120936925E+00    0.1751424305E+00
    0.3300000000E+06    0.4739782222E-02    0.2322377580E-02    0.6960264541E+00    0.2108422630E+00    0.1799100321E+00
    0.3500000000E+06    0.4553473768E-02    0.2235751104E-02    0.6960268209E+00    0.2095756662E+00    0.1845033698E+00
    0.3700000000E+06    0.4381101933E-02    0.2155396744E-02    0.6960271482E+00    0.2083009376E+00    0.1889373190E+00
    0.3900000000E+06    0.4221095150E-02    0.2080623352E-02    0.6960274421E+00    0.2070234424E+00    0.1932247159E+00
    0.4100000000E+06    0.4072115666E-02    0.2010840678E-02    0.6960277073E+00    0.2057472952E+00    0.1973767312E+00
    0.4300000000E+06    0.3933017064E-02    0.1945541360E-02    0.6960279480E+00    0.2044756632E+00    0.2014031597E+00
    0.4500000000E+06    0.3802810765E-02    0.1884286647E-02    0.6960281673E+00    0.2032109883E+00    0.2053126485E+00
    0.4700000000E+06    0.3680639374E-02    0.1826695001E-02    0.6960283681E+00    0.2019551521E+00    0.2091128781E+00
    0.4900000000E+06    0.3565755279E-02    0.1772432903E-02    0.6960285525E+00    0.2007095997E+00    0.2128107090E+00
    0.1000000000E+06    0.9038762133E-02    0.4263172767E-02    0.6960117514E+00    0.2171506610E+00    0.1065802949E+00
    0.3000000000E+06    0.5049539923E-02    0.2465901224E-02    0.6960258125E+00    0.2127109235E+00    0.1726879572E+00
    0.5000000000E+06    0.3510838032E-02    0.1746457476E-02    0.6960286392E+00    0.2000910360E+00    0.2146231742E+00
    0.7000000000E+06    0.2671853112E-02    0.1346422522E-02    0.6960298545E+00    0.1884124604E+00    0.2467117474E+00
    0.9000000000E+06    0.2138379575E-02    0.1088508518E-02    0.6960305311E+00    0.1780835799E+00    0.2729767145E+00
    0.1100000000E+07    0.1768202357E-02    0.9075874349E-03    0.6960309625E+00    0.1689432211E+00    0.2952649495E+00
    0.1300000000E+07    0.1496325013E-02    0.7735101522E-03    0.6960312615E+00    0.1607965154E+00    0.3146165836E+00
    0.1500000000E+07    0.1288472024E-02    0.6702154711E-03    0.6960314810E+00    0.1534793733E+00    0.3316898695E+00
    0.1700000000E+07    0.1124732683E-02    0.5882936642E-03    0.6960316489E+00    0.1468609688E+00    0.3469342411E+00
    0.1900000000E+07    0.9927015632E-03    0.5218385537E-03    0.6960317816E+00    0.1408374051E+00    0.3606733780E+00
    0.2100000000E+07    0.8842271026E-03    0.4669437446E-03    0.6960318890E+00    0.1353254366E+00    0.3731497896E+00
    0.2300000000E+07    0.7937240683E-03    0.4209168704E-03    0.6960319778E+00    0.1302575576E+00    0.3845507796E+00
    0.2500000000E+07    0.7172340259E-03    0.3818394969E-03    0.6960320523E+00    0.1255783547E+00    0.3950245425E+00
    0.2700000000E+07    0.6518721080E-03    0.3483065719E-03    0.6960321158E+00    0.1212418175E+00    0.4046906451E+00
    0.2900000000E+07    0.5954859744E-03    0.3192650120E-03    0.6960321705E+00    0.1172093434E+00    0.4136471321E+00
    0.3100000000E+07    0.5464373858E-03    0.2939098478E-03    0.6960322182E+00    0.1134482406E+00    0.4219755025E+00
    0.3300000000E+07    0.5034577056E-03    0.2716152262E-03    0.6960322600E+00    0.1099305885E+00    0.4297442950E+00
    0.3500000000E+07    0.4655496128E-03    0.2518872913E-03    0.6960322970E+00    0.1066323605E+00    0.4370117311E+00
    0.3700000000E+07    0.4319186151E-03    0.2343312274E-03    0.6960323300E+00    0.1035327393E+00    0.4438277041E+00
    0.3900000000E+07    0.4019243071E-03    0.2186277203E-03    0.6960323596E+00    0.1006135760E+00    0.4502353032E+00
    0.4100000000E+07    0.3750450260E-03    0.2045158319E-03    0.6960323863E+00    0.9785895973E-01    0.4562719976E+00
    0.4300000000E+07    0.3508517918E-03    0.1917803311E-03    0.6960324104E+00    0.9525486912E-01    0.4619705715E+00
    0.4500000000E+07    0.3289888051E-03    0.1802421855E-03    0.6960324324E+00    0.9278889028E-01    0.4673598698E+00
    0.4700000000E+07    0.3091586534E-03    0.1697513263E-03    0.6960324525E+00    0.9044998474E-01    0.4724653991E+00
    0.4900000000E+07    0.2911109525E-03    0.1601810777E-03    0.6960324709E+00    0.8822829785E-01    0.4773098187E+00
    0.1000000000E+07    0.1937968556E-02    0.9907775096E-03    0.6960307683E+00    0.1733775477E+00    0.2845409002E+00
    0.3000000000E+07    0.5701311107E-03    0.3061693081E-03    0.6960321951E+00    0.1152967161E+00    0.4178852791E+00
    0.5000000000E+07    0.2826879237E-03    0.1557069057E-03    0.6960324796E+00    0.8715861572E-01    0.4796405153E+00
    0.7000000000E+07    0.1701340290E-03    0.9536543771E-04    0.6960325998E+00    0.7019256045E-01    0.5164706723E+00
    0.9000000000E+07    0.1139125027E-03    0.6471500867E-04    0.6960326651E+00    0.5878258570E-01    0.5411163793E+00
    0.1100000000E+08    0.8168088458E-04    0.4691348341E-04    0.6960327056E+00    0.5056698536E-01    0.5588118100E+00
    0.1300000000E+08    0.6145589225E-04    0.3562384924E-04    0.6960327327E+00    0.4436392516E-01    0.5721480603E+00
    0.1500000000E+08    0.4792182931E-04    0.2800076461E-04    0.6960327518E+00    0.3951285939E-01    0.5825643693E+00
    0.1700000000E+08    0.3841658690E-04    0.2260490853E-04    0.6960327658E+00    0.3561461733E-01    0.5909269913E+00
    0.1900000000E+08    0.3148399212E-04    0.1864219595E-04    0.6960327763E+00    0.3241340411E-01    0.5977894846E+00
    0.2100000000E+08    0.2627192297E-04    0.1564445330E-04    0.6960327844E+00    0.2973759629E-01    0.6035224915E+00
    0.2300000000E+08    0.2225435744E-04    0.1332074562E-04    0.6960327906E+00    0.2746769574E-01    0.6083836777E+00
    0.2500000000E+08    0.1909214492E-04    0.1148236879E-04    0.6960327955E+00    0.2551791215E-01    0.6125577984E+00
    0.2700000000E+08    0.1655857495E-04    0.1000249324E-04    0.6960327994E+00    0.2382504934E-01    0.6161808152E+00
