  Pressure (Pa) 22mC5-500 (mol/kg) 23mC5-500 (mol/kg) 24mC5-500 (mol/kg) 2mC6-500 (mol/kg) 3mC6-500 (mol/kg)
    0.1000000000E+01    0.6601174140E-05    0.7665613545E-05    0.1266335741E+00    0.2730390054E-04    0.5210777249E-05
    0.3000000000E+01    0.1577204704E-04    0.1834265225E-04    0.2785307614E+00    0.6795006905E-04    0.1563047298E-04
    0.5000000000E+01    0.2261359400E-04    0.2634272575E-04    0.3664423715E+00    0.1012801915E-03    0.2604772248E-04
    0.7000000000E+01    0.2846952685E-04    0.3321761772E-04    0.4237660759E+00    0.1319550603E-03    0.3646254227E-04
    0.9000000000E+01    0.3384406529E-04    0.3954708685E-04    0.4641009705E+00    0.1615585033E-03    0.4687494009E-04
    0.1100000000E+02    0.3896127923E-04    0.4558754466E-04    0.4940250921E+00    0.1907183715E-03    0.5728492045E-04
    0.1300000000E+02    0.4393250946E-04    0.5146573929E-04    0.5171085975E+00    0.2197077489E-03    0.6769248635E-04
    0.1500000000E+02    0.4881762509E-04    0.5724943365E-04    0.5354566453E+00    0.2486517482E-03    0.7809764008E-04
    0.1700000000E+02    0.5365074250E-04    0.6297699538E-04    0.5503909361E+00    0.2776086023E-03    0.8850038349E-04
    0.1900000000E+02    0.5845216961E-04    0.6867109746E-04    0.5627831604E+00    0.3066046084E-03    0.9890071821E-04
    0.2100000000E+02    0.6323439919E-04    0.7434557092E-04    0.5732315016E+00    0.3356502774E-03    0.1092986457E-03
    0.2300000000E+02    0.6800530613E-04    0.8000904824E-04    0.5821601067E+00    0.3647481985E-03    0.1196941673E-03
    0.2500000000E+02    0.7276993995E-04    0.8566699869E-04    0.5898780895E+00    0.3938970198E-03    0.1300872842E-03
    0.2700000000E+02    0.7753157174E-04    0.9132291249E-04    0.5966160525E+00    0.4230935173E-03    0.1404779978E-03
    0.2900000000E+02    0.8229232698E-04    0.9697901374E-04    0.6025495253E+00    0.4523336845E-03    0.1508663091E-03
    0.3100000000E+02    0.8705357919E-04    0.1026367019E-03    0.6078144798E+00    0.4816133076E-03    0.1612522194E-03
    0.3300000000E+02    0.9181620101E-04    0.1082968320E-03    0.6125178789E+00    0.5109282627E-03    0.1716357298E-03
    0.3500000000E+02    0.9658072768E-04    0.1139598964E-03    0.6167450217E+00    0.5402746616E-03    0.1820168414E-03
    0.3700000000E+02    0.1013474654E-03    0.1196261438E-03    0.6205647637E+00    0.5696489151E-03    0.1923955553E-03
    0.3900000000E+02    0.1061165641E-03    0.1252956602E-03    0.6240332968E+00    0.5990477503E-03    0.2027718727E-03
    0.4100000000E+02    0.1108880676E-03    0.1309684221E-03    0.6271969333E+00    0.6284682049E-03    0.2131457945E-03
    0.4300000000E+02    0.1156619474E-03    0.1366443343E-03    0.6300941851E+00    0.6579076084E-03    0.2235173219E-03
    0.4500000000E+02    0.1204381268E-03    0.1423232547E-03    0.6327573401E+00    0.6873635592E-03    0.2338864560E-03
    0.4700000000E+02    0.1252164974E-03    0.1480050125E-03    0.6352136707E+00    0.7168338987E-03    0.2442531978E-03
    0.4900000000E+02    0.1299969307E-03    0.1536894203E-03    0.6374863711E+00    0.7463166872E-03    0.2546175485E-03
    0.1000000000E+02    0.3642621552E-04    0.4259361133E-04    0.4800950635E+00    0.1761718623E-03    0.5208023224E-04
    0.3000000000E+02    0.8467282693E-04    0.9980759575E-04    0.6052583008E+00    0.4669688262E-03    0.1560595643E-03
    0.5000000000E+02    0.1323878775E-03    0.1565325568E-03    0.6385601772E+00    0.7610621975E-03    0.2597988274E-03
    0.7000000000E+02    0.1802801088E-03    0.2134877595E-03    0.6539832574E+00    0.1056285602E-02    0.3632991271E-03
    0.9000000000E+02    0.2282291821E-03    0.2705146826E-03    0.6628787567E+00    0.1351550254E-02    0.4665615129E-03
    0.1100000000E+03    0.2761508956E-03    0.3275101169E-03    0.6686670541E+00    0.1646420321E-02    0.5695870192E-03
    0.1300000000E+03    0.3239956285E-03    0.3844144961E-03    0.6727341690E+00    0.1940693220E-02    0.6723766713E-03
    0.1500000000E+03    0.3717332406E-03    0.4411920461E-03    0.6757484709E+00    0.2234263638E-02    0.7749314868E-03
    0.1700000000E+03    0.4193445963E-03    0.4978202290E-03    0.6780719285E+00    0.2527072406E-02    0.8772524768E-03
    0.1900000000E+03    0.4668170724E-03    0.5542842648E-03    0.6799176368E+00    0.2819084493E-02    0.9793406459E-03
    0.2100000000E+03    0.5141420871E-03    0.6105741555E-03    0.6814192195E+00    0.3110278484E-02    0.1081196992E-02
    0.2300000000E+03    0.5613136754E-03    0.6666829829E-03    0.6826647170E+00    0.3400641116E-02    0.1182822509E-02
    0.2500000000E+03    0.6083276296E-03    0.7226058880E-03    0.6837144969E+00    0.3690164246E-02    0.1284218181E-02
    0.2700000000E+03    0.6551809588E-03    0.7783394331E-03    0.6846113345E+00    0.3978843076E-02    0.1385384990E-02
    0.2900000000E+03    0.7018715381E-03    0.8338811880E-03    0.6853863860E+00    0.4266675066E-02    0.1486323909E-02
    0.3100000000E+03    0.7483978726E-03    0.8892294541E-03    0.6860628831E+00    0.4553659244E-02    0.1587035909E-02
    0.3300000000E+03    0.7947589353E-03    0.9443830749E-03    0.6866585016E+00    0.4839795751E-02    0.1687521951E-02
    0.3500000000E+03    0.8409540528E-03    0.9993413019E-03    0.6871869288E+00    0.5125085534E-02    0.1787782993E-02
    0.3700000000E+03    0.8869828229E-03    0.1054103700E-02    0.6876589284E+00    0.5409530133E-02    0.1887819987E-02
    0.3900000000E+03    0.9328450541E-03    0.1108670075E-02    0.6880830814E+00    0.5693131535E-02    0.1987633879E-02
    0.4100000000E+03    0.9785407207E-03    0.1163040425E-02    0.6884663129E+00    0.5975892060E-02    0.2087225609E-02
    0.4300000000E+03    0.1024069929E-02    0.1217214899E-02    0.6888142729E+00    0.6257814285E-02    0.2186596113E-02
    0.4500000000E+03    0.1069432890E-02    0.1271193765E-02    0.6891316172E+00    0.6538900984E-02    0.2285746319E-02
    0.4700000000E+03    0.1114629902E-02    0.1324977390E-02    0.6894222166E+00    0.6819155085E-02    0.2384677153E-02
    0.4900000000E+03    0.1159661330E-02    0.1378566221E-02    0.6896893157E+00    0.7098579631E-02    0.2483389533E-02
    0.1000000000E+03    0.2521971561E-03    0.2990207924E-03    0.6660498120E+00    0.1499050497E-02    0.5181038117E-03
    0.3000000000E+03    0.7251553096E-03    0.8615795904E-03    0.6857357403E+00    0.4410273145E-02    0.1536708214E-02
    0.5000000000E+03    0.1182115081E-02    0.1405287746E-02    0.6898149259E+00    0.7237981799E-02    0.2532664088E-02
    0.7000000000E+03    0.1622622032E-02    0.1929640859E-02    0.6915784569E+00    0.9983271735E-02    0.3506907004E-02
    0.9000000000E+03    0.2047236406E-02    0.2435304207E-02    0.6925622823E+00    0.1264943009E-01    0.4460319620E-02
    0.1100000000E+04    0.2456629795E-02    0.2923067693E-02    0.6931899124E+00    0.1523979475E-01    0.5393735469E-02
    0.1300000000E+04    0.2851475018E-02    0.3393720665E-02    0.6936251546E+00    0.1775757090E-01    0.6307942391E-02
    0.1500000000E+04    0.3232421085E-02    0.3848023788E-02    0.6939447214E+00    0.2020580259E-01    0.7203685662E-02
    0.1700000000E+04    0.3600086526E-02    0.4286701685E-02    0.6941893242E+00    0.2258737255E-01    0.8081670875E-02
    0.1900000000E+04    0.3955058142E-02    0.4710441679E-02    0.6943825753E+00    0.2490500901E-01    0.8942566580E-02
    0.2100000000E+04    0.4297891640E-02    0.5119894631E-02    0.6945391121E+00    0.2716129436E-01    0.9787006722E-02
    0.2300000000E+04    0.4629112961E-02    0.5515676541E-02    0.6946684913E+00    0.2935867400E-01    0.1061559288E-01
    0.2500000000E+04    0.4949219857E-02    0.5898370426E-02    0.6947772176E+00    0.3149946494E-01    0.1142889635E-01
    0.2700000000E+04    0.5258683521E-02    0.6268528231E-02    0.6948698716E+00    0.3358586388E-01    0.1222746003E-01
    0.2900000000E+04    0.5557950179E-02    0.6626672709E-02    0.6949497727E+00    0.3561995486E-01    0.1301180021E-01
    0.3100000000E+04    0.5847442621E-02    0.6973299210E-02    0.6950193848E+00    0.3760371626E-01    0.1378240823E-01
    0.3300000000E+04    0.6127561645E-02    0.7308877368E-02    0.6950805756E+00    0.3953902741E-01    0.1453975193E-01
    0.3500000000E+04    0.6398687409E-02    0.7633852692E-02    0.6951347866E+00    0.4142767466E-01    0.1528427711E-01
    0.3700000000E+04    0.6661180696E-02    0.7948648039E-02    0.6951831477E+00    0.4327135710E-01    0.1601640884E-01
    0.3900000000E+04    0.6915384102E-02    0.8253664999E-02    0.6952265578E+00    0.4507169174E-01    0.1673655264E-01
    0.4100000000E+04    0.7161623128E-02    0.8549285181E-02    0.6952657402E+00    0.4683021845E-01    0.1744509562E-01
    0.4300000000E+04    0.7400207214E-02    0.8835871410E-02    0.6953012841E+00    0.4854840451E-01    0.1814240754E-01
    0.4500000000E+04    0.7631430687E-02    0.9113768843E-02    0.6953336739E+00    0.5022764882E-01    0.1882884178E-01
    0.4700000000E+04    0.7855573656E-02    0.9383306009E-02    0.6953633119E+00    0.5186928583E-01    0.1950473627E-01
    0.4900000000E+04    0.8072902838E-02    0.9644795776E-02    0.6953905344E+00    0.5347458924E-01    0.2017041430E-01
    0.1000000000E+04    0.2253793260E-02    0.2681373589E-02    0.6929073265E+00    0.1395388263E-01    0.4929476867E-02
    0.3000000000E+04    0.5703892628E-02    0.6801395771E-02    0.6949857365E+00    0.3661800705E-01    0.1339879097E-01
    0.5000000000E+04    0.8179092138E-02    0.9772616599E-02    0.6954033304E+00    0.5426399811E-01    0.2049951938E-01
    0.7000000000E+04    0.1000092267E-01    0.1197199441E-01    0.6955825747E+00    0.6841307254E-01    0.2661391574E-01
    0.9000000000E+04    0.1136748234E-01    0.1363211425E-01    0.6956822505E+00    0.8002500119E-01    0.3198903165E-01
    0.1100000000E+05    0.1240670907E-01    0.1490342873E-01    0.6957457264E+00    0.8973546272E-01    0.3679232584E-01
    0.1300000000E+05    0.1320449979E-01    0.1588712286E-01    0.6957896974E+00    0.9798243597E-01    0.4114177053E-01
    0.1500000000E+05    0.1382040662E-01    0.1665347270E-01    0.6958219592E+00    0.1050777039E+00    0.4512316862E-01
    0.1700000000E+05    0.1429684428E-01    0.1725262350E-01    0.6958466413E+00    0.1112493960E+00    0.4880062189E-01
    0.1900000000E+05    0.1466472176E-01    0.1772118799E-01    0.6958661353E+00    0.1166683902E+00    0.5222312715E-01
    0.2100000000E+05    0.1494701167E-01    0.1808643215E-01    0.6958819222E+00    0.1214652948E+00    0.5542888167E-01
    0.2300000000E+05    0.1516108260E-01    0.1836901317E-01    0.6958949681E+00    0.1257417147E+00    0.5844817987E-01
    0.2500000000E+05    0.1532026445E-01    0.1858481861E-01    0.6959059304E+00    0.1295779264E+00    0.6130541424E-01
    0.2700000000E+05    0.1543492347E-01    0.1874623107E-01    0.6959152717E+00    0.1330382332E+00    0.6402048986E-01
    0.2900000000E+05    0.1551321625E-01    0.1886301588E-01    0.6959233269E+00    0.1361747788E+00    0.6660984500E-01
    0.3100000000E+05    0.1556162808E-01    0.1894295584E-01    0.6959303448E+00    0.1390303148E+00    0.6908720115E-01
    0.3300000000E+05    0.1558536397E-01    0.1899231253E-01    0.6959365137E+00    0.1416402424E+00    0.7146412319E-01
    0.3500000000E+05    0.1558863664E-01    0.1901616673E-01    0.6959419791E+00    0.1440341418E+00    0.7375044407E-01
    0.3700000000E+05    0.1557488172E-01    0.1901867287E-01    0.6959468549E+00    0.1462369325E+00    0.7595459107E-01
    0.3900000000E+05    0.1554692039E-01    0.1900325167E-01    0.6959512318E+00    0.1482697667E+00    0.7808383957E-01
    0.4100000000E+05    0.1550708375E-01    0.1897273764E-01    0.6959551825E+00    0.1501507225E+00    0.8014451257E-01
    0.4300000000E+05    0.1545730884E-01    0.1892949312E-01    0.6959587666E+00    0.1518953492E+00    0.8214213928E-01
    0.4500000000E+05    0.1539921357E-01    0.1887549728E-01    0.6959620329E+00    0.1535170999E+00    0.8408158223E-01
    0.4700000000E+05    0.1533415561E-01    0.1881241626E-01    0.6959650219E+00    0.1550276776E+00    0.8596714023E-01
    0.4900000000E+05    0.1526327906E-01    0.1874165885E-01    0.6959677674E+00    0.1564373140E+00    0.8780263224E-01
    0.1000000000E+05    0.1192188403E-01    0.1430915718E-01    0.6957171573E+00    0.8508693117E-01    0.3445386983E-01
    0.3000000000E+05    0.1554080576E-01    0.1890716894E-01    0.6959269526E+00    0.1376353081E+00    0.6786175513E-01
    0.5000000000E+05    0.1522596729E-01    0.1870378251E-01    0.6959690581E+00    0.1571071313E+00    0.8870268297E-01
    0.7000000000E+05    0.1434376963E-01    0.1775421167E-01    0.6959871437E+00    0.1669009429E+00    0.1047385706E+00
    0.9000000000E+05    0.1341256793E-01    0.1670625544E-01    0.6959972095E+00    0.1724479021E+00    0.1181361005E+00
    0.1100000000E+06    0.1254434740E-01    0.1570920300E-01    0.6960036250E+00    0.1757326220E+00    0.1298193467E+00
    0.1300000000E+06    0.1176046447E-01    0.1479730002E-01    0.6960080727E+00    0.1776669014E+00    0.1402757060E+00
    0.1500000000E+06    0.1105837351E-01    0.1397271123E-01    0.6960113385E+00    0.1787328227E+00    0.1497976394E+00
    0.1700000000E+06    0.1042944111E-01    0.1322838495E-01    0.6960138389E+00    0.1792107486E+00    0.1585765097E+00
    0.1900000000E+06    0.9864250330E-02    0.1255520086E-01    0.6960158150E+00    0.1792753494E+00    0.1667455404E+00
    0.2100000000E+06    0.9354177116E-02    0.1194429367E-01    0.6960174163E+00    0.1790412541E+00    0.1744018970E+00
    0.2300000000E+06    0.8891761805E-02    0.1138774880E-01    0.6960187405E+00    0.1785868016E+00    0.1816190535E+00
    0.2500000000E+06    0.8470686228E-02    0.1087872574E-01    0.6960198538E+00    0.1779672930E+00    0.1884541955E+00
    0.2700000000E+06    0.8085634456E-02    0.1041138534E-01    0.6960208030E+00    0.1772228111E+00    0.1949528911E+00
    0.2900000000E+06    0.7732134411E-02    0.9980760636E-02    0.6960216220E+00    0.1763830496E+00    0.2011521687E+00
    0.3100000000E+06    0.7406412693E-02    0.9582623209E-02    0.6960223359E+00    0.1754704114E+00    0.2070826182E+00
    0.3300000000E+06    0.7105271171E-02    0.9213362553E-02    0.6960229637E+00    0.1745020616E+00    0.2127698695E+00
    0.3500000000E+06    0.6825985342E-02    0.8869883247E-02    0.6960235202E+00    0.1734913256E+00    0.2182356608E+00
    0.3700000000E+06    0.6566221728E-02    0.8549519358E-02    0.6960240169E+00    0.1724486637E+00    0.2234986264E+00
    0.3900000000E+06    0.6323971046E-02    0.8249963968E-02    0.6960244630E+00    0.1713823662E+00    0.2285748906E+00
    0.4100000000E+06    0.6097494133E-02    0.7969211399E-02    0.6960248659E+00    0.1702990569E+00    0.2334785224E+00
    0.4300000000E+06    0.5885278091E-02    0.7705509829E-02    0.6960252315E+00    0.1692040646E+00    0.2382218883E+00
    0.4500000000E+06    0.5686000553E-02    0.7457322361E-02    0.6960255648E+00    0.1681017007E+00    0.2428159318E+00
    0.4700000000E+06    0.5498500456E-02    0.7223294918E-02    0.6960258699E+00    0.1669954704E+00    0.2472703949E+00
    0.4900000000E+06    0.5321753992E-02    0.7002229668E-02    0.6960261503E+00    0.1658882336E+00    0.2515939978E+00
    0.1000000000E+06    0.1296831378E-01    0.1619799776E-01    0.6960007369E+00    0.1743017083E+00    0.1241552810E+00
    0.3000000000E+06    0.7566013335E-02    0.9777869860E-02    0.6960219907E+00    0.1759346634E+00    0.2041492930E+00
    0.5000000000E+06    0.5237125999E-02    0.6896220749E-02    0.6960262822E+00    0.1653349866E+00    0.2537092089E+00
    0.7000000000E+06    0.3935776480E-02    0.5252070437E-02    0.6960281328E+00    0.1546003508E+00    0.2906966499E+00
    0.9000000000E+06    0.3104908705E-02    0.4186827582E-02    0.6960291660E+00    0.1448620754E+00    0.3202645755E+00
    0.1100000000E+07    0.2530604362E-02    0.3442043695E-02    0.6960298261E+00    0.1361898306E+00    0.3448097737E+00
    0.1300000000E+07    0.2111973889E-02    0.2893995985E-02    0.6960302846E+00    0.1284736486E+00    0.3656900839E+00
    0.1500000000E+07    0.1794886758E-02    0.2475525910E-02    0.6960306219E+00    0.1215819407E+00    0.3837656866E+00
    0.1700000000E+07    0.1547604625E-02    0.2146874724E-02    0.6960308805E+00    0.1153954763E+00    0.3996223790E+00
    0.1900000000E+07    0.1350267256E-02    0.1882956559E-02    0.6960310851E+00    0.1098131988E+00    0.4136798572E+00
    0.2100000000E+07    0.1189811397E-02    0.1667150465E-02    0.6960312510E+00    0.1047510557E+00    0.4262503274E+00
    0.2300000000E+07    0.1057297848E-02    0.1488008538E-02    0.6960313883E+00    0.1001393470E+00    0.4375728682E+00
    0.2500000000E+07    0.9464093412E-03    0.1337392917E-02    0.6960315039E+00    0.9592009602E-01    0.4478348360E+00
    0.2700000000E+07    0.8525604259E-03    0.1209364851E-02    0.6960316024E+00    0.9204481271E-01    0.4571858506E+00
    0.2900000000E+07    0.7723465439E-03    0.1099493135E-02    0.6960316875E+00    0.8847268352E-01    0.4657472909E+00
    0.3100000000E+07    0.7031903834E-03    0.1004407863E-02    0.6960317617E+00    0.8516913178E-01    0.4736189492E+00
    0.3300000000E+07    0.6431077295E-03    0.9215035176E-03    0.6960318269E+00    0.8210467774E-01    0.4808838185E+00
    0.3500000000E+07    0.5905482418E-03    0.8487361552E-03    0.6960318847E+00    0.7925403412E-01    0.4876116162E+00
    0.3700000000E+07    0.5442846391E-03    0.7844816575E-03    0.6960319363E+00    0.7659538519E-01    0.4938614271E+00
    0.3900000000E+07    0.5033339827E-03    0.7274346356E-03    0.6960319827E+00    0.7410980865E-01    0.4996837196E+00
    0.4100000000E+07    0.4669007399E-03    0.6765350336E-03    0.6960320245E+00    0.7178080903E-01    0.5051219069E+00
    0.4300000000E+07    0.4343349296E-03    0.6309139822E-03    0.6960320625E+00    0.6959393854E-01    0.5102135712E+00
    0.4500000000E+07    0.4051009050E-03    0.5898532761E-03    0.6960320971E+00    0.6753648705E-01    0.5149914351E+00
    0.4700000000E+07    0.3787537613E-03    0.5527546526E-03    0.6960321287E+00    0.6559722682E-01    0.5194841409E+00
    0.4900000000E+07    0.3549212926E-03    0.5191162223E-03    0.6960321578E+00    0.6376620119E-01    0.5237168805E+00
    0.1000000000E+07    0.2793539019E-02    0.3783974125E-02    0.6960295287E+00    0.1403982696E+00    0.3330645521E+00
    0.3000000000E+07    0.7365220095E-03    0.1050280216E-02    0.6960317258E+00    0.8678928580E-01    0.4697638084E+00
    0.5000000000E+07    0.3438481260E-03    0.5034595078E-03    0.6960321714E+00    0.6288846852E-01    0.5257428207E+00
    0.7000000000E+07    0.1993489465E-03    0.2972231240E-03    0.6960323624E+00    0.4930672519E-01    0.5568570240E+00
    0.9000000000E+07    0.1301213115E-03    0.1967105516E-03    0.6960324678E+00    0.4053713432E-01    0.5767392904E+00
    0.1100000000E+08    0.9160133450E-04    0.1400385188E-03    0.6960325340E+00    0.3440563984E-01    0.5905565669E+00
    0.1300000000E+08    0.6796618054E-04    0.1048884604E-03    0.6960325790E+00    0.2987763457E-01    0.6007200587E+00
    0.1500000000E+08    0.5242341308E-04    0.8156159613E-04    0.6960326114E+00    0.2639723010E-01    0.6085103792E+00
    0.1700000000E+08    0.4165852047E-04    0.6527728558E-04    0.6960326355E+00    0.2363890937E-01    0.6146717048E+00
    0.1900000000E+08    0.3389619268E-04    0.5345286466E-04    0.6960326540E+00    0.2139934704E-01    0.6196663389E+00
    0.2100000000E+08    0.2811544910E-04    0.4459188751E-04    0.6960326685E+00    0.1954498273E-01    0.6237967250E+00
    0.2300000000E+08    0.2369516003E-04    0.3777790485E-04    0.6960326800E+00    0.1798446153E-01    0.6272690815E+00
    0.2500000000E+08    0.2023980018E-04    0.3242384467E-04    0.6960326893E+00    0.1665318451E-01    0.6302288625E+00
    0.2700000000E+08    0.1748779056E-04    0.2813933963E-04    0.6960326969E+00    0.1550418325E-01    0.6327816075E+00
