  Pressure (Pa) 22mC5-500 (mol/kg) 23mC5-500 (mol/kg) 24mC5-500 (mol/kg) 2mC6-500 (mol/kg) 3mC6-500 (mol/kg)
    0.1000000000E+01    0.5986935435E-05    0.5216955157E-05    0.1950020221E+00    0.2011330839E-04    0.5210816946E-05
    0.3000000000E+01    0.1336504535E-04    0.1167918066E-04    0.3749148331E+00    0.4810532993E-04    0.1563086183E-04
    0.5000000000E+01    0.1897125563E-04    0.1662312260E-04    0.4597520887E+00    0.7220053911E-04    0.2604883667E-04
    0.7000000000E+01    0.2405723001E-04    0.2112767301E-04    0.5091279139E+00    0.9551492182E-04    0.3646475913E-04
    0.9000000000E+01    0.2895206549E-04    0.2547389645E-04    0.5414331250E+00    0.1187007108E-03    0.4687863576E-04
    0.1100000000E+02    0.3376975770E-04    0.2975810383E-04    0.5642158181E+00    0.1419228666E-03    0.5729046994E-04
    0.1300000000E+02    0.3855635364E-04    0.3401868368E-04    0.5811456384E+00    0.1652204265E-03    0.6770026379E-04
    0.1500000000E+02    0.4333221347E-04    0.3827231521E-04    0.5942213097E+00    0.1885958648E-03    0.7810801891E-04
    0.1700000000E+02    0.4810677420E-04    0.4252653819E-04    0.6046244826E+00    0.2120411972E-03    0.8851373656E-04
    0.1900000000E+02    0.5288443901E-04    0.4678473162E-04    0.6130985447E+00    0.2355462788E-03    0.9891741785E-04
    0.2100000000E+02    0.5766716153E-04    0.5104828081E-04    0.6201345659E+00    0.2591014598E-03    0.1093190638E-03
    0.2300000000E+02    0.6245566275E-04    0.5531758836E-04    0.6260699764E+00    0.2826983264E-03    0.1197186753E-03
    0.2500000000E+02    0.6725003514E-04    0.5959257042E-04    0.6311442944E+00    0.3063297825E-03    0.1301162533E-03
    0.2700000000E+02    0.7205005440E-04    0.6387290932E-04    0.6355322384E+00    0.3299899189E-03    0.1405117986E-03
    0.2900000000E+02    0.7685534465E-04    0.6815818514E-04    0.6393642528E+00    0.3536738308E-03    0.1509053121E-03
    0.3100000000E+02    0.8166546733E-04    0.7244794480E-04    0.6427396964E+00    0.3773774422E-03    0.1612967946E-03
    0.3300000000E+02    0.8647996902E-04    0.7674173802E-04    0.6457355818E+00    0.4010973536E-03    0.1716862468E-03
    0.3500000000E+02    0.9129840679E-04    0.8103913544E-04    0.6484125231E+00    0.4248307167E-03    0.1820736697E-03
    0.3700000000E+02    0.9612036096E-04    0.8533973687E-04    0.6508188799E+00    0.4485751322E-03    0.1924590639E-03
    0.3900000000E+02    0.1009454409E-03    0.8964317418E-04    0.6529937058E+00    0.4723285679E-03    0.2028424302E-03
    0.4100000000E+02    0.1057732866E-03    0.9394911140E-04    0.6549688833E+00    0.4960892937E-03    0.2132237694E-03
    0.4300000000E+02    0.1106035688E-03    0.9825724319E-04    0.6567706984E+00    0.5198558282E-03    0.2236030824E-03
    0.4500000000E+02    0.1154359869E-03    0.1025672928E-03    0.6584210163E+00    0.5436268971E-03    0.2339803698E-03
    0.4700000000E+02    0.1202702674E-03    0.1068790094E-03    0.6599381735E+00    0.5674013985E-03    0.2443556324E-03
    0.4900000000E+02    0.1251061614E-03    0.1111921661E-03    0.6613376623E+00    0.5911783752E-03    0.2547288710E-03
    0.1000000000E+02    0.3136679335E-04    0.2762060400E-04    0.5537306927E+00    0.1303034090E-03    0.5208480801E-04
    0.3000000000E+02    0.7925983030E-04    0.7030253297E-04    0.6411037893E+00    0.3655234008E-03    0.1561013072E-03
    0.5000000000E+02    0.1275246420E-03    0.1133492193E-03    0.6619974777E+00    0.6030675266E-03    0.2599147315E-03
    0.7000000000E+02    0.1759338486E-03    0.1565251039E-03    0.6713753489E+00    0.8408250017E-03    0.3635258656E-03
    0.9000000000E+02    0.2243410936E-03    0.1996981605E-03    0.6767012611E+00    0.1078302870E-02    0.4669354592E-03
    0.1100000000E+03    0.2726820342E-03    0.2428114532E-03    0.6801348374E+00    0.1315334276E-02    0.5701442529E-03
    0.1300000000E+03    0.3209243631E-03    0.2858366852E-03    0.6825324970E+00    0.1551848183E-02    0.6731529815E-03
    0.1500000000E+03    0.3690501097E-03    0.3287582285E-03    0.6843016081E+00    0.1787809937E-02    0.7759623753E-03
    0.1700000000E+03    0.4170485269E-03    0.3715667907E-03    0.6856606969E+00    0.2023201197E-02    0.8785731604E-03
    0.1900000000E+03    0.4649128521E-03    0.4142565545E-03    0.6867375094E+00    0.2258011828E-02    0.9809860590E-03
    0.2100000000E+03    0.5126386792E-03    0.4568237485E-03    0.6876117165E+00    0.2492236195E-02    0.1083201789E-02
    0.2300000000E+03    0.5602230751E-03    0.4992658754E-03    0.6883355847E+00    0.2725871295E-02    0.1185221067E-02
    0.2500000000E+03    0.6076640685E-03    0.5415812674E-03    0.6889448261E+00    0.2958915755E-02    0.1287044601E-02
    0.2700000000E+03    0.6549603408E-03    0.5837688177E-03    0.6894646716E+00    0.3191369244E-02    0.1388673101E-02
    0.2900000000E+03    0.7021110286E-03    0.6258278101E-03    0.6899134531E+00    0.3423232128E-02    0.1490107269E-02
    0.3100000000E+03    0.7491155954E-03    0.6677578081E-03    0.6903048110E+00    0.3654505253E-02    0.1591347807E-02
    0.3300000000E+03    0.7959737442E-03    0.7095585796E-03    0.6906491046E+00    0.3885189796E-02    0.1692395411E-02
    0.3500000000E+03    0.8426853566E-03    0.7512300448E-03    0.6909543426E+00    0.4115287176E-02    0.1793250773E-02
    0.3700000000E+03    0.8892504501E-03    0.7927722393E-03    0.6912268143E+00    0.4344798984E-02    0.1893914585E-02
    0.3900000000E+03    0.9356691465E-03    0.8341852877E-03    0.6914715272E+00    0.4573726943E-02    0.1994387532E-02
    0.4100000000E+03    0.9819416493E-03    0.8754693831E-03    0.6916925180E+00    0.4802072866E-02    0.2094670297E-02
    0.4300000000E+03    0.1028068226E-02    0.9166247734E-03    0.6918930768E+00    0.5029838641E-02    0.2194763561E-02
    0.4500000000E+03    0.1074049195E-02    0.9576517493E-03    0.6920759122E+00    0.5257026208E-02    0.2294667998E-02
    0.4700000000E+03    0.1119884915E-02    0.9985506357E-03    0.6922432742E+00    0.5483637548E-02    0.2394384282E-02
    0.4900000000E+03    0.1165575780E-02    0.1039321786E-02    0.6923970476E+00    0.5709674672E-02    0.2493913083E-02
    0.1000000000E+03    0.2485223354E-03    0.2212644575E-03    0.6785854101E+00    0.1196880057E-02    0.5185649100E-03
    0.3000000000E+03    0.7256316005E-03    0.6468089520E-03    0.6901155984E+00    0.3538942343E-02    0.1540751698E-02
    0.5000000000E+03    0.1188367021E-02    0.1059659576E-02    0.6924693455E+00    0.5822478537E-02    0.2543607385E-02
    0.7000000000E+03    0.1636699297E-02    0.1459809290E-02    0.6934831655E+00    0.8048913225E-02    0.3527811822E-02
    0.9000000000E+03    0.2071107842E-02    0.1847683411E-02    0.6940477498E+00    0.1022029437E-01    0.4494012070E-02
    0.1100000000E+04    0.2492117185E-02    0.2223743950E-02    0.6944075467E+00    0.1233863899E-01    0.5442824420E-02
    0.1300000000E+04    0.2900244590E-02    0.2588445620E-02    0.6946568785E+00    0.1440588200E-01    0.6374836230E-02
    0.1500000000E+04    0.3295988606E-02    0.2942226356E-02    0.6948398511E+00    0.1642387023E-01    0.7290607622E-02
    0.1700000000E+04    0.3679826277E-02    0.3285505069E-02    0.6949798473E+00    0.1839436434E-01    0.8190673073E-02
    0.1900000000E+04    0.4052212843E-02    0.3618681475E-02    0.6950904186E+00    0.2031904275E-01    0.9075542881E-02
    0.2100000000E+04    0.4413582316E-02    0.3942136636E-02    0.6951799606E+00    0.2219950590E-01    0.9945704534E-02
    0.2300000000E+04    0.4764348358E-02    0.4256233758E-02    0.6952539524E+00    0.2403728049E-01    0.1080162399E-01
    0.2500000000E+04    0.5104905273E-02    0.4561319067E-02    0.6953161216E+00    0.2583382360E-01    0.1164374688E-01
    0.2700000000E+04    0.5435629007E-02    0.4857722693E-02    0.6953690925E+00    0.2759052650E-01    0.1247249960E-01
    0.2900000000E+04    0.5756878127E-02    0.5145759531E-02    0.6954147662E+00    0.2930871834E-01    0.1328829037E-01
    0.3100000000E+04    0.6068994757E-02    0.5425730068E-02    0.6954545537E+00    0.3098966954E-01    0.1409151020E-01
    0.3300000000E+04    0.6372305476E-02    0.5697921162E-02    0.6954895240E+00    0.3263459495E-01    0.1488253378E-01
    0.3500000000E+04    0.6667122151E-02    0.5962606782E-02    0.6955205024E+00    0.3424465691E-01    0.1566172040E-01
    0.3700000000E+04    0.6953742740E-02    0.6220048702E-02    0.6955481354E+00    0.3582096799E-01    0.1642941467E-01
    0.3900000000E+04    0.7232452028E-02    0.6470497158E-02    0.6955729374E+00    0.3736459366E-01    0.1718594730E-01
    0.4100000000E+04    0.7503522338E-02    0.6714191456E-02    0.6955953222E+00    0.3887655476E-01    0.1793163585E-01
    0.4300000000E+04    0.7767214181E-02    0.6951360553E-02    0.6956156270E+00    0.4035782978E-01    0.1866678530E-01
    0.4500000000E+04    0.8023776879E-02    0.7182223599E-02    0.6956341288E+00    0.4180935704E-01    0.1939168876E-01
    0.4700000000E+04    0.8273449147E-02    0.7406990444E-02    0.6956510575E+00    0.4323203677E-01    0.2010662802E-01
    0.4900000000E+04    0.8516459635E-02    0.7625862115E-02    0.6956666058E+00    0.4462673296E-01    0.2081187406E-01
    0.1000000000E+04    0.2283254711E-02    0.2037161619E-02    0.6942455877E+00    0.1128597325E-01    0.4970554365E-02
    0.3000000000E+04    0.5914057238E-02    0.5286734848E-02    0.6954353222E+00    0.3015377183E-01    0.1369144786E-01
    0.5000000000E+04    0.8635535541E-02    0.7733147780E-02    0.6956739139E+00    0.4531384778E-01    0.2116094400E-01
    0.7000000000E+04    0.1071599562E-01    0.9612185748E-02    0.6957762636E+00    0.5777220710E-01    0.2769192920E-01
    0.9000000000E+04    0.1233071629E-01    0.1107807072E-01    0.6958331585E+00    0.6819947130E-01    0.3349735837E-01
    0.1100000000E+05    0.1359851432E-01    0.1223548522E-01    0.6958693810E+00    0.7705996476E-01    0.3872765272E-01
    0.1300000000E+05    0.1460247274E-01    0.1315773170E-01    0.6958944676E+00    0.8468547992E-01    0.4349238822E-01
    0.1500000000E+05    0.1540222964E-01    0.1389750468E-01    0.6959128705E+00    0.9131950454E-01    0.4787348986E-01
    0.1700000000E+05    0.1604156232E-01    0.1449354338E-01    0.6959269474E+00    0.9714484112E-01    0.5193358708E-01
    0.1900000000E+05    0.1655323183E-01    0.1497488429E-01    0.6959380638E+00    0.1023014641E+00    0.5572148870E-01
    0.2100000000E+05    0.1696217108E-01    0.1536366176E-01    0.6959470651E+00    0.1068984164E+00    0.5927587777E-01
    0.2300000000E+05    0.1728763782E-01    0.1567700075E-01    0.6959545026E+00    0.1110219442E+00    0.6262786984E-01
    0.2500000000E+05    0.1754470221E-01    0.1592832569E-01    0.6959607515E+00    0.1147411889E+00    0.6580282475E-01
    0.2700000000E+05    0.1774529548E-01    0.1612828389E-01    0.6959660757E+00    0.1181122512E+00    0.6882165567E-01
    0.2900000000E+05    0.1789896268E-01    0.1628540901E-01    0.6959706665E+00    0.1211811470E+00    0.7170179196E-01
    0.3100000000E+05    0.1801341185E-01    0.1640660543E-01    0.6959746657E+00    0.1239859917E+00    0.7445789889E-01
    0.3300000000E+05    0.1809492045E-01    0.1649750716E-01    0.6959781808E+00    0.1265586385E+00    0.7710242337E-01
    0.3500000000E+05    0.1814864030E-01    0.1656274729E-01    0.6959812947E+00    0.1289259246E+00    0.7964601334E-01
    0.3700000000E+05    0.1817882905E-01    0.1660616275E-01    0.6959840725E+00    0.1311106294E+00    0.8209784392E-01
    0.3900000000E+05    0.1818902783E-01    0.1663095162E-01    0.6959865657E+00    0.1331322206E+00    0.8446587382E-01
    0.4100000000E+05    0.1818219905E-01    0.1663979529E-01    0.6959888161E+00    0.1350074409E+00    0.8675704903E-01
    0.4300000000E+05    0.1816083424E-01    0.1663495407E-01    0.6959908574E+00    0.1367507735E+00    0.8897746608E-01
    0.4500000000E+05    0.1812703917E-01    0.1661834288E-01    0.6959927176E+00    0.1383748149E+00    0.9113250410E-01
    0.4700000000E+05    0.1808260161E-01    0.1659159141E-01    0.6959944197E+00    0.1398905760E+00    0.9322693243E-01
    0.4900000000E+05    0.1802904562E-01    0.1655609253E-01    0.6959959831E+00    0.1413077264E+00    0.9526499898E-01
    0.1000000000E+05    0.1300212397E-01    0.1169017198E-01    0.6958530791E+00    0.7280234324E-01    0.3617677631E-01
    0.3000000000E+05    0.1796066764E-01    0.1635011993E-01    0.6959727327E+00    0.1226144544E+00    0.7309452461E-01
    0.5000000000E+05    0.1799926335E-01    0.1653544310E-01    0.6959967180E+00    0.1419820280E+00    0.9626409974E-01
    0.7000000000E+05    0.1715826451E-01    0.1587819576E-01    0.6960070126E+00    0.1519123219E+00    0.1140292144E+00
    0.9000000000E+05    0.1615727644E-01    0.1504349665E-01    0.6960127387E+00    0.1576053476E+00    0.1288152743E+00
    0.1100000000E+06    0.1517813404E-01    0.1420660602E-01    0.6960163863E+00    0.1610121833E+00    0.1416665565E+00
    0.1300000000E+06    0.1426998631E-01    0.1341891895E-01    0.6960189138E+00    0.1630426497E+00    0.1531347921E+00
    0.1500000000E+06    0.1344225151E-01    0.1269343218E-01    0.6960207689E+00    0.1641825716E+00    0.1635508384E+00
    0.1700000000E+06    0.1269158965E-01    0.1203009266E-01    0.6960221886E+00    0.1647165725E+00    0.1731309169E+00
    0.1900000000E+06    0.1201084360E-01    0.1142445141E-01    0.6960233102E+00    0.1648230173E+00    0.1820253744E+00
    0.2100000000E+06    0.1139220191E-01    0.1087086082E-01    0.6960242187E+00    0.1646195307E+00    0.1903437532E+00
    0.2300000000E+06    0.1082831175E-01    0.1036368621E-01    0.6960249697E+00    0.1641868343E+00    0.1981688224E+00
    0.2500000000E+06    0.1031262019E-01    0.9897743024E-02    0.6960256009E+00    0.1635821183E+00    0.2055649666E+00
    0.2700000000E+06    0.9839420137E-02    0.9468421269E-02    0.6960261390E+00    0.1628469672E+00    0.2125834730E+00
    0.2900000000E+06    0.9403787864E-02    0.9071683978E-02    0.6960266030E+00    0.1620122737E+00    0.2192660096E+00
    0.3100000000E+06    0.9001487700E-02    0.8704018285E-02    0.6960270074E+00    0.1611014037E+00    0.2256469975E+00
    0.3300000000E+06    0.8628873988E-02    0.8362372611E-02    0.6960273629E+00    0.1601322989E+00    0.2317552781E+00
    0.3500000000E+06    0.8282801623E-02    0.8044094013E-02    0.6960276780E+00    0.1591189143E+00    0.2376153167E+00
    0.3700000000E+06    0.7960548430E-02    0.7746871110E-02    0.6960279591E+00    0.1580722226E+00    0.2432480892E+00
    0.3900000000E+06    0.7659749443E-02    0.7468684229E-02    0.6960282115E+00    0.1570009322E+00    0.2486717503E+00
    0.4100000000E+06    0.7378341894E-02    0.7207762735E-02    0.6960284394E+00    0.1559120089E+00    0.2539021446E+00
    0.4300000000E+06    0.7114519395E-02    0.6962548911E-02    0.6960286461E+00    0.1548110615E+00    0.2589532034E+00
    0.4500000000E+06    0.6866693820E-02    0.6731667510E-02    0.6960288346E+00    0.1537026314E+00    0.2638372581E+00
    0.4700000000E+06    0.6633463568E-02    0.6513900132E-02    0.6960290070E+00    0.1525904116E+00    0.2685652895E+00
    0.4900000000E+06    0.6413587068E-02    0.6308163644E-02    0.6960291655E+00    0.1514774161E+00    0.2731471295E+00
    0.1000000000E+06    0.1566042059E-01    0.1462070021E-01    0.6960147444E+00    0.1595235848E+00    0.1354411849E+00
    0.3000000000E+06    0.9198711847E-02    0.8884417963E-02    0.6960268119E+00    0.1615651317E+00    0.2224922797E+00
    0.5000000000E+06    0.6308306707E-02    0.6209500954E-02    0.6960292400E+00    0.1509214165E+00    0.2753860269E+00
    0.7000000000E+06    0.4691348440E-02    0.4680879251E-02    0.6960302845E+00    0.1401637329E+00    0.3142415694E+00
    0.9000000000E+06    0.3664420681E-02    0.3695424507E-02    0.6960308663E+00    0.1304774209E+00    0.3448736787E+00
    0.1100000000E+07    0.2959657280E-02    0.3011190160E-02    0.6960312374E+00    0.1219249339E+00    0.3699883827E+00
    0.1300000000E+07    0.2449833379E-02    0.2511438570E-02    0.6960314947E+00    0.1143802224E+00    0.3911156136E+00
    0.1500000000E+07    0.2066584107E-02    0.2132670768E-02    0.6960316836E+00    0.1076969142E+00    0.4092207047E+00
    0.1700000000E+07    0.1769876222E-02    0.1837327487E-02    0.6960318282E+00    0.1017440197E+00    0.4249575484E+00
    0.1900000000E+07    0.1534730236E-02    0.1601770894E-02    0.6960319424E+00    0.9641156102E-01    0.4387917105E+00
    0.2100000000E+07    0.1344777378E-02    0.1410394602E-02    0.6960320349E+00    0.9160884779E-01    0.4510671794E+00
    0.2300000000E+07    0.1188864471E-02    0.1252493540E-02    0.6960321114E+00    0.8726128891E-01    0.4620455179E+00
    0.2500000000E+07    0.1059145711E-02    0.1120491576E-02    0.6960321756E+00    0.8330732875E-01    0.4719302382E+00
    0.2700000000E+07    0.9499530021E-03    0.1008885272E-02    0.6960322303E+00    0.7969587714E-01    0.4808827028E+00
    0.2900000000E+07    0.8570979662E-03    0.9135873513E-03    0.6960322775E+00    0.7638424963E-01    0.4890328958E+00
    0.3100000000E+07    0.7774249249E-03    0.8315038977E-03    0.6960323185E+00    0.7333654241E-01    0.4964869483E+00
    0.3300000000E+07    0.7085157150E-03    0.7602537626E-03    0.6960323546E+00    0.7052235444E-01    0.5033325338E+00
    0.3500000000E+07    0.6484895567E-03    0.6979774251E-03    0.6960323865E+00    0.6791578044E-01    0.5096428229E+00
    0.3700000000E+07    0.5958642057E-03    0.6432038027E-03    0.6960324149E+00    0.6549461328E-01    0.5154794380E+00
    0.3900000000E+07    0.5494576471E-03    0.5947555646E-03    0.6960324404E+00    0.6323970848E-01    0.5208946964E+00
    0.4100000000E+07    0.5083172302E-03    0.5516806107E-03    0.6960324634E+00    0.6113447436E-01    0.5259333394E+00
    0.4300000000E+07    0.4716677521E-03    0.5132016906E-03    0.6960324843E+00    0.5916446031E-01    0.5306338819E+00
    0.4500000000E+07    0.4388728684E-03    0.4786788258E-03    0.6960325032E+00    0.5731702193E-01    0.5350296782E+00
    0.4700000000E+07    0.4094060303E-03    0.4475809155E-03    0.6960325206E+00    0.5558104711E-01    0.5391497719E+00
    0.4900000000E+07    0.3828283324E-03    0.4194640264E-03    0.6960325365E+00    0.5394673039E-01    0.5430195812E+00
    0.1000000000E+07    0.3281662578E-02    0.3324699308E-02    0.6960310703E+00    0.1260660071E+00    0.3580073980E+00
    0.3000000000E+07    0.8157794077E-03    0.8710567600E-03    0.6960322987E+00    0.7482942206E-01    0.4928410795E+00
    0.5000000000E+07    0.3705054350E-03    0.4064043615E-03    0.6960325439E+00    0.5316494024E-01    0.5448677201E+00
    0.7000000000E+07    0.2114096519E-03    0.2362007317E-03    0.6960326475E+00    0.4120493313E-01    0.5729156247E+00
    0.9000000000E+07    0.1365674065E-03    0.1547376109E-03    0.6960327039E+00    0.3362078023E-01    0.5905046505E+00
    0.1100000000E+08    0.9543805520E-04    0.1093698439E-03    0.6960327387E+00    0.2838326043E-01    0.6025730735E+00
    0.1300000000E+08    0.7042868209E-04    0.8148226672E-04    0.6960327620E+00    0.2455005147E-01    0.6113684315E+00
    0.1500000000E+08    0.5409460721E-04    0.6310064796E-04    0.6960327784E+00    0.2162375181E-01    0.6180629894E+00
    0.1700000000E+08    0.4284243722E-04    0.5033702995E-04    0.6960327904E+00    0.1931698658E-01    0.6233286735E+00
    0.1900000000E+08    0.3476392410E-04    0.4110895632E-04    0.6960327994E+00    0.1745214142E-01    0.6275784309E+00
    0.2100000000E+08    0.2876921129E-04    0.3421815105E-04    0.6960328063E+00    0.1591353462E-01    0.6310800806E+00
    0.2300000000E+08    0.2419904658E-04    0.2893495765E-04    0.6960328116E+00    0.1462259339E-01    0.6340149322E+00
    0.2500000000E+08    0.2063563847E-04    0.2479420325E-04    0.6960328157E+00    0.1352408303E-01    0.6365101074E+00
    0.2700000000E+08    0.1780380909E-04    0.2148783935E-04    0.6960328189E+00    0.1257804387E-01    0.6386573758E+00
