  Pressure (Pa) 22mC5-500 (mol/kg) 23mC5-500 (mol/kg) 24mC5-500 (mol/kg) 2mC6-500 (mol/kg) 3mC6-500 (mol/kg)
    0.1000000000E+01    0.6848678564E-05    0.3975892754E-05    0.9950351930E-01    0.5637742623E-05    0.5210578039E-04
    0.3000000000E+01    0.1697546702E-04    0.9865212133E-05    0.2321325166E+00    0.1440428793E-04    0.1562867063E-03
    0.5000000000E+01    0.2467074705E-04    0.1435466106E-04    0.3165083036E+00    0.2157848300E-04    0.2604270397E-03
    0.7000000000E+01    0.3116671146E-04    0.1815684698E-04    0.3749116235E+00    0.2804463804E-04    0.3645269402E-03
    0.9000000000E+01    0.3700540472E-04    0.2158429506E-04    0.4177354293E+00    0.3416645419E-04    0.4685864990E-03
    0.1100000000E+02    0.4245682739E-04    0.2479216836E-04    0.4504801778E+00    0.4011192991E-04    0.5726057780E-03
    0.1300000000E+02    0.4766777787E-04    0.2786453216E-04    0.4763296373E+00    0.4596504488E-04    0.6765848247E-03
    0.1500000000E+02    0.5272342922E-04    0.3084997816E-04    0.4972543831E+00    0.5177015060E-04    0.7805236787E-03
    0.1700000000E+02    0.5767573188E-04    0.3377802475E-04    0.5145394069E+00    0.5755155967E-04    0.8844223752E-03
    0.1900000000E+02    0.6255764583E-04    0.3666731838E-04    0.5290584132E+00    0.6332290167E-04    0.9882809464E-03
    0.2100000000E+02    0.6739075357E-04    0.3953001115E-04    0.5414261801E+00    0.6909187586E-04    0.1092099423E-02
    0.2300000000E+02    0.7218955374E-04    0.4237422426E-04    0.5520878613E+00    0.7486278710E-04    0.1195877834E-02
    0.2500000000E+02    0.7696399083E-04    0.4520549606E-04    0.5613737132E+00    0.8063795383E-04    0.1299616207E-02
    0.2700000000E+02    0.8172100155E-04    0.4802766504E-04    0.5695339183E+00    0.8641851520E-04    0.1403314571E-02
    0.2900000000E+02    0.8646549003E-04    0.5084342521E-04    0.5767614667E+00    0.9220490602E-04    0.1506972952E-02
    0.3100000000E+02    0.9120095963E-04    0.5365468512E-04    0.5832076154E+00    0.9799714199E-04    0.1610591377E-02
    0.3300000000E+02    0.9592993201E-04    0.5646280514E-04    0.5889925910E+00    0.1037949937E-03    0.1714169873E-02
    0.3500000000E+02    0.1006542308E-03    0.5926875772E-04    0.5942131585E+00    0.1095980939E-03    0.1817708466E-02
    0.3700000000E+02    0.1053751770E-03    0.6207323742E-04    0.5989480787E+00    0.1154060040E-03    0.1921207182E-02
    0.3900000000E+02    0.1100937259E-03    0.6487673778E-04    0.6032621088E+00    0.1212182554E-03    0.2024666048E-02
    0.4100000000E+02    0.1148105645E-03    0.6767960564E-04    0.6072089828E+00    0.1270343745E-03    0.2128085088E-02
    0.4300000000E+02    0.1195261809E-03    0.7048208011E-04    0.6108336610E+00    0.1328538985E-03    0.2231464329E-02
    0.4500000000E+02    0.1242409157E-03    0.7328432079E-04    0.6141740508E+00    0.1386763837E-03    0.2334803796E-02
    0.4700000000E+02    0.1289549990E-03    0.7608642837E-04    0.6172623370E+00    0.1445014107E-03    0.2438103515E-02
    0.4900000000E+02    0.1336685782E-03    0.7888845986E-04    0.6201260230E+00    0.1503285863E-03    0.2541363512E-02
    0.1000000000E+02    0.3976841918E-04    0.2320931193E-04    0.4351313770E+00    0.3715471462E-04    0.5206011703E-03
    0.3000000000E+02    0.8883417542E-04    0.5224952200E-04    0.5800740756E+00    0.9510030346E-04    0.1558787157E-02
    0.5000000000E+02    0.1360252073E-03    0.8028945579E-04    0.6214811613E+00    0.1532428643E-03    0.2592978622E-02
    0.7000000000E+02    0.1831333481E-03    0.1083019547E-03    0.6410951876E+00    0.2115659457E-03    0.3623201590E-02
    0.9000000000E+02    0.2301499190E-03    0.1362674698E-03    0.6525370201E+00    0.2698256814E-03    0.4649481244E-02
    0.1100000000E+03    0.2770043802E-03    0.1641403516E-03    0.6600336338E+00    0.3279085685E-03    0.5671842434E-02
    0.1300000000E+03    0.3236456490E-03    0.1918890719E-03    0.6653255327E+00    0.3857586333E-03    0.6690309765E-02
    0.1500000000E+03    0.3700402411E-03    0.2194933480E-03    0.6692606585E+00    0.4433460506E-03    0.7704907613E-02
    0.1700000000E+03    0.4161662502E-03    0.2469400524E-03    0.6723015298E+00    0.5006540201E-03    0.8715660142E-02
    0.1900000000E+03    0.4620091798E-03    0.2742205621E-03    0.6747218853E+00    0.5576727747E-03    0.9722591304E-02
    0.2100000000E+03    0.5075593593E-03    0.3013291568E-03    0.6766940816E+00    0.6143966026E-03    0.1072572485E-01
    0.2300000000E+03    0.5528103455E-03    0.3282620438E-03    0.6783320509E+00    0.6708222581E-03    0.1172508432E-01
    0.2500000000E+03    0.5977579130E-03    0.3550167468E-03    0.6797141228E+00    0.7269480616E-03    0.1272069307E-01
    0.2700000000E+03    0.6423993973E-03    0.3815917124E-03    0.6808959235E+00    0.7827733645E-03    0.1371257424E-01
    0.2900000000E+03    0.6867332575E-03    0.4079860486E-03    0.6819180456E+00    0.8382982169E-03    0.1470075079E-01
    0.3100000000E+03    0.7307587770E-03    0.4341993471E-03    0.6828108056E+00    0.8935231545E-03    0.1568524549E-01
    0.3300000000E+03    0.7744758535E-03    0.4602315590E-03    0.6835973021E+00    0.9484490568E-03    0.1666608091E-01
    0.3500000000E+03    0.8178848498E-03    0.4860829069E-03    0.6842954432E+00    0.1003077051E-02    0.1764327943E-01
    0.3700000000E+03    0.8609864845E-03    0.5117538208E-03    0.6849193269E+00    0.1057408445E-02    0.1861686326E-01
    0.3900000000E+03    0.9037817518E-03    0.5372448904E-03    0.6854802034E+00    0.1111444681E-02    0.1958685441E-01
    0.4100000000E+03    0.9462718606E-03    0.5625568301E-03    0.6859871595E+00    0.1165187298E-02    0.2055327471E-01
    0.4300000000E+03    0.9884581887E-03    0.5876904521E-03    0.6864476148E+00    0.1218637910E-02    0.2151614581E-01
    0.4500000000E+03    0.1030342247E-02    0.6126466452E-03    0.6868676870E+00    0.1271798184E-02    0.2247548920E-01
    0.4700000000E+03    0.1071925653E-02    0.6374263594E-03    0.6872524662E+00    0.1324669827E-02    0.2343132616E-01
    0.4900000000E+03    0.1113210105E-02    0.6620305925E-03    0.6876062211E+00    0.1377254577E-02    0.2438367782E-01
    0.1000000000E+03    0.2536010971E-03    0.1502177811E-03    0.6566389106E+00    0.2988935773E-03    0.5161150104E-02
    0.3000000000E+03    0.7087845786E-03    0.4211153379E-03    0.6823790107E+00    0.8659481269E-03    0.1519345696E-01
    0.5000000000E+03    0.1133740774E-02    0.6742672262E-03    0.6877726140E+00    0.1403439916E-02    0.2485855322E-01
    0.7000000000E+03    0.1529114227E-02    0.9100536559E-03    0.6901107789E+00    0.1912519554E-02    0.3417811510E-01
    0.9000000000E+03    0.1896788978E-02    0.1129576801E-02    0.6914168367E+00    0.2394940561E-02    0.4317211170E-01
    0.1100000000E+04    0.2238686730E-02    0.1333958534E-02    0.6922506491E+00    0.2852390302E-02    0.5185897001E-01
    0.1300000000E+04    0.2556623570E-02    0.1524258399E-02    0.6928291499E+00    0.3286439220E-02    0.6025572071E-01
    0.1500000000E+04    0.2852285834E-02    0.1701460091E-02    0.6932540436E+00    0.3698539987E-02    0.6837812780E-01
    0.1700000000E+04    0.3127231072E-02    0.1866472229E-02    0.6935793461E+00    0.4090035012E-02    0.7624080412E-01
    0.1900000000E+04    0.3382895616E-02    0.2020132855E-02    0.6938364033E+00    0.4462165356E-02    0.8385731454E-01
    0.2100000000E+04    0.3620603793E-02    0.2163214838E-02    0.6940446548E+00    0.4816079442E-02    0.9124026826E-01
    0.2300000000E+04    0.3841577185E-02    0.2296431275E-02    0.6942167972E+00    0.5152841130E-02    0.9840140163E-01
    0.2500000000E+04    0.4046943392E-02    0.2420440601E-02    0.6943614742E+00    0.5473437080E-02    0.1053516525E+00
    0.2700000000E+04    0.4237744134E-02    0.2535851300E-02    0.6944847745E+00    0.5778783420E-02    0.1121012273E+00
    0.2900000000E+04    0.4414942642E-02    0.2643226201E-02    0.6945911107E+00    0.6069731764E-02    0.1186596610E+00
    0.3100000000E+04    0.4579430386E-02    0.2743086394E-02    0.6946837591E+00    0.6347074654E-02    0.1250358723E+00
    0.3300000000E+04    0.4732033174E-02    0.2835914765E-02    0.6947652034E+00    0.6611550471E-02    0.1312382120E+00
    0.3500000000E+04    0.4873516672E-02    0.2922159211E-02    0.6948373604E+00    0.6863847875E-02    0.1372745086E+00
    0.3700000000E+04    0.5004591416E-02    0.3002235546E-02    0.6949017333E+00    0.7104609825E-02    0.1431521083E+00
    0.3900000000E+04    0.5125917347E-02    0.3076530140E-02    0.6949595177E+00    0.7334437228E-02    0.1488779117E+00
    0.4100000000E+04    0.5238107935E-02    0.3145402308E-02    0.6950116759E+00    0.7553892240E-02    0.1544584079E+00
    0.4300000000E+04    0.5341733910E-02    0.3209186480E-02    0.6950589918E+00    0.7763501270E-02    0.1598997044E+00
    0.4500000000E+04    0.5437326667E-02    0.3268194183E-02    0.6951021099E+00    0.7963757720E-02    0.1652075554E+00
    0.4700000000E+04    0.5525381356E-02    0.3322715827E-02    0.6951415653E+00    0.8155124470E-02    0.1703873870E+00
    0.4900000000E+04    0.5606359703E-02    0.3373022351E-02    0.6951778057E+00    0.8338036151E-02    0.1754443208E+00
    0.1000000000E+04    0.2070843511E-02    0.1233592386E-02    0.6918751723E+00    0.2626685863E-02    0.4755283759E-01
    0.3000000000E+04    0.4498722275E-02    0.2694064600E-02    0.6946389752E+00    0.6210056527E-02    0.1218700098E+00
    0.5000000000E+04    0.5644331033E-02    0.3396674656E-02    0.6951948407E+00    0.8426449954E-02    0.1779282235E+00
    0.7000000000E+04    0.6122716355E-02    0.3701597923E-02    0.6954334750E+00    0.9837977208E-02    0.2221982605E+00
    0.9000000000E+04    0.6240331829E-02    0.3789187153E-02    0.6955661813E+00    0.1074544237E-01    0.2583320179E+00
    0.1100000000E+05    0.6159825711E-02    0.3755754096E-02    0.6956506910E+00    0.1132263958E-01    0.2885593348E+00
    0.1300000000E+05    0.5971541521E-02    0.3655191928E-02    0.6957092308E+00    0.1167606235E-01    0.3143282046E+00
    0.1500000000E+05    0.5727276075E-02    0.3518673148E-02    0.6957521803E+00    0.1187404005E-01    0.3366263991E+00
    0.1700000000E+05    0.5457326295E-02    0.3364626942E-02    0.6957850376E+00    0.1196205102E-01    0.3561552997E+00
    0.1900000000E+05    0.5179570683E-02    0.3204074322E-02    0.6958109871E+00    0.1197127124E-01    0.3734296547E+00
    0.2100000000E+05    0.4904520587E-02    0.3043608593E-02    0.6958320008E+00    0.1192359109E-01    0.3888377731E+00
    0.2300000000E+05    0.4638229918E-02    0.2887120832E-02    0.6958493654E+00    0.1183468537E-01    0.4026794321E+00
    0.2500000000E+05    0.4384019692E-02    0.2736828380E-02    0.6958639557E+00    0.1171595983E-01    0.4151906415E+00
    0.2700000000E+05    0.4143523980E-02    0.2593902639E-02    0.6958763879E+00    0.1157582346E-01    0.4265603476E+00
    0.2900000000E+05    0.3917336041E-02    0.2458859731E-02    0.6958871080E+00    0.1142054208E-01    0.4369420196E+00
    0.3100000000E+05    0.3705413148E-02    0.2331807286E-02    0.6958964471E+00    0.1125482404E-01    0.4464618847E+00
    0.3300000000E+05    0.3507332789E-02    0.2212602138E-02    0.6959046560E+00    0.1108223032E-01    0.4552249112E+00
    0.3500000000E+05    0.3322455769E-02    0.2100951841E-02    0.6959119284E+00    0.1090546643E-01    0.4633192390E+00
    0.3700000000E+05    0.3150030175E-02    0.1996480274E-02    0.6959184159E+00    0.1072659361E-01    0.4708195170E+00
    0.3900000000E+05    0.2989257365E-02    0.1898769978E-02    0.6959242392E+00    0.1054718345E-01    0.4777894568E+00
    0.4100000000E+05    0.2839333370E-02    0.1807389312E-02    0.6959294954E+00    0.1036843271E-01    0.4842838126E+00
    0.4300000000E+05    0.2699474274E-02    0.1721909606E-02    0.6959342635E+00    0.1019124924E-01    0.4903499366E+00
    0.4500000000E+05    0.2568931159E-02    0.1641915720E-02    0.6959386085E+00    0.1001631710E-01    0.4960290130E+00
    0.4700000000E+05    0.2446998228E-02    0.1567012228E-02    0.6959425845E+00    0.9844146154E-02    0.5013570491E+00
    0.4900000000E+05    0.2333016526E-02    0.1496826735E-02    0.6959462365E+00    0.9675110246E-02    0.5063656766E+00
    0.1000000000E+05    0.6218011956E-02    0.3783532715E-02    0.6956126552E+00    0.1106752579E-01    0.2740799127E+00
    0.3000000000E+05    0.3809611235E-02    0.2394339175E-02    0.6958919329E+00    0.1133874208E-01    0.4418026774E+00
    0.5000000000E+05    0.2278814531E-02    0.1463393540E-02    0.6959479531E+00    0.9591854972E-02    0.5087590641E+00
    0.7000000000E+05    0.1488059169E-02    0.9709616769E-03    0.6959720030E+00    0.8121137685E-02    0.5451655237E+00
    0.9000000000E+05    0.1041323622E-02    0.6881067130E-03    0.6959853814E+00    0.6991388352E-02    0.5680365497E+00
    0.1100000000E+06    0.7672521029E-03    0.5123236995E-03    0.6959939037E+00    0.6118777534E-02    0.5837222021E+00
    0.1300000000E+06    0.5878736654E-03    0.3960523674E-03    0.6959998089E+00    0.5431182152E-02    0.5951407970E+00
    0.1500000000E+06    0.4643818833E-03    0.3152856823E-03    0.6960041426E+00    0.4877964717E-02    0.6038208531E+00
    0.1700000000E+06    0.3758768461E-03    0.2569489634E-03    0.6960074587E+00    0.4424388839E-02    0.6106398079E+00
    0.1900000000E+06    0.3103450891E-03    0.2134565623E-03    0.6960100781E+00    0.4046334860E-02    0.6161369898E+00
    0.2100000000E+06    0.2605010239E-03    0.1801712811E-03    0.6960121995E+00    0.3726705029E-02    0.6206619977E+00
    0.2300000000E+06    0.2217251439E-03    0.1541321898E-03    0.6960139526E+00    0.3453111178E-02    0.6244513009E+00
    0.2500000000E+06    0.1909766663E-03    0.1333780526E-03    0.6960154258E+00    0.3216388863E-02    0.6276705285E+00
    0.2700000000E+06    0.1661892045E-03    0.1165685627E-03    0.6960166810E+00    0.3009628033E-02    0.6304391231E+00
    0.2900000000E+06    0.1459195069E-03    0.1027627697E-03    0.6960177634E+00    0.2827527934E-02    0.6328453758E+00
    0.3100000000E+06    0.1291352497E-03    0.9128444620E-04    0.6960187063E+00    0.2665958775E-02    0.6349559514E+00
    0.3300000000E+06    0.1150824579E-03    0.8163753436E-04    0.6960195350E+00    0.2521657848E-02    0.6368221224E+00
    0.3500000000E+06    0.1032002024E-03    0.7345148063E-04    0.6960202691E+00    0.2392014828E-02    0.6384839657E+00
    0.3700000000E+06    0.9306426792E-04    0.6644497688E-04    0.6960209238E+00    0.2274917433E-02    0.6399732576E+00
    0.3900000000E+06    0.8434908386E-04    0.6040135531E-04    0.6960215115E+00    0.2168638654E-02    0.6413155160E+00
    0.4100000000E+06    0.7680145799E-04    0.5515154702E-04    0.6960220418E+00    0.2071753150E-02    0.6425314673E+00
    0.4300000000E+06    0.7022211395E-04    0.5056206027E-04    0.6960225227E+00    0.1983074400E-02    0.6436381203E+00
    0.4500000000E+06    0.6445249293E-04    0.4652635733E-04    0.6960229609E+00    0.1901606888E-02    0.6446495632E+00
    0.4700000000E+06    0.5936517319E-04    0.4295857497E-04    0.6960233617E+00    0.1826509282E-02    0.6455775645E+00
    0.4900000000E+06    0.5485681765E-04    0.3978888799E-04    0.6960237298E+00    0.1757065792E-02    0.6464320312E+00
    0.1000000000E+06    0.8888885058E-03    0.5905869317E-03    0.6959900677E+00    0.6527996023E-02    0.5765487957E+00
    0.3000000000E+06    0.1371441703E-03    0.9676714864E-04    0.6960182505E+00    0.2744398361E-02    0.6339341149E+00
    0.5000000000E+06    0.5279272205E-04    0.3833502365E-04    0.6960239028E+00    0.1724269345E-02    0.6468343647E+00
    0.7000000000E+06    0.2772721163E-04    0.2051180334E-04    0.6960263221E+00    0.1254440490E-02    0.6525161965E+00
    0.9000000000E+06    0.1705768805E-04    0.1278975592E-04    0.6960276614E+00    0.9847998617E-03    0.6557121202E+00
    0.1100000000E+07    0.1155231739E-04    0.8751572516E-05    0.6960285093E+00    0.8100494760E-03    0.6577602720E+00
    0.1300000000E+07    0.8346519708E-05    0.6374720630E-05    0.6960290925E+00    0.6876690707E-03    0.6591846457E+00
    0.1500000000E+07    0.6317624281E-05    0.4856931476E-05    0.6960295168E+00    0.5972220903E-03    0.6602324556E+00
    0.1700000000E+07    0.4952838985E-05    0.3828127084E-05    0.6960298385E+00    0.5276730181E-03    0.6610355479E+00
    0.1900000000E+07    0.3990977878E-05    0.3098228123E-05    0.6960300900E+00    0.4725417859E-03    0.6616706612E+00
    0.2100000000E+07    0.3287666934E-05    0.2561399508E-05    0.6960302913E+00    0.4277742114E-03    0.6621854911E+00
    0.2300000000E+07    0.2757841330E-05    0.2154881807E-05    0.6960304558E+00    0.3907045241E-03    0.6626112408E+00
    0.2500000000E+07    0.2348744823E-05    0.1839527909E-05    0.6960305921E+00    0.3595081939E-03    0.6629691817E+00
    0.2700000000E+07    0.2026251338E-05    0.1589882927E-05    0.6960307068E+00    0.3328945329E-03    0.6632743133E+00
    0.2900000000E+07    0.1767494378E-05    0.1388809436E-05    0.6960308042E+00    0.3099248625E-03    0.6635375156E+00
    0.3100000000E+07    0.1556686617E-05    0.1224423835E-05    0.6960308877E+00    0.2899002349E-03    0.6637668728E+00
    0.3300000000E+07    0.1382644082E-05    0.1088273623E-05    0.6960309600E+00    0.2722895377E-03    0.6639685164E+00
    0.3500000000E+07    0.1237264565E-05    0.9742124456E-06    0.6960310229E+00    0.2566819987E-03    0.6641471817E+00
    0.3700000000E+07    0.1114561991E-05    0.8776833856E-06    0.6960310780E+00    0.2427549491E-03    0.6643065834E+00
    0.3900000000E+07    0.1010036189E-05    0.7952494645E-06    0.6960311265E+00    0.2302514190E-03    0.6644496766E+00
    0.4100000000E+07    0.9202512292E-06    0.7242784547E-06    0.6960311695E+00    0.2189642355E-03    0.6645788416E+00
    0.4300000000E+07    0.8425470420E-06    0.6627266118E-06    0.6960312076E+00    0.2087245256E-03    0.6646960169E+00
    0.4500000000E+07    0.7748382461E-06    0.6089873540E-06    0.6960312416E+00    0.1993932614E-03    0.6648027974E+00
    0.4700000000E+07    0.7154713083E-06    0.5617835058E-06    0.6960312721E+00    0.1908549501E-03    0.6649005072E+00
    0.4900000000E+07    0.6631214725E-06    0.5200893315E-06    0.6960312993E+00    0.1830128595E-03    0.6649902546E+00
    0.1000000000E+07    0.1390330789E-04    0.1048179839E-04    0.6960281283E+00    0.8889869182E-03    0.6568372350E+00
    0.3000000000E+07    0.1656882471E-05    0.1302623646E-05    0.6960308475E+00    0.2995808982E-03    0.6636560035E+00
    0.5000000000E+07    0.6392348829E-06    0.5010421763E-06    0.6960313119E+00    0.1793268797E-03    0.6650324403E+00
    0.7000000000E+07    0.3529321156E-06    0.2715263556E-06    0.6960314655E+00    0.1277261591E-03    0.6656233227E+00
    0.9000000000E+07    0.2324727873E-06    0.1742731114E-06    0.6960315209E+00    0.9908524457E-04    0.6659517912E+00
    0.1100000000E+08    0.1699868466E-06    0.1237575783E-06    0.6960315345E+00    0.8088428887E-04    0.6661608792E+00
    0.1300000000E+08    0.1330784586E-06    0.9399149839E-07    0.6960315274E+00    0.6830194375E-04    0.6663056592E+00
    0.1500000000E+08    0.1092527697E-06    0.7487310780E-07    0.6960315091E+00    0.5908796395E-04    0.6664118462E+00
    0.1700000000E+08    0.9284432741E-07    0.6179805218E-07    0.6960314844E+00    0.5205145631E-04    0.6664930585E+00
    0.1900000000E+08    0.8097346863E-07    0.5241806556E-07    0.6960314559E+00    0.4650334669E-04    0.6665571818E+00
    0.2100000000E+08    0.7204611851E-07    0.4543065102E-07    0.6960314251E+00    0.4201735128E-04    0.6666090983E+00
    0.2300000000E+08    0.6511931757E-07    0.4006465971E-07    0.6960313930E+00    0.3831565811E-04    0.6666519923E+00
    0.2500000000E+08    0.5960481141E-07    0.3583904204E-07    0.6960313603E+00    0.3520949335E-04    0.6666880291E+00
    0.2700000000E+08    0.5511927217E-07    0.3244058339E-07    0.6960313273E+00    0.3256611327E-04    0.6667187326E+00
