  Pressure (Pa) 22mC5-500 (mol/kg) 23mC5-500 (mol/kg) 24mC5-500 (mol/kg) 2mC6-500 (mol/kg) 3mC6-500 (mol/kg)
    0.1000000000E+01    0.6601203985E-05    0.6707441118E-05    0.1266363921E+00    0.5460789444E-05    0.3126432631E-04
    0.3000000000E+01    0.1577177717E-04    0.1604953941E-04    0.2785428576E+00    0.1358971205E-04    0.9377980387E-04
    0.5000000000E+01    0.2261227991E-04    0.2304853426E-04    0.3664611808E+00    0.2025481884E-04    0.1562779090E-03
    0.7000000000E+01    0.2846644452E-04    0.2906225823E-04    0.4237889180E+00    0.2638829783E-04    0.2187587425E-03
    0.9000000000E+01    0.3383853490E-04    0.3459804513E-04    0.4641260758E+00    0.3230694918E-04    0.2812223529E-03
    0.1100000000E+02    0.3895264877E-04    0.3988028315E-04    0.4940513594E+00    0.3813636212E-04    0.3436687690E-03
    0.1300000000E+02    0.4392014277E-04    0.4501989285E-04    0.5171353444E+00    0.4393116315E-04    0.4060980106E-03
    0.1500000000E+02    0.4880089504E-04    0.5007617579E-04    0.5354834471E+00    0.4971637968E-04    0.4685100934E-03
    0.1700000000E+02    0.5362902723E-04    0.5508270891E-04    0.5504175279E+00    0.5550366085E-04    0.5309050303E-03
    0.1900000000E+02    0.5842485043E-04    0.6005933422E-04    0.5628093781E+00    0.6129826748E-04    0.5932828329E-03
    0.2100000000E+02    0.6320085941E-04    0.6501815582E-04    0.5732572455E+00    0.6710230244E-04    0.6556435117E-03
    0.2300000000E+02    0.6796493037E-04    0.6996672844E-04    0.5821853191E+00    0.7291628403E-04    0.7179870767E-03
    0.2500000000E+02    0.7272211378E-04    0.7490983860E-04    0.5899027400E+00    0.7873994222E-04    0.7803135373E-03
    0.2700000000E+02    0.7747568141E-04    0.7985054093E-04    0.5966401288E+00    0.8457263240E-04    0.8426229027E-03
    0.2900000000E+02    0.8222775929E-04    0.8479078205E-04    0.6025730271E+00    0.9041355352E-04    0.9049151819E-03
    0.3100000000E+02    0.8697972145E-04    0.8973178697E-04    0.6078374143E+00    0.9626186300E-04    0.9671903838E-03
    0.3300000000E+02    0.9173244095E-04    0.9467430434E-04    0.6125402586E+00    0.1021167363E-03    0.1029448517E-02
    0.3500000000E+02    0.9648645345E-04    0.9961876522E-04    0.6167668622E+00    0.1079773960E-03    0.1091689590E-02
    0.3700000000E+02    0.1012420655E-03    0.1045653879E-03    0.6205860822E+00    0.1138431245E-03    0.1153913611E-02
    0.3900000000E+02    0.1059994276E-03    0.1095142477E-03    0.6240541118E+00    0.1197132675E-03    0.1216120589E-02
    0.4100000000E+02    0.1107585838E-03    0.1144653248E-03    0.6272172634E+00    0.1255872328E-03    0.1278310532E-02
    0.4300000000E+02    0.1155195061E-03    0.1194185360E-03    0.6301140489E+00    0.1314644867E-03    0.1340483448E-02
    0.4500000000E+02    0.1202821182E-03    0.1243737576E-03    0.6327767561E+00    0.1373445489E-03    0.1402639346E-02
    0.4700000000E+02    0.1250463120E-03    0.1293308405E-03    0.6352326567E+00    0.1432269882E-03    0.1464778234E-02
    0.4900000000E+02    0.1298119597E-03    0.1342896211E-03    0.6375049443E+00    0.1491114169E-03    0.1526900120E-02
    0.1000000000E+02    0.3641921539E-04    0.3726225456E-04    0.4801208565E+00    0.3522840530E-04    0.3124477089E-03
    0.3000000000E+02    0.8460369078E-04    0.8726113327E-04    0.6052815177E+00    0.9333683712E-04    0.9360549170E-03
    0.5000000000E+02    0.1321952853E-03    0.1367695947E-03    0.6385785504E+00    0.1520542669E-03    0.1557954690E-02
    0.7000000000E+02    0.1799032313E-03    0.1864174869E-03    0.6539983642E+00    0.2109477159E-03    0.2178155488E-02
    0.9000000000E+02    0.2276076396E-03    0.2360665590E-03    0.6628916027E+00    0.2697997609E-03    0.2796665420E-02
    0.1100000000E+03    0.2752247785E-03    0.2856269795E-03    0.6686782543E+00    0.3285235868E-03    0.3413492489E-02
    0.1300000000E+03    0.3227055028E-03    0.3350471097E-03    0.6727441188E+00    0.3870790312E-03    0.4028644629E-02
    0.1500000000E+03    0.3700201473E-03    0.3842961289E-03    0.6757574384E+00    0.4454453848E-03    0.4642129717E-02
    0.1700000000E+03    0.4171500502E-03    0.4333547963E-03    0.6780801032E+00    0.5036111653E-03    0.5253955572E-02
    0.1900000000E+03    0.4640830584E-03    0.4822106562E-03    0.6799251577E+00    0.5615697155E-03    0.5864129964E-02
    0.2100000000E+03    0.5108110575E-03    0.5308554335E-03    0.6814261914E+00    0.6193170991E-03    0.6472660610E-02
    0.2300000000E+03    0.5573285460E-03    0.5792835447E-03    0.6826712211E+00    0.6768510072E-03    0.7079555178E-02
    0.2500000000E+03    0.6036317763E-03    0.6274912044E-03    0.6837205974E+00    0.7341701524E-03    0.7684821286E-02
    0.2700000000E+03    0.6497182139E-03    0.6754758671E-03    0.6846170829E+00    0.7912739136E-03    0.8288466503E-02
    0.2900000000E+03    0.6955861868E-03    0.7232358653E-03    0.6853918244E+00    0.8481621189E-03    0.8890498350E-02
    0.3100000000E+03    0.7412346494E-03    0.7707701680E-03    0.6860680464E+00    0.9048349068E-03    0.9490924300E-02
    0.3300000000E+03    0.7866630202E-03    0.8180782146E-03    0.6866634189E+00    0.9612926362E-03    0.1008975178E-01
    0.3500000000E+03    0.8318710679E-03    0.8651597985E-03    0.6871916248E+00    0.1017535824E-02    0.1068698816E-01
    0.3700000000E+03    0.8768588290E-03    0.9120149829E-03    0.6876634241E+00    0.1073565105E-02    0.1128264079E-01
    0.3900000000E+03    0.9216265469E-03    0.9586440396E-03    0.6880873950E+00    0.1129381198E-02    0.1187671694E-01
    0.4100000000E+03    0.9661746275E-03    0.1005047404E-02    0.6884704600E+00    0.1184984889E-02    0.1246922386E-01
    0.4300000000E+03    0.1010503605E-02    0.1051225639E-02    0.6888182674E+00    0.1240377009E-02    0.1306016873E-01
    0.4500000000E+03    0.1054614116E-02    0.1097179411E-02    0.6891354710E+00    0.1295558429E-02    0.1364955872E-01
    0.4700000000E+03    0.1098506878E-02    0.1142909468E-02    0.6894259403E+00    0.1350530048E-02    0.1423740092E-01
    0.4900000000E+03    0.1142182677E-02    0.1188416624E-02    0.6896929188E+00    0.1405292785E-02    0.1482370239E-01
    0.1000000000E+03    0.2514307853E-03    0.2608617202E-03    0.6660617748E+00    0.2991808564E-03    0.3105288815E-02
    0.3000000000E+03    0.7184379026E-03    0.7470312730E-03    0.6857410372E+00    0.8765254219E-03    0.9190911597E-02
    0.5000000000E+03    0.1163939474E-02    0.1211086883E-02    0.6898184719E+00    0.1432596114E-02    0.1511627754E-01
    0.7000000000E+03    0.1587909497E-02    0.1653021374E-02    0.6915811740E+00    0.1967930049E-02    0.2088858572E-01
    0.9000000000E+03    0.1991303731E-02    0.2073817721E-02    0.6925645093E+00    0.2483478743E-02    0.2651459917E-01
    0.1100000000E+04    0.2375159122E-02    0.2474537420E-02    0.6931918130E+00    0.2980181923E-02    0.3200067769E-01
    0.1300000000E+04    0.2740486233E-02    0.2856213541E-02    0.6936268209E+00    0.3458932702E-02    0.3735280750E-01
    0.1500000000E+04    0.3088246515E-02    0.3219828448E-02    0.6939462106E+00    0.3920573563E-02    0.4257662823E-01
    0.1700000000E+04    0.3419347735E-02    0.3566309493E-02    0.6941906743E+00    0.4365897854E-02    0.4767745766E-01
    0.1900000000E+04    0.3734644628E-02    0.3896529829E-02    0.6943838130E+00    0.4795652531E-02    0.5266031437E-01
    0.2100000000E+04    0.4034941252E-02    0.4211310892E-02    0.6945402569E+00    0.5210541137E-02    0.5752993845E-01
    0.2300000000E+04    0.4320993897E-02    0.4511425398E-02    0.6946695580E+00    0.5611226721E-02    0.6229081065E-01
    0.2500000000E+04    0.4593514083E-02    0.4797600424E-02    0.6947782174E+00    0.5998334585E-02    0.6694716983E-01
    0.2700000000E+04    0.4853171494E-02    0.5070520403E-02    0.6948708136E+00    0.6372454858E-02    0.7150302914E-01
    0.2900000000E+04    0.5100596763E-02    0.5330829972E-02    0.6949506640E+00    0.6734144870E-02    0.7596219087E-01
    0.3100000000E+04    0.5336384085E-02    0.5579136631E-02    0.6950202314E+00    0.7083931351E-02    0.8032826011E-01
    0.3300000000E+04    0.5561093650E-02    0.5816013230E-02    0.6950813824E+00    0.7422312470E-02    0.8460465751E-01
    0.3500000000E+04    0.5775253908E-02    0.6042000272E-02    0.6951355576E+00    0.7749759703E-02    0.8879463086E-01
    0.3700000000E+04    0.5979363670E-02    0.6257608048E-02    0.6951838865E+00    0.8066719575E-02    0.9290126599E-01
    0.3900000000E+04    0.6173894042E-02    0.6463318620E-02    0.6952272672E+00    0.8373615260E-02    0.9692749677E-01
    0.4100000000E+04    0.6359290236E-02    0.6659587650E-02    0.6952664229E+00    0.8670848067E-02    0.1008761144E+00
    0.4300000000E+04    0.6535973233E-02    0.6846846101E-02    0.6953019423E+00    0.8958798809E-02    0.1047497760E+00
    0.4500000000E+04    0.6704341327E-02    0.7025501809E-02    0.6953343096E+00    0.9237829084E-02    0.1085510127E+00
    0.4700000000E+04    0.6864771564E-02    0.7195940942E-02    0.6953639267E+00    0.9508282449E-02    0.1122822368E+00
    0.4900000000E+04    0.7017621064E-02    0.7358529354E-02    0.6953911299E+00    0.9770485519E-02    0.1159457493E+00
    0.1000000000E+04    0.2185609591E-02    0.2276621513E-02    0.6929093756E+00    0.2734129017E-02    0.2927474773E-01
    0.3000000000E+04    0.5219909386E-02    0.5456447078E-02    0.6949866048E+00    0.6910494269E-02    0.7815664408E-01
    0.5000000000E+04    0.7091309497E-02    0.7436988626E-02    0.6954039168E+00    0.9898590880E-02    0.1177528037E+00
    0.7000000000E+04    0.8240505047E-02    0.8669284296E-02    0.6955830280E+00    0.1209553736E-01    0.1508227850E+00
    0.9000000000E+04    0.8924775727E-02    0.9417315023E-02    0.6956826243E+00    0.1374211621E-01    0.1790941850E+00
    0.1100000000E+05    0.9301713792E-02    0.9843261873E-02    0.6957460466E+00    0.1499227829E-01    0.2037067620E+00
    0.1300000000E+05    0.9471652056E-02    0.1005073274E-01    0.6957899785E+00    0.1594879980E-01    0.2254454327E+00
    0.1500000000E+05    0.9500486285E-02    0.1010803687E-01    0.6958222104E+00    0.1668278622E-01    0.2448704761E+00
    0.1700000000E+05    0.9432598171E-02    0.1006137979E-01    0.6958468686E+00    0.1724492521E-01    0.2623941723E+00
    0.1900000000E+05    0.9298494779E-02    0.9942674752E-02    0.6958663430E+00    0.1767227700E-01    0.2783279243E+00
    0.2100000000E+05    0.9119492344E-02    0.9774339865E-02    0.6958821134E+00    0.1799253165E-01    0.2929123266E+00
    0.2300000000E+05    0.8910678920E-02    0.9572338074E-02    0.6958951454E+00    0.1822676793E-01    0.3063369798E+00
    0.2500000000E+05    0.8682839479E-02    0.9348156635E-02    0.6959060955E+00    0.1839129340E-01    0.3187539186E+00
    0.2700000000E+05    0.8443736406E-02    0.9110126794E-02    0.6959154261E+00    0.1849890332E-01    0.3302869407E+00
    0.2900000000E+05    0.8198978812E-02    0.8864321958E-02    0.6959234719E+00    0.1855976154E-01    0.3410382330E+00
    0.3100000000E+05    0.7952623367E-02    0.8615180168E-02    0.6959304813E+00    0.1858202942E-01    0.3510931719E+00
    0.3300000000E+05    0.7707596180E-02    0.8365942479E-02    0.6959366427E+00    0.1857232300E-01    0.3605238643E+00
    0.3500000000E+05    0.7465993155E-02    0.8118966072E-02    0.6959421011E+00    0.1853605088E-01    0.3693918016E+00
    0.3700000000E+05    0.7229296485E-02    0.7875950713E-02    0.6959469706E+00    0.1847766748E-01    0.3777498799E+00
    0.3900000000E+05    0.6998532383E-02    0.7638104367E-02    0.6959513416E+00    0.1840086556E-01    0.3856439583E+00
    0.4100000000E+05    0.6774387089E-02    0.7406265505E-02    0.6959552870E+00    0.1830872430E-01    0.3931140761E+00
    0.4300000000E+05    0.6557292917E-02    0.7180994204E-02    0.6959588661E+00    0.1820382451E-01    0.4001954143E+00
    0.4500000000E+05    0.6347492526E-02    0.6962640520E-02    0.6959621278E+00    0.1808833915E-01    0.4069190645E+00
    0.4700000000E+05    0.6145087225E-02    0.6751396142E-02    0.6959651124E+00    0.1796410507E-01    0.4133126488E+00
    0.4900000000E+05    0.5950073469E-02    0.6547333632E-02    0.6959678539E+00    0.1783268055E-01    0.4194008241E+00
    0.1000000000E+05    0.9144380318E-02    0.9663038885E-02    0.6957175019E+00    0.1440940837E-01    0.1918023223E+00
    0.3000000000E+05    0.8075795446E-02    0.8739941731E-02    0.6959270932E+00    0.1857527399E-01    0.3461479637E+00
    0.5000000000E+05    0.5855315598E-02    0.6447993200E-02    0.6959691426E+00    0.1776469421E-01    0.4223373816E+00
    0.7000000000E+05    0.4307265610E-02    0.4808233945E-02    0.6959871986E+00    0.1626124804E-01    0.4693716977E+00
    0.9000000000E+05    0.3267082674E-02    0.3687973097E-02    0.6959972448E+00    0.1477381472E-01    0.5014533682E+00
    0.1100000000E+06    0.2550588772E-02    0.2906474758E-02    0.6960036459E+00    0.1344805610E-01    0.5247274970E+00
    0.1300000000E+06    0.2041004336E-02    0.2344873744E-02    0.6960080823E+00    0.1229866261E-01    0.5423632562E+00
    0.1500000000E+06    0.1667533459E-02    0.1929650765E-02    0.6960113387E+00    0.1130769425E-01    0.5561732028E+00
    0.1700000000E+06    0.1386494629E-02    0.1614799030E-02    0.6960138310E+00    0.1045131291E-01    0.5672706252E+00
    0.1900000000E+06    0.1170118340E-02    0.1370746081E-02    0.6960158001E+00    0.9707289887E-02    0.5763769308E+00
    0.2100000000E+06    0.1000196871E-02    0.1177924207E-02    0.6960173953E+00    0.9056768787E-02    0.5839797840E+00
    0.2300000000E+06    0.8644422885E-03    0.1023024051E-02    0.6960187138E+00    0.8484275614E-02    0.5904204142E+00
    0.2500000000E+06    0.7543423195E-03    0.8967624216E-03    0.6960198220E+00    0.7977249452E-02    0.5959445647E+00
    0.2700000000E+06    0.6638606949E-03    0.7925160823E-03    0.6960207666E+00    0.7525506993E-02    0.6007335947E+00
    0.2900000000E+06    0.5886265730E-03    0.7054626804E-03    0.6960215812E+00    0.7120765853E-02    0.6049241954E+00
    0.3100000000E+06    0.5254153321E-03    0.6320265697E-03    0.6960222910E+00    0.6756253518E-02    0.6086212978E+00
    0.3300000000E+06    0.4718077491E-03    0.5695127543E-03    0.6960229150E+00    0.6426396952E-02    0.6119067589E+00
    0.3500000000E+06    0.4259612181E-03    0.5158597853E-03    0.6960234679E+00    0.6126579423E-02    0.6148453540E+00
    0.3700000000E+06    0.3864530192E-03    0.4694696150E-03    0.6960239612E+00    0.5852950680E-02    0.6174889969E+00
    0.3900000000E+06    0.3521709368E-03    0.4290882972E-03    0.6960244041E+00    0.5602278595E-02    0.6198797715E+00
    0.4100000000E+06    0.3222356190E-03    0.3937209424E-03    0.6960248038E+00    0.5371832761E-02    0.6220521472E+00
    0.4300000000E+06    0.2959446067E-03    0.3625701632E-03    0.6960251664E+00    0.5159292693E-02    0.6240346210E+00
    0.4500000000E+06    0.2727314080E-03    0.3349908971E-03    0.6960254969E+00    0.4962674991E-02    0.6258509546E+00
    0.4700000000E+06    0.2521351785E-03    0.3104568199E-03    0.6960257993E+00    0.4780275191E-02    0.6275211156E+00
    0.4900000000E+06    0.2337779873E-03    0.2885350791E-03    0.6960260770E+00    0.4610621044E-02    0.6290620046E+00
    0.1000000000E+06    0.2877033375E-02    0.3263627642E-02    0.6960007645E+00    0.1408847530E-01    0.5139497864E+00
    0.3000000000E+06    0.5556850606E-03    0.6672281886E-03    0.6960219479E+00    0.6933854370E-02    0.6068288577E+00
    0.5000000000E+06    0.2253392697E-03    0.2784393007E-03    0.6960262076E+00    0.4530167559E-02    0.6297885566E+00
    0.7000000000E+06    0.1209393596E-03    0.1523405245E-03    0.6960280361E+00    0.3354333465E-02    0.6401158090E+00
    0.9000000000E+06    0.7520884176E-04    0.9611553145E-04    0.6960290515E+00    0.2659788117E-02    0.6459765253E+00
    0.1100000000E+07    0.5122108671E-04    0.6621990166E-04    0.6960296966E+00    0.2201956085E-02    0.6497504859E+00
    0.1300000000E+07    0.3710517291E-04    0.4843276672E-04    0.6960301420E+00    0.1877712089E-02    0.6523828099E+00
    0.1500000000E+07    0.2810714672E-04    0.3698911376E-04    0.6960304674E+00    0.1636156715E-02    0.6543230409E+00
    0.1700000000E+07    0.2202359401E-04    0.2919001194E-04    0.6960307152E+00    0.1449302572E-02    0.6558122017E+00
    0.1900000000E+07    0.1772030367E-04    0.2363430449E-04    0.6960309097E+00    0.1300497309E-02    0.6569910921E+00
    0.2100000000E+07    0.1456530397E-04    0.1953547147E-04    0.6960310663E+00    0.1179217338E-02    0.6579474608E+00
    0.2300000000E+07    0.1218391718E-04    0.1642413451E-04    0.6960311948E+00    0.1078487977E-02    0.6587388325E+00
    0.2500000000E+07    0.1034261735E-04    0.1400601194E-04    0.6960313020E+00    0.9935048428E-03    0.6594044852E+00
    0.2700000000E+07    0.8889735540E-05    0.1208894869E-04    0.6960313927E+00    0.9208512204E-03    0.6599721516E+00
    0.2900000000E+07    0.7723306874E-05    0.1054312613E-04    0.6960314701E+00    0.8580311432E-03    0.6604619695E+00
    0.3100000000E+07    0.6772738769E-05    0.9278260121E-05    0.6960315371E+00    0.8031790256E-03    0.6608889144E+00
    0.3300000000E+07    0.5987906326E-05    0.8229973680E-05    0.6960315953E+00    0.7548726064E-03    0.6612643535E+00
    0.3500000000E+07    0.5332425452E-05    0.7351354068E-05    0.6960316464E+00    0.7120087371E-03    0.6615970709E+00
    0.3700000000E+07    0.4779370161E-05    0.6607555844E-05    0.6960316915E+00    0.6737186966E-03    0.6618939610E+00
    0.3900000000E+07    0.4308469574E-05    0.5972255271E-05    0.6960317316E+00    0.6393091027E-03    0.6621605114E+00
    0.4100000000E+07    0.3904228038E-05    0.5425263966E-05    0.6960317673E+00    0.6082198297E-03    0.6624011437E+00
    0.4300000000E+07    0.3554636643E-05    0.4950887823E-05    0.6960317993E+00    0.5799934855E-03    0.6626194603E+00
    0.4500000000E+07    0.3250272741E-05    0.4536776478E-05    0.6960318282E+00    0.5542529069E-03    0.6628184259E+00
    0.4700000000E+07    0.2983659476E-05    0.4173102538E-05    0.6960318542E+00    0.5306843194E-03    0.6630005025E+00
    0.4900000000E+07    0.2748802951E-05    0.3851966767E-05    0.6960318778E+00    0.5090245668E-03    0.6631677515E+00
    0.1000000000E+07    0.6150150183E-04    0.7907591834E-04    0.6960294065E+00    0.2409517545E-02    0.6480480093E+00
    0.3000000000E+07    0.7224558862E-05    0.9880086621E-05    0.6960315048E+00    0.8297066786E-03    0.6606825201E+00
    0.5000000000E+07    0.2641730452E-05    0.3705299359E-05    0.6960318888E+00    0.4988396476E-03    0.6632463701E+00
    0.7000000000E+07    0.1365965873E-05    0.1941980564E-05    0.6960320316E+00    0.3559706211E-03    0.6643477056E+00
    0.9000000000E+07    0.8382134057E-06    0.1200396142E-05    0.6960320964E+00    0.2764385175E-03    0.6649599687E+00
    0.1100000000E+08    0.5699872772E-06    0.8189751368E-06    0.6960321269E+00    0.2258101975E-03    0.6653496604E+00
    0.1300000000E+08    0.4151261482E-06    0.5967604390E-06    0.6960321398E+00    0.1907713252E-03    0.6656194440E+00
    0.1500000000E+08    0.3175804132E-06    0.4557993968E-06    0.6960321427E+00    0.1650920653E-03    0.6658172673E+00
    0.1700000000E+08    0.2521148125E-06    0.3606689226E-06    0.6960321396E+00    0.1454697089E-03    0.6659685248E+00
    0.1900000000E+08    0.2060050941E-06    0.2933694532E-06    0.6960321326E+00    0.1299908269E-03    0.6660879222E+00
    0.2100000000E+08    0.1722691122E-06    0.2439589810E-06    0.6960321231E+00    0.1174705644E-03    0.6661845637E+00
    0.2300000000E+08    0.1468152792E-06    0.2065781770E-06    0.6960321119E+00    0.1071361532E-03    0.6662643872E+00
    0.2500000000E+08    0.1271163206E-06    0.1775898125E-06    0.6960320996E+00    0.9846216996E-04    0.6663314303E+00
    0.2700000000E+08    0.1115423876E-06    0.1546378983E-06    0.6960320865E+00    0.9107895299E-04    0.6663885342E+00
