  Pressure (Pa) 22mC5-500 (mol/kg) 23mC5-500 (mol/kg) 24mC5-500 (mol/kg) 2mC6-500 (mol/kg) 3mC6-500 (mol/kg)
    0.1000000000E+01    0.7429183076E-05    0.6467548827E-05    0.3666015425E-01    0.4846497292E-04    0.1563183020E-04
    0.3000000000E+01    0.2054139969E-04    0.1788747188E-04    0.9948747555E-01    0.1352752157E-03    0.4688682937E-04
    0.5000000000E+01    0.3187091701E-04    0.2776212344E-04    0.1513714498E+00    0.2119745652E-03    0.7813030199E-04
    0.7000000000E+01    0.4188195726E-04    0.3649542687E-04    0.1949430423E+00    0.2814028676E-03    0.1093622692E-03
    0.9000000000E+01    0.5089531859E-04    0.4436627960E-04    0.2320523394E+00    0.3454894501E-03    0.1405827484E-03
    0.1100000000E+02    0.5913906097E-04    0.5157278131E-04    0.2640382537E+00    0.4055810828E-03    0.1717917542E-03
    0.1300000000E+02    0.6677925641E-04    0.5825905628E-04    0.2918936690E+00    0.4626396520E-03    0.2029892998E-03
    0.1500000000E+02    0.7393935578E-04    0.6453213967E-04    0.3163704459E+00    0.5173657301E-03    0.2341753968E-03
    0.1700000000E+02    0.8071278272E-04    0.7047295351E-04    0.3380483771E+00    0.5702782622E-03    0.2653500561E-03
    0.1900000000E+02    0.8717135271E-04    0.7614364092E-04    0.3573817503E+00    0.6217673536E-03    0.2965132880E-03
    0.2100000000E+02    0.9337103917E-04    0.8159258675E-04    0.3747315665E+00    0.6721300665E-03    0.3276651021E-03
    0.2300000000E+02    0.9935600744E-04    0.8685792831E-04    0.3903883182E+00    0.7215952006E-03    0.3588055078E-03
    0.2500000000E+02    0.1051614910E-03    0.9197005716E-04    0.4045884031E+00    0.7703407653E-03    0.3899345140E-03
    0.2700000000E+02    0.1108158772E-03    0.9695343231E-04    0.4175261575E+00    0.8185065005E-03    0.4210521296E-03
    0.2900000000E+02    0.1163422428E-03    0.1018279146E-03    0.4293628134E+00    0.8662029833E-03    0.4521583631E-03
    0.3100000000E+02    0.1217595006E-03    0.1066097619E-03    0.4402332601E+00    0.9135183387E-03    0.4832532229E-03
    0.3300000000E+02    0.1270832655E-03    0.1113123817E-03    0.4502512142E+00    0.9605232452E-03    0.5143367174E-03
    0.3500000000E+02    0.1323265176E-03    0.1159469052E-03    0.4595132167E+00    0.1007274710E-02    0.5454088548E-03
    0.3700000000E+02    0.1375001140E-03    0.1205226312E-03    0.4681017586E+00    0.1053818942E-02    0.5764696432E-03
    0.3900000000E+02    0.1426131878E-03    0.1250473724E-03    0.4760877475E+00    0.1100193568E-02    0.6075190905E-03
    0.4100000000E+02    0.1476734627E-03    0.1295277269E-03    0.4835324716E+00    0.1146429338E-02    0.6385572049E-03
    0.4300000000E+02    0.1526875027E-03    0.1339692947E-03    0.4904891781E+00    0.1192551471E-02    0.6695839941E-03
    0.4500000000E+02    0.1576609111E-03    0.1383768496E-03    0.4970043500E+00    0.1238580707E-02    0.7005994661E-03
    0.4700000000E+02    0.1625984917E-03    0.1427544784E-03    0.5031187474E+00    0.1284534140E-02    0.7316036287E-03
    0.4900000000E+02    0.1675043785E-03    0.1471056932E-03    0.5088682620E+00    0.1330425885E-02    0.7625964896E-03
    0.1000000000E+02    0.5510182824E-04    0.4804253560E-04    0.2486170047E+00    0.3759672140E-03    0.1561886846E-03
    0.3000000000E+02    0.1190634656E-03    0.1042295203E-03    0.4349112611E+00    0.8899035249E-03    0.4677072142E-03
    0.5000000000E+02    0.1699465722E-03    0.1492723586E-03    0.5116162494E+00    0.1353352356E-02    0.7780886844E-03
    0.7000000000E+02    0.2177765211E-03    0.1917686494E-03    0.5534665755E+00    0.1810582956E-02    0.1087341130E-02
    0.9000000000E+02    0.2645727606E-03    0.2334230982E-03    0.5798247796E+00    0.2267301649E-02    0.1395472183E-02
    0.1100000000E+03    0.3109078034E-03    0.2747088780E-03    0.5979512061E+00    0.2724068322E-02    0.1702489327E-02
    0.1300000000E+03    0.3569700486E-03    0.3157766706E-03    0.6111819942E+00    0.3180584622E-02    0.2008399947E-02
    0.1500000000E+03    0.4028232839E-03    0.3566743677E-03    0.6212649099E+00    0.3636465371E-02    0.2313211349E-02
    0.1700000000E+03    0.4484861471E-03    0.3974135391E-03    0.6292041595E+00    0.4091384441E-02    0.2616930767E-02
    0.1900000000E+03    0.4939601492E-03    0.4379925239E-03    0.6356178217E+00    0.4545089600E-02    0.2919565363E-02
    0.2100000000E+03    0.5392404873E-03    0.4784051647E-03    0.6409071721E+00    0.4997390726E-02    0.3221122235E-02
    0.2300000000E+03    0.5843204363E-03    0.5186442530E-03    0.6453440854E+00    0.5448145359E-02    0.3521608415E-02
    0.2500000000E+03    0.6291931551E-03    0.5587028829E-03    0.6491193080E+00    0.5897246692E-02    0.3821030869E-02
    0.2700000000E+03    0.6738523989E-03    0.5985749360E-03    0.6523706204E+00    0.6344614509E-02    0.4119396503E-02
    0.2900000000E+03    0.7182927552E-03    0.6382552028E-03    0.6552000294E+00    0.6790188519E-02    0.4416712157E-02
    0.3100000000E+03    0.7625096741E-03    0.6777393543E-03    0.6576846714E+00    0.7233923505E-02    0.4712984614E-02
    0.3300000000E+03    0.8064994121E-03    0.7170238557E-03    0.6598839573E+00    0.7675785758E-02    0.5008220592E-02
    0.3500000000E+03    0.8502589462E-03    0.7561058672E-03    0.6618443877E+00    0.8115750451E-02    0.5302426753E-02
    0.3700000000E+03    0.8937858823E-03    0.7949831462E-03    0.6636028790E+00    0.8553799680E-02    0.5595609696E-02
    0.3900000000E+03    0.9370783683E-03    0.8336539590E-03    0.6651891122E+00    0.8989920985E-02    0.5887775965E-02
    0.4100000000E+03    0.9801350163E-03    0.8721170046E-03    0.6666272226E+00    0.9424106224E-02    0.6178932043E-02
    0.4300000000E+03    0.1022954835E-02    0.9103713489E-03    0.6679370374E+00    0.9856350711E-02    0.6469084360E-02
    0.4500000000E+03    0.1065537171E-02    0.9484163695E-03    0.6691349957E+00    0.1028665254E-01    0.6758239284E-02
    0.4700000000E+03    0.1107881662E-02    0.9862517086E-03    0.6702348431E+00    0.1071501207E-01    0.7046403133E-02
    0.4900000000E+03    0.1149988190E-02    0.1023877234E-02    0.6712481611E+00    0.1114143147E-01    0.7333582165E-02
    0.1000000000E+03    0.2877816467E-03    0.2540989086E-03    0.5896554557E+00    0.2495691948E-02    0.1549119530E-02
    0.3000000000E+03    0.7404293963E-03    0.6580220314E-03    0.6564813830E+00    0.7012288232E-02    0.4564978364E-02
    0.5000000000E+03    0.1170952241E-02    0.1042611328E-02    0.6717255020E+00    0.1135391474E-01    0.7476804316E-02
    0.7000000000E+03    0.1577850073E-02    0.1406370956E-02    0.6784820304E+00    0.1550319416E-01    0.1029103306E-01
    0.9000000000E+03    0.1961821973E-02    0.1749904361E-02    0.6822965170E+00    0.1946744785E-01    0.1301356152E-01
    0.1100000000E+04    0.2324103800E-02    0.2074296951E-02    0.6847472591E+00    0.2325695843E-01    0.1564980409E-01
    0.1300000000E+04    0.2666022973E-02    0.2380715296E-02    0.6864548179E+00    0.2688210941E-01    0.1820474161E-01
    0.1500000000E+04    0.2988874966E-02    0.2670297708E-02    0.6877128088E+00    0.3035277571E-01    0.2068296437E-01
    0.1700000000E+04    0.3293884913E-02    0.2944120537E-02    0.6886781656E+00    0.3367818366E-01    0.2308871013E-01
    0.1900000000E+04    0.3582196908E-02    0.3203188885E-02    0.6894423861E+00    0.3686690125E-01    0.2542589769E-01
    0.2100000000E+04    0.3854873528E-02    0.3448436264E-02    0.6900624198E+00    0.3992686920E-01    0.2769815676E-01
    0.2300000000E+04    0.4112899337E-02    0.3680727727E-02    0.6905755683E+00    0.4286544468E-01    0.2990885443E-01
    0.2500000000E+04    0.4357185890E-02    0.3900864282E-02    0.6910072867E+00    0.4568944732E-01    0.3206111883E-01
    0.2700000000E+04    0.4588577147E-02    0.4109587658E-02    0.6913755401E+00    0.4840520375E-01    0.3415786025E-01
    0.2900000000E+04    0.4807854838E-02    0.4307585018E-02    0.6916933706E+00    0.5101858921E-01    0.3620179000E-01
    0.3100000000E+04    0.5015743548E-02    0.4495493425E-02    0.6919704752E+00    0.5353506572E-01    0.3819543744E-01
    0.3300000000E+04    0.5212915462E-02    0.4673903995E-02    0.6922142138E+00    0.5595971692E-01    0.4014116515E-01
    0.3500000000E+04    0.5399994720E-02    0.4843365725E-02    0.6924302733E+00    0.5829727968E-01    0.4204118268E-01
    0.3700000000E+04    0.5577561407E-02    0.5004388981E-02    0.6926231176E+00    0.6055217276E-01    0.4389755895E-01
    0.3900000000E+04    0.5746155187E-02    0.5157448683E-02    0.6927962995E+00    0.6272852276E-01    0.4571223342E-01
    0.4100000000E+04    0.5906278610E-02    0.5302987207E-02    0.6929526818E+00    0.6483018766E-01    0.4748702625E-01
    0.4300000000E+04    0.6058400116E-02    0.5441417007E-02    0.6930945972E+00    0.6686077817E-01    0.4922364744E-01
    0.4500000000E+04    0.6202956769E-02    0.5573123020E-02    0.6932239656E+00    0.6882367708E-01    0.5092370522E-01
    0.4700000000E+04    0.6340356742E-02    0.5698464833E-02    0.6933423815E+00    0.7072205686E-01    0.5258871365E-01
    0.4900000000E+04    0.6470981578E-02    0.5817778668E-02    0.6934511800E+00    0.7255889566E-01    0.5422009950E-01
    0.1000000000E+04    0.2145591220E-02    0.1914420377E-02    0.6836421459E+00    0.2138338846E-01    0.1434214761E-01
    0.3000000000E+04    0.4913179629E-02    0.4402762366E-02    0.6918365080E+00    0.5228861487E-01    0.3720474761E-01
    0.5000000000E+04    0.6533865779E-02    0.5875274221E-02    0.6935023319E+00    0.7345511835E-01    0.5502360752E-01
    0.7000000000E+04    0.7511298866E-02    0.6775260320E-02    0.6942196351E+00    0.8874583762E-01    0.6961817006E-01
    0.9000000000E+04    0.8103392183E-02    0.7330376638E-02    0.6946191904E+00    0.1002249327E+00    0.8199863812E-01
    0.1100000000E+05    0.8453136202E-02    0.7667254931E-02    0.6948739186E+00    0.1090932037E+00    0.9277540839E-01
    0.1300000000E+05    0.8644884635E-02    0.7860869736E-02    0.6950505185E+00    0.1160962761E+00    0.1023416931E+00
    0.1500000000E+05    0.8730866947E-02    0.7957826413E-02    0.6951801758E+00    0.1217214607E+00    0.1109638459E+00
    0.1700000000E+05    0.8744689850E-02    0.7988240996E-02    0.6952794245E+00    0.1263006545E+00    0.1188297427E+00
    0.1900000000E+05    0.8708659068E-02    0.7972194767E-02    0.6953578479E+00    0.1300677072E+00    0.1260763941E+00
    0.2100000000E+05    0.8637959286E-02    0.7923426669E-02    0.6954213838E+00    0.1331921309E+00    0.1328065434E+00
    0.2300000000E+05    0.8543144599E-02    0.7851538092E-02    0.6954739081E+00    0.1357997989E+00    0.1390990834E+00
    0.2500000000E+05    0.8431676815E-02    0.7763357881E-02    0.6955180582E+00    0.1379861355E+00    0.1450158392E+00
    0.2700000000E+05    0.8308905316E-02    0.7663813950E-02    0.6955556911E+00    0.1398247937E+00    0.1506061241E+00
    0.2900000000E+05    0.8178708015E-02    0.7556504910E-02    0.6955881525E+00    0.1413735241E+00    0.1559098847E+00
    0.3100000000E+05    0.8043920424E-02    0.7444083759E-02    0.6956164411E+00    0.1426782418E+00    0.1609599250E+00
    0.3300000000E+05    0.7906628760E-02    0.7328520756E-02    0.6956413140E+00    0.1437759052E+00    0.1657835123E+00
    0.3500000000E+05    0.7768373780E-02    0.7211286772E-02    0.6956633555E+00    0.1446965934E+00    0.1704035583E+00
    0.3700000000E+05    0.7630294805E-02    0.7093483251E-02    0.6956830237E+00    0.1454650303E+00    0.1748395035E+00
    0.3900000000E+05    0.7493232917E-02    0.6975935657E-02    0.6957006829E+00    0.1461017215E+00    0.1791079888E+00
    0.4100000000E+05    0.7357805847E-02    0.6859261505E-02    0.6957166265E+00    0.1466238122E+00    0.1832233723E+00
    0.4300000000E+05    0.7224462925E-02    0.6743920489E-02    0.6957310933E+00    0.1470457447E+00    0.1871981332E+00
    0.4500000000E+05    0.7093525821E-02    0.6630251773E-02    0.6957442797E+00    0.1473797668E+00    0.1910431896E+00
    0.4700000000E+05    0.6965219006E-02    0.6518502010E-02    0.6957563489E+00    0.1476363303E+00    0.1947681521E+00
    0.4900000000E+05    0.6839692734E-02    0.6408846563E-02    0.6957674372E+00    0.1478244052E+00    0.1983815280E+00
    0.1000000000E+05    0.8302310745E-02    0.7520549475E-02    0.6947592417E+00    0.1049310939E+00    0.8755915943E-01
    0.3000000000E+05    0.8111742795E-02    0.7500796666E-02    0.6956027663E+00    0.1420538923E+00    0.1584648014E+00
    0.5000000000E+05    0.6778003343E-02    0.6354843579E-02    0.6957726503E+00    0.1478952202E+00    0.2001487691E+00
    0.7000000000E+05    0.5695101818E-02    0.5396214689E-02    0.6958457565E+00    0.1471299837E+00    0.2311032547E+00
    0.9000000000E+05    0.4861579371E-02    0.4646176626E-02    0.6958865021E+00    0.1442156573E+00    0.2561304462E+00
    0.1100000000E+06    0.4211536254E-02    0.4054309223E-02    0.6959125025E+00    0.1405214597E+00    0.2772732165E+00
    0.1300000000E+06    0.3694040304E-02    0.3578686117E-02    0.6959305466E+00    0.1365778250E+00    0.2956207668E+00
    0.1500000000E+06    0.3273989892E-02    0.3189575880E-02    0.6959438082E+00    0.1326164953E+00    0.3118354012E+00
    0.1700000000E+06    0.2927228680E-02    0.2866163504E-02    0.6959539700E+00    0.1287444954E+00    0.3263560397E+00
    0.1900000000E+06    0.2636799385E-02    0.2593656033E-02    0.6959620077E+00    0.1250111841E+00    0.3394917354E+00
    0.2100000000E+06    0.2390515605E-02    0.2361318853E-02    0.6959685260E+00    0.1214374246E+00    0.3514700848E+00
    0.2300000000E+06    0.2179419642E-02    0.2161197582E-02    0.6959739197E+00    0.1180294167E+00    0.3624645753E+00
    0.2500000000E+06    0.1996790621E-02    0.1987282617E-02    0.6959784576E+00    0.1147856849E+00    0.3726111016E+00
    0.2700000000E+06    0.1837492776E-02    0.1834953574E-02    0.6959823290E+00    0.1117007730E+00    0.3820184847E+00
    0.2900000000E+06    0.1697537254E-02    0.1700602181E-02    0.6959856713E+00    0.1087672637E+00    0.3907754631E+00
    0.3100000000E+06    0.1573780870E-02    0.1581370965E-02    0.6959885864E+00    0.1059769039E+00    0.3989555095E+00
    0.3300000000E+06    0.1463714664E-02    0.1474968588E-02    0.6959911515E+00    0.1033212373E+00    0.4066202482E+00
    0.3500000000E+06    0.1365312660E-02    0.1379536968E-02    0.6959934265E+00    0.1007919564E+00    0.4138219430E+00
    0.3700000000E+06    0.1276921797E-02    0.1293554051E-02    0.6959954579E+00    0.9838109360E-01    0.4206053493E+00
    0.3900000000E+06    0.1197180551E-02    0.1215761590E-02    0.6959972833E+00    0.9608111626E-01    0.4270091173E+00
    0.4100000000E+06    0.1124957918E-02    0.1145110738E-02    0.6959989324E+00    0.9388496692E-01    0.4330668758E+00
    0.4300000000E+06    0.1059307045E-02    0.1080720540E-02    0.6960004299E+00    0.9178607014E-01    0.4388080791E+00
    0.4500000000E+06    0.9994295889E-03    0.1021845905E-02    0.6960017957E+00    0.8977832091E-01    0.4442586795E+00
    0.4700000000E+06    0.9446480055E-03    0.9678526106E-03    0.6960030466E+00    0.8785606259E-01    0.4494416672E+00
    0.4900000000E+06    0.8943837952E-03    0.9181976204E-03    0.6960041966E+00    0.8601405966E-01    0.4543775069E+00
    0.1000000000E+06    0.4517234287E-02    0.4333408554E-02    0.6959007941E+00    0.1424225073E+00    0.2671056245E+00
    0.3000000000E+06    0.1633803833E-02    0.1639251265E-02    0.6959871769E+00    0.1073547190E+00    0.3949335065E+00
    0.5000000000E+06    0.8707876889E-03    0.8948483051E-03    0.6960047375E+00    0.8512162584E-01    0.4567585407E+00
    0.7000000000E+06    0.5459706532E-03    0.5704694869E-03    0.6960123434E+00    0.7048946520E-01    0.4949751130E+00
    0.9000000000E+06    0.3756111951E-03    0.3975218614E-03    0.6960166037E+00    0.6014646079E-01    0.5212374307E+00
    0.1100000000E+07    0.2746614147E-03    0.2937230883E-03    0.6960193332E+00    0.5244623144E-01    0.5404783669E+00
    0.1300000000E+07    0.2097640279E-03    0.2262936193E-03    0.6960212339E+00    0.4648932823E-01    0.5552103921E+00
    0.1500000000E+07    0.1655200502E-03    0.1799147610E-03    0.6960226347E+00    0.4174335160E-01    0.5668637113E+00
    0.1700000000E+07    0.1339825256E-03    0.1466006211E-03    0.6960237105E+00    0.3787293697E-01    0.5763171841E+00
    0.1900000000E+07    0.1107004494E-03    0.1218396228E-03    0.6960245632E+00    0.3465622749E-01    0.5841423853E+00
    0.2100000000E+07    0.9301869671E-04    0.1029201707E-03    0.6960252558E+00    0.3194054655E-01    0.5907278079E+00
    0.2300000000E+07    0.7927189139E-04    0.8813007120E-04    0.6960258297E+00    0.2961735694E-01    0.5963470413E+00
    0.2500000000E+07    0.6837171500E-04    0.7634367462E-04    0.6960263130E+00    0.2760737205E-01    0.6011984739E+00
    0.2700000000E+07    0.5958220308E-04    0.6679561147E-04    0.6960267258E+00    0.2585131765E-01    0.6054295425E+00
    0.2900000000E+07    0.5239102404E-04    0.5895041443E-04    0.6960270823E+00    0.2430398942E-01    0.6091521417E+00
    0.3100000000E+07    0.4643252838E-04    0.5242415896E-04    0.6960273935E+00    0.2293031045E-01    0.6124527458E+00
    0.3300000000E+07    0.4144004205E-04    0.4693564438E-04    0.6960276674E+00    0.2170264480E-01    0.6153992519E+00
    0.3500000000E+07    0.3721534559E-04    0.4227501942E-04    0.6960279103E+00    0.2059892342E-01    0.6180457207E+00
    0.3700000000E+07    0.3360860450E-04    0.3828306419E-04    0.6960281272E+00    0.1960130951E-01    0.6204357345E+00
    0.3900000000E+07    0.3050484879E-04    0.3483717774E-04    0.6960283221E+00    0.1869523041E-01    0.6226048211E+00
    0.4100000000E+07    0.2781466654E-04    0.3184169735E-04    0.6960284981E+00    0.1786866363E-01    0.6245822335E+00
    0.4300000000E+07    0.2546767356E-04    0.2922108185E-04    0.6960286578E+00    0.1711160247E-01    0.6263922778E+00
    0.4500000000E+07    0.2340785105E-04    0.2691502889E-04    0.6960288035E+00    0.1641565060E-01    0.6280553172E+00
    0.4700000000E+07    0.2159016428E-04    0.2487492260E-04    0.6960289368E+00    0.1577371071E-01    0.6295885401E+00
    0.4900000000E+07    0.1997807496E-04    0.2306121258E-04    0.6960290592E+00    0.1517974275E-01    0.6310065565E+00
    0.1000000000E+07    0.3191723752E-03    0.3396349462E-03    0.6960181029E+00    0.5603376417E-01    0.5315436267E+00
    0.3000000000E+07    0.4927625646E-04    0.5554196931E-04    0.6960272430E+00    0.2359732029E-01    0.6108505779E+00
    0.5000000000E+07    0.1923956818E-04    0.2222888300E-04    0.6960291168E+00    0.1489910225E-01    0.6316763395E+00
    0.7000000000E+07    0.1024281476E-04    0.1199747630E-04    0.6960299215E+00    0.1086916841E-01    0.6412803617E+00
    0.9000000000E+07    0.6388422193E-05    0.7541443436E-05    0.6960303643E+00    0.8547308696E-02    0.6468029458E+00
    0.1100000000E+08    0.4388529989E-05    0.5201510193E-05    0.6960306411E+00    0.7038617304E-02    0.6503877420E+00
    0.1300000000E+08    0.3218016188E-05    0.3819333339E-05    0.6960308278E+00    0.5980108527E-02    0.6529013813E+00
    0.1500000000E+08    0.2473558908E-05    0.2933866363E-05    0.6960309604E+00    0.5196733481E-02    0.6547609934E+00
    0.1700000000E+08    0.1970334728E-05    0.2331845919E-05    0.6960310580E+00    0.4593725631E-02    0.6561921211E+00
    0.1900000000E+08    0.1613935889E-05    0.1903481473E-05    0.6960311316E+00    0.4115326683E-02    0.6573273547E+00
    0.2100000000E+08    0.1352041517E-05    0.1587518873E-05    0.6960311881E+00    0.3726596289E-02    0.6582497295E+00
    0.2300000000E+08    0.1153749506E-05    0.1347569244E-05    0.6960312320E+00    0.3404529909E-02    0.6590138905E+00
    0.2500000000E+08    0.9998504578E-06    0.1160896968E-05    0.6960312664E+00    0.3133365481E-02    0.6596572659E+00
    0.2700000000E+08    0.8778907766E-06    0.1012695711E-05    0.6960312935E+00    0.2901942584E-02    0.6602063500E+00
