  Pressure (Pa) 22mC5-500 (mol/kg) 23mC5-500 (mol/kg) 24mC5-500 (mol/kg) 2mC6-500 (mol/kg) 3mC6-500 (mol/kg)
    0.1000000000E+01    0.8724497929E-05    0.1689745862E-05    0.2142815399E+00    0.2946092774E-04    0.5210747423E-05
    0.3000000000E+01    0.1922099835E-04    0.3734823227E-05    0.3978549495E+00    0.7010237130E-04    0.1563024663E-04
    0.5000000000E+01    0.2732853656E-04    0.5325935211E-05    0.4801207345E+00    0.1057367374E-03    0.2604713764E-04
    0.7000000000E+01    0.3480428832E-04    0.6799105654E-05    0.5268062364E+00    0.1405730477E-03    0.3646143834E-04
    0.9000000000E+01    0.4206828022E-04    0.8233761673E-05    0.5568906141E+00    0.1753663534E-03    0.4687315533E-04
    0.1100000000E+02    0.4925628805E-04    0.9655231156E-05    0.5778922452E+00    0.2102731075E-03    0.5728229220E-04
    0.1300000000E+02    0.5641968749E-04    0.1107292762E-04    0.5933849879E+00    0.2453131116E-03    0.6768885141E-04
    0.1500000000E+02    0.6357955139E-04    0.1249061286E-04    0.6052851068E+00    0.2804728880E-03    0.7809283488E-04
    0.1700000000E+02    0.7074468999E-04    0.1390979219E-04    0.6147124384E+00    0.3157327425E-03    0.8849424427E-04
    0.1900000000E+02    0.7791855717E-04    0.1533100240E-04    0.6223652084E+00    0.3510741125E-03    0.9889308110E-04
    0.2100000000E+02    0.8510216195E-04    0.1675434890E-04    0.6287013810E+00    0.3864812620E-03    0.1092893468E-03
    0.2300000000E+02    0.9229538334E-04    0.1817974509E-04    0.6340338175E+00    0.4219413148E-03    0.1196830427E-03
    0.2500000000E+02    0.9949759305E-04    0.1960702390E-04    0.6385835268E+00    0.4574438497E-03    0.1300741700E-03
    0.2700000000E+02    0.1067079593E-03    0.2103599090E-04    0.6425110695E+00    0.4929804390E-03    0.1404627302E-03
    0.2900000000E+02    0.1139255964E-03    0.2246644963E-04    0.6459359019E+00    0.5285442412E-03    0.1508487245E-03
    0.3100000000E+02    0.1211496378E-03    0.2389821338E-04    0.6489487385E+00    0.5641296692E-03    0.1612321541E-03
    0.3300000000E+02    0.1283792698E-03    0.2533110995E-04    0.6516197058E+00    0.5997321292E-03    0.1716130202E-03
    0.3500000000E+02    0.1356137443E-03    0.2676498316E-04    0.6540038696E+00    0.6353478174E-03    0.1819913241E-03
    0.3700000000E+02    0.1428523824E-03    0.2819969259E-04    0.6561450719E+00    0.6709735619E-03    0.1923670670E-03
    0.3900000000E+02    0.1500945716E-03    0.2963511255E-04    0.6580786521E+00    0.7066066996E-03    0.2027402501E-03
    0.4100000000E+02    0.1573397616E-03    0.3107113078E-04    0.6598334128E+00    0.7422449800E-03    0.2131108746E-03
    0.4300000000E+02    0.1645874584E-03    0.3250764701E-04    0.6614330644E+00    0.7778864896E-03    0.2234789418E-03
    0.4500000000E+02    0.1718372186E-03    0.3394457167E-04    0.6628973029E+00    0.8135295920E-03    0.2338444527E-03
    0.4700000000E+02    0.1790886440E-03    0.3538182461E-04    0.6642426250E+00    0.8491728799E-03    0.2442074087E-03
    0.4900000000E+02    0.1863413767E-03    0.3681933401E-04    0.6654829522E+00    0.8848151371E-03    0.2545678109E-03
    0.1000000000E+02    0.4566751140E-04    0.8945357920E-05    0.5682486976E+00    0.1928029491E-03    0.5207804611E-04
    0.3000000000E+02    0.1175368689E-03    0.2318217951E-04    0.6474890291E+00    0.5463345598E-03    0.1560407598E-03
    0.5000000000E+02    0.1899681312E-03    0.3753816447E-04    0.6660675105E+00    0.9026355434E-03    0.2597470546E-03
    0.7000000000E+02    0.2625085710E-03    0.5191563869E-04    0.6743607267E+00    0.1258794291E-02    0.3631981469E-03
    0.9000000000E+02    0.3349538379E-03    0.6627398093E-04    0.6790581626E+00    0.1614192919E-02    0.4663952178E-03
    0.1100000000E+03    0.4072185664E-03    0.8059650069E-04    0.6820817879E+00    0.1968629398E-02    0.5693394361E-03
    0.1300000000E+03    0.4792611316E-03    0.9487513652E-04    0.6841909623E+00    0.2322020456E-02    0.6720319614E-03
    0.1500000000E+03    0.5510589827E-03    0.1091055518E-03    0.6857460470E+00    0.2674327256E-02    0.7744739450E-03
    0.1700000000E+03    0.6225990350E-03    0.1232852458E-03    0.6869400406E+00    0.3025530693E-02    0.8766665308E-03
    0.1900000000E+03    0.6938733719E-03    0.1374127149E-03    0.6878856321E+00    0.3375621515E-02    0.9786108548E-03
    0.2100000000E+03    0.7648771098E-03    0.1514870382E-03    0.6886530380E+00    0.3724595840E-02    0.1080308046E-02
    0.2300000000E+03    0.8356072484E-03    0.1655076553E-03    0.6892882886E+00    0.4072452911E-02    0.1181759226E-02
    0.2500000000E+03    0.9060620107E-03    0.1794742392E-03    0.6898228167E+00    0.4419193883E-02    0.1282965510E-02
    0.2700000000E+03    0.9762404441E-03    0.1933866199E-03    0.6902788189E+00    0.4764821130E-02    0.1383928005E-02
    0.2900000000E+03    0.1046142169E-02    0.2072447361E-03    0.6906724158E+00    0.5109337833E-02    0.1484647812E-02
    0.3100000000E+03    0.1115767213E-02    0.2210486036E-03    0.6910155980E+00    0.5452747714E-02    0.1585126025E-02
    0.3300000000E+03    0.1185115901E-02    0.2347982946E-03    0.6913174694E+00    0.5795054872E-02    0.1685363730E-02
    0.3500000000E+03    0.1254188779E-02    0.2484939225E-03    0.6915850660E+00    0.6136263664E-02    0.1785362007E-02
    0.3700000000E+03    0.1322986557E-02    0.2621356318E-03    0.6918239119E+00    0.6476378635E-02    0.1885121929E-02
    0.3900000000E+03    0.1391510070E-02    0.2757235909E-03    0.6920384047E+00    0.6815404457E-02    0.1984644564E-02
    0.4100000000E+03    0.1459760252E-02    0.2892579860E-03    0.6922320885E+00    0.7153345897E-02    0.2083930972E-02
    0.4300000000E+03    0.1527738111E-02    0.3027390175E-03    0.6924078516E+00    0.7490207782E-02    0.2182982205E-02
    0.4500000000E+03    0.1595444712E-02    0.3161668965E-03    0.6925680713E+00    0.7825994983E-02    0.2281799311E-02
    0.4700000000E+03    0.1662881167E-02    0.3295418428E-03    0.6927147224E+00    0.8160712399E-02    0.2380383330E-02
    0.4900000000E+03    0.1730048626E-02    0.3428640826E-03    0.6928494584E+00    0.8494364941E-02    0.2478735296E-02
    0.1000000000E+03    0.3711119929E-03    0.7344034425E-04    0.6807178173E+00    0.1791538147E-02    0.5178988609E-03
    0.3000000000E+03    0.1080989261E-02    0.2141534475E-03    0.6908496833E+00    0.5281180877E-02    0.1534917050E-02
    0.5000000000E+03    0.1763531847E-02    0.3495055097E-03    0.6929128031E+00    0.8660793423E-02    0.2527824581E-02
    0.7000000000E+03    0.2419371008E-02    0.4796253125E-03    0.6938008987E+00    0.1193465772E-01    0.3497675561E-02
    0.9000000000E+03    0.3049727133E-02    0.6047521543E-03    0.6942953253E+00    0.1510759811E-01    0.4445461104E-02
    0.1100000000E+04    0.3655828150E-02    0.7251259662E-03    0.6946103583E+00    0.1818422381E-01    0.5372114072E-02
    0.1300000000E+04    0.4238848363E-02    0.8409759737E-03    0.6948286447E+00    0.2116888433E-01    0.6278513349E-02
    0.1500000000E+04    0.4799898106E-02    0.9525188421E-03    0.6949888214E+00    0.2406567618E-01    0.7165487750E-02
    0.1700000000E+04    0.5340023782E-02    0.1059958742E-02    0.6951113684E+00    0.2687845775E-01    0.8033819582E-02
    0.1900000000E+04    0.5860210685E-02    0.1163487922E-02    0.6952081533E+00    0.2961086516E-01    0.8884247912E-02
    0.2100000000E+04    0.6361386588E-02    0.1263287418E-02    0.6952865279E+00    0.3226632750E-01    0.9717471552E-02
    0.2300000000E+04    0.6844425437E-02    0.1359527783E-02    0.6953512894E+00    0.3484808116E-01    0.1053415181E-01
    0.2500000000E+04    0.7310150943E-02    0.1452369780E-02    0.6954057017E+00    0.3735918299E-01    0.1133491500E-01
    0.2700000000E+04    0.7759339959E-02    0.1541965049E-02    0.6954520622E+00    0.3980252260E-01    0.1212035478E-01
    0.2900000000E+04    0.8192725643E-02    0.1628456720E-02    0.6954920354E+00    0.4218083350E-01    0.1289103426E-01
    0.3100000000E+04    0.8611000393E-02    0.1711979984E-02    0.6955268563E+00    0.4449670359E-01    0.1364748800E-01
    0.3300000000E+04    0.9014818558E-02    0.1792662622E-02    0.6955574609E+00    0.4675258461E-01    0.1439022380E-01
    0.3500000000E+04    0.9404798952E-02    0.1870625494E-02    0.6955845715E+00    0.4895080106E-01    0.1511972441E-01
    0.3700000000E+04    0.9781527179E-02    0.1945982990E-02    0.6956087541E+00    0.5109355829E-01    0.1583644907E-01
    0.3900000000E+04    0.1014555778E-01    0.2018843450E-02    0.6956304590E+00    0.5318295005E-01    0.1654083491E-01
    0.4100000000E+04    0.1049741621E-01    0.2089309550E-02    0.6956500483E+00    0.5522096548E-01    0.1723329836E-01
    0.4300000000E+04    0.1083760070E-01    0.2157478658E-02    0.6956678171E+00    0.5720949555E-01    0.1791423632E-01
    0.4500000000E+04    0.1116658395E-01    0.2223443168E-02    0.6956840080E+00    0.5915033903E-01    0.1858402736E-01
    0.4700000000E+04    0.1148481470E-01    0.2287290806E-02    0.6956988222E+00    0.6104520809E-01    0.1924303273E-01
    0.4900000000E+04    0.1179271919E-01    0.2349104916E-02    0.6957124282E+00    0.6289573341E-01    0.1989159742E-01
    0.1000000000E+04    0.3355734673E-02    0.6655185740E-03    0.6944685546E+00    0.1665767237E-01    0.4911373012E-02
    0.3000000000E+04    0.8403710127E-02    0.1670581249E-02    0.6955100255E+00    0.4334641733E-01    0.1327100700E-01
    0.5000000000E+04    0.1194292649E-01    0.2379274311E-02    0.6957188234E+00    0.6380485566E-01    0.2021206808E-01
    0.7000000000E+04    0.1449341684E-01    0.2893210049E-02    0.6958083846E+00    0.8000065806E-01    0.2614617401E-01
    0.9000000000E+04    0.1636779095E-01    0.3273572843E-02    0.6958581683E+00    0.9314886209E-01    0.3133426537E-01
    0.1100000000E+05    0.1776398517E-01    0.3559172718E-02    0.6958898622E+00    0.1040405720E+00    0.3595056283E-01
    0.1300000000E+05    0.1881267895E-01    0.3775681055E-02    0.6959118119E+00    0.1132132611E+00    0.4011632777E-01
    0.1500000000E+05    0.1960315368E-01    0.3940671650E-02    0.6959279133E+00    0.1210450667E+00    0.4391889184E-01
    0.1700000000E+05    0.2019817255E-01    0.4066524214E-02    0.6959402296E+00    0.1278099077E+00    0.4742297101E-01
    0.1900000000E+05    0.2064293383E-01    0.4162173142E-02    0.6959499554E+00    0.1337111854E+00    0.5067769691E-01
    0.2100000000E+05    0.2097066495E-01    0.4234201304E-02    0.6959578306E+00    0.1389031862E+00    0.5372115318E-01
    0.2300000000E+05    0.2120623225E-01    0.4287546610E-02    0.6959643375E+00    0.1435051252E+00    0.5658339728E-01
    0.2500000000E+05    0.2136853611E-01    0.4325971364E-02    0.6959698045E+00    0.1476106228E+00    0.5928853004E-01
    0.2700000000E+05    0.2147213948E-01    0.4352381761E-02    0.6959744625E+00    0.1512942599E+00    0.6185614775E-01
    0.2900000000E+05    0.2152839906E-01    0.4369050087E-02    0.6959784788E+00    0.1546162120E+00    0.6430238319E-01
    0.3100000000E+05    0.2154626632E-01    0.4377772257E-02    0.6959819775E+00    0.1576255885E+00    0.6664066612E-01
    0.3300000000E+05    0.2153286436E-01    0.4379981407E-02    0.6959850526E+00    0.1603628819E+00    0.6888228851E-01
    0.3500000000E+05    0.2149390976E-01    0.4376831089E-02    0.6959877767E+00    0.1628617921E+00    0.7103683108E-01
    0.3700000000E+05    0.2143402547E-01    0.4369257042E-02    0.6959902068E+00    0.1651506033E+00    0.7311248966E-01
    0.3900000000E+05    0.2135697573E-01    0.4358023641E-02    0.6959923879E+00    0.1672532395E+00    0.7511632811E-01
    0.4100000000E+05    0.2126584444E-01    0.4343759228E-02    0.6959943565E+00    0.1691900794E+00    0.7705447654E-01
    0.4300000000E+05    0.2116317220E-01    0.4326983278E-02    0.6959961423E+00    0.1709785960E+00    0.7893228841E-01
    0.4500000000E+05    0.2105106241E-01    0.4308127469E-02    0.6959977696E+00    0.1726338608E+00    0.8075446612E-01
    0.4700000000E+05    0.2093126429E-01    0.4287552201E-02    0.6959992586E+00    0.1741689467E+00    0.8252516241E-01
    0.4900000000E+05    0.2080523828E-01    0.4265559621E-02    0.6960006262E+00    0.1755952512E+00    0.8424806295E-01
    0.1000000000E+05    0.1711629087E-01    0.3426378659E-02    0.6958755984E+00    0.9883859976E-01    0.3370534070E-01
    0.3000000000E+05    0.2154164926E-01    0.4374307466E-02    0.6959802864E+00    0.1561572633E+00    0.6548426843E-01
    0.5000000000E+05    0.2074028027E-01    0.4254112931E-02    0.6960012691E+00    0.1762707800E+00    0.8509263077E-01
    0.7000000000E+05    0.1932443218E-01    0.3994862430E-02    0.6960102743E+00    0.1859463066E+00    0.1001133991E+00
    0.9000000000E+05    0.1793126339E-01    0.3730842714E-02    0.6960152828E+00    0.1911738480E+00    0.1126316256E+00
    0.1100000000E+06    0.1667549022E-01    0.3488703089E-02    0.6960184732E+00    0.1940909563E+00    0.1235318053E+00
    0.1300000000E+06    0.1556578201E-01    0.3272236566E-02    0.6960206838E+00    0.1956603934E+00    0.1332788866E+00
    0.1500000000E+06    0.1458706456E-01    0.3079638975E-02    0.6960223062E+00    0.1963820957E+00    0.1421510578E+00
    0.1700000000E+06    0.1372064212E-01    0.2907920021E-02    0.6960235478E+00    0.1965419405E+00    0.1503298430E+00
    0.1900000000E+06    0.1294936609E-01    0.2754133035E-02    0.6960245287E+00    0.1963151925E+00    0.1579412768E+00
    0.2100000000E+06    0.1225870423E-01    0.2615694051E-02    0.6960253232E+00    0.1958151057E+00    0.1650770388E+00
    0.2300000000E+06    0.1163665098E-01    0.2490423408E-02    0.6960259799E+00    0.1951179267E+00    0.1718062772E+00
    0.2500000000E+06    0.1107335173E-01    0.2376505847E-02    0.6960265319E+00    0.1942766970E+00    0.1781826775E+00
    0.2700000000E+06    0.1056070585E-01    0.2272432799E-02    0.6960270023E+00    0.1933293114E+00    0.1842489168E+00
    0.2900000000E+06    0.1009202193E-01    0.2176947240E-02    0.6960274081E+00    0.1923034443E+00    0.1900395948E+00
    0.3100000000E+06    0.9661737497E-02    0.2088996654E-02    0.6960277617E+00    0.1912196798E+00    0.1955832330E+00
    0.3300000000E+06    0.9265196716E-02    0.2007694639E-02    0.6960280725E+00    0.1900935642E+00    0.2009036789E+00
    0.3500000000E+06    0.8898475555E-02    0.1932290103E-02    0.6960283480E+00    0.1889369918E+00    0.2060211185E+00
    0.3700000000E+06    0.8558244434E-02    0.1862142693E-02    0.6960285938E+00    0.1877591615E+00    0.2109528236E+00
    0.3900000000E+06    0.8241659923E-02    0.1796703215E-02    0.6960288144E+00    0.1865672524E+00    0.2157137126E+00
    0.4100000000E+06    0.7946278913E-02    0.1735497951E-02    0.6960290136E+00    0.1853669091E+00    0.2203167803E+00
    0.4300000000E+06    0.7669990176E-02    0.1678116075E-02    0.6960291944E+00    0.1841625967E+00    0.2247734310E+00
    0.4500000000E+06    0.7410959429E-02    0.1624199468E-02    0.6960293591E+00    0.1829578636E+00    0.2290937412E+00
    0.4700000000E+06    0.7167584935E-02    0.1573434454E-02    0.6960295099E+00    0.1817555393E+00    0.2332866681E+00
    0.4900000000E+06    0.6938461383E-02    0.1525545030E-02    0.6960296484E+00    0.1805578847E+00    0.2373602188E+00
    0.1000000000E+06    0.1728466239E-01    0.3606574754E-02    0.6960170372E+00    0.1928454965E+00    0.1182489041E+00
    0.3000000000E+06    0.9872389761E-02    0.2132088974E-02    0.6960275907E+00    0.1917677283E+00    0.1928407073E+00
    0.5000000000E+06    0.6828850874E-02    0.1502601325E-02    0.6960297136E+00    0.1799613885E+00    0.2393545045E+00
    0.7000000000E+06    0.5149754671E-02    0.1148187738E-02    0.6960306265E+00    0.1685578233E+00    0.2743941517E+00
    0.9000000000E+06    0.4081541576E-02    0.9194594412E-03    0.6960311350E+00    0.1583651662E+00    0.3026681473E+00
    0.1100000000E+07    0.3343040207E-02    0.7595465089E-03    0.6960314592E+00    0.1493358142E+00    0.3263485096E+00
    0.1300000000E+07    0.2803642816E-02    0.6416602650E-03    0.6960316840E+00    0.1413110117E+00    0.3466610719E+00
    0.1500000000E+07    0.2393887584E-02    0.5513961175E-03    0.6960318490E+00    0.1341370869E+00    0.3643816355E+00
    0.1700000000E+07    0.2073254797E-02    0.4802740212E-03    0.6960319752E+00    0.1276843051E+00    0.3800390352E+00
    0.1900000000E+07    0.1816459884E-02    0.4229604145E-03    0.6960320750E+00    0.1218464867E+00    0.3940130203E+00
    0.2100000000E+07    0.1606892142E-02    0.3759269122E-03    0.6960321557E+00    0.1165370688E+00    0.4065869874E+00
    0.2300000000E+07    0.1433186568E-02    0.3367442713E-03    0.6960322225E+00    0.1116851382E+00    0.4179787875E+00
    0.2500000000E+07    0.1287306680E-02    0.3036849438E-03    0.6960322785E+00    0.1072321512E+00    0.4283598709E+00
    0.2700000000E+07    0.1163412356E-02    0.2754869790E-03    0.6960323262E+00    0.1031293653E+00    0.4378677767E+00
    0.2900000000E+07    0.1057160747E-02    0.2512074495E-03    0.6960323674E+00    0.9933585755E-01    0.4466146085E+00
    0.3100000000E+07    0.9652582051E-03    0.2301280385E-03    0.6960324032E+00    0.9581699753E-01    0.4546929731E+00
    0.3300000000E+07    0.8851638597E-03    0.2116922933E-03    0.6960324346E+00    0.9254326320E-01    0.4621802578E+00
    0.3500000000E+07    0.8148881175E-03    0.1954627867E-03    0.6960324624E+00    0.8948931570E-01    0.4691417811E+00
    0.3700000000E+07    0.7528524030E-03    0.1810911786E-03    0.6960324872E+00    0.8663326995E-01    0.4756331610E+00
    0.3900000000E+07    0.6977894829E-03    0.1682968587E-03    0.6960325095E+00    0.8395611457E-01    0.4817021248E+00
    0.4100000000E+07    0.6486713157E-03    0.1568514315E-03    0.6960325295E+00    0.8144124649E-01    0.4873899142E+00
    0.4300000000E+07    0.6046559631E-03    0.1465672605E-03    0.6960325477E+00    0.7907409436E-01    0.4927323896E+00
    0.4500000000E+07    0.5650479478E-03    0.1372888872E-03    0.6960325642E+00    0.7684181163E-01    0.4977609098E+00
    0.4700000000E+07    0.5292682561E-03    0.1288865169E-03    0.6960325793E+00    0.7473302436E-01    0.5025030380E+00
    0.4900000000E+07    0.4968313636E-03    0.1212510147E-03    0.6960325931E+00    0.7273762271E-01    0.5069831162E+00
    0.1000000000E+07    0.3681273658E-02    0.8329855045E-03    0.6960313132E+00    0.1537146071E+00    0.3149917812E+00
    0.3000000000E+07    0.1009589566E-02    0.2403057228E-03    0.6960323859E+00    0.9754404949E-01    0.4507321972E+00
    0.5000000000E+07    0.4817358420E-03    0.1176914095E-03    0.6960325996E+00    0.7177958451E-01    0.5091317301E+00
    0.7000000000E+07    0.2830535874E-03    0.7040206785E-04    0.6960326897E+00    0.5682348419E-01    0.5424929320E+00
    0.9000000000E+07    0.1864275056E-03    0.4700920980E-04    0.6960327385E+00    0.4702491056E-01    0.5641886421E+00
    0.1100000000E+08    0.1320875559E-03    0.3367963049E-04    0.6960327687E+00    0.4010217005E-01    0.5794517467E+00
    0.1300000000E+08    0.9848074377E-04    0.2534689563E-04    0.6960327887E+00    0.3494977944E-01    0.5907804188E+00
    0.1500000000E+08    0.7624506682E-04    0.1978329228E-04    0.6960328028E+00    0.3096540131E-01    0.5995241666E+00
    0.1700000000E+08    0.6076970301E-04    0.1588056673E-04    0.6960328131E+00    0.2779238628E-01    0.6064775666E+00
    0.1900000000E+08    0.4956658040E-04    0.1303553404E-04    0.6960328207E+00    0.2520595676E-01    0.6121394215E+00
    0.2100000000E+08    0.4119604229E-04    0.1089655451E-04    0.6960328265E+00    0.2305736636E-01    0.6168388474E+00
    0.2300000000E+08    0.3477776871E-04    0.9247174571E-05    0.6960328309E+00    0.2124424211E-01    0.6208018446E+00
    0.2500000000E+08    0.2974875462E-04    0.7948132886E-05    0.6960328344E+00    0.1969381316E-01    0.6241887762E+00
    0.2700000000E+08    0.2573527283E-04    0.6906483644E-05    0.6960328370E+00    0.1835293043E-01    0.6271165960E+00
