  Pressure (Pa) 22mC5-500 (mol/kg) 23mC5-500 (mol/kg) 24mC5-500 (mol/kg) 2mC6-500 (mol/kg) 3mC6-500 (mol/kg)
    0.1000000000E+01    0.1114413261E-04    0.9701634851E-05    0.3666126894E-01    0.1211661854E-04    0.2605352352E-04
    0.3000000000E+01    0.3081478373E-04    0.2683354518E-04    0.9949538264E-01    0.3382164994E-04    0.7814897245E-04
    0.5000000000E+01    0.4781275772E-04    0.4164874586E-04    0.1513890947E+00    0.5300050167E-04    0.1302289896E-03
    0.7000000000E+01    0.6283389256E-04    0.5475269301E-04    0.1949712749E+00    0.7036267568E-04    0.1822936055E-03
    0.9000000000E+01    0.7635915542E-04    0.6656353435E-04    0.2320909644E+00    0.8639030591E-04    0.2343428444E-03
    0.1100000000E+02    0.8873053836E-04    0.7737833544E-04    0.2640865761E+00    0.1014200124E-03    0.2863767261E-03
    0.1300000000E+02    0.1001971177E-03    0.8741325604E-04    0.2919507820E+00    0.1156922539E-03    0.3383952677E-03
    0.1500000000E+02    0.1109440705E-03    0.9682885026E-04    0.3164353827E+00    0.1293821874E-03    0.3903984841E-03
    0.1700000000E+02    0.1211115484E-03    0.1057465155E-03    0.3381201904E+00    0.1426195742E-03    0.4423863887E-03
    0.1900000000E+02    0.1308072967E-03    0.1142594860E-03    0.3574595508E+00    0.1555019683E-03    0.4943589938E-03
    0.2100000000E+02    0.1401152991E-03    0.1224403596E-03    0.3748145404E+00    0.1681036620E-03    0.5463163111E-03
    0.2300000000E+02    0.1491018264E-03    0.1303463624E-03    0.3904757315E+00    0.1804818795E-03    0.5982583514E-03
    0.2500000000E+02    0.1578197497E-03    0.1380230995E-03    0.4046796007E+00    0.1926811440E-03    0.6501851251E-03
    0.2700000000E+02    0.1663116684E-03    0.1455072758E-03    0.4176205579E+00    0.2047364086E-03    0.7020966422E-03
    0.2900000000E+02    0.1746122138E-03    0.1528286963E-03    0.4294599029E+00    0.2166753325E-03    0.7539929123E-03
    0.3100000000E+02    0.1827497687E-03    0.1600117600E-03    0.4403325860E+00    0.2285199592E-03    0.8058739450E-03
    0.3300000000E+02    0.1907477677E-03    0.1670765880E-03    0.4503523781E+00    0.2402879684E-03    0.8577397494E-03
    0.3500000000E+02    0.1986256908E-03    0.1740398860E-03    0.4596158686E+00    0.2519936202E-03    0.9095903345E-03
    0.3700000000E+02    0.2063998317E-03    0.1809156093E-03    0.4682055913E+00    0.2636484735E-03    0.9614257094E-03
    0.3900000000E+02    0.2140838974E-03    0.1877154830E-03    0.4761924912E+00    0.2752619398E-03    0.1013245883E-02
    0.4100000000E+02    0.2216894793E-03    0.1944494093E-03    0.4836378896E+00    0.2868417109E-03    0.1065050863E-02
    0.4300000000E+02    0.2292264280E-03    0.2011257923E-03    0.4905950630E+00    0.2983940947E-03    0.1116840660E-02
    0.4500000000E+02    0.2367031527E-03    0.2077517960E-03    0.4971105198E+00    0.3099242781E-03    0.1168615280E-02
    0.4700000000E+02    0.2441268619E-03    0.2143335533E-03    0.5032250425E+00    0.3214365365E-03    0.1220374734E-02
    0.4900000000E+02    0.2515037595E-03    0.2208763345E-03    0.5089745427E+00    0.3329344000E-03    0.1272119028E-02
    0.1000000000E+02    0.8267173906E-04    0.7208038441E-04    0.2486605833E+00    0.9401304604E-04    0.2603617038E-03
    0.3000000000E+02    0.1786997973E-03    0.1564361761E-03    0.4350095219E+00    0.2226082380E-03    0.7799353328E-03
    0.5000000000E+02    0.2551763578E-03    0.2241345546E-03    0.5117224761E+00    0.3386788665E-03    0.1297985494E-02
    0.7000000000E+02    0.3271459787E-03    0.2880775130E-03    0.5535676264E+00    0.4532973759E-03    0.1814520993E-02
    0.9000000000E+02    0.3976383208E-03    0.3508224895E-03    0.5799174955E+00    0.5678898295E-03    0.2329550023E-02
    0.1100000000E+03    0.4675112839E-03    0.4130784626E-03    0.5980353666E+00    0.6825947535E-03    0.2843080586E-02
    0.1300000000E+03    0.5370463086E-03    0.4750704311E-03    0.6112582455E+00    0.7973360103E-03    0.3355120576E-02
    0.1500000000E+03    0.6063378722E-03    0.5368691729E-03    0.6213341009E+00    0.9120157873E-03    0.3865677811E-02
    0.1700000000E+03    0.6754127398E-03    0.5984909953E-03    0.6292671220E+00    0.1026551080E-02    0.4374760040E-02
    0.1900000000E+03    0.7442720116E-03    0.6599323831E-03    0.6356753035E+00    0.1140877399E-02    0.4882374952E-02
    0.2100000000E+03    0.8129073435E-03    0.7211830992E-03    0.6409598234E+00    0.1254945816E-02    0.5388530177E-02
    0.2300000000E+03    0.8813075323E-03    0.7822313520E-03    0.6453924647E+00    0.1368719348E-02    0.5893233289E-02
    0.2500000000E+03    0.9494612233E-03    0.8430658225E-03    0.6491638931E+00    0.1482169949E-02    0.6396491805E-02
    0.2700000000E+03    0.1017357976E-02    0.9036763912E-03    0.6524118207E+00    0.1595276244E-02    0.6898313190E-02
    0.2900000000E+03    0.1084988619E-02    0.9640543187E-03    0.6552381964E+00    0.1708021861E-02    0.7398704853E-02
    0.3100000000E+03    0.1152345289E-02    0.1024192201E-02    0.6577201085E+00    0.1820394214E-02    0.7897674151E-02
    0.3300000000E+03    0.1219421353E-02    0.1084083841E-02    0.6599169272E+00    0.1932383615E-02    0.8395228390E-02
    0.3500000000E+03    0.1286211272E-02    0.1143724097E-02    0.6618751191E+00    0.2043982613E-02    0.8891374821E-02
    0.3700000000E+03    0.1352710466E-02    0.1203108737E-02    0.6636315721E+00    0.2155185507E-02    0.9386120647E-02
    0.3900000000E+03    0.1418915184E-02    0.1262234305E-02    0.6652159428E+00    0.2265987970E-02    0.9879473019E-02
    0.4100000000E+03    0.1484822386E-02    0.1321098009E-02    0.6666523458E+00    0.2376386776E-02    0.1037143904E-01
    0.4300000000E+03    0.1550429639E-02    0.1379697616E-02    0.6679605908E+00    0.2486379576E-02    0.1086202575E-01
    0.4500000000E+03    0.1615735033E-02    0.1438031375E-02    0.6691571018E+00    0.2595964732E-02    0.1135124017E-01
    0.4700000000E+03    0.1680737105E-02    0.1496097943E-02    0.6702556111E+00    0.2705141187E-02    0.1183908923E-01
    0.4900000000E+03    0.1745434776E-02    0.1553896327E-02    0.6712676890E+00    0.2813908358E-02    0.1232557985E-01
    0.1000000000E+03    0.4326278673E-03    0.3819919189E-03    0.5897438428E+00    0.6252315698E-03    0.2586502118E-02
    0.3000000000E+03    0.1118701642E-02    0.9941536793E-03    0.6565181498E+00    0.1764255360E-02    0.7648366840E-02
    0.5000000000E+03    0.1777669215E-02    0.1582694722E-02    0.6717444434E+00    0.2868138389E-02    0.1256831789E-01
    0.7000000000E+03    0.2406330648E-02    0.2144536928E-02    0.6784925648E+00    0.3931354604E-02    0.1735341213E-01
    0.9000000000E+03    0.3004913791E-02    0.2679864006E-02    0.6823023024E+00    0.4954702131E-02    0.2201023162E-01
    0.1100000000E+04    0.3574559674E-02    0.3189677188E-02    0.6847500595E+00    0.5939846502E-02    0.2654492374E-01
    0.1300000000E+04    0.4116639731E-02    0.3675180987E-02    0.6864556057E+00    0.6888588784E-02    0.3096323672E-01
    0.1500000000E+04    0.4632558084E-02    0.4137608161E-02    0.6877121712E+00    0.7802698978E-02    0.3527055165E-01
    0.1700000000E+04    0.5123683320E-02    0.4578159867E-02    0.6886764810E+00    0.8683868839E-02    0.3947191145E-01
    0.1900000000E+04    0.5591323317E-02    0.4997983748E-02    0.6894399107E+00    0.9533698906E-02    0.4357204714E-01
    0.2100000000E+04    0.6036716677E-02    0.5398166559E-02    0.6900593341E+00    0.1035369721E-01    0.4757540172E-01
    0.2300000000E+04    0.6461031223E-02    0.5779732938E-02    0.6905720035E+00    0.1114528231E-01    0.5148615183E-01
    0.2500000000E+04    0.6865365642E-02    0.6143646899E-02    0.6910033404E+00    0.1190978800E-01    0.5530822754E-01
    0.2700000000E+04    0.7250752543E-02    0.6490814555E-02    0.6913712867E+00    0.1264846850E-01    0.5904533041E-01
    0.2900000000E+04    0.7618162094E-02    0.6822087320E-02    0.6916888678E+00    0.1336250367E-01    0.6270094992E-01
    0.3100000000E+04    0.7968505841E-02    0.7138265267E-02    0.6919657683E+00    0.1405300406E-01    0.6627837857E-01
    0.3300000000E+04    0.8302640479E-02    0.7440100444E-02    0.6922093389E+00    0.1472101566E-01    0.6978072569E-01
    0.3500000000E+04    0.8621371489E-02    0.7728300057E-02    0.6924252598E+00    0.1536752435E-01    0.7321093007E-01
    0.3700000000E+04    0.8925456585E-02    0.8003529491E-02    0.6926179893E+00    0.1599346002E-01    0.7657177159E-01
    0.3900000000E+04    0.9215608942E-02    0.8266415139E-02    0.6927910759E+00    0.1659970041E-01    0.7986588194E-01
    0.4100000000E+04    0.9492500213E-02    0.8517547041E-02    0.6929473793E+00    0.1718707464E-01    0.8309575441E-01
    0.4300000000E+04    0.9756763337E-02    0.8757481342E-02    0.6930892294E+00    0.1775636645E-01    0.8626375297E-01
    0.4500000000E+04    0.1000899513E-01    0.8986742560E-02    0.6932185439E+00    0.1830831724E-01    0.8937212062E-01
    0.4700000000E+04    0.1024975872E-01    0.9205825705E-02    0.6933369155E+00    0.1884362887E-01    0.9242298712E-01
    0.4900000000E+04    0.1047958575E-01    0.9415198225E-02    0.6934456780E+00    0.1936296620E-01    0.9541837611E-01
    0.1000000000E+04    0.3293270258E-02    0.2937886371E-02    0.6836462817E+00    0.5451937403E-02    0.2429247537E-01
    0.3000000000E+04    0.7795412408E-02    0.6982015055E-02    0.6918318980E+00    0.1371062888E-01    0.6449923963E-01
    0.5000000000E+04    0.1059055610E-01    0.9516381990E-02    0.6934968146E+00    0.1961684274E-01    0.9689587155E-01
    0.7000000000E+04    0.1234404505E-01    0.1112550131E-01    0.6942140379E+00    0.2399264000E-01    0.1239540126E+00
    0.9000000000E+04    0.1343290237E-01    0.1214133880E-01    0.6946136993E+00    0.2731951657E-01    0.1471649123E+00
    0.1100000000E+05    0.1408278347E-01    0.1276312852E-01    0.6948685816E+00    0.2989727380E-01    0.1674852103E+00
    0.1300000000E+05    0.1443513054E-01    0.1311614009E-01    0.6950453431E+00    0.3192212537E-01    0.1855593888E+00
    0.1500000000E+05    0.1458197053E-01    0.1328215954E-01    0.6951751567E+00    0.3352782605E-01    0.2018393881E+00
    0.1700000000E+05    0.1458502502E-01    0.1331624881E-01    0.6952745519E+00    0.3480868892E-01    0.2166529162E+00
    0.1900000000E+05    0.1448673388E-01    0.1325642675E-01    0.6953531111E+00    0.3583313707E-01    0.2302444434E+00
    0.2100000000E+05    0.1431688343E-01    0.1312949915E-01    0.6954167727E+00    0.3665203039E-01    0.2428008510E+00
    0.2300000000E+05    0.1409673500E-01    0.1295469624E-01    0.6954694132E+00    0.3730397216E-01    0.2544680588E+00
    0.2500000000E+05    0.1384167565E-01    0.1274601245E-01    0.6955136707E+00    0.3781879895E-01    0.2653621404E+00
    0.2700000000E+05    0.1356296545E-01    0.1251375180E-01    0.6955514034E+00    0.3821994003E-01    0.2755769544E+00
    0.2900000000E+05    0.1326891595E-01    0.1226557245E-01    0.6955839576E+00    0.3852605141E-01    0.2851895096E+00
    0.3100000000E+05    0.1296570133E-01    0.1200720733E-01    0.6956123327E+00    0.3875217233E-01    0.2942638161E+00
    0.3300000000E+05    0.1265792668E-01    0.1174297020E-01    0.6956372866E+00    0.3891055957E-01    0.3028537027E+00
    0.3500000000E+05    0.1234903255E-01    0.1147611695E-01    0.6956594040E+00    0.3901129991E-01    0.3110049126E+00
    0.3700000000E+05    0.1204158705E-01    0.1120910711E-01    0.6956791436E+00    0.3906276676E-01    0.3187566871E+00
    0.3900000000E+05    0.1173749938E-01    0.1094379567E-01    0.6956968701E+00    0.3907196559E-01    0.3261429781E+00
    0.4100000000E+05    0.1143817779E-01    0.1068157532E-01    0.6957128772E+00    0.3904479850E-01    0.3331933899E+00
    0.4300000000E+05    0.1114464747E-01    0.1042348316E-01    0.6957274042E+00    0.3898626950E-01    0.3399339181E+00
    0.4500000000E+05    0.1085763954E-01    0.1017028130E-01    0.6957406476E+00    0.3890064526E-01    0.3463875360E+00
    0.4700000000E+05    0.1057765853E-01    0.9922518456E-02    0.6957527709E+00    0.3879158250E-01    0.3525746654E+00
    0.4900000000E+05    0.1030503416E-01    0.9680577203E-02    0.6957639108E+00    0.3866222976E-01    0.3585135566E+00
    0.1000000000E+05    0.1380241228E-01    0.1249237438E-01    0.6947538252E+00    0.2868794472E-01    0.1576405262E+00
    0.3000000000E+05    0.1311813508E-01    0.1213736505E-01    0.6955986154E+00    0.3864828748E-01    0.2897903685E+00
    0.5000000000E+05    0.1017154592E-01    0.9561872983E-02    0.6957691487E+00    0.3859081012E-01    0.3613951004E+00
    0.7000000000E+05    0.7892296883E-02    0.7512598085E-02    0.6958426541E+00    0.3659423114E-01    0.4092272319E+00
    0.9000000000E+05    0.6244071107E-02    0.6005337815E-02    0.6958836773E+00    0.3420622746E-01    0.4439713023E+00
    0.1100000000E+06    0.5042022237E-02    0.4892072774E-02    0.6959098856E+00    0.3186402871E-01    0.4704741850E+00
    0.1300000000E+06    0.4147017366E-02    0.4054618718E-02    0.6959280931E+00    0.2969918710E-01    0.4913867859E+00
    0.1500000000E+06    0.3465998149E-02    0.3411837285E-02    0.6959414877E+00    0.2774160816E-01    0.5083149998E+00
    0.1700000000E+06    0.2937274166E-02    0.2909026827E-02    0.6959517605E+00    0.2598525238E-01    0.5222980509E+00
    0.1900000000E+06    0.2519332405E-02    0.2508911612E-02    0.6959598927E+00    0.2441206200E-01    0.5340411528E+00
    0.2100000000E+06    0.2183649535E-02    0.2185619462E-02    0.6959664927E+00    0.2300118275E-01    0.5440406890E+00
    0.2300000000E+06    0.1910201869E-02    0.1920832845E-02    0.6959719580E+00    0.2173251151E-01    0.5526565033E+00
    0.2500000000E+06    0.1684642392E-02    0.1701330394E-02    0.6959765593E+00    0.2058793803E-01    0.5601559233E+00
    0.2700000000E+06    0.1496495548E-02    0.1517395618E-02    0.6959804875E+00    0.1955163391E-01    0.5667417185E+00
    0.2900000000E+06    0.1337979532E-02    0.1361768499E-02    0.6959838809E+00    0.1860995816E-01    0.5725704745E+00
    0.3100000000E+06    0.1203222205E-02    0.1228941683E-02    0.6959868424E+00    0.1775122528E-01    0.5777650223E+00
    0.3300000000E+06    0.1087728791E-02    0.1114679223E-02    0.6959894498E+00    0.1696544171E-01    0.5824230576E+00
    0.3500000000E+06    0.9880138083E-03    0.1015681698E-02    0.6959917636E+00    0.1624405429E-01    0.5866232471E+00
    0.3700000000E+06    0.9013421854E-03    0.9293493228E-03    0.6959938308E+00    0.1557972678E-01    0.5904296390E+00
    0.3900000000E+06    0.8255442811E-03    0.8536118086E-03    0.6959956892E+00    0.1496614804E-01    0.5938949012E+00
    0.4100000000E+06    0.7588817601E-03    0.7868044159E-03    0.6959973692E+00    0.1439787015E-01    0.5970627371E+00
    0.4300000000E+06    0.6999490264E-03    0.7275764689E-03    0.6959988953E+00    0.1387017327E-01    0.5999697108E+00
    0.4500000000E+06    0.6475998765E-03    0.6748230019E-03    0.6960002879E+00    0.1337895301E-01    0.6026466456E+00
    0.4700000000E+06    0.6008922837E-03    0.6276331091E-03    0.6960015639E+00    0.1292062689E-01    0.6051197054E+00
    0.4900000000E+06    0.5590463840E-03    0.5852505027E-03    0.6960027375E+00    0.1249205650E-01    0.6074112415E+00
    0.1000000000E+06    0.5597224089E-02    0.5407817980E-02    0.6958980801E+00    0.3301750653E-01    0.4580543141E+00
    0.3000000000E+06    0.1267939283E-02    0.1292795100E-02    0.6959854103E+00    0.1817088505E-01    0.5752404108E+00
    0.5000000000E+06    0.5397390990E-03    0.5656602391E-03    0.6960032897E+00    0.1228805415E-01    0.6084950480E+00
    0.7000000000E+06    0.2966812817E-03    0.3166901260E-03    0.6960110685E+00    0.9250245355E-02    0.6241340239E+00
    0.9000000000E+06    0.1872313073E-03    0.2026000361E-03    0.6960154404E+00    0.7406200541E-02    0.6332075206E+00
    0.1100000000E+07    0.1288418458E-03    0.1409174172E-03    0.6960182492E+00    0.6170382253E-02    0.6391278819E+00
    0.1300000000E+07    0.9408395288E-04    0.1038009497E-03    0.6960202093E+00    0.5285389325E-02    0.6432935159E+00
    0.1500000000E+07    0.7174028251E-04    0.7972444249E-04    0.6960216566E+00    0.4620810851E-02    0.6463829597E+00
    0.1700000000E+07    0.5653508654E-04    0.6321230481E-04    0.6960227699E+00    0.4103632946E-02    0.6487650775E+00
    0.1900000000E+07    0.4572305486E-04    0.5139091956E-04    0.6960236534E+00    0.3689832683E-02    0.6506575548E+00
    0.2100000000E+07    0.3776162937E-04    0.4263366743E-04    0.6960243718E+00    0.3351304909E-02    0.6521971183E+00
    0.2300000000E+07    0.3173010884E-04    0.3596331281E-04    0.6960249677E+00    0.3069271710E-02    0.6534739553E+00
    0.2500000000E+07    0.2705147432E-04    0.3076381004E-04    0.6960254699E+00    0.2830713280E-02    0.6545499543E+00
    0.2700000000E+07    0.2334923194E-04    0.2663106368E-04    0.6960258990E+00    0.2626319974E-02    0.6554689927E+00
    0.2900000000E+07    0.2036927118E-04    0.2329100895E-04    0.6960262699E+00    0.2449259771E-02    0.6562630419E+00
    0.3100000000E+07    0.1793506502E-04    0.2055240588E-04    0.6960265936E+00    0.2294406154E-02    0.6569559476E+00
    0.3300000000E+07    0.1592089391E-04    0.1827849314E-04    0.6960268787E+00    0.2157837615E-02    0.6575658561E+00
    0.3500000000E+07    0.1423526014E-04    0.1636935373E-04    0.6960271315E+00    0.2036503536E-02    0.6581068204E+00
    0.3700000000E+07    0.1281029049E-04    0.1475060233E-04    0.6960273573E+00    0.1927995332E-02    0.6585898920E+00
    0.3900000000E+07    0.1159477816E-04    0.1336592973E-04    0.6960275601E+00    0.1830386123E-02    0.6590238820E+00
    0.4100000000E+07    0.1054950298E-04    0.1217207072E-04    0.6960277433E+00    0.1742116138E-02    0.6594159006E+00
    0.4300000000E+07    0.9644015699E-05    0.1113533489E-04    0.6960279096E+00    0.1661909324E-02    0.6597717488E+00
    0.4500000000E+07    0.8854385410E-05    0.1022916882E-04    0.6960280610E+00    0.1588711695E-02    0.6600962062E+00
    0.4700000000E+07    0.8161594007E-05    0.9432413446E-05    0.6960281996E+00    0.1521645075E-02    0.6603932464E+00
    0.4900000000E+07    0.7550373765E-05    0.8728038755E-05    0.6960283269E+00    0.1459971931E-02    0.6606661999E+00
    0.1000000000E+07    0.1539612273E-03    0.1675421087E-03    0.6960169823E+00    0.6732647733E-02    0.6364495775E+00
    0.3000000000E+07    0.1909276581E-04    0.2185610487E-04    0.6960264371E+00    0.2369325931E-02    0.6566208919E+00
    0.5000000000E+07    0.7271392266E-05    0.8406066839E-05    0.6960283867E+00    0.1430959104E-02    0.6607945404E+00
    0.7000000000E+07    0.3925730933E-05    0.4517436677E-05    0.6960292199E+00    0.1023125797E-02    0.6625945560E+00
    0.9000000000E+07    0.2521467279E-05    0.2866349837E-05    0.6960296734E+00    0.7954007550E-03    0.6635968002E+00
    0.1100000000E+08    0.1797275823E-05    0.2009524843E-05    0.6960299522E+00    0.6501775442E-03    0.6642351802E+00
    0.1300000000E+08    0.1372798893E-05    0.1505880118E-05    0.6960301364E+00    0.5495534223E-03    0.6646772986E+00
    0.1500000000E+08    0.1101190445E-05    0.1183487889E-05    0.6960302636E+00    0.4757467550E-03    0.6650015514E+00
    0.1700000000E+08    0.9159121313E-06    0.9638850409E-06    0.6960303541E+00    0.4193136799E-03    0.6652495000E+00
    0.1900000000E+08    0.7832014896E-06    0.8070407104E-06    0.6960304195E+00    0.3747756520E-03    0.6654452266E+00
    0.2100000000E+08    0.6844142383E-06    0.6907570249E-06    0.6960304671E+00    0.3387367584E-03    0.6656036476E+00
    0.2300000000E+08    0.6085540607E-06    0.6019007332E-06    0.6960305017E+00    0.3089803991E-03    0.6657344942E+00
    0.2500000000E+08    0.5487839958E-06    0.5322875050E-06    0.6960305265E+00    0.2839984795E-03    0.6658443852E+00
    0.2700000000E+08    0.5006651390E-06    0.4765952053E-06    0.6960305438E+00    0.2627294101E-03    0.6659379788E+00
