  Pressure (Pa) 22mC5-500 (mol/kg) 23mC5-500 (mol/kg) 24mC5-500 (mol/kg) 2mC6-500 (mol/kg) 3mC6-500 (mol/kg)
    0.1000000000E+01    0.9901595402E-05    0.1916370634E-05    0.1266366016E+00    0.5460660013E-05    0.5210567241E-04
    0.3000000000E+01    0.2365571280E-04    0.4585201518E-05    0.2785438026E+00    0.1358851910E-04    0.1562858350E-03
    0.5000000000E+01    0.3391293324E-04    0.6584224823E-05    0.3664627189E+00    0.2025147683E-04    0.2604247561E-03
    0.7000000000E+01    0.4268885776E-04    0.8301393227E-05    0.4237908648E+00    0.2638172379E-04    0.3645226167E-03
    0.9000000000E+01    0.5073988871E-04    0.9881660516E-05    0.4641282975E+00    0.3229606380E-04    0.4685795105E-03
    0.1100000000E+02    0.5840217794E-04    0.1138913862E-04    0.4940537649E+00    0.3812008882E-04    0.5725954985E-03
    0.1300000000E+02    0.6584276453E-04    0.1285551992E-04    0.5171378720E+00    0.4390842738E-04    0.6765706270E-03
    0.1500000000E+02    0.7315146912E-04    0.1429774838E-04    0.5354860543E+00    0.4968610861E-04    0.7805049346E-03
    0.1700000000E+02    0.8037947716E-04    0.1572541799E-04    0.5504201850E+00    0.5546478316E-04    0.8843984561E-03
    0.1900000000E+02    0.8755725804E-04    0.1714419843E-04    0.5628120639E+00    0.6124971323E-04    0.9882512235E-03
    0.2100000000E+02    0.9470355647E-04    0.1855754850E-04    0.5732599449E+00    0.6704300303E-04    0.1092063267E-02
    0.2300000000E+02    0.1018301893E-03    0.1996762720E-04    0.5821880211E+00    0.7284517217E-04    0.1195834617E-02
    0.2500000000E+02    0.1089447346E-03    0.2137580256E-04    0.5899054366E+00    0.7865595188E-04    0.1299565301E-02
    0.2700000000E+02    0.1160521024E-03    0.2278294779E-04    0.5966428140E+00    0.8447469884E-04    0.1403255348E-02
    0.2900000000E+02    0.1231554842E-03    0.2418961953E-04    0.6025756967E+00    0.9030061323E-04    0.1506904786E-02
    0.3100000000E+02    0.1302569433E-03    0.2559616825E-04    0.6078400651E+00    0.9613285376E-04    0.1610513641E-02
    0.3300000000E+02    0.1373577917E-03    0.2700280827E-04    0.6125428884E+00    0.1019705971E-03    0.1714081942E-02
    0.3500000000E+02    0.1444588351E-03    0.2840966323E-04    0.6167694693E+00    0.1078130671E-03    0.1817609715E-02
    0.3700000000E+02    0.1515605357E-03    0.2981679592E-04    0.6205886655E+00    0.1136595475E-03    0.1921096987E-02
    0.3900000000E+02    0.1586631216E-03    0.3122422835E-04    0.6240566705E+00    0.1195093851E-03    0.2024543785E-02
    0.4100000000E+02    0.1657666611E-03    0.3263195523E-04    0.6272197971E+00    0.1253619890E-03    0.2127950136E-02
    0.4300000000E+02    0.1728711145E-03    0.3403995331E-04    0.6301165575E+00    0.1312168266E-03    0.2231316066E-02
    0.4500000000E+02    0.1799763695E-03    0.3544818764E-04    0.6327792394E+00    0.1370734192E-03    0.2334641602E-02
    0.4700000000E+02    0.1870822666E-03    0.3685661609E-04    0.6352351148E+00    0.1429313365E-03    0.2437926771E-02
    0.4900000000E+02    0.1941886160E-03    0.3826519234E-04    0.6375073774E+00    0.1487901922E-03    0.2541171597E-02
    0.1000000000E+02    0.5460669050E-04    0.1064204011E-04    0.4801231794E+00    0.3521496040E-04    0.5205926146E-03
    0.3000000000E+02    0.1267063579E-03    0.2489289331E-04    0.6052841782E+00    0.9321599505E-04    0.1558714285E-02
    0.5000000000E+02    0.1977418960E-03    0.3896952080E-04    0.6385809711E+00    0.1517198620E-03    0.2592778891E-02
    0.7000000000E+02    0.2687794641E-03    0.5305232687E-04    0.6540005570E+00    0.2102948308E-03    0.3622813270E-02
    0.9000000000E+02    0.3396414948E-03    0.6710225068E-04    0.6628936100E+00    0.2687247110E-03    0.4648843531E-02
    0.1100000000E+03    0.4102046308E-03    0.8109406035E-04    0.6686801110E+00    0.3269239075E-03    0.5670895468E-02
    0.1300000000E+03    0.4803973681E-03    0.9501343116E-04    0.6727458515E+00    0.3848534638E-03    0.6688994618E-02
    0.1500000000E+03    0.5501773966E-03    0.1088519813E-03    0.6757590670E+00    0.4424938628E-03    0.7703166285E-02
    0.1700000000E+03    0.6195188846E-03    0.1226046325E-03    0.6780816432E+00    0.4998348007E-03    0.8713435546E-02
    0.1900000000E+03    0.6884057381E-03    0.1362682399E-03    0.6799266211E+00    0.5568707851E-03    0.9719827258E-02
    0.2100000000E+03    0.7568278947E-03    0.1498408483E-03    0.6814275878E+00    0.6135990306E-03    0.1072236606E-01
    0.2300000000E+03    0.8247791868E-03    0.1633212665E-03    0.6826725584E+00    0.6700183666E-03    0.1172107638E-01
    0.2500000000E+03    0.8922560519E-03    0.1767088123E-03    0.6837218819E+00    0.7261286301E-03    0.1271598242E-01
    0.2700000000E+03    0.9592567229E-03    0.1900031527E-03    0.6846183200E+00    0.7819303118E-03    0.1370710820E-01
    0.2900000000E+03    0.1025780701E-02    0.2032042012E-03    0.6853930186E+00    0.8374243384E-03    0.1469447751E-01
    0.3100000000E+03    0.1091828405E-02    0.2163120483E-03    0.6860692016E+00    0.8926119349E-03    0.1567811396E-01
    0.3300000000E+03    0.1157400923E-02    0.2293269143E-03    0.6866645384E+00    0.9474945333E-03    0.1665804092E-01
    0.3500000000E+03    0.1222499849E-02    0.2422491160E-03    0.6871927115E+00    0.1002073713E-02    0.1763428161E-01
    0.3700000000E+03    0.1287127150E-02    0.2550790429E-03    0.6876644806E+00    0.1056351155E-02    0.1860685901E-01
    0.3900000000E+03    0.1351285085E-02    0.2678171398E-03    0.6880884233E+00    0.1110328618E-02    0.1957579592E-01
    0.4100000000E+03    0.1414976133E-02    0.2804638935E-03    0.6884714623E+00    0.1164007911E-02    0.2054111496E-01
    0.4300000000E+03    0.1478202942E-02    0.2930198234E-03    0.6888192452E+00    0.1217390879E-02    0.2150283855E-01
    0.4500000000E+03    0.1540968293E-02    0.3054854738E-03    0.6891364261E+00    0.1270479396E-02    0.2246098891E-01
    0.4700000000E+03    0.1603275065E-02    0.3178614082E-03    0.6894268740E+00    0.1323275350E-02    0.2341558809E-01
    0.4900000000E+03    0.1665126219E-02    0.3301482047E-03    0.6896938324E+00    0.1375780638E-02    0.2436665794E-01
    0.1000000000E+03    0.3749657871E-03    0.7410649839E-04    0.6660637030E+00    0.2978562242E-03    0.5160365188E-02
    0.3000000000E+03    0.1058864033E-02    0.2097697638E-03    0.6857422114E+00    0.8650563549E-03    0.1518676088E-01
    0.5000000000E+03    0.1695881880E-02    0.3362583601E-03    0.6898193759E+00    0.1401924877E-02    0.2484087615E-01
    0.7000000000E+03    0.2287831263E-02    0.4539292193E-03    0.6915819298E+00    0.1910014025E-02    0.3414515439E-01
    0.9000000000E+03    0.2837788011E-02    0.5633817800E-03    0.6925651686E+00    0.2391180474E-02    0.4312023279E-01
    0.1100000000E+04    0.3348765872E-02    0.6652023374E-03    0.6931924034E+00    0.2847172113E-02    0.5178512049E-01
    0.1300000000E+04    0.3823576826E-02    0.7599376776E-03    0.6936273588E+00    0.3279604490E-02    0.6015735570E-01
    0.1500000000E+04    0.4264815867E-02    0.8480923644E-03    0.6939467069E+00    0.3689966643E-02    0.6825314510E-01
    0.1700000000E+04    0.4674870644E-02    0.9301306972E-03    0.6941911367E+00    0.4079631179E-02    0.7608748772E-01
    0.1900000000E+04    0.5055936865E-02    0.1006479736E-02    0.6943842470E+00    0.4449864550E-02    0.8367428536E-01
    0.2100000000E+04    0.5410034494E-02    0.1077532459E-02    0.6945406667E+00    0.4801836630E-02    0.9102644113E-01
    0.2300000000E+04    0.5739023215E-02    0.1143650763E-02    0.6946699468E+00    0.5136629436E-02    0.9815594771E-01
    0.2500000000E+04    0.6044616718E-02    0.1205168243E-02    0.6947785878E+00    0.5455244990E-02    0.1050739663E+00
    0.2700000000E+04    0.6328395713E-02    0.1262392706E-02    0.6948711677E+00    0.5758612391E-02    0.1117908978E+00
    0.2900000000E+04    0.6591819715E-02    0.1315608462E-02    0.6949510036E+00    0.6047594179E-02    0.1183164466E+00
    0.3100000000E+04    0.6836237687E-02    0.1365078380E-02    0.6950205579E+00    0.6322992057E-02    0.1246596780E+00
    0.3300000000E+04    0.7062897646E-02    0.1411045752E-02    0.6950816971E+00    0.6585552048E-02    0.1308290705E+00
    0.3500000000E+04    0.7272955337E-02    0.1453735971E-02    0.6951358614E+00    0.6835969144E-02    0.1368325628E+00
    0.3700000000E+04    0.7467482063E-02    0.1493358049E-02    0.6951841804E+00    0.7074891508E-02    0.1426775960E+00
    0.3900000000E+04    0.7647471768E-02    0.1530105986E-02    0.6952275520E+00    0.7302924267E-02    0.1483711527E+00
    0.4100000000E+04    0.7813847446E-02    0.1564160011E-02    0.6952666992E+00    0.7520632960E-02    0.1539197919E+00
    0.4300000000E+04    0.7967466946E-02    0.1595687709E-02    0.6953022108E+00    0.7728546653E-02    0.1593296809E+00
    0.4500000000E+04    0.8109128237E-02    0.1624845038E-02    0.6953345708E+00    0.7927160774E-02    0.1646066245E+00
    0.4700000000E+04    0.8239574193E-02    0.1651777257E-02    0.6953641810E+00    0.8116939693E-02    0.1697560913E+00
    0.4900000000E+04    0.8359496941E-02    0.1676619765E-02    0.6953913779E+00    0.8298319064E-02    0.1747832384E+00
    0.1000000000E+04    0.3097968440E-02    0.6152108882E-03    0.6929099979E+00    0.2622219100E-02    0.4749032158E-01
    0.3000000000E+04    0.6716324194E-02    0.1340796006E-02    0.6949869377E+00    0.6186943232E-02    0.1215103089E+00
    0.5000000000E+04    0.8415715508E-02    0.1688297185E-02    0.6954041616E+00    0.8385987742E-02    0.1772524738E+00
    0.7000000000E+04    0.9122902005E-02    0.1838644066E-02    0.6955832263E+00    0.9785520519E-02    0.2212639666E+00
    0.9000000000E+04    0.9295571554E-02    0.1881636428E-02    0.6956827928E+00    0.1068590188E-01    0.2572061702E+00
    0.1100000000E+05    0.9175289883E-02    0.1864963397E-02    0.6957461937E+00    0.1125969702E-01    0.2873005113E+00
    0.1300000000E+05    0.8895771718E-02    0.1815218578E-02    0.6957901093E+00    0.1161227260E-01    0.3129832152E+00
    0.1500000000E+05    0.8533527545E-02    0.1747753775E-02    0.6958223283E+00    0.1181109606E-01    0.3352311968E+00
    0.1700000000E+05    0.8133269011E-02    0.1671636921E-02    0.6958469759E+00    0.1190102816E-01    0.3547369069E+00
    0.1900000000E+05    0.7721379136E-02    0.1592290577E-02    0.6958664414E+00    0.1191281581E-01    0.3720080782E+00
    0.2100000000E+05    0.7313379895E-02    0.1512961015E-02    0.6958822042E+00    0.1186805676E-01    0.3874276259E+00
    0.2300000000E+05    0.6918224343E-02    0.1435566829E-02    0.6958952295E+00    0.1178222920E-01    0.4012912244E+00
    0.2500000000E+05    0.6540837107E-02    0.1361204063E-02    0.6959061738E+00    0.1166660896E-01    0.4138317811E+00
    0.2700000000E+05    0.6183654219E-02    0.1290454353E-02    0.6959154991E+00    0.1152952111E-01    0.4252359052E+00
    0.2900000000E+05    0.5847574270E-02    0.1223576643E-02    0.6959235402E+00    0.1137717904E-01    0.4356553103E+00
    0.3100000000E+05    0.5532554568E-02    0.1160628350E-02    0.6959305453E+00    0.1121426021E-01    0.4452149097E+00
    0.3300000000E+05    0.5237988731E-02    0.1101542838E-02    0.6959367027E+00    0.1104430925E-01    0.4540186923E+00
    0.3500000000E+05    0.4962947352E-02    0.1046179357E-02    0.6959421576E+00    0.1087002509E-01    0.4621540725E+00
    0.3700000000E+05    0.4706331652E-02    0.9943553568E-03    0.6959470237E+00    0.1069346881E-01    0.4696951664E+00
    0.3900000000E+05    0.4466971214E-02    0.9458673877E-03    0.6959513916E+00    0.1051621601E-01    0.4767052989E+00
    0.4100000000E+05    0.4243685457E-02    0.9005045363E-03    0.6959553342E+00    0.1033947003E-01    0.4832389487E+00
    0.4300000000E+05    0.4035321484E-02    0.8580569414E-03    0.6959589106E+00    0.1016414678E-01    0.4893432766E+00
    0.4500000000E+05    0.3840776473E-02    0.8183210582E-03    0.6959621697E+00    0.9990939118E-02    0.4950593396E+00
    0.4700000000E+05    0.3659009978E-02    0.7811027666E-03    0.6959651519E+00    0.9820365992E-02    0.5004230658E+00
    0.4900000000E+05    0.3489049683E-02    0.7462190548E-03    0.6959678912E+00    0.9652810247E-02    0.5054660440E+00
    0.1000000000E+05    0.9261930188E-02    0.1878750371E-02    0.6957176589E+00    0.1100590031E-01    0.2728809866E+00
    0.3000000000E+05    0.5687459917E-02    0.1191613267E-02    0.6959271593E+00    0.1129679745E-01    0.4405356531E+00
    0.5000000000E+05    0.3408212080E-02    0.7295987100E-03    0.6959691788E+00    0.9570253674E-02    0.5078760990E+00
    0.7000000000E+05    0.2227672437E-02    0.4845487742E-03    0.6959872176E+00    0.8109190613E-02    0.5445496708E+00
    0.9000000000E+05    0.1559716003E-02    0.3435753621E-03    0.6959972520E+00    0.6984232056E-02    0.5675911371E+00
    0.1100000000E+06    0.1149557232E-02    0.2558865129E-03    0.6960036441E+00    0.6114200007E-02    0.5833882513E+00
    0.1300000000E+06    0.8809585337E-03    0.1978517257E-03    0.6960080731E+00    0.5428096754E-02    0.5948825841E+00
    0.1500000000E+06    0.6959745660E-03    0.1575231675E-03    0.6960113233E+00    0.4875795770E-02    0.6036160137E+00
    0.1700000000E+06    0.5633647527E-03    0.1283867446E-03    0.6960138102E+00    0.4422810990E-02    0.6104737994E+00
    0.1900000000E+06    0.4651586244E-03    0.1066602925E-03    0.6960157746E+00    0.4045154007E-02    0.6160000141E+00
    0.2100000000E+06    0.3904522696E-03    0.9003049103E-04    0.6960173655E+00    0.3725799992E-02    0.6205472425E+00
    0.2300000000E+06    0.3323292808E-03    0.7701966211E-04    0.6960186801E+00    0.3452403345E-02    0.6243538980E+00
    0.2500000000E+06    0.2862356151E-03    0.6664874040E-04    0.6960197848E+00    0.3215825535E-02    0.6275869144E+00
    0.2700000000E+06    0.2490758405E-03    0.5824847845E-04    0.6960207260E+00    0.3009172871E-02    0.6303666339E+00
    0.2900000000E+06    0.2186875924E-03    0.5134895094E-04    0.6960215375E+00    0.2827155255E-02    0.6327819831E+00
    0.3100000000E+06    0.1935239625E-03    0.4561239002E-04    0.6960222444E+00    0.2665650032E-02    0.6349000850E+00
    0.3300000000E+06    0.1724550108E-03    0.4079099092E-04    0.6960228657E+00    0.2521399387E-02    0.6367725493E+00
    0.3500000000E+06    0.1546400253E-03    0.3669962627E-04    0.6960234160E+00    0.2391796428E-02    0.6384397047E+00
    0.3700000000E+06    0.1394431492E-03    0.3319774408E-04    0.6960239068E+00    0.2274731324E-02    0.6399335188E+00
    0.3900000000E+06    0.1263763530E-03    0.3017708174E-04    0.6960243472E+00    0.2168478849E-02    0.6412796566E+00
    0.4100000000E+06    0.1150600815E-03    0.2755315563E-04    0.6960247446E+00    0.2071614975E-02    0.6424989593E+00
    0.4300000000E+06    0.1051955902E-03    0.2525925680E-04    0.6960251051E+00    0.1982954168E-02    0.6436085262E+00
    0.4500000000E+06    0.9654516728E-04    0.2324214368E-04    0.6960254334E+00    0.1901501659E-02    0.6446225174E+00
    0.4700000000E+06    0.8891777523E-04    0.2145890513E-04    0.6960257338E+00    0.1826416690E-02    0.6455527593E+00
    0.4900000000E+06    0.8215848142E-04    0.1987464416E-04    0.6960260096E+00    0.1756983916E-02    0.6464092058E+00
    0.1000000000E+06    0.1331625557E-02    0.2949353972E-03    0.6960007669E+00    0.6522314215E-02    0.5761647346E+00
    0.3000000000E+06    0.2055313343E-03    0.4835252065E-04    0.6960219027E+00    0.2744059621E-02    0.6338746582E+00
    0.5000000000E+06    0.7906384550E-04    0.1914798084E-04    0.6960261392E+00    0.1724192218E-02    0.6468124438E+00
    0.7000000000E+06    0.4148637891E-04    0.1023994192E-04    0.6960279510E+00    0.1254412288E-02    0.6525051135E+00
    0.9000000000E+06    0.2549426361E-04    0.6380908692E-05    0.6960289530E+00    0.9847866843E-03    0.6557055124E+00
    0.1100000000E+07    0.1724465832E-04    0.4363170436E-05    0.6960295866E+00    0.8100423157E-03    0.6577559083E+00
    0.1300000000E+07    0.1244233133E-04    0.3175753512E-05    0.6960300218E+00    0.6876647580E-03    0.6591815541E+00
    0.1500000000E+07    0.9404031765E-05    0.2417652509E-05    0.6960303381E+00    0.5972192902E-03    0.6602301489E+00
    0.1700000000E+07    0.7360984074E-05    0.1903897103E-05    0.6960305774E+00    0.5276710926E-03    0.6610337565E+00
    0.1900000000E+07    0.5921659414E-05    0.1539488575E-05    0.6960307641E+00    0.4725404000E-03    0.6616692244E+00
    0.2100000000E+07    0.4869659300E-05    0.1271535729E-05    0.6960309134E+00    0.4277731762E-03    0.6621843076E+00
    0.2300000000E+07    0.4077497748E-05    0.1068676748E-05    0.6960310350E+00    0.3907037265E-03    0.6626102436E+00
    0.2500000000E+07    0.3466119597E-05    0.9113507550E-06    0.6960311357E+00    0.3595075631E-03    0.6629683252E+00
    0.2700000000E+07    0.2984393942E-05    0.7868395854E-06    0.6960312201E+00    0.3328940228E-03    0.6632735649E+00
    0.2900000000E+07    0.2598064936E-05    0.6865815027E-06    0.6960312916E+00    0.3099244418E-03    0.6635368521E+00
    0.3100000000E+07    0.2283485427E-05    0.6046400692E-06    0.6960313528E+00    0.2898998819E-03    0.6637662766E+00
    0.3300000000E+07    0.2023906027E-05    0.5367932357E-06    0.6960314056E+00    0.2722892371E-03    0.6639679744E+00
    0.3500000000E+07    0.1807194622E-05    0.4799711710E-06    0.6960314514E+00    0.2566817393E-03    0.6641466838E+00
    0.3700000000E+07    0.1624389259E-05    0.4318981185E-06    0.6960314914E+00    0.2427547227E-03    0.6643061216E+00
    0.3900000000E+07    0.1468753731E-05    0.3908577993E-06    0.6960315265E+00    0.2302512192E-03    0.6644492448E+00
    0.4100000000E+07    0.1335145786E-05    0.3555359278E-06    0.6960315574E+00    0.2189640575E-03    0.6645784347E+00
    0.4300000000E+07    0.1219585053E-05    0.3249121585E-06    0.6960315848E+00    0.2087243657E-03    0.6646956309E+00
    0.4500000000E+07    0.1118951675E-05    0.2981844872E-06    0.6960316090E+00    0.1993931166E-03    0.6648024290E+00
    0.4700000000E+07    0.1030772337E-05    0.2747154193E-06    0.6960316307E+00    0.1908548182E-03    0.6649001536E+00
    0.4900000000E+07    0.9530658912E-06    0.2539930226E-06    0.6960316499E+00    0.1830127385E-03    0.6649899136E+00
    0.1000000000E+07    0.2076724917E-04    0.5227661933E-05    0.6960293021E+00    0.8889773512E-03    0.6568319204E+00
    0.3000000000E+07    0.2432983125E-05    0.6436174176E-06    0.6960313234E+00    0.2995805136E-03    0.6636553755E+00
    0.5000000000E+07    0.9176270171E-06    0.2445289843E-06    0.6960316588E+00    0.1793267635E-03    0.6650321050E+00
    0.7000000000E+07    0.4941703923E-06    0.1306807937E-06    0.6960317635E+00    0.1277260957E-03    0.6656230406E+00
    0.9000000000E+07    0.3173843732E-06    0.8264231110E-07    0.6960317960E+00    0.9908520058E-04    0.6659515157E+00
    0.1100000000E+08    0.2264590303E-06    0.5780489768E-07    0.6960317982E+00    0.8088425473E-04    0.6661605967E+00
    0.1300000000E+08    0.1732379857E-06    0.4324164221E-07    0.6960317856E+00    0.6830191559E-04    0.6663053650E+00
    0.1500000000E+08    0.1392055860E-06    0.3393634086E-07    0.6960317651E+00    0.5908793982E-04    0.6664115388E+00
    0.1700000000E+08    0.1159944785E-06    0.2760676335E-07    0.6960317403E+00    0.5205143512E-04    0.6664927374E+00
    0.1900000000E+08    0.9936672408E-07    0.2309117335E-07    0.6960317130E+00    0.4650332774E-04    0.6665568470E+00
    0.2100000000E+08    0.8698507013E-07    0.1974648728E-07    0.6960316844E+00    0.4201733411E-04    0.6666087501E+00
    0.2300000000E+08    0.7747228187E-07    0.1719275729E-07    0.6960316551E+00    0.3831564239E-04    0.6666516311E+00
    0.2500000000E+08    0.6997262124E-07    0.1519347936E-07    0.6960316255E+00    0.3520947884E-04    0.6666876553E+00
    0.2700000000E+08    0.6393075013E-07    0.1359500633E-07    0.6960315960E+00    0.3256609978E-04    0.6667183466E+00
