  Pressure (Pa) 22mC5-500 (mol/kg) 23mC5-500 (mol/kg) 24mC5-500 (mol/kg) 2mC6-500 (mol/kg) 3mC6-500 (mol/kg)
    0.1000000000E+01    0.8980316471E-05    0.3477936439E-05    0.1950008924E+00    0.2514139012E-04    0.5210773501E-05
    0.3000000000E+01    0.2004701252E-04    0.7785903898E-05    0.3749113154E+00    0.6012997490E-04    0.1563047094E-04
    0.5000000000E+01    0.2845550000E-04    0.1108154137E-04    0.4597474951E+00    0.9024632317E-04    0.2604775115E-04
    0.7000000000E+01    0.3608324828E-04    0.1408410004E-04    0.5091229122E+00    0.1193853490E-03    0.3646263208E-04
    0.9000000000E+01    0.4342389147E-04    0.1698095193E-04    0.5414280184E+00    0.1483623199E-03    0.4687512055E-04
    0.1100000000E+02    0.5064841895E-04    0.1983630277E-04    0.5642107478E+00    0.1773834304E-03    0.5728522022E-04
    0.1300000000E+02    0.5782589994E-04    0.2267574443E-04    0.5811406705E+00    0.2064974761E-03    0.6769293350E-04
    0.1500000000E+02    0.6498687440E-04    0.2551039629E-04    0.5942164740E+00    0.2357075510E-03    0.7809826224E-04
    0.1700000000E+02    0.7214549798E-04    0.2834528493E-04    0.6046197902E+00    0.2650036759E-03    0.8850120800E-04
    0.1900000000E+02    0.7930837581E-04    0.3118266315E-04    0.6130939975E+00    0.2943731712E-03    0.9890177216E-04
    0.2100000000E+02    0.8647843871E-04    0.3402345466E-04    0.6201301607E+00    0.3238039762E-03    0.1092999560E-03
    0.2300000000E+02    0.9365676862E-04    0.3686792802E-04    0.6260657075E+00    0.3532855749E-03    0.1196957607E-03
    0.2500000000E+02    0.1008435047E-03    0.3971602750E-04    0.6311401552E+00    0.3828090987E-03    0.1300891875E-03
    0.2700000000E+02    0.1080383108E-03    0.4256754149E-04    0.6355282218E+00    0.4123671625E-03    0.1404802375E-03
    0.2900000000E+02    0.1152406237E-03    0.4542219021E-04    0.6393603518E+00    0.4419536364E-03    0.1508689118E-03
    0.3100000000E+02    0.1224497859E-03    0.4827967176E-04    0.6427359043E+00    0.4715634268E-03    0.1612552114E-03
    0.3300000000E+02    0.1296651177E-03    0.5113968614E-04    0.6457318921E+00    0.5011922856E-03    0.1716391376E-03
    0.3500000000E+02    0.1368859550E-03    0.5400194725E-04    0.6484089297E+00    0.5308366536E-03    0.1820206913E-03
    0.3700000000E+02    0.1441116689E-03    0.5686618846E-04    0.6508153774E+00    0.5604935328E-03    0.1923998736E-03
    0.3900000000E+02    0.1513416737E-03    0.5973216452E-04    0.6529902889E+00    0.5901603844E-03    0.2027766855E-03
    0.4100000000E+02    0.1585754299E-03    0.6259965158E-04    0.6549655473E+00    0.6198350466E-03    0.2131511281E-03
    0.4300000000E+02    0.1658124438E-03    0.6546844625E-04    0.6567674388E+00    0.6495156691E-03    0.2235232025E-03
    0.4500000000E+02    0.1730522652E-03    0.6833836416E-04    0.6584178289E+00    0.6792006601E-03    0.2338929097E-03
    0.4700000000E+02    0.1802944839E-03    0.7120923831E-04    0.6599350547E+00    0.7088886434E-03    0.2442602506E-03
    0.4900000000E+02    0.1875387273E-03    0.7408091747E-04    0.6613346085E+00    0.7385784237E-03    0.2546252265E-03
    0.1000000000E+02    0.4704502806E-04    0.1841171626E-04    0.5537255925E+00    0.1628625655E-03    0.5208046882E-04
    0.3000000000E+02    0.1188443911E-03    0.4685059586E-04    0.6410999436E+00    0.4567559004E-03    0.1560623584E-03
    0.5000000000E+02    0.1911615010E-03    0.7551701558E-04    0.6619944551E+00    0.7534236565E-03    0.2598068278E-03
    0.7000000000E+02    0.2636556848E-03    0.1042540909E-03    0.6713728190E+00    0.1050228552E-02    0.3633149351E-03
    0.9000000000E+02    0.3361077861E-03    0.1329739516E-03    0.6766990593E+00    0.1346555528E-02    0.4665877015E-03
    0.1100000000E+03    0.4084216613E-03    0.1616387851E-03    0.6801328717E+00    0.1642197136E-02    0.5696261365E-03
    0.1300000000E+03    0.4805492159E-03    0.1902298694E-03    0.6825307102E+00    0.1937065687E-02    0.6724312419E-03
    0.1500000000E+03    0.5524638562E-03    0.2187369273E-03    0.6842999624E+00    0.2231118963E-02    0.7750040124E-03
    0.1700000000E+03    0.6241498206E-03    0.2471539038E-03    0.6856591657E+00    0.2524335125E-02    0.8773454367E-03
    0.1900000000E+03    0.6955973210E-03    0.2754770593E-03    0.6867360734E+00    0.2816702581E-02    0.9794564972E-03
    0.2100000000E+03    0.7668001005E-03    0.3037040169E-03    0.6876103611E+00    0.3108215357E-02    0.1081338171E-02
    0.2300000000E+03    0.8377541084E-03    0.3318332479E-03    0.6883342986E+00    0.3398870760E-02    0.1182991427E-02
    0.2500000000E+03    0.9084567343E-03    0.3598637754E-03    0.6889436003E+00    0.3688668123E-02    0.1284417232E-02
    0.2700000000E+03    0.9789063429E-03    0.3877949951E-03    0.6894634988E+00    0.3977608074E-02    0.1385616545E-02
    0.2900000000E+03    0.1049101979E-02    0.4156265623E-03    0.6899123275E+00    0.4265692105E-02    0.1486590319E-02
    0.3100000000E+03    0.1119043175E-02    0.4433583173E-03    0.6903037276E+00    0.4552922295E-02    0.1587339502E-02
    0.3300000000E+03    0.1188729819E-02    0.4709902353E-03    0.6906480593E+00    0.4839301130E-02    0.1687865037E-02
    0.3500000000E+03    0.1258162064E-02    0.4985223923E-03    0.6909533319E+00    0.5124831391E-02    0.1788167861E-02
    0.3700000000E+03    0.1327340265E-02    0.5259549399E-03    0.6912258350E+00    0.5409516065E-02    0.1888248904E-02
    0.3900000000E+03    0.1396264929E-02    0.5532880877E-03    0.6914705768E+00    0.5693358292E-02    0.1988109094E-02
    0.4100000000E+03    0.1464936683E-02    0.5805220903E-03    0.6916915942E+00    0.5976361322E-02    0.2087749351E-02
    0.4300000000E+03    0.1533356248E-02    0.6076572373E-03    0.6918921776E+00    0.6258528486E-02    0.2187170590E-02
    0.4500000000E+03    0.1601524417E-02    0.6346938457E-03    0.6920750358E+00    0.6539863172E-02    0.2286373722E-02
    0.4700000000E+03    0.1669442044E-02    0.6616322548E-03    0.6922424191E+00    0.6820368813E-02    0.2385359651E-02
    0.4900000000E+03    0.1737110028E-02    0.6884728209E-03    0.6923962123E+00    0.7100048868E-02    0.2484129277E-02
    0.1000000000E+03    0.3722857041E-03    0.1473146912E-03    0.6785833352E+00    0.1494469029E-02    0.5181361477E-03
    0.3000000000E+03    0.1084104396E-02    0.4295049206E-03    0.6901144944E+00    0.4409413783E-02    0.1536992926E-02
    0.5000000000E+03    0.1770850695E-02    0.7018565280E-03    0.6924685196E+00    0.7239580388E-02    0.2533433256E-02
    0.7000000000E+03    0.2432800215E-02    0.9644894371E-03    0.6934824810E+00    0.9987722741E-02    0.3508373042E-02
    0.9000000000E+03    0.3070964428E-02    0.1217801221E-02    0.6940471537E+00    0.1265729426E-01    0.4462676964E-02
    0.1100000000E+04    0.3686397769E-02    0.1462204298E-02    0.6944070122E+00    0.1525163714E-01    0.5397162097E-02
    0.1300000000E+04    0.4280121294E-02    0.1698097474E-02    0.6946563899E+00    0.1777392484E-01    0.6312601192E-02
    0.1500000000E+04    0.4853107539E-02    0.1925860407E-02    0.6948393984E+00    0.2022716035E-01    0.7209725686E-02
    0.1700000000E+04    0.5406278134E-02    0.2145852816E-02    0.6949794237E+00    0.2261418389E-01    0.8089228461E-02
    0.1900000000E+04    0.5940505008E-02    0.2358415002E-02    0.6950900191E+00    0.2493768251E-01    0.8951766393E-02
    0.2100000000E+04    0.6456612730E-02    0.2563868792E-02    0.6951795816E+00    0.2720019968E-01    0.9797962688E-02
    0.2300000000E+04    0.6955381172E-02    0.2762518586E-02    0.6952535910E+00    0.2940414452E-01    0.1062840905E-01
    0.2500000000E+04    0.7437548203E-02    0.2954652418E-02    0.6953157755E+00    0.3155180044E-01    0.1144366767E-01
    0.2700000000E+04    0.7903812301E-02    0.3140542967E-02    0.6953687599E+00    0.3364533312E-01    0.1224427307E-01
    0.2900000000E+04    0.8354835009E-02    0.3320448531E-02    0.6954144456E+00    0.3568679798E-01    0.1303073383E-01
    0.3100000000E+04    0.8791243263E-02    0.3494613919E-02    0.6954542439E+00    0.3767814712E-01    0.1380353413E-01
    0.3300000000E+04    0.9213631544E-02    0.3663271300E-02    0.6954892240E+00    0.3962123565E-01    0.1456313526E-01
    0.3500000000E+04    0.9622563899E-02    0.3826640985E-02    0.6955202112E+00    0.4151782770E-01    0.1530997695E-01
    0.3700000000E+04    0.1001857581E-01    0.3984932156E-02    0.6955478523E+00    0.4336960190E-01    0.1604447865E-01
    0.3900000000E+04    0.1040217595E-01    0.4138343549E-02    0.6955726618E+00    0.4517815649E-01    0.1676704070E-01
    0.4100000000E+04    0.1077384778E-01    0.4287064077E-02    0.6955950536E+00    0.4694501409E-01    0.1747804542E-01
    0.4300000000E+04    0.1113405107E-01    0.4431273426E-02    0.6956153647E+00    0.4867162612E-01    0.1817785814E-01
    0.4500000000E+04    0.1148322332E-01    0.4571142593E-02    0.6956338724E+00    0.5035937691E-01    0.1886682814E-01
    0.4700000000E+04    0.1182178104E-01    0.4706834399E-02    0.6956508068E+00    0.5200958755E-01    0.1954528954E-01
    0.4900000000E+04    0.1215012096E-01    0.4838503962E-02    0.6956663602E+00    0.5362351945E-01    0.2021356215E-01
    0.1000000000E+04    0.3381457578E-02    0.1341091001E-02    0.6942450248E+00    0.1396366688E-01    0.4932347580E-02
    0.3000000000E+04    0.8574828052E-02    0.3408233950E-02    0.6954350072E+00    0.3668861887E-01    0.1341881218E-01
    0.5000000000E+04    0.1231057811E-01    0.4902876880E-02    0.6956736708E+00    0.5441725957E-01    0.2054397386E-01
    0.7000000000E+04    0.1506633921E-01    0.6011654798E-02    0.6957760580E+00    0.6865356052E-01    0.2668528472E-01
    0.9000000000E+04    0.1713738404E-01    0.6850116595E-02    0.6958329769E+00    0.8034995383E-01    0.3208758606E-01
    0.1100000000E+05    0.1871501689E-01    0.7493245260E-02    0.6958692164E+00    0.9013917737E-01    0.3691731410E-01
    0.1300000000E+05    0.1992802303E-01    0.7991604172E-02    0.6958943158E+00    0.9845825971E-01    0.4129198966E-01
    0.1500000000E+05    0.2086589141E-01    0.8380390161E-02    0.6959127288E+00    0.1056189395E+00    0.4529724705E-01
    0.1700000000E+05    0.2159248223E-01    0.8684766088E-02    0.6959268141E+00    0.1118497011E+00    0.4899716075E-01
    0.1900000000E+05    0.2215441084E-01    0.8923134761E-02    0.6959379374E+00    0.1173219333E+00    0.5244076989E-01
    0.2100000000E+05    0.2258637442E-01    0.9109220953E-02    0.6959469445E+00    0.1221667959E+00    0.5566634631E-01
    0.2300000000E+05    0.2291464038E-01    0.9253436176E-02    0.6959543872E+00    0.1264864298E+00    0.5870427169E-01
    0.2500000000E+05    0.2315939173E-01    0.9363797192E-02    0.6959606406E+00    0.1303616091E+00    0.6157902824E-01
    0.2700000000E+05    0.2333634083E-01    0.9446558639E-02    0.6959659688E+00    0.1338570873E+00    0.6431060792E-01
    0.2900000000E+05    0.2345786264E-01    0.9506657775E-02    0.6959705632E+00    0.1370254102E+00    0.6691553058E-01
    0.3100000000E+05    0.2353380522E-01    0.9548032876E-02    0.6959745656E+00    0.1399096855E+00    0.6940759295E-01
    0.3300000000E+05    0.2357207887E-01    0.9573854961E-02    0.6959780836E+00    0.1425456289E+00    0.7179842862E-01
    0.3500000000E+05    0.2357909075E-01    0.9586698928E-02    0.6959812002E+00    0.1449630978E+00    0.7409793289E-01
    0.3700000000E+05    0.2356006981E-01    0.9588671646E-02    0.6959839803E+00    0.1471872563E+00    0.7631458948E-01
    0.3900000000E+05    0.2351931271E-01    0.9581509006E-02    0.6959864759E+00    0.1492394724E+00    0.7845572476E-01
    0.4100000000E+05    0.2346037194E-01    0.9566650276E-02    0.6959887283E+00    0.1511380149E+00    0.8052770782E-01
    0.4300000000E+05    0.2338620126E-01    0.9545295648E-02    0.6959907716E+00    0.1528986021E+00    0.8253610951E-01
    0.4500000000E+05    0.2329926922E-01    0.9518451197E-02    0.6959926336E+00    0.1545348370E+00    0.8448583008E-01
    0.4700000000E+05    0.2320164841E-01    0.9486964314E-02    0.6959943374E+00    0.1560585560E+00    0.8638120250E-01
    0.4900000000E+05    0.2309508638E-01    0.9451551852E-02    0.6959959024E+00    0.1574801099E+00    0.8822607678E-01
    0.1000000000E+05    0.1797869599E-01    0.7192494961E-02    0.6958529066E+00    0.8545206703E-01    0.3456577233E-01
    0.3000000000E+05    0.2350099725E-01    0.9529471909E-02    0.6959726310E+00    0.1385006684E+00    0.6817489704E-01
    0.5000000000E+05    0.2303892381E-01    0.9432567490E-02    0.6959966381E+00    0.1581554606E+00    0.8913066549E-01
    0.7000000000E+05    0.2170555189E-01    0.8954277593E-02    0.6960069443E+00    0.1680162659E+00    0.1052402776E+00
    0.9000000000E+05    0.2029393380E-01    0.8424718530E-02    0.6960126779E+00    0.1735801968E+00    0.1186889911E+00
    0.1100000000E+06    0.1897647692E-01    0.7920358171E-02    0.6960163309E+00    0.1768576256E+00    0.1304094366E+00
    0.1300000000E+06    0.1778655692E-01    0.7458896719E-02    0.6960188626E+00    0.1787721096E+00    0.1408935818E+00
    0.1500000000E+06    0.1672070042E-01    0.7041582824E-02    0.6960207209E+00    0.1798116878E+00    0.1504366009E+00
    0.1700000000E+06    0.1576595939E-01    0.6664910510E-02    0.6960221433E+00    0.1802599608E+00    0.1592315914E+00
    0.1900000000E+06    0.1490809562E-01    0.6324287369E-02    0.6960232671E+00    0.1802934446E+00    0.1674129505E+00
    0.2100000000E+06    0.1413403024E-01    0.6015232430E-02    0.6960241776E+00    0.1800278525E+00    0.1750786712E+00
    0.2300000000E+06    0.1343243286E-01    0.5733738145E-02    0.6960249303E+00    0.1795421702E+00    0.1823028318E+00
    0.2500000000E+06    0.1279369845E-01    0.5476337409E-02    0.6960255630E+00    0.1788920845E+00    0.1891430706E+00
    0.2700000000E+06    0.1220974127E-01    0.5240068919E-02    0.6960261023E+00    0.1781179040E+00    0.1956453031E+00
    0.2900000000E+06    0.1167375691E-01    0.5022412837E-02    0.6960265676E+00    0.1772494475E+00    0.2018468287E+00
    0.3100000000E+06    0.1118000294E-01    0.4821223549E-02    0.6960269730E+00    0.1763091796E+00    0.2077784525E+00
    0.3300000000E+06    0.1072361190E-01    0.4634668806E-02    0.6960273295E+00    0.1753142860E+00    0.2134659775E+00
    0.3500000000E+06    0.1030043705E-01    0.4461177700E-02    0.6960276455E+00    0.1742780866E+00    0.2189312826E+00
    0.3700000000E+06    0.9906926860E-02    0.4299397300E-02    0.6960279274E+00    0.1732110200E+00    0.2241931179E+00
    0.3900000000E+06    0.9540023361E-02    0.4148156937E-02    0.6960281806E+00    0.1721213442E+00    0.2292677039E+00
    0.4100000000E+06    0.9197079906E-02    0.4006438887E-02    0.6960284091E+00    0.1710156449E+00    0.2341691895E+00
    0.4300000000E+06    0.8875794388E-02    0.3873354329E-02    0.6960286165E+00    0.1698992094E+00    0.2389100094E+00
    0.4500000000E+06    0.8574154856E-02    0.3748123575E-02    0.6960288056E+00    0.1687763065E+00    0.2435011640E+00
    0.4700000000E+06    0.8290394995E-02    0.3630059775E-02    0.6960289786E+00    0.1676503985E+00    0.2479524444E+00
    0.4900000000E+06    0.8022957504E-02    0.3518555413E-02    0.6960291376E+00    0.1665243032E+00    0.2522726127E+00
    0.1000000000E+06    0.1961990814E-01    0.8167653298E-02    0.6960146865E+00    0.1754324625E+00    0.1247281744E+00
    0.3000000000E+06    0.1142192389E-01    0.4919881050E-02    0.6960267770E+00    0.1767871112E+00    0.2048446627E+00
    0.5000000000E+06    0.7894922581E-02    0.3465092066E-02    0.6960292124E+00    0.1659619212E+00    0.2543860235E+00
    0.7000000000E+06    0.5927572957E-02    0.2636530166E-02    0.6960302608E+00    0.1550786002E+00    0.2913307680E+00
    0.9000000000E+06    0.4673101227E-02    0.2100400463E-02    0.6960308452E+00    0.1452380623E+00    0.3208522139E+00
    0.1100000000E+07    0.3806832165E-02    0.1725918514E-02    0.6960312181E+00    0.1364924611E+00    0.3453527466E+00
    0.1300000000E+07    0.3175848898E-02    0.1450563089E-02    0.6960314768E+00    0.1287218509E+00    0.3661918480E+00
    0.1500000000E+07    0.2698200558E-02    0.1240436441E-02    0.6960316668E+00    0.1217886547E+00    0.3842300298E+00
    0.1700000000E+07    0.2325883161E-02    0.1075490366E-02    0.6960318124E+00    0.1155698632E+00    0.4000529486E+00
    0.1900000000E+07    0.2028882730E-02    0.9430859272E-03    0.6960319274E+00    0.1099619330E+00    0.4140799975E+00
    0.2100000000E+07    0.1787471024E-02    0.8348549806E-03    0.6960320206E+00    0.1048791169E+00    0.4266230394E+00
    0.2300000000E+07    0.1588156069E-02    0.7450373778E-03    0.6960320976E+00    0.1002505255E+00    0.4379208184E+00
    0.2500000000E+07    0.1421408140E-02    0.6695406304E-03    0.6960321623E+00    0.9601732724E-01    0.4481603841E+00
    0.2700000000E+07    0.1280313139E-02    0.6053795536E-03    0.6960322175E+00    0.9213040397E-01    0.4574910824E+00
    0.2900000000E+07    0.1159739609E-02    0.5503276597E-03    0.6960322651E+00    0.8854847235E-01    0.4660340515E+00
    0.3100000000E+07    0.1055804318E-02    0.5026923270E-03    0.6960323065E+00    0.8523659863E-01    0.4738888730E+00
    0.3300000000E+07    0.9655185967E-03    0.4611652879E-03    0.6960323429E+00    0.8216502777E-01    0.4811383568E+00
    0.3500000000E+07    0.8865479432E-03    0.4247205448E-03    0.6960323751E+00    0.7930825757E-01    0.4878520604E+00
    0.3700000000E+07    0.8170447858E-03    0.3925430490E-03    0.6960324038E+00    0.7664430258E-01    0.4940889295E+00
    0.3900000000E+07    0.7555297282E-03    0.3639778557E-03    0.6960324296E+00    0.7415410510E-01    0.4998993111E+00
    0.4100000000E+07    0.7008056813E-03    0.3384932215E-03    0.6960324528E+00    0.7182106066E-01    0.5053265122E+00
    0.4300000000E+07    0.6518947605E-03    0.3156533891E-03    0.6960324739E+00    0.6963063294E-01    0.5104080217E+00
    0.4500000000E+07    0.6079912327E-03    0.2950982251E-03    0.6960324931E+00    0.6757003931E-01    0.5151764805E+00
    0.4700000000E+07    0.5684259660E-03    0.2765277875E-03    0.6960325106E+00    0.6562799232E-01    0.5196604587E+00
    0.4900000000E+07    0.5326392471E-03    0.2596904881E-03    0.6960325267E+00    0.6379448572E-01    0.5238850846E+00
    0.1000000000E+07    0.4203348032E-02    0.1897804347E-02    0.6960310502E+00    0.1407347121E+00    0.3336294810E+00
    0.3000000000E+07    0.1105896690E-02    0.5256723197E-03    0.6960322865E+00    0.8686074742E-01    0.4700419584E+00
    0.5000000000E+07    0.5160125806E-03    0.2518540642E-03    0.6960325342E+00    0.6291561401E-01    0.5259071802E+00
    0.7000000000E+07    0.2990882400E-03    0.1486510511E-03    0.6960326392E+00    0.4931999056E-01    0.5569659634E+00
    0.9000000000E+07    0.1951944001E-03    0.9836858021E-04    0.6960326964E+00    0.4054463157E-01    0.5768170486E+00
    0.1100000000E+08    0.1373951902E-03    0.7002252393E-04    0.6960327319E+00    0.3441030200E-01    0.5906150008E+00
    0.1300000000E+08    0.1019345442E-03    0.5244310320E-04    0.6960327557E+00    0.2988073721E-01    0.6007656629E+00
    0.1500000000E+08    0.7861699271E-04    0.4077759046E-04    0.6960327726E+00    0.2639940234E-01    0.6085470154E+00
    0.1700000000E+08    0.6246824853E-04    0.3263440911E-04    0.6960327849E+00    0.2364049135E-01    0.6147018167E+00
    0.1900000000E+08    0.5082429621E-04    0.2672169324E-04    0.6960327941E+00    0.2140053603E-01    0.6196915505E+00
    0.2100000000E+08    0.4215318664E-04    0.2229097138E-04    0.6960328012E+00    0.1954589971E-01    0.6238181589E+00
    0.2300000000E+08    0.3552299270E-04    0.1888389482E-04    0.6960328067E+00    0.1798518410E-01    0.6272875389E+00
    0.2500000000E+08    0.3034030763E-04    0.1620686210E-04    0.6960328110E+00    0.1665376434E-01    0.6302449314E+00
    0.2700000000E+08    0.2621270009E-04    0.1406465346E-04    0.6960328144E+00    0.1550465585E-01    0.6327957293E+00
