  Pressure (Pa) 22mC5-500 (mol/kg) 23mC5-500 (mol/kg) 24mC5-500 (mol/kg) 2mC6-500 (mol/kg) 3mC6-500 (mol/kg)
    0.1000000000E+01    0.9565194345E-05    0.1851569497E-05    0.1514051535E+00    0.3180951807E-04    0.2084252745E-04
    0.3000000000E+01    0.2220862141E-04    0.4307364761E-05    0.3164996345E+00    0.7770077825E-04    0.6251670172E-04
    0.5000000000E+01    0.3161517525E-04    0.6144353731E-05    0.4047770661E+00    0.1157969160E-03    0.1041765276E-03
    0.7000000000E+01    0.3982223193E-04    0.7754059702E-05    0.4597336173E+00    0.1515565924E-03    0.1458220800E-03
    0.9000000000E+01    0.4749826149E-04    0.9264195405E-05    0.4972405076E+00    0.1865432538E-03    0.1874533935E-03
    0.1100000000E+02    0.5491367205E-04    0.1072608905E-04    0.5244702714E+00    0.2212942598E-03    0.2290704896E-03
    0.1300000000E+02    0.6219310690E-04    0.1216322809E-04    0.5451381114E+00    0.2560115160E-03    0.2706733840E-03
    0.1500000000E+02    0.6939930359E-04    0.1358733589E-04    0.5613610328E+00    0.2907719431E-03    0.3122620896E-03
    0.1700000000E+02    0.7656583631E-04    0.1500462441E-04    0.5744337926E+00    0.3256020502E-03    0.3538366180E-03
    0.1900000000E+02    0.8371145219E-04    0.1641852065E-04    0.5851927762E+00    0.3605072046E-03    0.3953969798E-03
    0.2100000000E+02    0.9084691161E-04    0.1783096172E-04    0.5942023490E+00    0.3954839521E-03    0.4369431850E-03
    0.2300000000E+02    0.9797847707E-04    0.1924305215E-04    0.6018571300E+00    0.4305254379E-03    0.4784752433E-03
    0.2500000000E+02    0.1051097896E-03    0.2065541563E-04    0.6084413483E+00    0.4656238390E-03    0.5199931642E-03
    0.2700000000E+02    0.1122429221E-03    0.2206839132E-04    0.6141649214E+00    0.5007714447E-03    0.5614969569E-03
    0.2900000000E+02    0.1193789918E-03    0.2348214719E-04    0.6191862512E+00    0.5359611073E-03    0.6029866306E-03
    0.3100000000E+02    0.1265185269E-03    0.2489674741E-04    0.6236271137E+00    0.5711863962E-03    0.6444621944E-03
    0.3300000000E+02    0.1336616903E-03    0.2631219327E-04    0.6275826667E+00    0.6064416148E-03    0.6859236571E-03
    0.3500000000E+02    0.1408084204E-03    0.2772844837E-04    0.6311283459E+00    0.6417217562E-03    0.7273710277E-03
    0.3700000000E+02    0.1479585190E-03    0.2914545455E-04    0.6343247225E+00    0.6770224351E-03    0.7688043151E-03
    0.3900000000E+02    0.1551117083E-03    0.3056314176E-04    0.6372209929E+00    0.7123398151E-03    0.8102235281E-03
    0.4100000000E+02    0.1622676676E-03    0.3198143444E-04    0.6398575290E+00    0.7476705377E-03    0.8516286754E-03
    0.4300000000E+02    0.1694260560E-03    0.3340025548E-04    0.6422677720E+00    0.7830116591E-03    0.8930197659E-03
    0.4500000000E+02    0.1765865282E-03    0.3481952866E-04    0.6444796583E+00    0.8183605930E-03    0.9343968082E-03
    0.4700000000E+02    0.1837487438E-03    0.3623918018E-04    0.6465167075E+00    0.8537150627E-03    0.9757598110E-03
    0.4900000000E+02    0.1909123728E-03    0.3765913953E-04    0.6483988623E+00    0.8890730578E-03    0.1017108783E-02
    0.1000000000E+02    0.5122870471E-04    0.9999314347E-05    0.5118565977E+00    0.2039312435E-03    0.2082637177E-03
    0.3000000000E+02    0.1229483094E-03    0.2418934056E-04    0.6214727625E+00    0.5535696713E-03    0.6237261757E-03
    0.5000000000E+02    0.1944946182E-03    0.3836921362E-04    0.6492872725E+00    0.9067528133E-03    0.1037778010E-02
    0.7000000000E+02    0.2661461536E-03    0.5257276333E-04    0.6619861654E+00    0.1260194310E-02    0.1450428057E-02
    0.9000000000E+02    0.3376797473E-03    0.6675364830E-04    0.6692586439E+00    0.1612817713E-02    0.1861684914E-02
    0.1100000000E+03    0.4089775465E-03    0.8088824375E-04    0.6739706449E+00    0.1964229848E-02    0.2271557078E-02
    0.1300000000E+03    0.4799765471E-03    0.9496410034E-04    0.6772720222E+00    0.2314258826E-02    0.2680052966E-02
    0.1500000000E+03    0.5506408928E-03    0.1089741965E-03    0.6797137680E+00    0.2662820894E-02    0.3087180918E-02
    0.1700000000E+03    0.6209491591E-03    0.1229143653E-03    0.6815929707E+00    0.3009872949E-02    0.3492949206E-02
    0.1900000000E+03    0.6908881516E-03    0.1367820563E-03    0.6830839601E+00    0.3355392735E-02    0.3897366028E-02
    0.2100000000E+03    0.7604496553E-03    0.1505756911E-03    0.6842957771E+00    0.3699369565E-02    0.4300439516E-02
    0.2300000000E+03    0.8296286158E-03    0.1642943062E-03    0.6853001214E+00    0.4041799583E-02    0.4702177734E-02
    0.2500000000E+03    0.8984220668E-03    0.1779373423E-03    0.6861460758E+00    0.4382683161E-02    0.5102588678E-02
    0.2700000000E+03    0.9668284667E-03    0.1915045152E-03    0.6868683720E+00    0.4722023393E-02    0.5501680279E-02
    0.2900000000E+03    0.1034847273E-02    0.2049957334E-03    0.6874922786E+00    0.5059825177E-02    0.5899460402E-02
    0.3100000000E+03    0.1102478662E-02    0.2184110427E-03    0.6880366186E+00    0.5396094640E-02    0.6295936847E-02
    0.3300000000E+03    0.1169723332E-02    0.2317505896E-03    0.6885157012E+00    0.5730838755E-02    0.6691117351E-02
    0.3500000000E+03    0.1236582373E-02    0.2450145950E-03    0.6889405985E+00    0.6064065091E-02    0.7085009588E-02
    0.3700000000E+03    0.1303057166E-02    0.2582033356E-03    0.6893200118E+00    0.6395781637E-02    0.7477621169E-02
    0.3900000000E+03    0.1369149318E-02    0.2713171307E-03    0.6896608740E+00    0.6725996679E-02    0.7868959643E-02
    0.4100000000E+03    0.1434860603E-02    0.2843563319E-03    0.6899687770E+00    0.7054718712E-02    0.8259032497E-02
    0.4300000000E+03    0.1500192931E-02    0.2973213157E-03    0.6902482811E+00    0.7381956374E-02    0.8647847160E-02
    0.4500000000E+03    0.1565148311E-02    0.3102124779E-03    0.6905031425E+00    0.7707718401E-02    0.9035410997E-02
    0.4700000000E+03    0.1629728831E-02    0.3230302291E-03    0.6907364828E+00    0.8032013589E-02    0.9421731317E-02
    0.4900000000E+03    0.1693936641E-02    0.3357749913E-03    0.6909509177E+00    0.8354850769E-02    0.9806815369E-02
    0.1000000000E+03    0.3733629158E-03    0.7382768246E-04    0.6718420286E+00    0.1788688890E-02    0.2066793555E-02
    0.3000000000E+03    0.1068711362E-02    0.2117128695E-03    0.6877734118E+00    0.5228151029E-02    0.6097861099E-02
    0.5000000000E+03    0.1725901465E-02    0.3421201358E-03    0.6910517494E+00    0.8515725370E-02    0.9998896043E-02
    0.7000000000E+03    0.2346182466E-02    0.4652991379E-03    0.6924665979E+00    0.1165882698E-01    0.1377733334E-01
    0.9000000000E+03    0.2931804653E-02    0.5816899569E-03    0.6932552464E+00    0.1466607522E-01    0.1744003366E-01
    0.1100000000E+04    0.3484988257E-02    0.6917257036E-03    0.6937581127E+00    0.1754559166E-01    0.2099333838E-01
    0.1300000000E+04    0.4007816391E-02    0.7958124540E-03    0.6941067176E+00    0.2030490885E-01    0.2444311822E-01
    0.1500000000E+04    0.4502221891E-02    0.8943269164E-03    0.6943626100E+00    0.2295099742E-01    0.2779481652E-01
    0.1700000000E+04    0.4969992896E-02    0.9876175994E-03    0.6945584382E+00    0.2549030985E-01    0.3105348778E-01
    0.1900000000E+04    0.5412782901E-02    0.1076006802E-02    0.6947131312E+00    0.2792882477E-01    0.3422383206E-01
    0.2100000000E+04    0.5832121570E-02    0.1159792730E-02    0.6948384196E+00    0.3027208827E-01    0.3731022584E-01
    0.2300000000E+04    0.6229425163E-02    0.1239251533E-02    0.6949419611E+00    0.3252525154E-01    0.4031674968E-01
    0.2500000000E+04    0.6606006223E-02    0.1314639188E-02    0.6950289663E+00    0.3469310492E-01    0.4324721305E-01
    0.2700000000E+04    0.6963082439E-02    0.1386193224E-02    0.6951031044E+00    0.3678010861E-01    0.4610517674E-01
    0.2900000000E+04    0.7301784703E-02    0.1454134290E-02    0.6951670336E+00    0.3879042035E-01    0.4889397304E-01
    0.3100000000E+04    0.7623164411E-02    0.1518667571E-02    0.6952227273E+00    0.4072792045E-01    0.5161672399E-01
    0.3300000000E+04    0.7928200071E-02    0.1579984077E-02    0.6952716807E+00    0.4259623435E-01    0.5427635792E-01
    0.3500000000E+04    0.8217803293E-02    0.1638261800E-02    0.6953150478E+00    0.4439875309E-01    0.5687562441E-01
    0.3700000000E+04    0.8492824211E-02    0.1693666774E-02    0.6953537336E+00    0.4613865181E-01    0.5941710791E-01
    0.3900000000E+04    0.8754056404E-02    0.1746354025E-02    0.6953884573E+00    0.4781890655E-01    0.6190324011E-01
    0.4100000000E+04    0.9002241359E-02    0.1796468443E-02    0.6954197981E+00    0.4944230953E-01    0.6433631123E-01
    0.4300000000E+04    0.9238072534E-02    0.1844145570E-02    0.6954482275E+00    0.5101148303E-01    0.6671848027E-01
    0.4500000000E+04    0.9462199048E-02    0.1889512315E-02    0.6954741332E+00    0.5252889209E-01    0.6905178446E-01
    0.4700000000E+04    0.9675229047E-02    0.1932687609E-02    0.6954978372E+00    0.5399685597E-01    0.7133814780E-01
    0.4900000000E+04    0.9877732771E-02    0.1973783004E-02    0.6955196087E+00    0.5541755882E-01    0.7357938900E-01
    0.1000000000E+04    0.3212317560E-02    0.6374761445E-03    0.6935317253E+00    0.1612131549E-01    0.1922998305E-01
    0.3000000000E+04    0.7464577085E-02    0.1486814647E-02    0.6951958071E+00    0.3976803954E-01    0.5026341680E-01
    0.5000000000E+04    0.9975205812E-02    0.1993583716E-02    0.6955298422E+00    0.5611083532E-01    0.7468363012E-01
    0.7000000000E+04    0.1148583343E-01    0.2302684684E-02    0.6956731748E+00    0.6793716886E-01    0.9477198462E-01
    0.9000000000E+04    0.1238768995E-01    0.2490778473E-02    0.6957528643E+00    0.7678372834E-01    0.1118350903E+00
    0.1100000000E+05    0.1290283841E-01    0.2601521100E-02    0.6958036047E+00    0.8356540819E-01    0.1266799307E+00
    0.1300000000E+05    0.1316458122E-01    0.2661214262E-02    0.6958387491E+00    0.8886017956E-01    0.1398347979E+00
    0.1500000000E+05    0.1325652263E-01    0.2686419646E-02    0.6958645319E+00    0.9305077346E-01    0.1516619517E+00
    0.1700000000E+05    0.1323296180E-01    0.2687940626E-02    0.6958842552E+00    0.9640052905E-01    0.1624193727E+00
    0.1900000000E+05    0.1313017432E-01    0.2673028985E-02    0.6958998313E+00    0.9909648198E-01    0.1722966455E+00
    0.2100000000E+05    0.1297295741E-01    0.2646667748E-02    0.6959124443E+00    0.1012750712E+00    0.1814368373E+00
    0.2300000000E+05    0.1277858157E-01    0.2612347347E-02    0.6959228666E+00    0.1030381199E+00    0.1899503880E+00
    0.2500000000E+05    0.1255925809E-01    0.2572551403E-02    0.6959316236E+00    0.1044631247E+00    0.1979242390E+00
    0.2700000000E+05    0.1232372504E-01    0.2529069730E-02    0.6959390851E+00    0.1056100834E+00    0.2054280134E+00
    0.2900000000E+05    0.1207829253E-01    0.2483205158E-02    0.6959455189E+00    0.1065261478E+00    0.2125183103E+00
    0.3100000000E+05    0.1182754664E-01    0.2435913226E-02    0.6959511238E+00    0.1072488667E+00    0.2192417578E+00
    0.3300000000E+05    0.1157483287E-01    0.2387898366E-02    0.6959560504E+00    0.1078084961E+00    0.2256372281E+00
    0.3500000000E+05    0.1132259353E-01    0.2339681280E-02    0.6959604148E+00    0.1082296722E+00    0.2317374735E+00
    0.3700000000E+05    0.1107260699E-01    0.2291646850E-02    0.6959643082E+00    0.1085326456E+00    0.2375703555E+00
    0.3900000000E+05    0.1082615948E-01    0.2244078669E-02    0.6959678029E+00    0.1087342041E+00    0.2431597807E+00
    0.4100000000E+05    0.1058416993E-01    0.2197184227E-02    0.6959709573E+00    0.1088483722E+00    0.2485264242E+00
    0.4300000000E+05    0.1034728163E-01    0.2151113484E-02    0.6959738187E+00    0.1088869482E+00    0.2536882946E+00
    0.4500000000E+05    0.1011593027E-01    0.2105972700E-02    0.6959764263E+00    0.1088599207E+00    0.2586611813E+00
    0.4700000000E+05    0.9890394690E-02    0.2061834811E-02    0.6959788123E+00    0.1087757960E+00    0.2634590109E+00
    0.4900000000E+05    0.9670835154E-02    0.2018747292E-02    0.6959810039E+00    0.1086418565E+00    0.2680941354E+00
    0.1000000000E+05    0.1268377452E-01    0.2553881781E-02    0.6957807684E+00    0.8039075935E-01    0.1194969018E+00
    0.3000000000E+05    0.1195335012E-01    0.2459688603E-02    0.6959484146E+00    0.1069096356E+00    0.2159233004E+00
    0.5000000000E+05    0.9563321346E-02    0.1997606796E-02    0.6959820341E+00    0.1085581990E+00    0.2703541710E+00
    0.7000000000E+05    0.7716854805E-02    0.1630648366E-02    0.6959964667E+00    0.1054065895E+00    0.3091556930E+00
    0.9000000000E+05    0.6350459041E-02    0.1354658144E-02    0.6960044954E+00    0.1010120818E+00    0.3393518611E+00
    0.1100000000E+06    0.5322126532E-02    0.1144440464E-02    0.6960096103E+00    0.9639678383E-01    0.3639736322E+00
    0.1300000000E+06    0.4530003787E-02    0.9809313832E-03    0.6960131548E+00    0.9191144318E-01    0.3846496185E+00
    0.1500000000E+06    0.3906450366E-02    0.8511589585E-03    0.6960157563E+00    0.8767930169E-01    0.4023724283E+00
    0.1700000000E+06    0.3406213738E-02    0.7463069161E-03    0.6960177473E+00    0.8373578386E-01    0.4177984576E+00
    0.1900000000E+06    0.2998308925E-02    0.6602669117E-03    0.6960193202E+00    0.8008029978E-01    0.4313872259E+00
    0.2100000000E+06    0.2660979168E-02    0.5887086946E-03    0.6960205943E+00    0.7669754580E-01    0.4434742323E+00
    0.2300000000E+06    0.2378581506E-02    0.5284936232E-03    0.6960216474E+00    0.7356683446E-01    0.4543124581E+00
    0.2500000000E+06    0.2139625876E-02    0.4773000668E-03    0.6960225326E+00    0.7066630666E-01    0.4640976037E+00
    0.2700000000E+06    0.1935510342E-02    0.4333790972E-03    0.6960232869E+00    0.6797482147E-01    0.4729842379E+00
    0.2900000000E+06    0.1759685127E-02    0.3953915348E-03    0.6960239375E+00    0.6547275075E-01    0.4810965680E+00
    0.3100000000E+06    0.1607087156E-02    0.3622968695E-03    0.6960245044E+00    0.6314224747E-01    0.4885358704E+00
    0.3300000000E+06    0.1473749353E-02    0.3332759906E-03    0.6960250028E+00    0.6096726236E-01    0.4953857624E+00
    0.3500000000E+06    0.1356525401E-02    0.3076764242E-03    0.6960254444E+00    0.5893344470E-01    0.5017160353E+00
    0.3700000000E+06    0.1252892414E-02    0.2849728574E-03    0.6960258384E+00    0.5702799597E-01    0.5075854982E+00
    0.3900000000E+06    0.1160807165E-02    0.2647382356E-03    0.6960261921E+00    0.5523951032E-01    0.5130441266E+00
    0.4100000000E+06    0.1078599821E-02    0.2466223003E-03    0.6960265113E+00    0.5355781875E-01    0.5181347105E+00
    0.4300000000E+06    0.1004894334E-02    0.2303354431E-03    0.6960268010E+00    0.5197384467E-01    0.5228941375E+00
    0.4500000000E+06    0.9385480783E-03    0.2156364157E-03    0.6960270649E+00    0.5047947352E-01    0.5273544029E+00
    0.4700000000E+06    0.8786055696E-03    0.2023228697E-03    0.6960273065E+00    0.4906743723E-01    0.5315434145E+00
    0.4900000000E+06    0.8242626055E-03    0.1902240034E-03    0.6960275284E+00    0.4773121260E-01    0.5354856397E+00
    0.1000000000E+06    0.5801359748E-02    0.1242685427E-02    0.6960073079E+00    0.9870202902E-01    0.3522374599E+00
    0.3000000000E+06    0.1680752686E-02    0.3782882428E-03    0.6960242304E+00    0.6428709758E-01    0.4848947584E+00
    0.5000000000E+06    0.7989739770E-03    0.1845838797E-03    0.6960276327E+00    0.4708967273E-01    0.5373710442E+00
    0.7000000000E+06    0.4666197546E-03    0.1097593275E-03    0.6960290937E+00    0.3708906160E-01    0.5662124810E+00
    0.9000000000E+06    0.3057754310E-03    0.7292258139E-04    0.6960299059E+00    0.3056911464E-01    0.5845385390E+00
    0.1100000000E+07    0.2157828728E-03    0.5203833072E-04    0.6960304223E+00    0.2598652898E-01    0.5972314660E+00
    0.1300000000E+07    0.1603739361E-03    0.3904043289E-04    0.6960307794E+00    0.2259123365E-01    0.6065473085E+00
    0.1500000000E+07    0.1238500408E-03    0.3039418659E-04    0.6960310407E+00    0.1997560781E-01    0.6136768987E+00
    0.1700000000E+07    0.9851008427E-04    0.2434794839E-04    0.6960312399E+00    0.1789926336E-01    0.6193093201E+00
    0.1900000000E+07    0.8021406025E-04    0.1995190661E-04    0.6960313967E+00    0.1621132630E-01    0.6238713402E+00
    0.2100000000E+07    0.6657463758E-04    0.1665422490E-04    0.6960315232E+00    0.1481234696E-01    0.6276415083E+00
    0.2300000000E+07    0.5613645632E-04    0.1411624724E-04    0.6960316272E+00    0.1363412425E-01    0.6308094082E+00
    0.2500000000E+07    0.4797126220E-04    0.1212067735E-04    0.6960317141E+00    0.1262833344E-01    0.6335085689E+00
    0.2700000000E+07    0.4146435166E-04    0.1052283502E-04    0.6960317878E+00    0.1175978125E-01    0.6358357633E+00
    0.2900000000E+07    0.3619555631E-04    0.9223333960E-05    0.6960318510E+00    0.1100223189E-01    0.6378628446E+00
    0.3100000000E+07    0.3186978604E-04    0.8152052787E-05    0.6960319057E+00    0.1033572942E-01    0.6396442832E+00
    0.3300000000E+07    0.2827487345E-04    0.7258359644E-05    0.6960319535E+00    0.9744825979E-02    0.6412221242E+00
    0.3500000000E+07    0.2525510896E-04    0.6504947869E-05    0.6960319955E+00    0.9217377680E-02    0.6426293386E+00
    0.3700000000E+07    0.2269412996E-04    0.5863833968E-05    0.6960320328E+00    0.8743706641E-02    0.6438921462E+00
    0.3900000000E+07    0.2050356787E-04    0.5313691973E-05    0.6960320659E+00    0.8316005680E-02    0.6450316590E+00
    0.4100000000E+07    0.1861534047E-04    0.4838037153E-05    0.6960320956E+00    0.7927907433E-02    0.6460650673E+00
    0.4300000000E+07    0.1697631093E-04    0.4423963093E-05    0.6960321224E+00    0.7574167280E-02    0.6470065091E+00
    0.4500000000E+07    0.1554451794E-04    0.4061247397E-05    0.6960321465E+00    0.7250426484E-02    0.6478677194E+00
    0.4700000000E+07    0.1428647018E-04    0.3741707914E-05    0.6960321684E+00    0.6953032851E-02    0.6486585191E+00
    0.4900000000E+07    0.1317517512E-04    0.3458732314E-05    0.6960321884E+00    0.6678903233E-02    0.6493871904E+00
    0.1000000000E+07    0.2549256179E-03    0.6115200746E-04    0.6960301900E+00    0.2809375269E-01    0.5914126666E+00
    0.3000000000E+07    0.3392962957E-04    0.8662701705E-05    0.6960318793E+00    0.1065865466E-01    0.6387813956E+00
    0.5000000000E+07    0.1266753536E-04    0.3329231207E-05    0.6960321977E+00    0.6549727812E-02    0.6497304679E+00
    0.7000000000E+07    0.6566312653E-05    0.1757990075E-05    0.6960323218E+00    0.4719048143E-02    0.6545898416E+00
    0.9000000000E+07    0.4010413818E-05    0.1088021409E-05    0.6960323824E+00    0.3684575780E-02    0.6573317590E+00
    0.1100000000E+08    0.2703733130E-05    0.7409032009E-06    0.6960324147E+00    0.3020205620E-02    0.6590915598E+00
    0.1300000000E+08    0.1947431983E-05    0.5378346537E-06    0.6960324324E+00    0.2557709183E-02    0.6603162709E+00
    0.1500000000E+08    0.1470815556E-05    0.4087221023E-06    0.6960324416E+00    0.2217340830E-02    0.6612174776E+00
    0.1700000000E+08    0.1151219226E-05    0.3214896769E-06    0.6960324455E+00    0.1956442740E-02    0.6619082571E+00
    0.1900000000E+08    0.9265241590E-06    0.2597581615E-06    0.6960324459E+00    0.1750137604E-02    0.6624545145E+00
    0.2100000000E+08    0.7625436765E-06    0.2144480857E-06    0.6960324440E+00    0.1582942532E-02    0.6628972508E+00
    0.2300000000E+08    0.6392045474E-06    0.1801942238E-06    0.6960324405E+00    0.1444718968E-02    0.6632633069E+00
    0.2500000000E+08    0.5440923033E-06    0.1536594361E-06    0.6960324358E+00    0.1328550991E-02    0.6635709887E+00
    0.2700000000E+08    0.4691949705E-06    0.1326788943E-06    0.6960324303E+00    0.1229559753E-02    0.6638332086E+00
