  Pressure (Pa) 22mC5-500 (mol/kg) 23mC5-500 (mol/kg) 24mC5-500 (mol/kg) 2mC6-500 (mol/kg) 3mC6-500 (mol/kg)
    0.1000000000E+01    0.1114381016E-04    0.4311712401E-05    0.3666079452E-01    0.3029063045E-04    0.3647381821E-04
    0.3000000000E+01    0.3081211306E-04    0.1192498160E-04    0.9949202860E-01    0.8454645194E-04    0.1093985330E-03
    0.5000000000E+01    0.4780580071E-04    0.1850784704E-04    0.1513816357E+00    0.1324810596E-03    0.1822927401E-03
    0.7000000000E+01    0.6282092336E-04    0.2432948199E-04    0.1949593815E+00    0.1758686986E-03    0.2551564931E-03
    0.9000000000E+01    0.7633854658E-04    0.2957576760E-04    0.2320747500E+00    0.2159149147E-03    0.3279898366E-03
    0.1100000000E+02    0.8870070442E-04    0.3437874899E-04    0.2640663624E+00    0.2534613358E-03    0.4007928093E-03
    0.1300000000E+02    0.1001564871E-03    0.3883450241E-04    0.2919269757E+00    0.2891091238E-03    0.4735654459E-03
    0.1500000000E+02    0.1108910722E-03    0.4301438525E-04    0.3164084117E+00    0.3232961591E-03    0.5463077779E-03
    0.1700000000E+02    0.1210446052E-03    0.4697234956E-04    0.3380904697E+00    0.3563468215E-03    0.6190198352E-03
    0.1900000000E+02    0.1307248234E-03    0.5074982954E-04    0.3574274676E+00    0.3885049706E-03    0.6917016456E-03
    0.2100000000E+02    0.1400157017E-03    0.5437908757E-04    0.3747804465E+00    0.4199563129E-03    0.7643532360E-03
    0.2300000000E+02    0.1489835027E-03    0.5788555419E-04    0.3904399424E+00    0.4508438880E-03    0.8369746325E-03
    0.2500000000E+02    0.1576810903E-03    0.6128949568E-04    0.4046423964E+00    0.4812789868E-03    0.9095658602E-03
    0.2700000000E+02    0.1661510578E-03    0.6460722283E-04    0.4175821856E+00    0.5113489779E-03    0.9821269439E-03
    0.2900000000E+02    0.1744280313E-03    0.6785198043E-04    0.4294205795E+00    0.5411229987E-03    0.1054657908E-02
    0.3100000000E+02    0.1825403898E-03    0.7103461095E-04    0.4402925018E+00    0.5706561506E-03    0.1127158776E-02
    0.3300000000E+02    0.1905115645E-03    0.7416405592E-04    0.4503116992E+00    0.5999926276E-03    0.1199629572E-02
    0.3500000000E+02    0.1983610332E-03    0.7724773911E-04    0.4595747401E+00    0.6291680764E-03    0.1272070318E-02
    0.3700000000E+02    0.2061050880E-03    0.8029186240E-04    0.4681641397E+00    0.6582113935E-03    0.1344481039E-02
    0.3900000000E+02    0.2137574347E-03    0.8330163644E-04    0.4761508267E+00    0.6871461071E-03    0.1416861757E-02
    0.4100000000E+02    0.2213296644E-03    0.8628146213E-04    0.4835961082E+00    0.7159914485E-03    0.1489212495E-02
    0.4300000000E+02    0.2288316274E-03    0.8923507451E-04    0.4905532481E+00    0.7447631894E-03    0.1561533275E-02
    0.4500000000E+02    0.2362717333E-03    0.9216565781E-04    0.4970687438E+00    0.7734743004E-03    0.1633824120E-02
    0.4700000000E+02    0.2436571913E-03    0.9507593797E-04    0.5031833684E+00    0.8021354738E-03    0.1706085052E-02
    0.4900000000E+02    0.2509942061E-03    0.9796825771E-04    0.5089330249E+00    0.8307555391E-03    0.1778316095E-02
    0.1000000000E+02    0.8264671453E-04    0.3202597948E-04    0.2486423217E+00    0.2349584637E-03    0.3643951170E-03
    0.3000000000E+02    0.1785032199E-03    0.6945046316E-04    0.4349697959E+00    0.5559166963E-03    0.1090912102E-02
    0.5000000000E+02    0.2546462515E-03    0.9940832501E-04    0.5116810545E+00    0.8450524897E-03    0.1814420414E-02
    0.7000000000E+02    0.3261195206E-03    0.1276334721E-03    0.5535296332E+00    0.1130046978E-02    0.2534942971E-02
    0.9000000000E+02    0.3959544257E-03    0.1552632271E-03    0.5798839042E+00    0.1414471274E-02    0.3252501701E-02
    0.1100000000E+03    0.4650111377E-03    0.1826135769E-03    0.5980060121E+00    0.1698678490E-02    0.3967118127E-02
    0.1300000000E+03    0.5335734512E-03    0.2097854372E-03    0.6112326744E+00    0.1982485082E-02    0.4678813494E-02
    0.1500000000E+03    0.6017381843E-03    0.2368111745E-03    0.6213118275E+00    0.2265653201E-02    0.5387608807E-02
    0.1700000000E+03    0.6695344079E-03    0.2636989327E-03    0.6292477038E+00    0.2547981896E-02    0.6093524850E-02
    0.1900000000E+03    0.7369654903E-03    0.2904480311E-03    0.6356583585E+00    0.2829316390E-02    0.6796582195E-02
    0.2100000000E+03    0.8040253188E-03    0.3170547867E-03    0.6409450280E+00    0.3109540708E-02    0.7496801209E-02
    0.2300000000E+03    0.8707048865E-03    0.3435148126E-03    0.6453795464E+00    0.3388568636E-02    0.8194202055E-02
    0.2500000000E+03    0.9369950018E-03    0.3698239185E-03    0.6491526224E+00    0.3666336221E-02    0.8888804701E-02
    0.2700000000E+03    0.1002887355E-02    0.3959784350E-03    0.6524020035E+00    0.3942796096E-02    0.9580628918E-02
    0.2900000000E+03    0.1068374874E-02    0.4219752940E-03    0.6552296679E+00    0.4217913319E-02    0.1026969428E-01
    0.3100000000E+03    0.1133451768E-02    0.4478120094E-03    0.6577127279E+00    0.4491662332E-02    0.1095602019E-01
    0.3300000000E+03    0.1198113440E-02    0.4734866199E-03    0.6599105738E+00    0.4764024742E-02    0.1163962584E-01
    0.3500000000E+03    0.1262356367E-02    0.4989976225E-03    0.6618696886E+00    0.5034987671E-02    0.1232053024E-01
    0.3700000000E+03    0.1326177951E-02    0.5243439074E-03    0.6636269739E+00    0.5304542536E-02    0.1299875224E-01
    0.3900000000E+03    0.1389576399E-02    0.5495246994E-03    0.6652120980E+00    0.5572684123E-02    0.1367431049E-01
    0.4100000000E+03    0.1452550597E-02    0.5745395068E-03    0.6666491854E+00    0.5839409888E-02    0.1434722347E-01
    0.4300000000E+03    0.1515100019E-02    0.5993880777E-03    0.6679580537E+00    0.6104719409E-02    0.1501750947E-01
    0.4500000000E+03    0.1577224629E-02    0.6240703631E-03    0.6691551343E+00    0.6368613976E-02    0.1568518663E-01
    0.4700000000E+03    0.1638924816E-02    0.6485864858E-03    0.6702541653E+00    0.6631096253E-02    0.1635027290E-01
    0.4900000000E+03    0.1700201327E-02    0.6729367144E-03    0.6712667225E+00    0.6892170026E-02    0.1701278606E-01
    0.1000000000E+03    0.4305555515E-03    0.1689645226E-03    0.5897124182E+00    0.1556609932E-02    0.3610176368E-02
    0.3000000000E+03    0.1100964963E-02    0.4349138038E-03    0.6565102115E+00    0.4354960148E-02    0.1061319846E-01
    0.5000000000E+03    0.1730681022E-02    0.6850497366E-03    0.6717437020E+00    0.7022180159E-02    0.1734308325E-01
    0.7000000000E+03    0.2318412634E-02    0.9187463106E-03    0.6784949175E+00    0.9549921814E-02    0.2381815856E-01
    0.9000000000E+03    0.2866051485E-02    0.1136732202E-02    0.6823062477E+00    0.1194497520E-01    0.3005510161E-01
    0.1100000000E+04    0.3376192219E-02    0.1340017886E-02    0.6847549102E+00    0.1421571903E-01    0.3606912236E-01
    0.1300000000E+04    0.3851477911E-02    0.1529633588E-02    0.6864610017E+00    0.1637036719E-01    0.4187412237E-01
    0.1500000000E+04    0.4294426365E-02    0.1706560794E-02    0.6877179057E+00    0.1841661728E-01    0.4748283318E-01
    0.1700000000E+04    0.4707382421E-02    0.1871713614E-02    0.6886824276E+00    0.2036158848E-01    0.5290693765E-01
    0.1900000000E+04    0.5092510420E-02    0.2025935878E-02    0.6894459883E+00    0.2221183711E-01    0.5815717635E-01
    0.2100000000E+04    0.5451800819E-02    0.2170003742E-02    0.6900654888E+00    0.2397339479E-01    0.6324344135E-01
    0.2300000000E+04    0.5787081775E-02    0.2304630220E-02    0.6905781985E+00    0.2565181183E-01    0.6817485897E-01
    0.2500000000E+04    0.6100032125E-02    0.2430470241E-02    0.6910095499E+00    0.2725219999E-01    0.7295986304E-01
    0.2700000000E+04    0.6392194253E-02    0.2548125659E-02    0.6913774926E+00    0.2877927241E-01    0.7760625991E-01
    0.2900000000E+04    0.6664986262E-02    0.2658149993E-02    0.6916950571E+00    0.3023738010E-01    0.8212128622E-01
    0.3100000000E+04    0.6919713206E-02    0.2761052789E-02    0.6919719317E+00    0.3163054500E-01    0.8651166046E-01
    0.3300000000E+04    0.7157577335E-02    0.2857303603E-02    0.6922154698E+00    0.3296248974E-01    0.9078362896E-01
    0.3500000000E+04    0.7379687380E-02    0.2947335614E-02    0.6924313532E+00    0.3423666443E-01    0.9494300710E-01
    0.3700000000E+04    0.7587066948E-02    0.3031548879E-02    0.6926240418E+00    0.3545627068E-01    0.9899521627E-01
    0.3900000000E+04    0.7780662078E-02    0.3110313274E-02    0.6927970852E+00    0.3662428324E-01    0.1029453170E+00
    0.4100000000E+04    0.7961348071E-02    0.3183971142E-02    0.6929533437E+00    0.3774346946E-01    0.1067980391E+00
    0.4300000000E+04    0.8129935630E-02    0.3252839684E-02    0.6930951479E+00    0.3881640683E-01    0.1105578080E+00
    0.4500000000E+04    0.8287176412E-02    0.3317213110E-02    0.6932244160E+00    0.3984549876E-01    0.1142287701E+00
    0.4700000000E+04    0.8433768030E-02    0.3377364589E-02    0.6933427410E+00    0.4083298888E-01    0.1178148138E+00
    0.4900000000E+04    0.8570358584E-02    0.3433548003E-02    0.6934514569E+00    0.4178097394E-01    0.1213195901E+00
    0.1000000000E+04    0.3125642041E-02    0.1240147451E-02    0.6836507392E+00    0.1309536210E-01    0.3308907947E-01
    0.3000000000E+04    0.6794530431E-02    0.2710461343E-02    0.6918380754E+00    0.3094184104E-01    0.8433165389E-01
    0.5000000000E+04    0.8635093468E-02    0.3460226144E-02    0.6935025703E+00    0.4224077004E-01    0.1230425835E+00
    0.7000000000E+04    0.9530487355E-02    0.3834793349E-02    0.6942193602E+00    0.4977750404E-01    0.1539689824E+00
    0.9000000000E+04    0.9905086311E-02    0.4000806200E-02    0.6946186613E+00    0.5497346642E-01    0.1796505087E+00
    0.1100000000E+05    0.9980741407E-02    0.4045821840E-02    0.6948732466E+00    0.5862567209E-01    0.2015801737E+00
    0.1300000000E+05    0.9880987409E-02    0.4018881131E-02    0.6950497598E+00    0.6121402545E-01    0.2207003752E+00
    0.1500000000E+05    0.9677922299E-02    0.3948798353E-02    0.6951793622E+00    0.6304392302E-01    0.2376399918E+00
    0.1700000000E+05    0.9415121256E-02    0.3853123695E-02    0.6952785752E+00    0.6431845874E-01    0.2528378730E+00
    0.1900000000E+05    0.9119598625E-02    0.3742835748E-02    0.6953569750E+00    0.6517761102E-01    0.2666116983E+00
    0.2100000000E+05    0.8808392977E-02    0.3624933251E-02    0.6954204956E+00    0.6572074651E-01    0.2791985714E+00
    0.2300000000E+05    0.8492353351E-02    0.3503930754E-02    0.6954730102E+00    0.6602016396E-01    0.2907800842E+00
    0.2500000000E+05    0.8178396240E-02    0.3382753796E-02    0.6955171544E+00    0.6612957493E-01    0.3014984118E+00
    0.2700000000E+05    0.7870892254E-02    0.3263291339E-02    0.6955547843E+00    0.6608959669E-01    0.3114670007E+00
    0.2900000000E+05    0.7572539987E-02    0.3146745613E-02    0.6955872447E+00    0.6593141562E-01    0.3207778783E+00
    0.3100000000E+05    0.7284928669E-02    0.3033858576E-02    0.6956155338E+00    0.6567929348E-01    0.3295067794E+00
    0.3300000000E+05    0.7008907021E-02    0.2925061256E-02    0.6956404083E+00    0.6535232088E-01    0.3377168257E+00
    0.3500000000E+05    0.6744828718E-02    0.2820573786E-02    0.6956624523E+00    0.6496566869E-01    0.3454612196E+00
    0.3700000000E+05    0.6492717779E-02    0.2720473305E-02    0.6956821235E+00    0.6453149697E-01    0.3527852516E+00
    0.3900000000E+05    0.6252381079E-02    0.2624740524E-02    0.6956997863E+00    0.6405962569E-01    0.3597278224E+00
    0.4100000000E+05    0.6023485466E-02    0.2533291955E-02    0.6957157337E+00    0.6355803674E-01    0.3663226119E+00
    0.4300000000E+05    0.5805610854E-02    0.2446002337E-02    0.6957302046E+00    0.6303325448E-01    0.3725989911E+00
    0.4500000000E+05    0.5598286854E-02    0.2362720308E-02    0.6957433953E+00    0.6249063763E-01    0.3785827405E+00
    0.4700000000E+05    0.5401018016E-02    0.2283279369E-02    0.6957554688E+00    0.6193460549E-01    0.3842966235E+00
    0.4900000000E+05    0.5213301120E-02    0.2207505548E-02    0.6957665615E+00    0.6136881497E-01    0.3897608480E+00
    0.1000000000E+05    0.9970971525E-02    0.4034749609E-02    0.6947586318E+00    0.5695726572E-01    0.1910160684E+00
    0.3000000000E+05    0.7427324660E-02    0.3089811894E-02    0.6956018587E+00    0.6581579948E-01    0.3252108707E+00
    0.5000000000E+05    0.5122868244E-02    0.2170938742E-02    0.6957717768E+00    0.6108322966E-01    0.3924050484E+00
    0.7000000000E+05    0.3703631184E-02    0.1591546516E-02    0.6958449262E+00    0.5536911445E-01    0.4356920630E+00
    0.9000000000E+05    0.2795106399E-02    0.1214669230E-02    0.6958857086E+00    0.5019104754E-01    0.4665527760E+00
    0.1100000000E+06    0.2182644512E-02    0.9574455596E-03    0.6959117392E+00    0.4572922421E-01    0.4898756146E+00
    0.1300000000E+06    0.1751128673E-02    0.7743694173E-03    0.6959298084E+00    0.4191724210E-01    0.5082051352E+00
    0.1500000000E+06    0.1435920556E-02    0.6394812245E-03    0.6959430910E+00    0.3865036626E-01    0.5230279391E+00
    0.1700000000E+06    0.1198745728E-02    0.5372221458E-03    0.6959532706E+00    0.3583182149E-01    0.5352816551E+00
    0.1900000000E+06    0.1015837517E-02    0.4578347651E-03    0.6959613236E+00    0.3338142079E-01    0.5455912797E+00
    0.2100000000E+06    0.8718242934E-03    0.3949549938E-03    0.6959678552E+00    0.3123481795E-01    0.5543913786E+00
    0.2300000000E+06    0.7564125929E-03    0.3442898707E-03    0.6959732604E+00    0.2934076529E-01    0.5619944050E+00
    0.2500000000E+06    0.6625010722E-03    0.3028584365E-03    0.6959778085E+00    0.2765836515E-01    0.5686312499E+00
    0.2700000000E+06    0.5850628363E-03    0.2685381733E-03    0.6959816891E+00    0.2615478352E-01    0.5744764810E+00
    0.2900000000E+06    0.5204587157E-03    0.2397843281E-03    0.6959850394E+00    0.2480345892E-01    0.5796646741E+00
    0.3100000000E+06    0.4660017324E-03    0.2154507685E-03    0.6959879618E+00    0.2358272876E-01    0.5843013305E+00
    0.3300000000E+06    0.4196730472E-03    0.1946724782E-03    0.6959905334E+00    0.2247478160E-01    0.5884703773E+00
    0.3500000000E+06    0.3799320603E-03    0.1767865903E-03    0.6959928142E+00    0.2146485675E-01    0.5922394464E+00
    0.3700000000E+06    0.3455866224E-03    0.1612781598E-03    0.6959948510E+00    0.2054062961E-01    0.5956636665E+00
    0.3900000000E+06    0.3157025574E-03    0.1477421932E-03    0.6959966812E+00    0.1969173647E-01    0.5987884387E+00
    0.4100000000E+06    0.2895394553E-03    0.1358565926E-03    0.6959983348E+00    0.1890940428E-01    0.6016515002E+00
    0.4300000000E+06    0.2665043656E-03    0.1253625677E-03    0.6959998363E+00    0.1818616005E-01    0.6042844821E+00
    0.4500000000E+06    0.2461179073E-03    0.1160502481E-03    0.6960012058E+00    0.1751560079E-01    0.6067141005E+00
    0.4700000000E+06    0.2279891304E-03    0.1077479753E-03    0.6960024601E+00    0.1689221023E-01    0.6089630787E+00
    0.4900000000E+06    0.2117966375E-03    0.1003142352E-03    0.6960036132E+00    0.1631121153E-01    0.6110508682E+00
    0.1000000000E+06    0.2460658381E-02    0.1074557509E-02    0.6959000164E+00    0.4787278497E-01    0.4789634654E+00
    0.3000000000E+06    0.4921010849E-03    0.2271245921E-03    0.6959865488E+00    0.2417796259E-01    0.5820462639E+00
    0.5000000000E+06    0.2043414785E-03    0.9688554112E-04    0.6960041555E+00    0.1603528877E-01    0.6120396438E+00
    0.7000000000E+06    0.1113848135E-03    0.5373211854E-04    0.6960117807E+00    0.1197144238E-01    0.6264100521E+00
    0.9000000000E+06    0.7010574632E-04    0.3423583419E-04    0.6960160493E+00    0.9541456080E-02    0.6348444729E+00
    0.1100000000E+07    0.4824582879E-04    0.2377589222E-04    0.6960187814E+00    0.7926650095E-02    0.6403905203E+00
    0.1300000000E+07    0.3528877538E-04    0.1751102807E-04    0.6960206814E+00    0.6776465228E-02    0.6443142746E+00
    0.1500000000E+07    0.2698094467E-04    0.1345931342E-04    0.6960220795E+00    0.5915954915E-02    0.6472362580E+00
    0.1700000000E+07    0.2133594138E-04    0.1068605777E-04    0.6960231514E+00    0.5248127015E-02    0.6494963801E+00
    0.1900000000E+07    0.1732518886E-04    0.8703220544E-05    0.6960239993E+00    0.4714902269E-02    0.6512964417E+00
    0.2100000000E+07    0.1437279344E-04    0.7235572236E-05    0.6960246865E+00    0.4279390046E-02    0.6527638026E+00
    0.2300000000E+07    0.1213593262E-04    0.6118227059E-05    0.6960252546E+00    0.3917039028E-02    0.6539828035E+00
    0.2500000000E+07    0.1040018537E-04    0.5247468839E-05    0.6960257320E+00    0.3610879237E-02    0.6550115113E+00
    0.2700000000E+07    0.9025861870E-05    0.4555382333E-05    0.6960261385E+00    0.3348807135E-02    0.6558912091E+00
    0.2900000000E+07    0.7918792216E-05    0.3995969785E-05    0.6960264887E+00    0.3121958940E-02    0.6566520495E+00
    0.3100000000E+07    0.7013617774E-05    0.3537170081E-05    0.6960267934E+00    0.2923695283E-02    0.6573165683E+00
    0.3300000000E+07    0.6263823701E-05    0.3156076039E-05    0.6960270607E+00    0.2748945041E-02    0.6579019460E+00
    0.3500000000E+07    0.5635574453E-05    0.2835964049E-05    0.6960272971E+00    0.2593768408E-02    0.6584215088E+00
    0.3700000000E+07    0.5103780098E-05    0.2564391229E-05    0.6960275075E+00    0.2455058274E-02    0.6588857516E+00
    0.3900000000E+07    0.4649516324E-05    0.2331942870E-05    0.6960276959E+00    0.2330331409E-02    0.6593030520E+00
    0.4100000000E+07    0.4258290781E-05    0.2131387915E-05    0.6960278655E+00    0.2217579462E-02    0.6596801783E+00
    0.4300000000E+07    0.3918852701E-05    0.1957097226E-05    0.6960280188E+00    0.2115160694E-02    0.6600226580E+00
    0.4500000000E+07    0.3622359584E-05    0.1804635136E-05    0.6960281580E+00    0.2021720031E-02    0.6603350499E+00
    0.4700000000E+07    0.3361783570E-05    0.1670467654E-05    0.6960282849E+00    0.1936129150E-02    0.6606211468E+00
    0.4900000000E+07    0.3131481828E-05    0.1551750726E-05    0.6960284011E+00    0.1857440987E-02    0.6608841305E+00
    0.1000000000E+07    0.5763577789E-04    0.2828354183E-04    0.6960175502E+00    0.8660054113E-02    0.6378772046E+00
    0.3000000000E+07    0.7444230937E-05    0.3755598195E-05    0.6960266461E+00    0.3019601797E-02    0.6569951703E+00
    0.5000000000E+07    0.3026219752E-05    0.1497446886E-05    0.6960284555E+00    0.1820430257E-02    0.6610078115E+00
    0.7000000000E+07    0.1752701972E-05    0.8385578310E-06    0.6960292001E+00    0.1300603304E-02    0.6627443396E+00
    0.9000000000E+07    0.1205944373E-05    0.5553815709E-06    0.6960295879E+00    0.1010691104E-02    0.6637126667E+00
    0.1100000000E+08    0.9168258774E-06    0.4063896513E-06    0.6960298140E+00    0.8259387828E-03    0.6643299259E+00
    0.1300000000E+08    0.7428102737E-06    0.3174998022E-06    0.6960299537E+00    0.6979835084E-03    0.6647576131E+00
    0.1500000000E+08    0.6283794212E-06    0.2597034569E-06    0.6960300422E+00    0.6041599670E-03    0.6650713722E+00
    0.1700000000E+08    0.5481305877E-06    0.2196931500E-06    0.6960300982E+00    0.5324390713E-03    0.6653113411E+00
    0.1900000000E+08    0.4890386413E-06    0.1906412380E-06    0.6960301324E+00    0.4758461333E-03    0.6655007923E+00
    0.2100000000E+08    0.4438312323E-06    0.1687389098E-06    0.6960301514E+00    0.4300595421E-03    0.6656541469E+00
    0.2300000000E+08    0.4081697413E-06    0.1517184890E-06    0.6960301595E+00    0.3922593438E-03    0.6657808164E+00
    0.2500000000E+08    0.3793245711E-06    0.1381575462E-06    0.6960301596E+00    0.3605274243E-03    0.6658872035E+00
    0.2700000000E+08    0.3555019530E-06    0.1271248363E-06    0.6960301536E+00    0.3335138500E-03    0.6659778152E+00
