  Pressure (Pa) 22mC5-500 (mol/kg) 23mC5-500 (mol/kg) 24mC5-500 (mol/kg) 2mC6-500 (mol/kg) 3mC6-500 (mol/kg)
    0.1000000000E+01    0.1114368910E-04    0.2155832659E-05    0.3666065198E-01    0.3634833833E-04    0.4168384564E-04
    0.3000000000E+01    0.3081109367E-04    0.5962292464E-05    0.9949102356E-01    0.1014521854E-03    0.1250222349E-03
    0.5000000000E+01    0.4780310883E-04    0.9253399528E-05    0.1513794065E+00    0.1589677966E-03    0.2083216222E-03
    0.7000000000E+01    0.6281584900E-04    0.1216375283E-04    0.1949558368E+00    0.2110244438E-03    0.2915820748E-03
    0.9000000000E+01    0.7633040949E-04    0.1478629864E-04    0.2320699308E+00    0.2590688579E-03    0.3748036500E-03
    0.1100000000E+02    0.8868883708E-04    0.1718706195E-04    0.2640603712E+00    0.3041110209E-03    0.4579863980E-03
    0.1300000000E+02    0.1001402264E-03    0.1941408170E-04    0.2919199397E+00    0.3468723332E-03    0.5411303646E-03
    0.1500000000E+02    0.1108697552E-03    0.2150303663E-04    0.3164004629E+00    0.3878782478E-03    0.6242355920E-03
    0.1700000000E+02    0.1210175677E-03    0.2348090247E-04    0.3380817358E+00    0.4275180132E-03    0.7073021202E-03
    0.1900000000E+02    0.1306913989E-03    0.2536839590E-04    0.3574180666E+00    0.4660842528E-03    0.7903299873E-03
    0.2100000000E+02    0.1399752215E-03    0.2718164767E-04    0.3747704854E+00    0.5037998074E-03    0.8733192301E-03
    0.2300000000E+02    0.1489352961E-03    0.2893337265E-04    0.3904295168E+00    0.5408363183E-03    0.9562698842E-03
    0.2500000000E+02    0.1576244848E-03    0.3063370367E-04    0.4046315906E+00    0.5773273300E-03    0.1039181985E-02
    0.2700000000E+02    0.1660853795E-03    0.3229079583E-04    0.4175710737E+00    0.6133776814E-03    0.1122055566E-02
    0.2900000000E+02    0.1743526053E-03    0.3391127134E-04    0.4294092265E+00    0.6490703354E-03    0.1204890661E-02
    0.3100000000E+02    0.1824545405E-03    0.3550055129E-04    0.4402809640E+00    0.6844714125E-03    0.1287687304E-02
    0.3300000000E+02    0.1904146158E-03    0.3706310637E-04    0.4503000259E+00    0.7196339455E-03    0.1370445528E-02
    0.3500000000E+02    0.1982523087E-03    0.3860264843E-04    0.4595629741E+00    0.7546007109E-03    0.1453165364E-02
    0.3700000000E+02    0.2059839115E-03    0.4012227841E-04    0.4681523179E+00    0.7894063858E-03    0.1535846847E-02
    0.3900000000E+02    0.2136231302E-03    0.4162460167E-04    0.4761389811E+00    0.8240792057E-03    0.1618490007E-02
    0.4100000000E+02    0.2211815560E-03    0.4311181875E-04    0.4835842666E+00    0.8586422506E-03    0.1701094877E-02
    0.4300000000E+02    0.2286690400E-03    0.4458579725E-04    0.4905414344E+00    0.8931144488E-03    0.1783661489E-02
    0.4500000000E+02    0.2360939922E-03    0.4604812942E-04    0.4970569787E+00    0.9275113682E-03    0.1866189874E-02
    0.4700000000E+02    0.2434636226E-03    0.4750017835E-04    0.5031716696E+00    0.9618458423E-03    0.1948680064E-02
    0.4900000000E+02    0.2507841366E-03    0.4894311557E-04    0.5089214076E+00    0.9961284700E-03    0.2031132090E-02
    0.1000000000E+02    0.8263679535E-04    0.1601105711E-04    0.2486369016E+00    0.2819146570E-03    0.4163998745E-03
    0.3000000000E+02    0.1784226668E-03    0.3470951156E-04    0.4349583439E+00    0.6668037368E-03    0.1246293787E-02
    0.5000000000E+02    0.2544276794E-03    0.4966148863E-04    0.5116694830E+00    0.1013253143E-02    0.2072343801E-02
    0.7000000000E+02    0.3256957892E-03    0.6373399200E-04    0.5535193744E+00    0.1354481947E-02    0.2894582073E-02
    0.9000000000E+02    0.3952594175E-03    0.7749588279E-04    0.5798751658E+00    0.1694779300E-02    0.3713039534E-02
    0.1100000000E+03    0.4639799036E-03    0.9110538188E-04    0.5979986853E+00    0.2034572998E-02    0.4527746560E-02
    0.1300000000E+03    0.5321422221E-03    0.1046131763E-03    0.6112265820E+00    0.2373646812E-02    0.5338733123E-02
    0.1500000000E+03    0.5998443555E-03    0.1180356757E-03    0.6213067950E+00    0.2711719265E-02    0.6146028833E-02
    0.1700000000E+03    0.6671165181E-03    0.1313771739E-03    0.6292435779E+00    0.3048553084E-02    0.6949662961E-02
    0.1900000000E+03    0.7339632003E-03    0.1446375485E-03    0.6356550096E+00    0.3383966328E-02    0.7749664453E-02
    0.2100000000E+03    0.8003793908E-03    0.1578151721E-03    0.6409423481E+00    0.3717823555E-02    0.8546061935E-02
    0.2300000000E+03    0.8663571645E-03    0.1709080611E-03    0.6453774455E+00    0.4050024972E-02    0.9338883722E-02
    0.2500000000E+03    0.9318883926E-03    0.1839143268E-03    0.6491510254E+00    0.4380497436E-02    0.1012815782E-01
    0.2700000000E+03    0.9969658100E-03    0.1968323376E-03    0.6524008474E+00    0.4709187649E-02    0.1091391194E-01
    0.2900000000E+03    0.1061583371E-02    0.2096607586E-03    0.6552288997E+00    0.5036057165E-02    0.1169617349E-01
    0.3100000000E+03    0.1125736292E-02    0.2223985429E-03    0.6577123025E+00    0.5361078745E-02    0.1247496959E-01
    0.3300000000E+03    0.1189420973E-02    0.2350449026E-03    0.6599104527E+00    0.5684233689E-02    0.1325032706E-01
    0.3500000000E+03    0.1252634861E-02    0.2475992758E-03    0.6618698388E+00    0.6005509865E-02    0.1402227245E-01
    0.3700000000E+03    0.1315376322E-02    0.2600612939E-03    0.6636273670E+00    0.6324900240E-02    0.1479083202E-01
    0.3900000000E+03    0.1377644504E-02    0.2724307526E-03    0.6652127093E+00    0.6642401774E-02    0.1555603176E-01
    0.4100000000E+03    0.1439439223E-02    0.2847075864E-03    0.6666499933E+00    0.6958014577E-02    0.1631789738E-01
    0.4300000000E+03    0.1500760862E-02    0.2968918467E-03    0.6679590394E+00    0.7271741260E-02    0.1707645432E-01
    0.4500000000E+03    0.1561610287E-02    0.3089836834E-03    0.6691562810E+00    0.7583586434E-02    0.1783172776E-01
    0.4700000000E+03    0.1621988767E-02    0.3209833295E-03    0.6702554585E+00    0.7893556316E-02    0.1858374262E-01
    0.4900000000E+03    0.1681897918E-02    0.3328910880E-03    0.6712681491E+00    0.8201658417E-02    0.1933252354E-01
    0.1000000000E+03    0.4297004750E-03    0.8431526440E-04    0.5897044062E+00    0.1864748351E-02    0.4120859969E-02
    0.3000000000E+03    0.1093718163E-02    0.2160410353E-03    0.6565096199E+00    0.5198800290E-02    0.1208600304E-01
    0.5000000000E+03    0.1711677081E-02    0.3388106205E-03    0.6717451909E+00    0.8355011689E-02    0.1970570892E-01
    0.7000000000E+03    0.2283202458E-02    0.4524890582E-03    0.6784972289E+00    0.1132649113E-01    0.2700546534E-01
    0.9000000000E+03    0.2810962781E-02    0.5575916873E-03    0.6823089415E+00    0.1412405716E-01    0.3400824381E-01
    0.1100000000E+04    0.3298212698E-02    0.6547521040E-03    0.6847577937E+00    0.1676005120E-01    0.4073480508E-01
    0.1300000000E+04    0.3748156866E-02    0.7445946951E-03    0.6864639784E+00    0.1924629250E-01    0.4720396023E-01
    0.1500000000E+04    0.4163791471E-02    0.8277033425E-03    0.6877209232E+00    0.2159370555E-01    0.5343279559E-01
    0.1700000000E+04    0.4547869215E-02    0.9046145613E-03    0.6886854555E+00    0.2381228654E-01    0.5943686716E-01
    0.1900000000E+04    0.4902902379E-02    0.9758181006E-03    0.6894490086E+00    0.2591115633E-01    0.6523036929E-01
    0.2100000000E+04    0.5231178330E-02    0.1041759970E-02    0.6900684904E+00    0.2789863520E-01    0.7082628152E-01
    0.2300000000E+04    0.5534778585E-02    0.1102846154E-02    0.6905811747E+00    0.2978231921E-01    0.7623649681E-01
    0.2500000000E+04    0.5815598099E-02    0.1159446363E-02    0.6910124965E+00    0.3156915213E-01    0.8147193386E-01
    0.2700000000E+04    0.6075363476E-02    0.1211897575E-02    0.6913804074E+00    0.3326549083E-01    0.8654263573E-01
    0.2900000000E+04    0.6315649667E-02    0.1260507280E-02    0.6916979386E+00    0.3487716392E-01    0.9145785671E-01
    0.3100000000E+04    0.6537895053E-02    0.1305556411E-02    0.6919747794E+00    0.3640952408E-01    0.9622613905E-01
    0.3300000000E+04    0.6743414972E-02    0.1347301970E-02    0.6922182837E+00    0.3786749463E-01    0.1008553809E+00
    0.3500000000E+04    0.6933413810E-02    0.1385979378E-02    0.6924341336E+00    0.3925561093E-01    0.1053528965E+00
    0.3700000000E+04    0.7108995790E-02    0.1421804568E-02    0.6926267892E+00    0.4057805719E-01    0.1097254699E+00
    0.3900000000E+04    0.7271174595E-02    0.1454975855E-02    0.6927998002E+00    0.4183869930E-01    0.1139794028E+00
    0.4100000000E+04    0.7420881955E-02    0.1485675603E-02    0.6929560270E+00    0.4304111412E-01    0.1181205569E+00
    0.4300000000E+04    0.7558975318E-02    0.1514071715E-02    0.6930978004E+00    0.4418861559E-01    0.1221543925E+00
    0.4500000000E+04    0.7686244707E-02    0.1540318965E-02    0.6932270385E+00    0.4528427815E-01    0.1260860029E+00
    0.4700000000E+04    0.7803418863E-02    0.1564560190E-02    0.6933453343E+00    0.4633095774E-01    0.1299201447E+00
    0.4900000000E+04    0.7911170746E-02    0.1586927361E-02    0.6934540219E+00    0.4733131056E-01    0.1336612660E+00
    0.1000000000E+04    0.3059447252E-02    0.6071248732E-03    0.6836535441E+00    0.1546149258E-01    0.3740483300E-01
    0.3000000000E+04    0.6428942517E-02    0.1283460322E-02    0.6918409400E+00    0.3565294085E-01    0.9385985722E-01
    0.5000000000E+04    0.7961709610E-02    0.1597446683E-02    0.6935051214E+00    0.4781489410E-01    0.1354982558E+00
    0.7000000000E+04    0.8606088796E-02    0.1734640962E-02    0.6942216724E+00    0.5557266235E-01    0.1682372656E+00
    0.9000000000E+04    0.8790266110E-02    0.1779254729E-02    0.6946207917E+00    0.6068723529E-01    0.1951140861E+00
    0.1100000000E+05    0.8726722224E-02    0.1773337949E-02    0.6948752336E+00    0.6411035991E-01    0.2178638803E+00
    0.1300000000E+05    0.8528303075E-02    0.1739387246E-02    0.6950516300E+00    0.6639860476E-01    0.2375596197E+00
    0.1500000000E+05    0.8257911259E-02    0.1690051204E-02    0.6951811350E+00    0.6789761456E-01    0.2549065042E+00
    0.1700000000E+05    0.7951810220E-02    0.1632696887E-02    0.6952802650E+00    0.6883241665E-01    0.2703909823E+00
    0.1900000000E+05    0.7631356551E-02    0.1571717534E-02    0.6953585930E+00    0.6935516380E-01    0.2843620301E+00
    0.2100000000E+05    0.7309248443E-02    0.1509766861E-02    0.6954220506E+00    0.6957196164E-01    0.2970782405E+00
    0.2300000000E+05    0.6993008079E-02    0.1448450272E-02    0.6954745094E+00    0.6955871883E-01    0.3087364986E+00
    0.2500000000E+05    0.6686995653E-02    0.1388726746E-02    0.6955186036E+00    0.6937091304E-01    0.3194901904E+00
    0.2700000000E+05    0.6393610095E-02    0.1331149864E-02    0.6955561884E+00    0.6904982635E-01    0.3294611867E+00
    0.2900000000E+05    0.6114022949E-02    0.1276016105E-02    0.6955886077E+00    0.6862665004E-01    0.3387479764E+00
    0.3100000000E+05    0.5848636093E-02    0.1223458024E-02    0.6956168594E+00    0.6812525927E-01    0.3474313377E+00
    0.3300000000E+05    0.5597371826E-02    0.1173503815E-02    0.6956416994E+00    0.6756413264E-01    0.3555783863E+00
    0.3500000000E+05    0.5359858973E-02    0.1126115892E-02    0.6956637115E+00    0.6695770749E-01    0.3632455271E+00
    0.3700000000E+05    0.5135553277E-02    0.1081216138E-02    0.6956833533E+00    0.6631735420E-01    0.3704806460E+00
    0.3900000000E+05    0.4923815611E-02    0.1038702532E-02    0.6957009885E+00    0.6565208802E-01    0.3773247657E+00
    0.4100000000E+05    0.4723962769E-02    0.9984601246E-03    0.6957169103E+00    0.6496909663E-01    0.3838133150E+00
    0.4300000000E+05    0.4535300241E-02    0.9603682787E-03    0.6957313571E+00    0.6427413619E-01    0.3899771156E+00
    0.4500000000E+05    0.4357143061E-02    0.9243054016E-03    0.6957445252E+00    0.6357183221E-01    0.3958431584E+00
    0.4700000000E+05    0.4188828724E-02    0.8901519961E-03    0.6957565774E+00    0.6286591053E-01    0.4014352217E+00
    0.4900000000E+05    0.4029724807E-02    0.8577925720E-03    0.6957676500E+00    0.6215937636E-01    0.4067743680E+00
    0.1000000000E+05    0.8780838607E-02    0.1780898078E-02    0.6947606865E+00    0.6256899222E-01    0.2069267299E+00
    0.3000000000E+05    0.5979550677E-02    0.1249411429E-02    0.6956032025E+00    0.6838446817E-01    0.3431606096E+00
    0.5000000000E+05    0.3953438409E-02    0.8422509001E-03    0.6957728556E+00    0.6180665674E-01    0.4093550374E+00
    0.7000000000E+05    0.2785539051E-02    0.6020725679E-03    0.6958458539E+00    0.5510319702E-01    0.4513262170E+00
    0.9000000000E+05    0.2065673820E-02    0.4516503507E-03    0.6958865348E+00    0.4937509543E-01    0.4809359575E+00
    0.1100000000E+06    0.1592547575E-02    0.3515537592E-03    0.6959124909E+00    0.4460023171E-01    0.5031433113E+00
    0.1300000000E+06    0.1265287020E-02    0.2816090956E-03    0.6959305023E+00    0.4061016807E-01    0.5204942394E+00
    0.1500000000E+06    0.1029575134E-02    0.2307934145E-03    0.6959437382E+00    0.3724542533E-01    0.5344602624E+00
    0.1700000000E+06    0.8541816477E-03    0.1926957966E-03    0.6959538791E+00    0.3437823168E-01    0.5459615358E+00
    0.1900000000E+06    0.7201387371E-03    0.1633853644E-03    0.6959618991E+00    0.3191006012E-01    0.5556070848E+00
    0.2100000000E+06    0.6153903180E-03    0.1403432069E-03    0.6959684022E+00    0.2976532013E-01    0.5638178655E+00
    0.2300000000E+06    0.5319763528E-03    0.1218943123E-03    0.6959737825E+00    0.2788566939E-01    0.5708950196E+00
    0.2500000000E+06    0.4644692764E-03    0.1068892962E-03    0.6959783085E+00    0.2622562989E-01    0.5770601086E+00
    0.2700000000E+06    0.4090648792E-03    0.9451792208E-04    0.6959821693E+00    0.2474935656E-01    0.5824800077E+00
    0.2900000000E+06    0.3630324198E-03    0.8419554293E-04    0.6959855018E+00    0.2342828131E-01    0.5872829296E+00
    0.3100000000E+06    0.3243704534E-03    0.7549159424E-04    0.6959884079E+00    0.2223939151E-01    0.5915690853E+00
    0.3300000000E+06    0.2915848884E-03    0.6808322912E-04    0.6959909647E+00    0.2116396273E-01    0.5954179795E+00
    0.3500000000E+06    0.2635420570E-03    0.6172446992E-04    0.6959932319E+00    0.2018661652E-01    0.5988935247E+00
    0.3700000000E+06    0.2393691540E-03    0.5622520840E-04    0.6959952561E+00    0.1929461250E-01    0.6020477034E+00
    0.3900000000E+06    0.2183853566E-03    0.5143661513E-04    0.6959970745E+00    0.1847731068E-01    0.6049232396E+00
    0.4100000000E+06    0.2000532745E-03    0.4724081410E-04    0.6959987172E+00    0.1772575890E-01    0.6075555799E+00
    0.4300000000E+06    0.1839441471E-03    0.4354345352E-04    0.6960002084E+00    0.1703237298E-01    0.6099743855E+00
    0.4500000000E+06    0.1697125128E-03    0.4026827930E-04    0.6960015683E+00    0.1639068644E-01    0.6122046697E+00
    0.4700000000E+06    0.1570775122E-03    0.3735311668E-04    0.6960028136E+00    0.1579515295E-01    0.6142676767E+00
    0.4900000000E+06    0.1458089124E-03    0.3474685678E-04    0.6960039582E+00    0.1524098898E-01    0.6161815673E+00
    0.1000000000E+06    0.1806080705E-02    0.3968664739E-03    0.6959008029E+00    0.4687858755E-01    0.4927711936E+00
    0.3000000000E+06    0.3428833912E-03    0.7966354696E-04    0.6959870029E+00    0.2281857164E-01    0.5894852173E+00
    0.5000000000E+06    0.1406262524E-03    0.3354604549E-04    0.6960044964E+00    0.1497810269E-01    0.6170875617E+00
    0.7000000000E+06    0.7632183027E-04    0.1850804525E-04    0.6960120577E+00    0.1112753440E-01    0.6302240333E+00
    0.9000000000E+06    0.4797989499E-04    0.1176608295E-04    0.6960162831E+00    0.8843509135E-02    0.6379071515E+00
    0.1100000000E+07    0.3303382702E-04    0.8164955893E-05    0.6960189831E+00    0.7333055189E-02    0.6429481669E+00
    0.1300000000E+07    0.2419703603E-04    0.6014115504E-05    0.6960208578E+00    0.6260702909E-02    0.6465093061E+00
    0.1500000000E+07    0.1853965593E-04    0.4625644996E-05    0.6960222352E+00    0.5460303135E-02    0.6491583799E+00
    0.1700000000E+07    0.1469896606E-04    0.3676454987E-05    0.6960232895E+00    0.4840224036E-02    0.6512057203E+00
    0.1900000000E+07    0.1197136340E-04    0.2998351228E-05    0.6960241223E+00    0.4345807992E-02    0.6528352555E+00
    0.2100000000E+07    0.9963745242E-05    0.2496694552E-05    0.6960247962E+00    0.3942440777E-02    0.6541629123E+00
    0.2300000000E+07    0.8442481174E-05    0.2114886973E-05    0.6960253524E+00    0.3607140335E-02    0.6552653784E+00
    0.2500000000E+07    0.7261627256E-05    0.1817376364E-05    0.6960258190E+00    0.3324051828E-02    0.6561954059E+00
    0.2700000000E+07    0.6326196521E-05    0.1580908220E-05    0.6960262158E+00    0.3081885062E-02    0.6569904720E+00
    0.2900000000E+07    0.5572202722E-05    0.1389746730E-05    0.6960265570E+00    0.2872382993E-02    0.6576779326E+00
    0.3100000000E+07    0.4955261734E-05    0.1232931753E-05    0.6960268535E+00    0.2689367825E-02    0.6582782224E+00
    0.3300000000E+07    0.4443799720E-05    0.1102637060E-05    0.6960271132E+00    0.2528125671E-02    0.6588069129E+00
    0.3500000000E+07    0.4014856768E-05    0.9931517848E-06    0.6960273424E+00    0.2384997442E-02    0.6592760774E+00
    0.3700000000E+07    0.3651411296E-05    0.9002285239E-06    0.6960275461E+00    0.2257099620E-02    0.6596952206E+00
    0.3900000000E+07    0.3340626421E-05    0.8206545544E-06    0.6960277281E+00    0.2142129239E-02    0.6600719274E+00
    0.4100000000E+07    0.3072672269E-05    0.7519629244E-06    0.6960278917E+00    0.2038224869E-02    0.6604123238E+00
    0.4300000000E+07    0.2839917728E-05    0.6922335632E-06    0.6960280393E+00    0.1943865705E-02    0.6607214115E+00
    0.4500000000E+07    0.2636364878E-05    0.6399537029E-06    0.6960281731E+00    0.1857797109E-02    0.6610033146E+00
    0.4700000000E+07    0.2457246239E-05    0.5939182101E-06    0.6960282949E+00    0.1778974856E-02    0.6612614637E+00
    0.4900000000E+07    0.2298733369E-05    0.5531572894E-06    0.6960284061E+00    0.1706522833E-02    0.6614987359E+00
    0.1000000000E+07    0.3944825535E-04    0.9715356498E-05    0.6960177670E+00    0.8018347243E-02    0.6406648048E+00
    0.3000000000E+07    0.5248815682E-05    0.1307594325E-05    0.6960267103E+00    0.2777887902E-02    0.6579879052E+00
    0.5000000000E+07    0.2226210641E-05    0.5345026949E-06    0.6960284581E+00    0.1672449682E-02    0.6616103178E+00
    0.7000000000E+07    0.1343199819E-05    0.3073933804E-06    0.6960291632E+00    0.1194181148E-02    0.6631764879E+00
    0.9000000000E+07    0.9580386777E-06    0.2089287926E-06    0.6960295212E+00    0.9276887686E-03    0.6640494299E+00
    0.1100000000E+08    0.7509085117E-06    0.1566166006E-06    0.6960297231E+00    0.7579516070E-03    0.6646057421E+00
    0.1300000000E+08    0.6240914688E-06    0.1250858963E-06    0.6960298422E+00    0.6404367337E-03    0.6649911363E+00
    0.1500000000E+08    0.5392801273E-06    0.1043686172E-06    0.6960299127E+00    0.5542900944E-03    0.6652738366E+00
    0.1700000000E+08    0.4788236746E-06    0.8987466233E-07    0.6960299525E+00    0.4884498445E-03    0.6654900344E+00
    0.1900000000E+08    0.4336048659E-06    0.7923938232E-07    0.6960299720E+00    0.4365046498E-03    0.6656607093E+00
    0.2100000000E+08    0.3984943523E-06    0.7113798253E-07    0.6960299775E+00    0.3944831595E-03    0.6657988599E+00
    0.2300000000E+08    0.3704081324E-06    0.6477818962E-07    0.6960299731E+00    0.3597945914E-03    0.6659129682E+00
    0.2500000000E+08    0.3473906253E-06    0.5966075788E-07    0.6960299614E+00    0.3306770539E-03    0.6660088039E+00
    0.2700000000E+08    0.3281465276E-06    0.5545730584E-07    0.6960299444E+00    0.3058907589E-03    0.6660904283E+00
