  Pressure (Pa) 22mC5-500 (mol/kg) 23mC5-500 (mol/kg) 24mC5-500 (mol/kg) 2mC6-500 (mol/kg) 3mC6-500 (mol/kg)
    0.1000000000E+01    0.1068504583E-04    0.1033689660E-04    0.6965285953E-01    0.2334333194E-04    0.5210787706E-05
    0.3000000000E+01    0.2777498312E-04    0.2688718056E-04    0.1740983974E+00    0.6189048304E-04    0.1563054813E-04
    0.5000000000E+01    0.4135375756E-04    0.4006209039E-04    0.2486789863E+00    0.9405595837E-04    0.2604790362E-04
    0.7000000000E+01    0.5285937151E-04    0.5124979786E-04    0.3046027241E+00    0.1226829525E-03    0.3646286506E-04
    0.9000000000E+01    0.6306115966E-04    0.6119159934E-04    0.3480927087E+00    0.1492331782E-03    0.4687543913E-04
    0.1100000000E+02    0.7240320520E-04    0.7031454553E-04    0.3828812008E+00    0.1745142190E-03    0.5728563036E-04
    0.1300000000E+02    0.8115712997E-04    0.7887929344E-04    0.4113425036E+00    0.1989971270E-03    0.6769344207E-04
    0.1500000000E+02    0.8949682613E-04    0.8705234829E-04    0.4350590854E+00    0.2229684408E-03    0.7809887687E-04
    0.1700000000E+02    0.9753779851E-04    0.9494405320E-04    0.4551262817E+00    0.2466083117E-03    0.8850193689E-04
    0.1900000000E+02    0.1053591334E-03    0.1026297777E-03    0.4723263492E+00    0.2700330013E-03    0.9890262400E-04
    0.2100000000E+02    0.1130163734E-03    0.1101623202E-03    0.4872328680E+00    0.2933190971E-03    0.1093009399E-03
    0.2300000000E+02    0.1205493734E-03    0.1175794660E-03    0.5002759771E+00    0.3165178541E-03    0.1196968859E-03
    0.2500000000E+02    0.1279872623E-03    0.1249087540E-03    0.5117845774E+00    0.3396639707E-03    0.1300904637E-03
    0.2700000000E+02    0.1353516686E-03    0.1321705723E-03    0.5220144620E+00    0.3627811096E-03    0.1404816744E-03
    0.2900000000E+02    0.1426588742E-03    0.1393802211E-03    0.5311675605E+00    0.3858854563E-03    0.1508705193E-03
    0.3100000000E+02    0.1499212826E-03    0.1465493178E-03    0.5394054087E+00    0.4089880599E-03    0.1612569997E-03
    0.3300000000E+02    0.1571484422E-03    0.1536867739E-03    0.5468587679E+00    0.4320964012E-03    0.1716411167E-03
    0.3500000000E+02    0.1643477700E-03    0.1607994856E-03    0.5536346209E+00    0.4552154608E-03    0.1820228716E-03
    0.3700000000E+02    0.1715250732E-03    0.1678928309E-03    0.5598213423E+00    0.4783484545E-03    0.1924022654E-03
    0.3900000000E+02    0.1786849299E-03    0.1749710307E-03    0.5654925758E+00    0.5014973484E-03    0.2027792993E-03
    0.4100000000E+02    0.1858309705E-03    0.1820374162E-03    0.5707101808E+00    0.5246632212E-03    0.2131539744E-03
    0.4300000000E+02    0.1929660881E-03    0.1890946285E-03    0.5755264992E+00    0.5478465227E-03    0.2235262917E-03
    0.4500000000E+02    0.2000925979E-03    0.1961447689E-03    0.5799861177E+00    0.5710472586E-03    0.2338962524E-03
    0.4700000000E+02    0.2072123586E-03    0.2031895137E-03    0.5841272532E+00    0.5942651243E-03    0.2442638576E-03
    0.4900000000E+02    0.2143268662E-03    0.2102302025E-03    0.5879828510E+00    0.6174996014E-03    0.2546291083E-03
    0.1000000000E+02    0.6781974560E-04    0.6583631545E-04    0.3664028016E+00    0.1619973000E-03    0.5208083237E-04
    0.3000000000E+02    0.1462950240E-03    0.1429692273E-03    0.5353920895E+00    0.3974364393E-03    0.1560640550E-03
    0.5000000000E+02    0.2178825365E-03    0.2137493696E-03    0.5898126471E+00    0.6291228666E-03    0.2598108510E-03
    0.7000000000E+02    0.2889119713E-03    0.2840871242E-03    0.6166824968E+00    0.8622704762E-03    0.3633223530E-03
    0.9000000000E+02    0.3599486146E-03    0.3544711723E-03    0.6326982316E+00    0.1096208056E-02    0.4665996039E-03
    0.1100000000E+03    0.4310146267E-03    0.4249012785E-03    0.6433319655E+00    0.1330393318E-02    0.5696436242E-03
    0.1300000000E+03    0.5020615591E-03    0.4953209200E-03    0.6509065534E+00    0.1564503191E-02    0.6724554226E-03
    0.1500000000E+03    0.5730404527E-03    0.5656779063E-03    0.6565762079E+00    0.1798343767E-02    0.7750359995E-03
    0.1700000000E+03    0.6439121126E-03    0.6359317060E-03    0.6609793423E+00    0.2031794113E-02    0.8773863483E-03
    0.1900000000E+03    0.7146466834E-03    0.7060519372E-03    0.6644977495E+00    0.2264775878E-02    0.9795074557E-03
    0.2100000000E+03    0.7852216144E-03    0.7760158875E-03    0.6673737717E+00    0.2497236638E-02    0.1081400302E-02
    0.2300000000E+03    0.8556198047E-03    0.8458064607E-03    0.6697686430E+00    0.2729140402E-02    0.1183065862E-02
    0.2500000000E+03    0.9258281867E-03    0.9154106681E-03    0.6717938024E+00    0.2960461968E-02    0.1284505103E-02
    0.2700000000E+03    0.9958366954E-03    0.9848185525E-03    0.6735287397E+00    0.3191183450E-02    0.1385718989E-02
    0.2900000000E+03    0.1065637525E-02    0.1054022423E-02    0.6750316799E+00    0.3421292055E-02    0.1486708476E-02
    0.3100000000E+03    0.1135224589E-02    0.1123016304E-02    0.6763462481E+00    0.3650778617E-02    0.1587474516E-02
    0.3300000000E+03    0.1204593129E-02    0.1191795538E-02    0.6775057763E+00    0.3879636615E-02    0.1688018053E-02
    0.3500000000E+03    0.1273739419E-02    0.1260356493E-02    0.6785361700E+00    0.4107861488E-02    0.1788340028E-02
    0.3700000000E+03    0.1342660551E-02    0.1328696342E-02    0.6794578672E+00    0.4335450149E-02    0.1888441375E-02
    0.3900000000E+03    0.1411354266E-02    0.1396812895E-02    0.6802872090E+00    0.4562400640E-02    0.1988323023E-02
    0.4100000000E+03    0.1479818829E-02    0.1464704481E-02    0.6810374170E+00    0.4788711874E-02    0.2087985895E-02
    0.4300000000E+03    0.1548052932E-02    0.1532369841E-02    0.6817193037E+00    0.5014383450E-02    0.2187430910E-02
    0.4500000000E+03    0.1616055613E-02    0.1599808059E-02    0.6823417976E+00    0.5239415504E-02    0.2286658979E-02
    0.4700000000E+03    0.1683826196E-02    0.1667018495E-02    0.6829123361E+00    0.5463808604E-02    0.2385671011E-02
    0.4900000000E+03    0.1751364244E-02    0.1734000746E-02    0.6834371646E+00    0.5687563662E-02    0.2484467907E-02
    0.1000000000E+03    0.3954806761E-03    0.3896838711E-03    0.6385027167E+00    0.1213293852E-02    0.5181507046E-03
    0.3000000000E+03    0.1100458102E-02    0.1088545930E-02    0.6757102250E+00    0.3536113551E-02    0.1537119368E-02
    0.5000000000E+03    0.1785045987E-02    0.1767406227E-02    0.6836841209E+00    0.5799202289E-02    0.2533785960E-02
    0.7000000000E+03    0.2446492746E-02    0.2423559761E-02    0.6871610049E+00    0.7998872661E-02    0.3509069045E-02
    0.9000000000E+03    0.3085093254E-02    0.3057308298E-02    0.6891086378E+00    0.1013696655E-01    0.4463835294E-02
    0.1100000000E+04    0.3701628852E-02    0.3669421911E-02    0.6903541852E+00    0.1221586277E-01    0.5398903241E-02
    0.1300000000E+04    0.4296985220E-02    0.4260769056E-02    0.6912193663E+00    0.1423796614E-01    0.6315046636E-02
    0.1500000000E+04    0.4872055233E-02    0.4832223513E-02    0.6918553710E+00    0.1620560235E-01    0.7212997512E-02
    0.1700000000E+04    0.5427707513E-02    0.5384634511E-02    0.6923426303E+00    0.1812099178E-01    0.8093449006E-02
    0.1900000000E+04    0.5964775344E-02    0.5918816328E-02    0.6927278768E+00    0.1998624462E-01    0.8957057937E-02
    0.2100000000E+04    0.6484053136E-02    0.6435545041E-02    0.6930401207E+00    0.2180336312E-01    0.9804447200E-02
    0.2300000000E+04    0.6986295998E-02    0.6935558238E-02    0.6932983233E+00    0.2357424625E-01    0.1063620795E-01
    0.2500000000E+04    0.7472220695E-02    0.7419556018E-02    0.6935154020E+00    0.2530069517E-01    0.1145290164E-01
    0.2700000000E+04    0.7942507211E-02    0.7888202549E-02    0.6937004606E+00    0.2698441888E-01    0.1225506189E-01
    0.2900000000E+04    0.8397800553E-02    0.8342127864E-02    0.6938601001E+00    0.2862703964E-01    0.1304319620E-01
    0.3100000000E+04    0.8838712645E-02    0.8781929713E-02    0.6939992235E+00    0.3023009825E-01    0.1381778759E-01
    0.3300000000E+04    0.9265824189E-02    0.9208175391E-02    0.6941215486E+00    0.3179505897E-01    0.1457929605E-01
    0.3500000000E+04    0.9679686473E-02    0.9621403511E-02    0.6942299462E+00    0.3332331411E-01    0.1532815992E-01
    0.3700000000E+04    0.1008082310E-01    0.1002212568E-01    0.6943266680E+00    0.3481618837E-01    0.1606479721E-01
    0.3900000000E+04    0.1046973159E-01    0.1041082809E-01    0.6944135050E+00    0.3627494288E-01    0.1678960673E-01
    0.4100000000E+04    0.1084688497E-01    0.1078797303E-01    0.6944918996E+00    0.3770077891E-01    0.1750296923E-01
    0.4300000000E+04    0.1121273315E-01    0.1115400026E-01    0.6945630268E+00    0.3909484141E-01    0.1820524844E-01
    0.4500000000E+04    0.1156770429E-01    0.1150932834E-01    0.6946278527E+00    0.4045822223E-01    0.1889679199E-01
    0.4700000000E+04    0.1191220609E-01    0.1185435586E-01    0.6946871799E+00    0.4179196321E-01    0.1957793234E-01
    0.4900000000E+04    0.1224662693E-01    0.1218946258E-01    0.6947416799E+00    0.4309705896E-01    0.2024898761E-01
    0.1000000000E+04    0.3396064599E-02    0.3366015906E-02    0.6897930878E+00    0.1118366280E-01    0.4933782183E-02
    0.3000000000E+04    0.8620017252E-02    0.8563758073E-02    0.6939319708E+00    0.2943342096E-01    0.1343215549E-01
    0.5000000000E+04    0.1241017336E-01    0.1235340943E-01    0.6947673002E+00    0.4373916344E-01    0.2058082901E-01
    0.7000000000E+04    0.1523317197E-01    0.1519105565E-01    0.6951263797E+00    0.5528712982E-01    0.2675576365E-01
    0.9000000000E+04    0.1737817239E-01    0.1735967220E-01    0.6953262414E+00    0.6482775878E-01    0.3220016036E-01
    0.1100000000E+05    0.1903266880E-01    0.1904301552E-01    0.6954536042E+00    0.7285913116E-01    0.3707899497E-01
    0.1300000000E+05    0.2032303369E-01    0.2036513333E-01    0.6955418796E+00    0.7972511576E-01    0.4150856935E-01
    0.1500000000E+05    0.2133722868E-01    0.2141251051E-01    0.6956066788E+00    0.8567098905E-01    0.4557352247E-01
    0.1700000000E+05    0.2213815908E-01    0.2224710138E-01    0.6956562746E+00    0.9087657319E-01    0.4933712063E-01
    0.1900000000E+05    0.2277186022E-01    0.2291432492E-01    0.6956954605E+00    0.9547682783E-01    0.5284774555E-01
    0.2100000000E+05    0.2327269696E-01    0.2344814743E-01    0.6957272057E+00    0.9957511168E-01    0.5614313164E-01
    0.2300000000E+05    0.2366676895E-01    0.2387441405E-01    0.6957534479E+00    0.1032519903E+00    0.5925321828E-01
    0.2500000000E+05    0.2397420073E-01    0.2421309150E-01    0.6957755057E+00    0.1065712443E+00    0.6220212108E-01
    0.2700000000E+05    0.2421071853E-01    0.2447981363E-01    0.6957943071E+00    0.1095840658E+00    0.6500952594E-01
    0.2900000000E+05    0.2438875841E-01    0.2468696872E-01    0.6958105246E+00    0.1123320503E+00    0.6769169542E-01
    0.3100000000E+05    0.2451825961E-01    0.2484447868E-01    0.6958246574E+00    0.1148493704E+00    0.7026220843E-01
    0.3300000000E+05    0.2460724203E-01    0.2496036677E-01    0.6958370837E+00    0.1171643816E+00    0.7273251303E-01
    0.3500000000E+05    0.2466223280E-01    0.2504117746E-01    0.6958480956E+00    0.1193008252E+00    0.7511234554E-01
    0.3700000000E+05    0.2468858566E-01    0.2509229107E-01    0.6958579218E+00    0.1212787441E+00    0.7741005270E-01
    0.3900000000E+05    0.2469072313E-01    0.2511816267E-01    0.6958667445E+00    0.1231151864E+00    0.7963284222E-01
    0.4100000000E+05    0.2467232210E-01    0.2512250529E-01    0.6958747102E+00    0.1248247537E+00    0.8178697994E-01
    0.4300000000E+05    0.2463645762E-01    0.2510843206E-01    0.6958819381E+00    0.1264200316E+00    0.8387794646E-01
    0.4500000000E+05    0.2458571528E-01    0.2507856745E-01    0.6958885265E+00    0.1279119327E+00    0.8591056282E-01
    0.4700000000E+05    0.2452227987E-01    0.2503513517E-01    0.6958945567E+00    0.1293099704E+00    0.8788909224E-01
    0.4900000000E+05    0.2444800592E-01    0.2498002804E-01    0.6959000970E+00    0.1306224804E+00    0.8981732305E-01
    0.1000000000E+05    0.1825772892E-01    0.1825316857E-01    0.6953962714E+00    0.6900779134E-01    0.3470210533E-01
    0.3000000000E+05    0.2445903572E-01    0.2477138890E-01    0.6958178256E+00    0.1136176506E+00    0.6899014900E-01
    0.5000000000E+05    0.2440730785E-01    0.2494861150E-01    0.6959027017E+00    0.1312489905E+00    0.9076364751E-01
    0.7000000000E+05    0.2330545882E-01    0.2399682934E-01    0.6959392336E+00    0.1406804987E+00    0.1077080082E+00
    0.9000000000E+05    0.2202082016E-01    0.2281222895E-01    0.6959595997E+00    0.1463794844E+00    0.1219753681E+00
    0.1100000000E+06    0.2076726564E-01    0.2162635628E-01    0.6959725989E+00    0.1500189434E+00    0.1344867779E+00
    0.1300000000E+06    0.1960184355E-01    0.2050686579E-01    0.6959816225E+00    0.1523867015E+00    0.1457300768E+00
    0.1500000000E+06    0.1853523633E-01    0.1947106461E-01    0.6959882562E+00    0.1539096297E+00    0.1559994004E+00
    0.1700000000E+06    0.1756332015E-01    0.1851914422E-01    0.6959933405E+00    0.1548420471E+00    0.1654882127E+00
    0.1900000000E+06    0.1667754719E-01    0.1764547210E-01    0.6959973630E+00    0.1553461892E+00    0.1743319362E+00
    0.2100000000E+06    0.1586860832E-01    0.1684276985E-01    0.6960006258E+00    0.1555310120E+00    0.1826298881E+00
    0.2300000000E+06    0.1512772373E-01    0.1610370885E-01    0.6960033263E+00    0.1554726758E+00    0.1904575866E+00
    0.2500000000E+06    0.1444704211E-01    0.1542149727E-01    0.6960055989E+00    0.1552261424E+00    0.1978741290E+00
    0.2700000000E+06    0.1381969766E-01    0.1479005700E-01    0.6960075381E+00    0.1548321183E+00    0.2049268582E+00
    0.2900000000E+06    0.1323974093E-01    0.1420403330E-01    0.6960092126E+00    0.1543214066E+00    0.2116544434E+00
    0.3100000000E+06    0.1270203061E-01    0.1365873976E-01    0.6960106734E+00    0.1537177395E+00    0.2180889897E+00
    0.3300000000E+06    0.1220212125E-01    0.1315008284E-01    0.6960119591E+00    0.1530396821E+00    0.2242575254E+00
    0.3500000000E+06    0.1173616025E-01    0.1267448479E-01    0.6960130996E+00    0.1523019481E+00    0.2301830799E+00
    0.3700000000E+06    0.1130079805E-01    0.1222881250E-01    0.6960141183E+00    0.1515163299E+00    0.2358854813E+00
    0.3900000000E+06    0.1089311175E-01    0.1181031467E-01    0.6960150337E+00    0.1506923708E+00    0.2413819589E+00
    0.4100000000E+06    0.1051054090E-01    0.1141656774E-01    0.6960158610E+00    0.1498378591E+00    0.2466876056E+00
    0.4300000000E+06    0.1015083388E-01    0.1104542974E-01    0.6960166123E+00    0.1489591977E+00    0.2518157389E+00
    0.4500000000E+06    0.9812002967E-02    0.1069500117E-01    0.6960172977E+00    0.1480616838E+00    0.2567781860E+00
    0.4700000000E+06    0.9492286937E-02    0.1036359196E-01    0.6960179256E+00    0.1471497242E+00    0.2615855122E+00
    0.4900000000E+06    0.9190119614E-02    0.1004969340E-01    0.6960185029E+00    0.1462270028E+00    0.2662472056E+00
    0.1000000000E+06    0.2138485799E-01    0.2221336878E-01    0.6959667447E+00    0.1483954434E+00    0.1284138550E+00
    0.3000000000E+06    0.1296589785E-01    0.1392656408E-01    0.6960099671E+00    0.1540299287E+00    0.2149065525E+00
    0.5000000000E+06    0.9045174043E-02    0.9898882832E-02    0.6960187745E+00    0.1457625927E+00    0.2685261480E+00
    0.7000000000E+06    0.6796742701E-02    0.7538547066E-02    0.6960225969E+00    0.1364426035E+00    0.3081640916E+00
    0.9000000000E+06    0.5345790090E-02    0.5992150768E-02    0.6960247419E+00    0.1276848238E+00    0.3394937093E+00
    0.1100000000E+07    0.4338949887E-02    0.4906378344E-02    0.6960261188E+00    0.1197650137E+00    0.3652071475E+00
    0.1300000000E+07    0.3604700039E-02    0.4106867491E-02    0.6960270793E+00    0.1126695110E+00    0.3868445185E+00
    0.1500000000E+07    0.3049354618E-02    0.3497159455E-02    0.6960277884E+00    0.1063156399E+00    0.4053849859E+00
    0.1700000000E+07    0.2617353337E-02    0.3019448942E-02    0.6960283341E+00    0.1006107473E+00    0.4214951762E+00
    0.1900000000E+07    0.2273677325E-02    0.2636976970E-02    0.6960287673E+00    0.9546906922E-01    0.4356513525E+00
    0.2100000000E+07    0.1995190935E-02    0.2325269425E-02    0.6960291198E+00    0.9081582107E-01    0.4482062300E+00
    0.2300000000E+07    0.1766023813E-02    0.2067422003E-02    0.6960294125E+00    0.8658720548E-01    0.4594284303E+00
    0.2500000000E+07    0.1574948898E-02    0.1851402047E-02    0.6960296595E+00    0.8272919471E-01    0.4695271754E+00
    0.2700000000E+07    0.1413816760E-02    0.1668426145E-02    0.6960298708E+00    0.7919607318E-01    0.4786684639E+00
    0.2900000000E+07    0.1276581026E-02    0.1511943898E-02    0.6960300536E+00    0.7594907228E-01    0.4869860645E+00
    0.3100000000E+07    0.1158670232E-02    0.1376979158E-02    0.6960302135E+00    0.7295519240E-01    0.4945892167E+00
    0.3300000000E+07    0.1056570703E-02    0.1259690281E-02    0.6960303545E+00    0.7018622052E-01    0.5015681628E+00
    0.3500000000E+07    0.9675423742E-03    0.1157069071E-02    0.6960304798E+00    0.6761792305E-01    0.5079982101E+00
    0.3700000000E+07    0.8894207815E-03    0.1066730058E-02    0.6960305920E+00    0.6522938629E-01    0.5139427681E+00
    0.3900000000E+07    0.8204763291E-03    0.9867600984E-03    0.6960306929E+00    0.6300247796E-01    0.5194556585E+00
    0.4100000000E+07    0.7593124976E-03    0.9156091589E-03    0.6960307843E+00    0.6092140673E-01    0.5245828953E+00
    0.4300000000E+07    0.7047910431E-03    0.8520097554E-03    0.6960308674E+00    0.5897236082E-01    0.5293640760E+00
    0.4500000000E+07    0.6559762461E-03    0.7949166995E-03    0.6960309433E+00    0.5714321025E-01    0.5338334802E+00
    0.4700000000E+07    0.6120928200E-03    0.7434614524E-03    0.6960310129E+00    0.5542326041E-01    0.5380209462E+00
    0.4900000000E+07    0.5724937562E-03    0.6969171447E-03    0.6960310770E+00    0.5380304722E-01    0.5419525779E+00
    0.1000000000E+07    0.4800126662E-02    0.5405123568E-02    0.6960254979E+00    0.1236181579E+00    0.3529386999E+00
    0.3000000000E+07    0.1215450568E-02    0.1442034470E-02    0.6960301362E+00    0.7442235746E-01    0.4908709147E+00
    0.5000000000E+07    0.5541275175E-03    0.6752913891E-03    0.6960311072E+00    0.5302767813E-01    0.5438297354E+00
    0.7000000000E+07    0.3166666496E-03    0.3930403679E-03    0.6960315336E+00    0.4114269365E-01    0.5722756303E+00
    0.9000000000E+07    0.2047339466E-03    0.2576775819E-03    0.6960317741E+00    0.3358741733E-01    0.5900706744E+00
    0.1100000000E+08    0.1431569733E-03    0.1822144934E-03    0.6960319286E+00    0.2836333059E-01    0.6022594247E+00
    0.1300000000E+08    0.1056903673E-03    0.1357988719E-03    0.6960320360E+00    0.2453720552E-01    0.6111311403E+00
    0.1500000000E+08    0.8120987428E-04    0.1051925487E-03    0.6960321149E+00    0.2161499158E-01    0.6178771821E+00
    0.1700000000E+08    0.6434063643E-04    0.8393448611E-04    0.6960321751E+00    0.1931074695E-01    0.6231792237E+00
    0.1900000000E+08    0.5222645434E-04    0.6856170628E-04    0.6960322224E+00    0.1744754067E-01    0.6274556115E+00
    0.2100000000E+08    0.4323529502E-04    0.5708061666E-04    0.6960322605E+00    0.1591004532E-01    0.6309773522E+00
    0.2300000000E+08    0.3637959860E-04    0.4827685329E-04    0.6960322917E+00    0.1461988439E-01    0.6339277358E+00
    0.2500000000E+08    0.3103334509E-04    0.4137602669E-04    0.6960323176E+00    0.1352193789E-01    0.6364351675E+00
    0.2700000000E+08    0.2678411936E-04    0.3586521193E-04    0.6960323393E+00    0.1257631631E-01    0.6385922783E+00
