  Pressure (Pa) 22mC5-500 (mol/kg) 23mC5-500 (mol/kg) 24mC5-500 (mol/kg) 2mC6-500 (mol/kg) 3mC6-500 (mol/kg)
    0.1000000000E+01    0.9259386767E-05    0.8963419919E-06    0.1741149749E+00    0.1031624332E-04    0.4168491214E-04
    0.3000000000E+01    0.2102626069E-04    0.2040291571E-05    0.3481509583E+00    0.2487920964E-04    0.1250322038E-03
    0.5000000000E+01    0.2984561281E-04    0.2903046902E-05    0.4351407661E+00    0.3717829212E-04    0.2083498144E-03
    0.7000000000E+01    0.3769593683E-04    0.3674406507E-05    0.4873262955E+00    0.4891771613E-04    0.2916378969E-03
    0.9000000000E+01    0.4515474184E-04    0.4409360141E-05    0.5221134455E+00    0.6051367511E-04    0.3748965183E-03
    0.1100000000E+02    0.5243736535E-04    0.5128239082E-05    0.5469599756E+00    0.7208989179E-04    0.4581257190E-03
    0.1300000000E+02    0.5963659033E-04    0.5839717080E-05    0.5655941611E+00    0.8368511423E-04    0.5413255291E-03
    0.1500000000E+02    0.6679625177E-04    0.6547842848E-05    0.5800870368E+00    0.9530989305E-04    0.6244959736E-03
    0.1700000000E+02    0.7393831112E-04    0.7254613749E-05    0.5916811244E+00    0.1069648695E-03    0.7076370747E-03
    0.1900000000E+02    0.8107414094E-04    0.7961042627E-05    0.6011670724E+00    0.1186472928E-03    0.7907488532E-03
    0.2100000000E+02    0.8820968032E-04    0.8667642260E-05    0.6090719559E+00    0.1303534756E-03    0.8738313289E-03
    0.2300000000E+02    0.9534796051E-04    0.9374661099E-05    0.6157606597E+00    0.1420797259E-03    0.9568845211E-03
    0.2500000000E+02    0.1024904111E-03    0.1008220426E-04    0.6214938086E+00    0.1538226796E-03    0.1039908448E-02
    0.2700000000E+02    0.1096375647E-03    0.1079029823E-04    0.6264625228E+00    0.1655793898E-03    0.1122903129E-02
    0.2900000000E+02    0.1167894502E-03    0.1149892660E-04    0.6308101400E+00    0.1773473209E-03    0.1205868582E-02
    0.3100000000E+02    0.1239458175E-03    0.1220805023E-04    0.6346462695E+00    0.1891243074E-03    0.1288804824E-02
    0.3300000000E+02    0.1311062681E-03    0.1291761883E-04    0.6380561619E+00    0.2009085043E-03    0.1371711875E-02
    0.3500000000E+02    0.1382703325E-03    0.1362757759E-04    0.6411071195E+00    0.2126983385E-03    0.1454589751E-02
    0.3700000000E+02    0.1454375150E-03    0.1433787105E-04    0.6438529838E+00    0.2244924655E-03    0.1537438470E-02
    0.3900000000E+02    0.1526073206E-03    0.1504844520E-04    0.6463373404E+00    0.2362897331E-03    0.1620258050E-02
    0.4100000000E+02    0.1597792700E-03    0.1575924866E-04    0.6485958499E+00    0.2480891496E-03    0.1703048509E-02
    0.4300000000E+02    0.1669529076E-03    0.1647023325E-04    0.6506579710E+00    0.2598898588E-03    0.1785809864E-02
    0.4500000000E+02    0.1741278056E-03    0.1718135417E-04    0.6525482525E+00    0.2716911181E-03    0.1868542133E-02
    0.4700000000E+02    0.1813035654E-03    0.1789256999E-04    0.6542873152E+00    0.2834922811E-03    0.1951245333E-02
    0.4900000000E+02    0.1884798173E-03    0.1860384257E-04    0.6558926076E+00    0.2952927828E-03    0.2033919482E-02
    0.1000000000E+02    0.4881062424E-04    0.4770110245E-05    0.5354924871E+00    0.6630080668E-04    0.4165147942E-03
    0.3000000000E+02    0.1203670962E-03    0.1185342948E-04    0.6327863282E+00    0.1832348045E-03    0.1247340353E-02
    0.5000000000E+02    0.1920680200E-03    0.1895948907E-04    0.6566498224E+00    0.3011926284E-03    0.2075245667E-02
    0.7000000000E+02    0.2637882345E-03    0.2606830507E-04    0.6674376744E+00    0.4190618628E-03    0.2900248425E-02
    0.9000000000E+02    0.3353007353E-03    0.3315682528E-04    0.6735857642E+00    0.5365479732E-03    0.3722365896E-02
    0.1100000000E+03    0.4064997446E-03    0.4021456485E-04    0.6775576498E+00    0.6535493453E-03    0.4541615160E-02
    0.1300000000E+03    0.4773316775E-03    0.4723627415E-04    0.6803350568E+00    0.7700232975E-03    0.5358013140E-02
    0.1500000000E+03    0.5477671997E-03    0.5421910230E-04    0.6823863955E+00    0.8859499574E-03    0.6171576619E-02
    0.1700000000E+03    0.6177894453E-03    0.6116142110E-04    0.6839634732E+00    0.1001319787E-02    0.6982322239E-02
    0.1900000000E+03    0.6873885104E-03    0.6806228084E-04    0.6852137233E+00    0.1116128479E-02    0.7790266509E-02
    0.2100000000E+03    0.7565586391E-03    0.7492113405E-04    0.6862292062E+00    0.1230374602E-02    0.8595425803E-02
    0.2300000000E+03    0.8252966785E-03    0.8173768472E-04    0.6870703742E+00    0.1344058408E-02    0.9397816365E-02
    0.2500000000E+03    0.8936011782E-03    0.8851180071E-04    0.6877785648E+00    0.1457181179E-02    0.1019745431E-01
    0.2700000000E+03    0.9614718398E-03    0.9524346043E-04    0.6883830025E+00    0.1569744858E-02    0.1099435562E-01
    0.2900000000E+03    0.1028909166E-02    0.1019327190E-03    0.6889049324E+00    0.1681751816E-02    0.1178853616E-01
    0.3100000000E+03    0.1095914231E-02    0.1085796860E-03    0.6893601698E+00    0.1793204719E-02    0.1258001167E-01
    0.3300000000E+03    0.1162488522E-02    0.1151845103E-03    0.6897607307E+00    0.1904106427E-02    0.1336879774E-01
    0.3500000000E+03    0.1228633829E-02    0.1217473698E-03    0.6901159081E+00    0.2014459935E-02    0.1415490988E-01
    0.3700000000E+03    0.1294352170E-02    0.1282684638E-03    0.6904330016E+00    0.2124268332E-02    0.1493836343E-01
    0.3900000000E+03    0.1359645734E-02    0.1347480076E-03    0.6907178254E+00    0.2233534769E-02    0.1571917366E-01
    0.4100000000E+03    0.1424516837E-02    0.1411862287E-03    0.6909750671E+00    0.2342262439E-02    0.1649735568E-01
    0.4300000000E+03    0.1488967891E-02    0.1475833637E-03    0.6912085486E+00    0.2450454561E-02    0.1727292450E-01
    0.4500000000E+03    0.1553001385E-02    0.1539396561E-03    0.6914214165E+00    0.2558114367E-02    0.1804589502E-01
    0.4700000000E+03    0.1616619859E-02    0.1602553543E-03    0.6916162857E+00    0.2665245097E-02    0.1881628201E-01
    0.4900000000E+03    0.1679825896E-02    0.1665307107E-03    0.6917953464E+00    0.2771849990E-02    0.1958410012E-01
    0.1000000000E+03    0.3709435532E-03    0.3668994797E-04    0.6757645036E+00    0.5951126904E-03    0.4132347993E-02
    0.3000000000E+03    0.1062465647E-02    0.1052614804E-03    0.6891400623E+00    0.1737547350E-02    0.1218461107E-01
    0.5000000000E+03    0.1711275066E-02    0.1696533404E-03    0.6918795378E+00    0.2824956257E-02    0.1996705040E-01
    0.7000000000E+03    0.2319252142E-02    0.2300510521E-03    0.6930604418E+00    0.3860259372E-02    0.2749468809E-01
    0.9000000000E+03    0.2889010311E-02    0.2867093083E-03    0.6937183178E+00    0.4846586580E-02    0.3478142537E-01
    0.1100000000E+04    0.3423074089E-02    0.3398737132E-03    0.6941376581E+00    0.5786870377E-02    0.4184014546E-01
    0.1300000000E+04    0.3923800553E-02    0.3897734840E-03    0.6944282935E+00    0.6683830735E-02    0.4868280511E-01
    0.1500000000E+04    0.4393374221E-02    0.4366210462E-03    0.6946415982E+00    0.7539987661E-02    0.5532051647E-01
    0.1700000000E+04    0.4833816081E-02    0.4806129425E-03    0.6948048143E+00    0.8357677164E-02    0.6176362039E-01
    0.1900000000E+04    0.5246995678E-02    0.5219310186E-03    0.6949337324E+00    0.9139066823E-02    0.6802175231E-01
    0.2100000000E+04    0.5634643386E-02    0.5607436196E-03    0.6950381368E+00    0.9886170167E-02    0.7410390152E-01
    0.2300000000E+04    0.5998362035E-02    0.5972067191E-03    0.6951244130E+00    0.1060085976E-01    0.8001846452E-01
    0.2500000000E+04    0.6339637631E-02    0.6314649606E-03    0.6951969059E+00    0.1128487905E-01    0.8577329331E-01
    0.2700000000E+04    0.6659849161E-02    0.6636526072E-03    0.6952586747E+00    0.1193985310E-01    0.9137573889E-01
    0.2900000000E+04    0.6960277499E-02    0.6938944054E-03    0.6953119354E+00    0.1256729824E-01    0.9683269082E-01
    0.3100000000E+04    0.7242113495E-02    0.7223063693E-03    0.6953583330E+00    0.1316863089E-01    0.1021506130E+00
    0.3300000000E+04    0.7506465320E-02    0.7489964917E-03    0.6953991138E+00    0.1374517549E-01    0.1073355763E+00
    0.3500000000E+04    0.7754365128E-02    0.7740653895E-03    0.6954352398E+00    0.1429817172E-01    0.1123932880E+00
    0.3700000000E+04    0.7986775112E-02    0.7976068910E-03    0.6954674651E+00    0.1482878106E-01    0.1173291189E+00
    0.3900000000E+04    0.8204593011E-02    0.8197085686E-03    0.6954963891E+00    0.1533809275E-01    0.1221481280E+00
    0.4100000000E+04    0.8408657117E-02    0.8404522245E-03    0.6955224945E+00    0.1582712923E-01    0.1268550849E+00
    0.4300000000E+04    0.8599750848E-02    0.8599143331E-03    0.6955461743E+00    0.1629685111E-01    0.1314544903E+00
    0.4500000000E+04    0.8778606904E-02    0.8781664445E-03    0.6955677516E+00    0.1674816168E-01    0.1359505950E+00
    0.4700000000E+04    0.8945911079E-02    0.8952755528E-03    0.6955874946E+00    0.1718191106E-01    0.1403474171E+00
    0.4900000000E+04    0.9102305732E-02    0.9113044332E-03    0.6956056276E+00    0.1759889999E-01    0.1446487579E+00
    0.1000000000E+04    0.3160352578E-02    0.3137135162E-03    0.6939488874E+00    0.5322309038E-02    0.3833851955E-01
    0.3000000000E+04    0.7103448422E-02    0.7083221870E-03    0.6953359064E+00    0.1287114378E-01    0.9950864236E-01
    0.5000000000E+04    0.9176601639E-02    0.9189323281E-03    0.6956141507E+00    0.1780134687E-01    0.1467647551E+00
    0.7000000000E+04    0.1021740810E-01    0.1027267747E-02    0.6957335181E+00    0.2113244100E-01    0.1848522112E+00
    0.9000000000E+04    0.1066265549E-01    0.1076113683E-02    0.6957998747E+00    0.2342759690E-01    0.2165121821E+00
    0.1100000000E+05    0.1075498854E-01    0.1089351351E-02    0.6958421212E+00    0.2502115088E-01    0.2434468862E+00
    0.1300000000E+05    0.1063574602E-01    0.1080968868E-02    0.6958713799E+00    0.2612303817E-01    0.2667754330E+00
    0.1500000000E+05    0.1039024228E-01    0.1059464148E-02    0.6958928432E+00    0.2687110093E-01    0.2872683149E+00
    0.1700000000E+05    0.1007135133E-01    0.1030143171E-02    0.6959092611E+00    0.2735918084E-01    0.3054765534E+00
    0.1900000000E+05    0.9712458435E-02    0.9963854797E-03    0.6959222260E+00    0.2765309234E-01    0.3218069223E+00
    0.2100000000E+05    0.9334888397E-02    0.9603722266E-03    0.6959327238E+00    0.2780014729E-01    0.3365678650E+00
    0.2300000000E+05    0.8952322322E-02    0.9235205789E-03    0.6959413979E+00    0.2783506740E-01    0.3499986656E+00
    0.2500000000E+05    0.8573504081E-02    0.8867509516E-03    0.6959486856E+00    0.2778378301E-01    0.3622886297E+00
    0.2700000000E+05    0.8203941344E-02    0.8506556975E-03    0.6959548948E+00    0.2766594750E-01    0.3735900823E+00
    0.2900000000E+05    0.7846997739E-02    0.8156079390E-03    0.6959602486E+00    0.2749664523E-01    0.3840274107E+00
    0.3100000000E+05    0.7504606768E-02    0.7818330888E-03    0.6959649124E+00    0.2728757841E-01    0.3937035061E+00
    0.3300000000E+05    0.7177745505E-02    0.7494565848E-03    0.6959690115E+00    0.2704790853E-01    0.4027044489E+00
    0.3500000000E+05    0.6866752777E-02    0.7185361656E-03    0.6959726428E+00    0.2678486350E-01    0.4111029812E+00
    0.3700000000E+05    0.6571544968E-02    0.6890839226E-03    0.6959758820E+00    0.2650418293E-01    0.4189611233E+00
    0.3900000000E+05    0.6291763474E-02    0.6610814931E-03    0.6959787893E+00    0.2621044904E-01    0.4263321771E+00
    0.4100000000E+05    0.6026875923E-02    0.6344905907E-03    0.6959814134E+00    0.2590733602E-01    0.4332622802E+00
    0.4300000000E+05    0.5776245827E-02    0.6092603314E-03    0.6959837937E+00    0.2559779986E-01    0.4397916269E+00
    0.4500000000E+05    0.5539180445E-02    0.5853323363E-03    0.6959859627E+00    0.2528422449E-01    0.4459554389E+00
    0.4700000000E+05    0.5314963543E-02    0.5626442792E-03    0.6959879474E+00    0.2496853527E-01    0.4517847447E+00
    0.4900000000E+05    0.5102877582E-02    0.5411323403E-03    0.6959897703E+00    0.2465228794E-01    0.4573070120E+00
    0.1000000000E+05    0.1074240479E-01    0.1086143163E-02    0.6958231081E+00    0.2429681214E-01    0.2304900267E+00
    0.3000000000E+05    0.7673904023E-02    0.7985516558E-03    0.6959626581E+00    0.2739645830E-01    0.3889548840E+00
    0.5000000000E+05    0.5001162875E-02    0.5307974886E-03    0.6959906271E+00    0.2449435764E-01    0.4599607453E+00
    0.7000000000E+05    0.3448624916E-02    0.3715228571E-03    0.6960026287E+00    0.2150459031E-01    0.5016311279E+00
    0.9000000000E+05    0.2505591600E-02    0.2731816993E-03    0.6960093024E+00    0.1899171572E-01    0.5292368571E+00
    0.1100000000E+06    0.1897318263E-02    0.2089402427E-03    0.6960135523E+00    0.1693852352E-01    0.5489174003E+00
    0.1300000000E+06    0.1484261374E-02    0.1648598539E-03    0.6960164962E+00    0.1525535701E-01    0.5636713412E+00
    0.1500000000E+06    0.1191738099E-02    0.1333654318E-03    0.6960186560E+00    0.1386035039E-01    0.5751478884E+00
    0.1700000000E+06    0.9773411332E-03    0.1101043691E-03    0.6960203083E+00    0.1268977504E-01    0.5843319701E+00
    0.1900000000E+06    0.8156823866E-03    0.9244543658E-04    0.6960216131E+00    0.1169572670E-01    0.5918489889E+00
    0.2100000000E+06    0.6908581857E-03    0.7872668172E-04    0.6960226696E+00    0.1084228562E-01    0.5981154777E+00
    0.2300000000E+06    0.5925140021E-03    0.6785820710E-04    0.6960235425E+00    0.1010229444E-01    0.6034197116E+00
    0.2500000000E+06    0.5136817732E-03    0.5910185263E-04    0.6960242759E+00    0.9454974176E-02    0.6079676045E+00
    0.2700000000E+06    0.4495368372E-03    0.5194356235E-04    0.6960249006E+00    0.8884220238E-02    0.6119101908E+00
    0.2900000000E+06    0.3966548437E-03    0.4601656072E-04    0.6960254391E+00    0.8377391544E-02    0.6153607798E+00
    0.3100000000E+06    0.3525520030E-03    0.4105353006E-04    0.6960259082E+00    0.7924445298E-02    0.6184060498E+00
    0.3300000000E+06    0.3153918977E-03    0.3685594496E-04    0.6960263204E+00    0.7517312601E-02    0.6211134415E+00
    0.3500000000E+06    0.2837934357E-03    0.3327388414E-04    0.6960266854E+00    0.7149442527E-02    0.6235362172E+00
    0.3700000000E+06    0.2567020203E-03    0.3019242509E-04    0.6960270109E+00    0.6815465103E-02    0.6257170013E+00
    0.3900000000E+06    0.2333012615E-03    0.2752228017E-04    0.6960273030E+00    0.6510939171E-02    0.6276903113E+00
    0.4100000000E+06    0.2129512992E-03    0.2519322907E-04    0.6960275666E+00    0.6232161533E-02    0.6294843977E+00
    0.4300000000E+06    0.1951449609E-03    0.2314943296E-04    0.6960278056E+00    0.5976020886E-02    0.6311226046E+00
    0.4500000000E+06    0.1794761016E-03    0.2134603878E-04    0.6960280232E+00    0.5739884869E-02    0.6326243913E+00
    0.4700000000E+06    0.1656164106E-03    0.1974668336E-04    0.6960282223E+00    0.5521511846E-02    0.6340061076E+00
    0.4900000000E+06    0.1532981932E-03    0.1832163486E-04    0.6960284051E+00    0.5318981384E-02    0.6352815915E+00
    0.1000000000E+06    0.2170422832E-02    0.2378732624E-03    0.6960116395E+00    0.1791312115E-01    0.5398362326E+00
    0.3000000000E+06    0.3736333473E-03    0.4342829308E-04    0.6960256815E+00    0.8144727660E-02    0.6169294820E+00
    0.5000000000E+06    0.1476468060E-03    0.1766664581E-04    0.6960284910E+00    0.5223130968E-02    0.6358832501E+00
    0.7000000000E+06    0.7836326003E-04    0.9559739696E-05    0.6960296912E+00    0.3835852236E-02    0.6444551824E+00
    0.9000000000E+06    0.4843382736E-04    0.5994744114E-05    0.6960303545E+00    0.3027642707E-02    0.6493393948E+00
    0.1100000000E+07    0.3285962405E-04    0.4114258251E-05    0.6960307736E+00    0.2499128881E-02    0.6524935223E+00
    0.1300000000E+07    0.2374235266E-04    0.3001219328E-05    0.6960310613E+00    0.2126777891E-02    0.6546981027E+00
    0.1500000000E+07    0.1795183585E-04    0.2287739527E-05    0.6960312702E+00    0.1850404056E-02    0.6563256157E+00
    0.1700000000E+07    0.1404742567E-04    0.1802802305E-05    0.6960314283E+00    0.1637200986E-02    0.6575762948E+00
    0.1900000000E+07    0.1129129684E-04    0.1458075629E-05    0.6960315517E+00    0.1467771121E-02    0.6585673627E+00
    0.2100000000E+07    0.9273914634E-05    0.1204166639E-05    0.6960316502E+00    0.1329913986E-02    0.6593720034E+00
    0.2300000000E+07    0.7753206969E-05    0.1011687855E-05    0.6960317305E+00    0.1215573472E-02    0.6600382641E+00
    0.2500000000E+07    0.6578662156E-05    0.8622593924E-06    0.6960317970E+00    0.1119216829E-02    0.6605989924E+00
    0.2700000000E+07    0.5652721313E-05    0.7439039442E-06    0.6960318527E+00    0.1036919004E-02    0.6610774052E+00
    0.2900000000E+07    0.4909906193E-05    0.6485433240E-06    0.6960318999E+00    0.9658185761E-03    0.6614903767E+00
    0.3100000000E+07    0.4304948806E-05    0.5705674711E-06    0.6960319403E+00    0.9037805388E-03    0.6618504654E+00
    0.3300000000E+07    0.3805745233E-05    0.5059810546E-06    0.6960319751E+00    0.8491796784E-03    0.6621672109E+00
    0.3500000000E+07    0.3389016801E-05    0.4518757087E-06    0.6960320054E+00    0.8007570778E-03    0.6624479890E+00
    0.3700000000E+07    0.3037552060E-05    0.4060932056E-06    0.6960320318E+00    0.7575224859E-03    0.6626985924E+00
    0.3900000000E+07    0.2738404139E-05    0.3670044771E-06    0.6960320549E+00    0.7186863217E-03    0.6629236339E+00
    0.4100000000E+07    0.2481683223E-05    0.3333610671E-06    0.6960320754E+00    0.6836113254E-03    0.6631268318E+00
    0.4300000000E+07    0.2259729795E-05    0.3041930868E-06    0.6960320934E+00    0.6517775395E-03    0.6633112170E+00
    0.4500000000E+07    0.2066537393E-05    0.2787377426E-06    0.6960321095E+00    0.6227565237E-03    0.6634792846E+00
    0.4700000000E+07    0.1897342388E-05    0.2563883926E-06    0.6960321238E+00    0.5961920805E-03    0.6636331072E+00
    0.4900000000E+07    0.1748327780E-05    0.2366576573E-06    0.6960321366E+00    0.5717856547E-03    0.6637744210E+00
    0.1000000000E+07    0.3952253707E-04    0.4921510018E-05    0.6960305854E+00    0.2738328453E-02    0.6510697314E+00
    0.3000000000E+07    0.4592449708E-05    0.6076624937E-06    0.6960319209E+00    0.9337783259E-03    0.6616763761E+00
    0.5000000000E+07    0.1680399525E-05    0.2276477539E-06    0.6960321424E+00    0.5603113506E-03    0.6638408540E+00
    0.7000000000E+07    0.8713975650E-06    0.1193968990E-06    0.6960322120E+00    0.3995008874E-03    0.6647718647E+00
    0.9000000000E+07    0.5368254952E-06    0.7390841945E-07    0.6960322340E+00    0.3100982896E-03    0.6652897210E+00
    0.1100000000E+08    0.3667082484E-06    0.5051710520E-07    0.6960322361E+00    0.2532300810E-03    0.6656194133E+00
    0.1300000000E+08    0.2684093948E-06    0.3688792330E-07    0.6960322285E+00    0.2138924544E-03    0.6658476921E+00
    0.1500000000E+08    0.2064244566E-06    0.2823969461E-07    0.6960322157E+00    0.1850729787E-03    0.6660150944E+00
    0.1700000000E+08    0.1647714921E-06    0.2240072571E-07    0.6960322000E+00    0.1630569251E-03    0.6661430971E+00
    0.1900000000E+08    0.1353919429E-06    0.1826778768E-07    0.6960321827E+00    0.1456933732E-03    0.6662441400E+00
    0.2100000000E+08    0.1138631828E-06    0.1523159038E-07    0.6960321645E+00    0.1316509804E-03    0.6663259258E+00
    0.2300000000E+08    0.9759285094E-07    0.1293306064E-07    0.6960321459E+00    0.1200617342E-03    0.6663934787E+00
    0.2500000000E+08    0.8497916270E-07    0.1114929373E-07    0.6960321270E+00    0.1103356154E-03    0.6664502154E+00
    0.2700000000E+08    0.7498870024E-07    0.9735892857E-08    0.6960321081E+00    0.1020576110E-03    0.6664985405E+00
