  Pressure (Pa) 22mC5-500 (mol/kg) 23mC5-500 (mol/kg) 24mC5-500 (mol/kg) 2mC6-500 (mol/kg) 3mC6-500 (mol/kg)
    0.1000000000E+01    0.9565284597E-05    0.1851586708E-05    0.1514089264E+00    0.5301622400E-05    0.4689544858E-04
    0.3000000000E+01    0.2220848531E-04    0.4307337047E-05    0.3165138368E+00    0.1295000722E-04    0.1406604355E-03
    0.5000000000E+01    0.3161394775E-04    0.6144113764E-05    0.4047974533E+00    0.1929877350E-04    0.2343912340E-03
    0.7000000000E+01    0.3981913562E-04    0.7753457304E-05    0.4597570547E+00    0.2525775207E-04    0.3280880132E-03
    0.9000000000E+01    0.4749259025E-04    0.9263094144E-05    0.4972652467E+00    0.3108755096E-04    0.4217508521E-03
    0.1100000000E+02    0.5490475530E-04    0.1072435930E-04    0.5244953581E+00    0.3687774456E-04    0.5153797993E-03
    0.1300000000E+02    0.6218029132E-04    0.1216074351E-04    0.5451630231E+00    0.4266198974E-04    0.6089748912E-03
    0.1500000000E+02    0.6938194446E-04    0.1358397175E-04    0.5613854846E+00    0.4845310906E-04    0.7025361576E-03
    0.1700000000E+02    0.7654329330E-04    0.1500025681E-04    0.5744576340E+00    0.5425552163E-04    0.7960636252E-03
    0.1900000000E+02    0.8368308735E-04    0.1641302615E-04    0.5852159341E+00    0.6007012233E-04    0.8895573185E-03
    0.2100000000E+02    0.9081208830E-04    0.1782421708E-04    0.5942247955E+00    0.6589633557E-04    0.9830172609E-03
    0.2300000000E+02    0.9793655945E-04    0.1923493430E-04    0.6018788636E+00    0.7173301883E-04    0.1076443475E-02
    0.2500000000E+02    0.1050601423E-03    0.2064580160E-04    0.6084623831E+00    0.7757886830E-04    0.1169835983E-02
    0.2700000000E+02    0.1121849103E-03    0.2205715820E-04    0.6141852802E+00    0.8343259884E-04    0.1263194806E-02
    0.2900000000E+02    0.1193119811E-03    0.2346917215E-04    0.6192059613E+00    0.8929301919E-04    0.1356519966E-02
    0.3100000000E+02    0.1264418829E-03    0.2488190768E-04    0.6236462047E+00    0.9515905764E-04    0.1449811483E-02
    0.3300000000E+02    0.1335747793E-03    0.2629536613E-04    0.6276011685E+00    0.1010297648E-03    0.1543069379E-02
    0.3500000000E+02    0.1407106088E-03    0.2770951119E-04    0.6311462882E+00    0.1069043064E-03    0.1636293675E-02
    0.3700000000E+02    0.1478491737E-03    0.2912428474E-04    0.6343421339E+00    0.1127819515E-03    0.1729484390E-02
    0.3900000000E+02    0.1549901966E-03    0.3053961683E-04    0.6372379009E+00    0.1186620609E-03    0.1822641546E-02
    0.4100000000E+02    0.1621333571E-03    0.3195543197E-04    0.6398739596E+00    0.1245440751E-03    0.1915765164E-02
    0.4300000000E+02    0.1692783149E-03    0.3337165313E-04    0.6422837497E+00    0.1304275035E-03    0.2008855263E-02
    0.4500000000E+02    0.1764247251E-03    0.3478820417E-04    0.6444952061E+00    0.1363119152E-03    0.2101911864E-02
    0.4700000000E+02    0.1835722476E-03    0.3620501138E-04    0.6465318472E+00    0.1421969310E-03    0.2194934987E-02
    0.4900000000E+02    0.1907205530E-03    0.3762200433E-04    0.6484136140E+00    0.1480822160E-03    0.2287924654E-02
    0.1000000000E+02    0.5122149318E-04    0.9997914785E-05    0.5118815969E+00    0.3398476954E-04    0.4685695597E-03
    0.3000000000E+02    0.1228765613E-03    0.2417544851E-04    0.6214921593E+00    0.9222539830E-04    0.1403169928E-02
    0.5000000000E+02    0.1942949003E-03    0.3833054947E-04    0.6493018373E+00    0.1510248655E-03    0.2334406946E-02
    0.7000000000E+02    0.2657554903E-03    0.5249713390E-04    0.6619977838E+00    0.2098355866E-03    0.3262301237E-02
    0.9000000000E+02    0.3370356681E-03    0.6662895700E-04    0.6692683172E+00    0.2684783553E-03    0.4186872890E-02
    0.1100000000E+03    0.4080181145E-03    0.8070249612E-04    0.6739789427E+00    0.3268878576E-03    0.5108141766E-02
    0.1300000000E+03    0.4786403653E-03    0.9470540530E-04    0.6772792962E+00    0.3850356622E-03    0.6026127543E-02
    0.1500000000E+03    0.5488671041E-03    0.1086307663E-03    0.6797202498E+00    0.4429080271E-03    0.6940849729E-02
    0.1700000000E+03    0.6186774437E-03    0.1224745150E-03    0.6815988210E+00    0.5004979847E-03    0.7852327671E-02
    0.1900000000E+03    0.6880587238E-03    0.1362342032E-03    0.6830892950E+00    0.5578020402E-03    0.8760580556E-02
    0.2100000000E+03    0.7570032597E-03    0.1499083540E-03    0.6843006830E+00    0.6148186260E-03    0.9665627416E-02
    0.2300000000E+03    0.8255065236E-03    0.1634961047E-03    0.6853046645E+00    0.6715473111E-03    0.1056748713E-01
    0.2500000000E+03    0.8935660713E-03    0.1769969959E-03    0.6861503079E+00    0.7279883681E-03    0.1146617842E-01
    0.2700000000E+03    0.9611808799E-03    0.1904108429E-03    0.6868723345E+00    0.7841425219E-03    0.1236171987E-01
    0.2900000000E+03    0.1028350922E-02    0.2037376523E-03    0.6874960050E+00    0.8400107967E-03    0.1325412991E-01
    0.3100000000E+03    0.1095076882E-02    0.2169775680E-03    0.6880401365E+00    0.8955944196E-03    0.1414342681E-01
    0.3300000000E+03    0.1161359968E-02    0.2301308333E-03    0.6885190336E+00    0.9508947579E-03    0.1502962871E-01
    0.3500000000E+03    0.1227201769E-02    0.2431977653E-03    0.6889437647E+00    0.1005913277E-02    0.1591275360E-01
    0.3700000000E+03    0.1292604168E-02    0.2561787362E-03    0.6893230281E+00    0.1060651509E-02    0.1679281934E-01
    0.3900000000E+03    0.1357569264E-02    0.2690741600E-03    0.6896637546E+00    0.1115111038E-02    0.1766984362E-01
    0.4100000000E+03    0.1422099324E-02    0.2818844822E-03    0.6899715340E+00    0.1169293477E-02    0.1854384403E-01
    0.4300000000E+03    0.1486196742E-02    0.2946101726E-03    0.6902509251E+00    0.1223200466E-02    0.1941483799E-01
    0.4500000000E+03    0.1549864012E-02    0.3072517195E-03    0.6905056828E+00    0.1276833655E-02    0.2028284279E-01
    0.4700000000E+03    0.1613103702E-02    0.3198096254E-03    0.6907389274E+00    0.1330194707E-02    0.2114787560E-01
    0.4900000000E+03    0.1675918436E-02    0.3322844031E-03    0.6909532739E+00    0.1383285287E-02    0.2200995343E-01
    0.1000000000E+03    0.3725688686E-03    0.7367395585E-04    0.6718509597E+00    0.2977145347E-03    0.4647918942E-02
    0.3000000000E+03    0.1061769347E-02    0.2103684587E-03    0.6877770308E+00    0.8678381069E-03    0.1369916636E-01
    0.5000000000E+03    0.1707167278E-02    0.3384907815E-03    0.6910540639E+00    0.1409729671E-02    0.2243988952E-01
    0.7000000000E+03    0.2310499122E-02    0.4583838817E-03    0.6924683131E+00    0.1924823171E-02    0.3088753632E-01
    0.9000000000E+03    0.2874465373E-02    0.5705740916E-03    0.6932566147E+00    0.2414740084E-02    0.3905824315E-01
    0.1100000000E+04    0.3401702158E-02    0.6755742391E-03    0.6937592539E+00    0.2881006562E-02    0.4696695586E-01
    0.1300000000E+04    0.3894676768E-02    0.7738640737E-03    0.6941076980E+00    0.3325039053E-02    0.5462753744E-01
    0.1500000000E+04    0.4355676910E-02    0.8658883918E-03    0.6943634703E+00    0.3748149570E-02    0.6205286414E-01
    0.1700000000E+04    0.4786818520E-02    0.9520586300E-03    0.6945592053E+00    0.4151553729E-02    0.6925491167E-01
    0.1900000000E+04    0.5190057900E-02    0.1032755250E-02    0.6947138236E+00    0.4536378821E-02    0.7624483252E-01
    0.2100000000E+04    0.5567204444E-02    0.1108330220E-02    0.6948390510E+00    0.4903671343E-02    0.8303302553E-01
    0.2300000000E+04    0.5919932844E-02    0.1179109387E-02    0.6949425414E+00    0.5254403882E-02    0.8962919852E-01
    0.2500000000E+04    0.6249794411E-02    0.1245394677E-02    0.6950295034E+00    0.5589481357E-02    0.9604242487E-01
    0.2700000000E+04    0.6558227449E-02    0.1307466099E-02    0.6951036043E+00    0.5909746660E-02    0.1022811946E+00
    0.2900000000E+04    0.6846566705E-02    0.1365583586E-02    0.6951675012E+00    0.6215985772E-02    0.1083534606E+00
    0.3100000000E+04    0.7116051946E-02    0.1419988649E-02    0.6952231665E+00    0.6508932381E-02    0.1142666807E+00
    0.3300000000E+04    0.7367835757E-02    0.1470905892E-02    0.6952720948E+00    0.6789272075E-02    0.1200278557E+00
    0.3500000000E+04    0.7602990612E-02    0.1518544377E-02    0.6953154396E+00    0.7057646141E-02    0.1256435640E+00
    0.3700000000E+04    0.7822515299E-02    0.1563098874E-02    0.6953541052E+00    0.7314655019E-02    0.1311199933E+00
    0.3900000000E+04    0.8027340765E-02    0.1604750990E-02    0.6953888108E+00    0.7560861438E-02    0.1364629690E+00
    0.4100000000E+04    0.8218335427E-02    0.1643670196E-02    0.6954201351E+00    0.7796793276E-02    0.1416779812E+00
    0.4300000000E+04    0.8396310016E-02    0.1680014767E-02    0.6954485495E+00    0.8022946165E-02    0.1467702080E+00
    0.4500000000E+04    0.8562021993E-02    0.1713932638E-02    0.6954744415E+00    0.8239785872E-02    0.1517445379E+00
    0.4700000000E+04    0.8716179573E-02    0.1745562181E-02    0.6954981328E+00    0.8447750471E-02    0.1566055898E+00
    0.4900000000E+04    0.8859445411E-02    0.1775032921E-02    0.6955198926E+00    0.8647252332E-02    0.1613577318E+00
    0.1000000000E+04    0.3142516505E-02    0.6239421126E-03    0.6935329695E+00    0.2650738564E-02    0.4304445813E-01
    0.3000000000E+04    0.6983592084E-02    0.1393235754E-02    0.6951962600E+00    0.6364076709E-02    0.1113295035E+00
    0.5000000000E+04    0.8927189384E-02    0.1788996959E-02    0.6955301206E+00    0.8743952026E-02    0.1636942621E+00
    0.7000000000E+04    0.9841465845E-02    0.1980623727E-02    0.6956733744E+00    0.1031695955E-01    0.2056026202E+00
    0.9000000000E+04    0.1017421281E-01    0.2055866370E-02    0.6957530185E+00    0.1137215318E-01    0.2401982236E+00
    0.1100000000E+05    0.1017114116E-01    0.2063128515E-02    0.6958037289E+00    0.1208013701E-01    0.2694278107E+00
    0.1300000000E+05    0.9973390723E-02    0.2030387418E-02    0.6958388519E+00    0.1254744038E-01    0.2945691267E+00
    0.1500000000E+05    0.9664796526E-02    0.1974382928E-02    0.6958646186E+00    0.1284362076E-01    0.3165012287E+00
    0.1700000000E+05    0.9296344715E-02    0.1905383689E-02    0.6958843293E+00    0.1301575782E-01    0.3358527359E+00
    0.1900000000E+05    0.8899508501E-02    0.1829793976E-02    0.6958998951E+00    0.1309666445E-01    0.3530878745E+00
    0.2100000000E+05    0.8493838654E-02    0.1751642662E-02    0.6959124996E+00    0.1310976766E-01    0.3685588537E+00
    0.2300000000E+05    0.8091438997E-02    0.1673464683E-02    0.6959229147E+00    0.1307213028E-01    0.3825390718E+00
    0.2500000000E+05    0.7699683515E-02    0.1596838619E-02    0.6959316655E+00    0.1299638776E-01    0.3952449244E+00
    0.2700000000E+05    0.7322906414E-02    0.1522722791E-02    0.6959391216E+00    0.1289202732E-01    0.4068505745E+00
    0.2900000000E+05    0.6963474640E-02    0.1451669760E-02    0.6959455506E+00    0.1276625498E-01    0.4174982317E+00
    0.3100000000E+05    0.6622479746E-02    0.1383965584E-02    0.6959511513E+00    0.1262459664E-01    0.4273054797E+00
    0.3300000000E+05    0.6300190085E-02    0.1319721492E-02    0.6959560741E+00    0.1247132324E-01    0.4363706127E+00
    0.3500000000E+05    0.5996349332E-02    0.1258934895E-02    0.6959604351E+00    0.1230975666E-01    0.4447765973E+00
    0.3700000000E+05    0.5710374941E-02    0.1201530320E-02    0.6959643253E+00    0.1214249338E-01    0.4525940640E+00
    0.3900000000E+05    0.5441490570E-02    0.1147387033E-02    0.6959678171E+00    0.1197157013E-01    0.4598836014E+00
    0.4100000000E+05    0.5188814470E-02    0.1096357707E-02    0.6959709688E+00    0.1179858820E-01    0.4666975400E+00
    0.4300000000E+05    0.4951418242E-02    0.1048281032E-02    0.6959738278E+00    0.1162480770E-01    0.4730813574E+00
    0.4500000000E+05    0.4728365520E-02    0.1002990189E-02    0.6959764330E+00    0.1145121968E-01    0.4790747964E+00
    0.4700000000E+05    0.4518736992E-02    0.9603184682E-03    0.6959788169E+00    0.1127860193E-01    0.4847127653E+00
    0.4900000000E+05    0.4321646103E-02    0.9201029421E-03    0.6959810065E+00    0.1110756235E-01    0.4900260689E+00
    0.1000000000E+05    0.1020408972E-01    0.2065905140E-02    0.6957809062E+00    0.1176178840E-01    0.2553922073E+00
    0.3000000000E+05    0.6790640609E-02    0.1417388849E-02    0.6959484442E+00    0.1269711927E-01    0.4225003633E+00
    0.5000000000E+05    0.4227536579E-02    0.9008669589E-03    0.6959820357E+00    0.1102278642E-01    0.4925696253E+00
    0.7000000000E+05    0.2825219745E-02    0.6114657306E-03    0.6959964535E+00    0.9477711492E-02    0.5316286375E+00
    0.9000000000E+05    0.2006811714E-02    0.4397516642E-03    0.6960044723E+00    0.8242590974E-02    0.5565192920E+00
    0.1100000000E+06    0.1494045265E-02    0.3307757907E-03    0.6960095797E+00    0.7265749795E-02    0.5737440161E+00
    0.1300000000E+06    0.1153465816E-02    0.2576282153E-03    0.6960131181E+00    0.6483678900E-02    0.5863589187E+00
    0.1500000000E+06    0.9164357247E-03    0.2062637120E-03    0.6960157145E+00    0.5847178743E-02    0.5959894770E+00
    0.1700000000E+06    0.7451372831E-03    0.1688541322E-03    0.6960177009E+00    0.5320759351E-02    0.6035790725E+00
    0.1900000000E+06    0.6174639593E-03    0.1407797723E-03    0.6960192698E+00    0.4878985567E-02    0.6097122866E+00
    0.2100000000E+06    0.5198345259E-03    0.1191793394E-03    0.6960205402E+00    0.4503423705E-02    0.6147704002E+00
    0.2300000000E+06    0.4435486453E-03    0.1022067685E-03    0.6960215900E+00    0.4180495581E-02    0.6190125614E+00
    0.2500000000E+06    0.3828312000E-03    0.8862890172E-04    0.6960224720E+00    0.3900026722E-02    0.6226209865E+00
    0.2700000000E+06    0.3337303144E-03    0.7759707260E-04    0.6960232235E+00    0.3654266120E-02    0.6257274932E+00
    0.2900000000E+06    0.2934696197E-03    0.6851195190E-04    0.6960238713E+00    0.3437217390E-02    0.6284297735E+00
    0.3100000000E+06    0.2600532803E-03    0.6094064371E-04    0.6960244356E+00    0.3244175558E-02    0.6308017514E+00
    0.3300000000E+06    0.2320172850E-03    0.5456420172E-04    0.6960249315E+00    0.3071401026E-02    0.6329003879E+00
    0.3500000000E+06    0.2082683433E-03    0.4914346528E-04    0.6960253707E+00    0.2915886364E-02    0.6347702763E+00
    0.3700000000E+06    0.1879768760E-03    0.4449626446E-04    0.6960257624E+00    0.2775186926E-02    0.6364468229E+00
    0.3900000000E+06    0.1705043291E-03    0.4048187143E-04    0.6960261139E+00    0.2647296005E-02    0.6379584944E+00
    0.4100000000E+06    0.1553527971E-03    0.3699018237E-04    0.6960264311E+00    0.2530551576E-02    0.6393284367E+00
    0.4300000000E+06    0.1421294727E-03    0.3393405496E-04    0.6960267187E+00    0.2423565746E-02    0.6405756619E+00
    0.4500000000E+06    0.1305211408E-03    0.3124379226E-04    0.6960269807E+00    0.2325170747E-02    0.6417159304E+00
    0.4700000000E+06    0.1202756055E-03    0.2886311265E-04    0.6960272203E+00    0.2234377162E-02    0.6427624174E+00
    0.4900000000E+06    0.1111879779E-03    0.2674616542E-04    0.6960274404E+00    0.2150341263E-02    0.6437262215E+00
    0.1000000000E+06    0.1722695980E-02    0.3795234917E-03    0.6960072809E+00    0.7726132864E-02    0.5658515193E+00
    0.3000000000E+06    0.2760076560E-03    0.6455920714E-04    0.6960241629E+00    0.3337948860E-02    0.6296531549E+00
    0.5000000000E+06    0.1070247101E-03    0.2577455287E-04    0.6960275438E+00    0.2110627165E-02    0.6441801167E+00
    0.7000000000E+06    0.5632477703E-04    0.1382890073E-04    0.6960289888E+00    0.1539888992E-02    0.6505953294E+00
    0.9000000000E+06    0.3465263709E-04    0.8630755049E-05    0.6960297876E+00    0.1210831531E-02    0.6542078317E+00
    0.1100000000E+07    0.2344544410E-04    0.5905920049E-05    0.6960302925E+00    0.9969988451E-03    0.6565243855E+00
    0.1300000000E+07    0.1691159329E-04    0.4299799248E-05    0.6960306391E+00    0.8469820555E-03    0.6581360417E+00
    0.1500000000E+07    0.1277383134E-04    0.3273268512E-05    0.6960308909E+00    0.7359699182E-03    0.6593219336E+00
    0.1700000000E+07    0.9989754251E-05    0.2577078907E-05    0.6960310814E+00    0.6505266901E-03    0.6602310300E+00
    0.1900000000E+07    0.8027625694E-05    0.2083007868E-05    0.6960312300E+00    0.5827466039E-03    0.6609500760E+00
    0.2100000000E+07    0.6593203495E-05    0.1719578035E-05    0.6960313488E+00    0.5276757163E-03    0.6615330054E+00
    0.2300000000E+07    0.5512983549E-05    0.1444366140E-05    0.6960314455E+00    0.4820525845E-03    0.6620151121E+00
    0.2500000000E+07    0.4679297777E-05    0.1230891884E-05    0.6960315255E+00    0.4436427367E-03    0.6624204614E+00
    0.2700000000E+07    0.4022469926E-05    0.1061927584E-05    0.6960315926E+00    0.4108641741E-03    0.6627660257E+00
    0.2900000000E+07    0.3495798505E-05    0.9258698933E-06    0.6960316494E+00    0.3825655511E-03    0.6630641180E+00
    0.3100000000E+07    0.3067033466E-05    0.8146700670E-06    0.6960316980E+00    0.3578890546E-03    0.6633238880E+00
    0.3300000000E+07    0.2713325427E-05    0.7226017809E-06    0.6960317399E+00    0.3361825190E-03    0.6635522765E+00
    0.3500000000E+07    0.2418120114E-05    0.6455002497E-06    0.6960317763E+00    0.3169413208E-03    0.6637546439E+00
    0.3700000000E+07    0.2169186784E-05    0.5802772477E-06    0.6960318080E+00    0.2997689125E-03    0.6639351960E+00
    0.3900000000E+07    0.1957331020E-05    0.5246032955E-06    0.6960318359E+00    0.2843493771E-03    0.6640972784E+00
    0.4100000000E+07    0.1775533341E-05    0.4766942313E-06    0.6960318604E+00    0.2704279387E-03    0.6642435863E+00
    0.4300000000E+07    0.1618359933E-05    0.4351647270E-06    0.6960318821E+00    0.2577968625E-03    0.6643763147E+00
    0.4500000000E+07    0.1481551537E-05    0.3989257719E-06    0.6960319013E+00    0.2462850838E-03    0.6644972697E+00
    0.4700000000E+07    0.1361731507E-05    0.3671116551E-06    0.6960319185E+00    0.2357504636E-03    0.6646079507E+00
    0.4900000000E+07    0.1256195122E-05    0.3390271256E-06    0.6960319337E+00    0.2260739268E-03    0.6647096129E+00
    0.1000000000E+07    0.2823343797E-04    0.7074007507E-05    0.6960300657E+00    0.1093645985E-02    0.6554802543E+00
    0.3000000000E+07    0.3270782705E-05    0.8675644563E-06    0.6960316747E+00    0.3698193243E-03    0.6631983163E+00
    0.5000000000E+07    0.1208082967E-05    0.3262030354E-06    0.6960319407E+00    0.2215254074E-03    0.6647573993E+00
    0.7000000000E+07    0.6346640063E-06    0.1721219582E-06    0.6960320235E+00    0.1578294447E-03    0.6654267312E+00
    0.9000000000E+07    0.3968948876E-06    0.1073235241E-06    0.6960320489E+00    0.1224586468E-03    0.6657987961E+00
    0.1100000000E+08    0.2755598814E-06    0.7395220956E-07    0.6960320503E+00    0.9997482719E-04    0.6660356188E+00
    0.1300000000E+08    0.2051484228E-06    0.5447038787E-07    0.6960320400E+00    0.8442895559E-04    0.6661995886E+00
    0.1500000000E+08    0.1605363115E-06    0.4208075976E-07    0.6960320235E+00    0.7304336047E-04    0.6663198381E+00
    0.1700000000E+08    0.1304023889E-06    0.3369506999E-07    0.6960320036E+00    0.6434761756E-04    0.6664117953E+00
    0.1900000000E+08    0.1090306859E-06    0.2774373404E-07    0.6960319817E+00    0.5749074018E-04    0.6664843941E+00
    0.2100000000E+08    0.9327943300E-07    0.2335936639E-07    0.6960319588E+00    0.5194619953E-04    0.6665431656E+00
    0.2300000000E+08    0.8130393631E-07    0.2003041586E-07    0.6960319354E+00    0.4737081175E-04    0.6665917170E+00
    0.2500000000E+08    0.7196229273E-07    0.1743906121E-07    0.6960319118E+00    0.4353135977E-04    0.6666325016E+00
    0.2700000000E+08    0.6451634155E-07    0.1537923396E-07    0.6960318882E+00    0.4026383449E-04    0.6666672455E+00
