  Pressure (Pa) 22mC5-500 (mol/kg) 23mC5-500 (mol/kg) 24mC5-500 (mol/kg) 2mC6-500 (mol/kg) 3mC6-500 (mol/kg)
    0.1000000000E+01    0.1068476083E-04    0.4134647398E-05    0.6965294275E-01    0.2917829497E-04    0.3126349708E-04
    0.3000000000E+01    0.2777239302E-04    0.1075386130E-04    0.1740989770E+00    0.7735520384E-04    0.9377223017E-04
    0.5000000000E+01    0.4134651778E-04    0.1602201053E-04    0.2486802748E+00    0.1175478808E-03    0.1562567141E-03
    0.7000000000E+01    0.5284512166E-04    0.2049435769E-04    0.3046047944E+00    0.1533102810E-03    0.2187170243E-03
    0.9000000000E+01    0.6303753455E-04    0.2446741952E-04    0.3480955666E+00    0.1864695381E-03    0.2811532112E-03
    0.1100000000E+02    0.7236783960E-04    0.2811201630E-04    0.3828848192E+00    0.2180351358E-03    0.3435653121E-03
    0.1300000000E+02    0.8110766078E-04    0.3153241169E-04    0.4113468394E+00    0.2485958987E-03    0.4059533571E-03
    0.1500000000E+02    0.8943089332E-04    0.3479520900E-04    0.4350640892E+00    0.2785100107E-03    0.4683173722E-03
    0.1700000000E+02    0.9745304554E-04    0.3794454683E-04    0.4551319026E+00    0.3080026722E-03    0.5306573802E-03
    0.1900000000E+02    0.1052532074E-03    0.4101057444E-04    0.4723325376E+00    0.3372192214E-03    0.5929734027E-03
    0.2100000000E+02    0.1128869250E-03    0.4401441257E-04    0.4872395767E+00    0.3662554031E-03    0.6552654595E-03
    0.2300000000E+02    0.1203940571E-03    0.4697117676E-04    0.5002831620E+00    0.3951752966E-03    0.7175335699E-03
    0.2500000000E+02    0.1278037357E-03    0.4989188393E-04    0.5117921978E+00    0.4240222844E-03    0.7797777524E-03
    0.2700000000E+02    0.1351375932E-03    0.5278469070E-04    0.5220224806E+00    0.4528259547E-03    0.8419980251E-03
    0.2900000000E+02    0.1424119144E-03    0.5565571838E-04    0.5311759433E+00    0.4816065484E-03    0.9041944057E-03
    0.3100000000E+02    0.1496391065E-03    0.5850961523E-04    0.5394141245E+00    0.5103778859E-03    0.9663669118E-03
    0.3300000000E+02    0.1568287208E-03    0.6134994708E-04    0.5468677884E+00    0.5391493273E-03    0.1028515560E-02
    0.3500000000E+02    0.1639881775E-03    0.6417947369E-04    0.5536439204E+00    0.5679271064E-03    0.1090640369E-02
    0.3700000000E+02    0.1711232871E-03    0.6700034741E-04    0.5598308972E+00    0.5967152518E-03    0.1152741354E-02
    0.3900000000E+02    0.1782386305E-03    0.6981425779E-04    0.5655023648E+00    0.6255162294E-03    0.1214818532E-02
    0.4100000000E+02    0.1853378414E-03    0.7262253852E-04    0.5707201844E+00    0.6543313958E-03    0.1276871920E-02
    0.4300000000E+02    0.1924238156E-03    0.7542624715E-04    0.5755366996E+00    0.6831613213E-03    0.1338901535E-02
    0.4500000000E+02    0.1994988715E-03    0.7822622535E-04    0.5799964986E+00    0.7120060213E-03    0.1400907393E-02
    0.4700000000E+02    0.2065648706E-03    0.8102314482E-04    0.5841377998E+00    0.7408651230E-03    0.1462889511E-02
    0.4900000000E+02    0.2136233117E-03    0.8381754252E-04    0.5879935498E+00    0.7697379864E-03    0.1524847905E-02
    0.1000000000E+02    0.6779054580E-04    0.2632313044E-04    0.3664060444E+00    0.2024077354E-03    0.3123622704E-03
    0.3000000000E+02    0.1460307474E-03    0.5708456362E-04    0.5354006426E+00    0.4959927027E-03    0.9352836420E-03
    0.5000000000E+02    0.2171500855E-03    0.8521393354E-04    0.5898234173E+00    0.7841793279E-03    0.1555818211E-02
    0.7000000000E+02    0.2874812872E-03    0.1130765722E-03    0.6166942038E+00    0.1073493334E-02    0.2173982805E-02
    0.9000000000E+02    0.3575924586E-03    0.1408690462E-03    0.6327103127E+00    0.1363103510E-02    0.2789793604E-02
    0.1100000000E+03    0.4275085009E-03    0.1685923256E-03    0.6433441490E+00    0.1652339641E-02    0.3403266537E-02
    0.1300000000E+03    0.4971836617E-03    0.1962248477E-03    0.6509186993E+00    0.1940805433E-02    0.4014417358E-02
    0.1500000000E+03    0.5665716416E-03    0.2237467693E-03    0.6565882419E+00    0.2228265959E-02    0.4623261659E-02
    0.1700000000E+03    0.6356358726E-03    0.2511428979E-03    0.6609912248E+00    0.2514577421E-02    0.5229814881E-02
    0.1900000000E+03    0.7043490944E-03    0.2784020884E-03    0.6645094600E+00    0.2799649168E-02    0.5834092321E-02
    0.2100000000E+03    0.7726913207E-03    0.3055162517E-03    0.6673853011E+00    0.3083422875E-02    0.6436109136E-02
    0.2300000000E+03    0.8406479844E-03    0.3324795335E-03    0.6697799886E+00    0.3365860673E-02    0.7035880338E-02
    0.2500000000E+03    0.9082085218E-03    0.3592877106E-03    0.6718049654E+00    0.3646938102E-02    0.7633420807E-02
    0.2700000000E+03    0.9753653423E-03    0.3859377612E-03    0.6735397236E+00    0.3926639762E-02    0.8228745283E-02
    0.2900000000E+03    0.1042113085E-02    0.4124275584E-03    0.6750424894E+00    0.4204956540E-02    0.8821868373E-02
    0.3100000000E+03    0.1108448081E-02    0.4387556508E-03    0.6763568888E+00    0.4481883783E-02    0.9412804554E-02
    0.3300000000E+03    0.1174367958E-02    0.4649211031E-03    0.6775162540E+00    0.4757420062E-02    0.1000156817E-01
    0.3500000000E+03    0.1239871352E-02    0.4909233786E-03    0.6785464906E+00    0.5031566322E-02    0.1058817344E-01
    0.3700000000E+03    0.1304957685E-02    0.5167622522E-03    0.6794680368E+00    0.5304325276E-02    0.1117263444E-01
    0.3900000000E+03    0.1369627005E-02    0.5424377442E-03    0.6802972332E+00    0.5575700973E-02    0.1175496514E-01
    0.4100000000E+03    0.1433879855E-02    0.5679500699E-03    0.6810473014E+00    0.5845698478E-02    0.1233517938E-01
    0.4300000000E+03    0.1497717176E-02    0.5932996010E-03    0.6817290537E+00    0.6114323639E-02    0.1291329086E-01
    0.4500000000E+03    0.1561140233E-02    0.6184868349E-03    0.6823514183E+00    0.6381582904E-02    0.1348931319E-01
    0.4700000000E+03    0.1624150549E-02    0.6435123706E-03    0.6829218324E+00    0.6647483190E-02    0.1406325983E-01
    0.4900000000E+03    0.1686749861E-02    0.6683768901E-03    0.6834465410E+00    0.6912031774E-02    0.1463514413E-01
    0.1000000000E+03    0.3925774279E-03    0.1547406307E-03    0.6385148725E+00    0.1507798015E-02    0.3096821315E-02
    0.3000000000E+03    0.1075332351E-02    0.4256118867E-03    0.6757209494E+00    0.4343594007E-02    0.9117608928E-02
    0.5000000000E+03    0.1717895981E-02    0.6807490006E-03    0.6836934391E+00    0.7043801532E-02    0.1492031704E-01
    0.7000000000E+03    0.2319772342E-02    0.9199461353E-03    0.6871693486E+00    0.9610172809E-02    0.2051867629E-01
    0.9000000000E+03    0.2883263259E-02    0.1144103743E-02    0.6891162660E+00    0.1205069112E-01    0.2592525452E-01
    0.1100000000E+04    0.3410938357E-02    0.1354224799E-02    0.6903612608E+00    0.1437341132E-01    0.3115157846E-01
    0.1300000000E+04    0.3905278948E-02    0.1551276920E-02    0.6912259982E+00    0.1658589153E-01    0.3620823991E-01
    0.1500000000E+04    0.4368603463E-02    0.1736163884E-02    0.6918616365E+00    0.1869512285E-01    0.4110498928E-01
    0.1700000000E+04    0.4803055650E-02    0.1909721303E-02    0.6923485864E+00    0.2070754983E-01    0.4585081798E-01
    0.1900000000E+04    0.5210610631E-02    0.2072719094E-02    0.6927335669E+00    0.2262911087E-01    0.5045403143E-01
    0.2100000000E+04    0.5593086327E-02    0.2225865994E-02    0.6930455787E+00    0.2446528174E-01    0.5492231363E-01
    0.2300000000E+04    0.5952156156E-02    0.2369814521E-02    0.6933035766E+00    0.2622111700E-01    0.5926278476E-01
    0.2500000000E+04    0.6289361502E-02    0.2505165837E-02    0.6935204729E+00    0.2790128827E-01    0.6348205228E-01
    0.2700000000E+04    0.6606123395E-02    0.2632474300E-02    0.6937053675E+00    0.2951011883E-01    0.6758625675E-01
    0.2900000000E+04    0.6903753251E-02    0.2752251640E-02    0.6938648585E+00    0.3105161483E-01    0.7158111266E-01
    0.3100000000E+04    0.7183462626E-02    0.2864970748E-02    0.6940038465E+00    0.3252949337E-01    0.7547194515E-01
    0.3300000000E+04    0.7446372057E-02    0.2971069117E-02    0.6941260476E+00    0.3394720777E-01    0.7926372292E-01
    0.3500000000E+04    0.7693519033E-02    0.3070951937E-02    0.6942343309E+00    0.3530797021E-01    0.8296108792E-01
    0.3700000000E+04    0.7925865202E-02    0.3164994892E-02    0.6943309470E+00    0.3661477224E-01    0.8656838203E-01
    0.3900000000E+04    0.8144302860E-02    0.3253546686E-02    0.6944176858E+00    0.3787040314E-01    0.9008967120E-01
    0.4100000000E+04    0.8349660818E-02    0.3336931318E-02    0.6944959889E+00    0.3907746663E-01    0.9352876735E-01
    0.4300000000E+04    0.8542709706E-02    0.3415450144E-02    0.6945670305E+00    0.4023839583E-01    0.9688924810E-01
    0.4500000000E+04    0.8724166765E-02    0.3489383737E-02    0.6946317762E+00    0.4135546690E-01    0.1001744748E+00
    0.4700000000E+04    0.8894700192E-02    0.3558993576E-02    0.6946910278E+00    0.4243081143E-01    0.1033876086E+00
    0.4900000000E+04    0.9054933071E-02    0.3624523574E-02    0.6947454566E+00    0.4346642755E-01    0.1065316260E+00
    0.1000000000E+04    0.3151419255E-02    0.1250857007E-02    0.6898004234E+00    0.1322629037E-01    0.2856026553E-01
    0.3000000000E+04    0.7045775929E-02    0.2809465337E-02    0.6939366599E+00    0.3179828455E-01    0.7353921329E-01
    0.5000000000E+04    0.9131370073E-02    0.3655830397E-02    0.6947710428E+00    0.4396992794E-01    0.1080785987E+00
    0.7000000000E+04    0.1024160323E-01    0.4115695994E-02    0.6951295921E+00    0.5235311159E-01    0.1359917148E+00
    0.9000000000E+04    0.1079215178E-01    0.4352126611E-02    0.6953291019E+00    0.5832255004E-01    0.1593752714E+00
    0.1100000000E+05    0.1100770114E-01    0.4453643512E-02    0.6954562086E+00    0.6266781257E-01    0.1794860126E+00
    0.1300000000E+05    0.1101726628E-01    0.4471325746E-02    0.6955442866E+00    0.6587353475E-01    0.1971284325E+00
    0.1500000000E+05    0.1089841362E-01    0.4436053548E-02    0.6956089275E+00    0.6825308474E-01    0.2128449511E+00
    0.1700000000E+05    0.1069945638E-01    0.4367181512E-02    0.6956583925E+00    0.7001774687E-01    0.2270169765E+00
    0.1900000000E+05    0.1045131591E-01    0.4277184837E-02    0.6956974677E+00    0.7131494579E-01    0.2399221627E+00
    0.2100000000E+05    0.1017419187E-01    0.4174279276E-02    0.6957291179E+00    0.7225052528E-01    0.2517685994E+00
    0.2300000000E+05    0.9881474783E-02    0.4063962505E-02    0.6957552772E+00    0.7290232597E-01    0.2627161425E+00
    0.2500000000E+05    0.9582123480E-02    0.3949953782E-02    0.6957772617E+00    0.7332877924E-01    0.2728902278E+00
    0.2700000000E+05    0.9282153475E-02    0.3834784333E-02    0.6957959978E+00    0.7357452610E-01    0.2823911093E+00
    0.2900000000E+05    0.8985592895E-02    0.3720177978E-02    0.6958121566E+00    0.7367419589E-01    0.2913002104E+00
    0.3100000000E+05    0.8695109951E-02    0.3607302031E-02    0.6958262362E+00    0.7365501100E-01    0.2996846011E+00
    0.3300000000E+05    0.8412432641E-02    0.3496935875E-02    0.6958386140E+00    0.7353862173E-01    0.3076002217E+00
    0.3500000000E+05    0.8138634050E-02    0.3389586132E-02    0.6958495814E+00    0.7334242416E-01    0.3150942501E+00
    0.3700000000E+05    0.7874329004E-02    0.3285566462E-02    0.6958593667E+00    0.7308052315E-01    0.3222068703E+00
    0.3900000000E+05    0.7619811229E-02    0.3185053562E-02    0.6958681514E+00    0.7276444700E-01    0.3289726151E+00
    0.4100000000E+05    0.7375149969E-02    0.3088126859E-02    0.6958760818E+00    0.7240368538E-01    0.3354213993E+00
    0.4300000000E+05    0.7140258605E-02    0.2994796911E-02    0.6958832769E+00    0.7200609931E-01    0.3415793257E+00
    0.4500000000E+05    0.6914943704E-02    0.2905025870E-02    0.6958898345E+00    0.7157823730E-01    0.3474693210E+00
    0.4700000000E+05    0.6698940238E-02    0.2818742312E-02    0.6958958359E+00    0.7112558176E-01    0.3531116428E+00
    0.4900000000E+05    0.6491936960E-02    0.2735852028E-02    0.6959013490E+00    0.7065274277E-01    0.3585242892E+00
    0.1000000000E+05    0.1093216453E-01    0.4415939944E-02    0.6953989948E+00    0.6066277070E-01    0.1697816917E+00
    0.3000000000E+05    0.8839465548E-02    0.3663467457E-02    0.6958194303E+00    0.7367799404E-01    0.2955542686E+00
    0.5000000000E+05    0.6391705098E-02    0.2695645677E-02    0.6959039408E+00    0.7040999515E-01    0.3611495734E+00
    0.7000000000E+05    0.4774471010E-02    0.2040547364E-02    0.6959402718E+00    0.6517384110E-01    0.4047328125E+00
    0.9000000000E+05    0.3692203156E-02    0.1595089517E-02    0.6959605053E+00    0.6003468616E-01    0.4365852631E+00
    0.1100000000E+06    0.2938535845E-02    0.1281054776E-02    0.6959734081E+00    0.5540188611E-01    0.4611516029E+00
    0.1300000000E+06    0.2393924888E-02    0.1051839030E-02    0.6959823571E+00    0.5131806568E-01    0.4807878302E+00
    0.1500000000E+06    0.1987880887E-02    0.8794795092E-03    0.6959889306E+00    0.4773413324E-01    0.4968961232E+00
    0.1700000000E+06    0.1677129012E-02    0.7465866941E-03    0.6959939650E+00    0.4458285496E-01    0.5103766595E+00
    0.1900000000E+06    0.1434017254E-02    0.6419333486E-03    0.6959979450E+00    0.4179999436E-01    0.5218394264E+00
    0.2100000000E+06    0.1240234135E-02    0.5580197043E-03    0.6960011711E+00    0.3932976443E-01    0.5317150079E+00
    0.2300000000E+06    0.1083270533E-02    0.4896837196E-03    0.6960038393E+00    0.3712533487E-01    0.5403172954E+00
    0.2500000000E+06    0.9543470972E-03    0.4332783098E-03    0.6960060832E+00    0.3514786093E-01    0.5478811805E+00
    0.2700000000E+06    0.8471552766E-03    0.3861671265E-03    0.6960079966E+00    0.3336520130E-01    0.5545863079E+00
    0.2900000000E+06    0.7570672856E-03    0.3464057247E-03    0.6960096478E+00    0.3175070871E-01    0.5605726302E+00
    0.3100000000E+06    0.6806257584E-03    0.3125342211E-03    0.6960110873E+00    0.3028219934E-01    0.5659509246E+00
    0.3300000000E+06    0.6152054768E-03    0.2834390352E-03    0.6960123534E+00    0.2894110985E-01    0.5708100985E+00
    0.3500000000E+06    0.5587839379E-03    0.2582586054E-03    0.6960134758E+00    0.2771181964E-01    0.5752223830E+00
    0.3700000000E+06    0.5097825020E-03    0.2363177850E-03    0.6960144776E+00    0.2658110961E-01    0.5792471004E+00
    0.3900000000E+06    0.4669543492E-03    0.2170813577E-03    0.6960153774E+00    0.2553773016E-01    0.5829334466E+00
    0.4100000000E+06    0.4293041148E-03    0.2001205542E-03    0.6960161901E+00    0.2457205559E-01    0.5863225779E+00
    0.4300000000E+06    0.3960293616E-03    0.1850885702E-03    0.6960169276E+00    0.2367580674E-01    0.5894491995E+00
    0.4500000000E+06    0.3664773595E-03    0.1717024206E-03    0.6960176001E+00    0.2284182712E-01    0.5923427886E+00
    0.4700000000E+06    0.3401127593E-03    0.1597293195E-03    0.6960182157E+00    0.2206390142E-01    0.5950285484E+00
    0.4900000000E+06    0.3164931312E-03    0.1489763404E-03    0.6960187814E+00    0.2133660750E-01    0.5975281590E+00
    0.1000000000E+06    0.3283272733E-02    0.1425123312E-02    0.6959675987E+00    0.5764861777E-01    0.4496015117E+00
    0.3000000000E+06    0.7173211866E-03    0.3288101764E-03    0.6960103913E+00    0.3099944251E-01    0.5633317807E+00
    0.5000000000E+06    0.3055951327E-03    0.1440060148E-03    0.6960190474E+00    0.2099043962E-01    0.5987141198E+00
    0.7000000000E+06    0.1683210524E-03    0.8080270712E-04    0.6960227804E+00    0.1583436996E-01    0.6161097755E+00
    0.9000000000E+06    0.1063794450E-03    0.5178066244E-04    0.6960248625E+00    0.1269919557E-01    0.6264631976E+00
    0.1100000000E+07    0.7326712274E-04    0.3605732994E-04    0.6960261908E+00    0.1059391056E-01    0.6333310347E+00
    0.1300000000E+07    0.5352304429E-04    0.2657972304E-04    0.6960271117E+00    0.9083620536E-02    0.6382193081E+00
    0.1500000000E+07    0.4081404426E-04    0.2042331661E-04    0.6960277873E+00    0.7947805301E-02    0.6418755995E+00
    0.1700000000E+07    0.3215648234E-04    0.1619646335E-04    0.6960283037E+00    0.7062821398E-02    0.6447131837E+00
    0.1900000000E+07    0.2599539964E-04    0.1316769513E-04    0.6960287111E+00    0.6354005040E-02    0.6469791188E+00
    0.2100000000E+07    0.2145591264E-04    0.1092240122E-04    0.6960290404E+00    0.5773620390E-02    0.6488301731E+00
    0.2300000000E+07    0.1801522911E-04    0.9211199609E-05    0.6960293118E+00    0.5289731777E-02    0.6503706145E+00
    0.2500000000E+07    0.1534538032E-04    0.7876720281E-05    0.6960295392E+00    0.4880170310E-02    0.6516724870E+00
    0.2700000000E+07    0.1323218933E-04    0.6815644719E-05    0.6960297324E+00    0.4529067755E-02    0.6527871642E+00
    0.2900000000E+07    0.1153099261E-04    0.5957846276E-05    0.6960298983E+00    0.4224768049E-02    0.6537522642E+00
    0.3100000000E+07    0.1014122989E-04    0.5254358098E-05    0.6960300423E+00    0.3958517530E-02    0.6545959641E+00
    0.3300000000E+07    0.8991243941E-05    0.4670141741E-05    0.6960301682E+00    0.3723615069E-02    0.6553397857E+00
    0.3500000000E+07    0.8028857927E-05    0.4179584944E-05    0.6960302793E+00    0.3514844179E-02    0.6560004505E+00
    0.3700000000E+07    0.7215350589E-05    0.3763611293E-05    0.6960303779E+00    0.3328083698E-02    0.6565911467E+00
    0.3900000000E+07    0.6521498025E-05    0.3407774149E-05    0.6960304659E+00    0.3160034830E-02    0.6571224157E+00
    0.4100000000E+07    0.5924909986E-05    0.3100969393E-05    0.6960305449E+00    0.3008025899E-02    0.6576027839E+00
    0.4300000000E+07    0.5408198583E-05    0.2834547503E-05    0.6960306161E+00    0.2869870181E-02    0.6580392220E+00
    0.4500000000E+07    0.4957694890E-05    0.2601689311E-05    0.6960306805E+00    0.2743760724E-02    0.6584374843E+00
    0.4700000000E+07    0.4562533835E-05    0.2396959577E-05    0.6960307391E+00    0.2628191385E-02    0.6588023628E+00
    0.4900000000E+07    0.4213991384E-05    0.2215982713E-05    0.6960307926E+00    0.2521896778E-02    0.6591378804E+00
    0.1000000000E+07    0.8751966861E-04    0.4284779380E-04    0.6960255928E+00    0.1155225447E-01    0.6302127419E+00
    0.3000000000E+07    0.1080220665E-04    0.5589267087E-05    0.6960299727E+00    0.4087345845E-02    0.6541878133E+00
    0.5000000000E+07    0.4054938744E-05    0.2133263870E-05    0.6960308175E+00    0.2471886300E-02    0.6592957127E+00
    0.7000000000E+07    0.2150450250E-05    0.1134897473E-05    0.6960311540E+00    0.1768448199E-02    0.6615143195E+00
    0.9000000000E+07    0.1354650830E-05    0.7119445076E-06    0.6960313224E+00    0.1375300082E-02    0.6627535074E+00
    0.1100000000E+08    0.9464893217E-06    0.4931007850E-06    0.6960314155E+00    0.1124445789E-02    0.6635441512E+00
    0.1300000000E+08    0.7087180766E-06    0.3649016039E-06    0.6960314689E+00    0.9505666922E-03    0.6640922826E+00
    0.1500000000E+08    0.5575860116E-06    0.2831459908E-06    0.6960314991E+00    0.8229948338E-03    0.6644945497E+00
    0.1700000000E+08    0.4552139605E-06    0.2276797387E-06    0.6960315148E+00    0.7254333371E-03    0.6648022871E+00
    0.1900000000E+08    0.3824222069E-06    0.1882316594E-06    0.6960315210E+00    0.6484242210E-03    0.6650452809E+00
    0.2100000000E+08    0.3286440750E-06    0.1591132752E-06    0.6960315206E+00    0.5861030361E-03    0.6652419983E+00
    0.2300000000E+08    0.2876630605E-06    0.1369636292E-06    0.6960315155E+00    0.5346409418E-03    0.6654044964E+00
    0.2500000000E+08    0.2556243635E-06    0.1196913275E-06    0.6960315072E+00    0.4914323995E-03    0.6655409807E+00
    0.2700000000E+08    0.2300322579E-06    0.1059384847E-06    0.6960314964E+00    0.4546429866E-03    0.6656572286E+00
