  Pressure (Pa) 22mC5-500 (mol/kg) 23mC5-500 (mol/kg) 24mC5-500 (mol/kg) 2mC6-500 (mol/kg) 3mC6-500 (mol/kg)
    0.1000000000E+01    0.1068474651E-04    0.6201963847E-05    0.6965151781E-01    0.4668535046E-04    0.5210668772E-05
    0.3000000000E+01    0.2777282227E-04    0.1613104973E-04    0.1740906012E+00    0.1237712242E-03    0.1562947809E-04
    0.5000000000E+01    0.4134857570E-04    0.2403423213E-04    0.2486641432E+00    0.1880879580E-03    0.2604493230E-04
    0.7000000000E+01    0.5285017741E-04    0.3074451053E-04    0.3045818747E+00    0.2453224756E-03    0.3645704323E-04
    0.9000000000E+01    0.6304697035E-04    0.3670666695E-04    0.3480671372E+00    0.2983981609E-03    0.4686581854E-04
    0.1100000000E+02    0.7238301009E-04    0.4217691554E-04    0.3828520597E+00    0.3489300378E-03    0.5727126369E-04
    0.1300000000E+02    0.8112988802E-04    0.4731163277E-04    0.4113107364E+00    0.3978600786E-03    0.6767338297E-04
    0.1500000000E+02    0.8946147099E-04    0.5221070709E-04    0.4350254380E+00    0.4457612612E-03    0.7807217994E-04
    0.1700000000E+02    0.9749324462E-04    0.5694033328E-04    0.4550913350E+00    0.4929938186E-03    0.8846765769E-04
    0.1900000000E+02    0.1053042812E-03    0.6154572503E-04    0.4722905528E+00    0.5397902269E-03    0.9885981903E-04
    0.2100000000E+02    0.1129501133E-03    0.6605855562E-04    0.4871965690E+00    0.5863036305E-03    0.1092486666E-03
    0.2300000000E+02    0.1204705890E-03    0.7050149229E-04    0.5002394430E+00    0.6326365207E-03    0.1196342027E-03
    0.2500000000E+02    0.1278948323E-03    0.7489105568E-04    0.5117480144E+00    0.6788582829E-03    0.1300164299E-03
    0.2700000000E+02    0.1352444686E-03    0.7923947695E-04    0.5219780286E+00    0.7250162374E-03    0.1403953504E-03
    0.2900000000E+02    0.1425357780E-03    0.8355593507E-04    0.5311313783E+00    0.7711427537E-03    0.1507709663E-03
    0.3100000000E+02    0.1497811629E-03    0.8784739993E-04    0.5393695702E+00    0.8172599311E-03    0.1611432799E-03
    0.3300000000E+02    0.1569901711E-03    0.9211921818E-04    0.5468233433E+00    0.8633827346E-03    0.1715122932E-03
    0.3500000000E+02    0.1641702198E-03    0.9637552774E-04    0.5535996627E+00    0.9095211292E-03    0.1818780085E-03
    0.3700000000E+02    0.1713271166E-03    0.1006195555E-03    0.5597868890E+00    0.9556815523E-03    0.1922404277E-03
    0.3900000000E+02    0.1784654403E-03    0.1048538346E-03    0.5654586550E+00    0.1001867942E-02    0.2025995530E-03
    0.4100000000E+02    0.1855888221E-03    0.1090803641E-03    0.5706768113E+00    0.1048082461E-02    0.2129553864E-03
    0.4300000000E+02    0.1927001562E-03    0.1133007293E-03    0.5754936930E+00    0.1094326017E-02    0.2233079299E-03
    0.4500000000E+02    0.1998017588E-03    0.1175161917E-03    0.5799538814E+00    0.1140598627E-02    0.2336571855E-03
    0.4700000000E+02    0.2068954898E-03    0.1217277578E-03    0.5840955892E+00    0.1186899690E-02    0.2440031553E-03
    0.4900000000E+02    0.2139828465E-03    0.1259362320E-03    0.5879517583E+00    0.1233228174E-02    0.2543458413E-03
    0.1000000000E+02    0.6780268170E-04    0.3949181255E-04    0.3663753140E+00    0.3239119909E-03    0.5206895710E-04
    0.3000000000E+02    0.1461635570E-03    0.8570442498E-04    0.5353560691E+00    0.7942014361E-03    0.1559575357E-03
    0.5000000000E+02    0.2175245213E-03    0.1280395162E-03    0.5897818388E+00    0.1256402297E-02    0.2595159535E-03
    0.7000000000E+02    0.2882155113E-03    0.1700434828E-03    0.6166569305E+00    0.1720946518E-02    0.3627462824E-03
    0.9000000000E+02    0.3588031564E-03    0.2120103218E-03    0.6326768411E+00    0.2186498438E-02    0.4656504949E-03
    0.1100000000E+03    0.4293109741E-03    0.2539406857E-03    0.6433138301E+00    0.2651979977E-02    0.5682305310E-03
    0.1300000000E+03    0.4996918354E-03    0.2958014315E-03    0.6508909834E+00    0.3116751269E-02    0.6704883092E-03
    0.1500000000E+03    0.5698980693E-03    0.3375619979E-03    0.6565626946E+00    0.3580430644E-02    0.7724257302E-03
    0.1700000000E+03    0.6398917454E-03    0.3791988048E-03    0.6609675061E+00    0.4042782271E-02    0.8740446778E-03
    0.1900000000E+03    0.7096442530E-03    0.4206943503E-03    0.6644873021E+00    0.4503655410E-02    0.9753470199E-03
    0.2100000000E+03    0.7791342687E-03    0.4620357244E-03    0.6673644903E+00    0.4962951094E-02    0.1076334609E-02
    0.2300000000E+03    0.8483459028E-03    0.5032133774E-03    0.6697603523E+00    0.5420603153E-02    0.1177009282E-02
    0.2500000000E+03    0.9172672843E-03    0.5442202153E-03    0.6717863624E+00    0.5876566932E-02    0.1277372861E-02
    0.2700000000E+03    0.9858895302E-03    0.5850509546E-03    0.6735220371E+00    0.6330812338E-02    0.1377427153E-02
    0.2900000000E+03    0.1054206002E-02    0.6257016633E-03    0.6750256214E+00    0.6783319399E-02    0.1477173950E-02
    0.3100000000E+03    0.1122211770E-02    0.6661694313E-03    0.6763407568E+00    0.7234075342E-02    0.1576615032E-02
    0.3300000000E+03    0.1189903213E-02    0.7064521314E-03    0.6775007874E+00    0.7683072619E-02    0.1675752160E-02
    0.3500000000E+03    0.1257277736E-02    0.7465482430E-03    0.6785316289E+00    0.8130307540E-02    0.1774587086E-02
    0.3700000000E+03    0.1324333544E-02    0.7864567214E-03    0.6794537273E+00    0.8575779304E-02    0.1873121545E-02
    0.3900000000E+03    0.1391069482E-02    0.8261768987E-03    0.6802834304E+00    0.9019489311E-02    0.1971357259E-02
    0.4100000000E+03    0.1457484905E-02    0.8657084078E-03    0.6810339650E+00    0.9461440646E-02    0.2069295935E-02
    0.4300000000E+03    0.1523579581E-02    0.9050511243E-03    0.6817161483E+00    0.9901637704E-02    0.2166939268E-02
    0.4500000000E+03    0.1589353613E-02    0.9442051207E-03    0.6823389124E+00    0.1034008590E-01    0.2264288939E-02
    0.4700000000E+03    0.1654807380E-02    0.9831706300E-03    0.6829096980E+00    0.1077679146E-01    0.2361346617E-02
    0.4900000000E+03    0.1719941487E-02    0.1021948018E-02    0.6834347532E+00    0.1121176124E-01    0.2458113955E-02
    0.1000000000E+03    0.3940696869E-03    0.2329820563E-03    0.6384830536E+00    0.2419295860E-02    0.5169809146E-03
    0.3000000000E+03    0.1088247977E-02    0.6459585639E-03    0.6757044589E+00    0.7008916836E-02    0.1526932595E-02
    0.5000000000E+03    0.1752388909E-02    0.1041266311E-02    0.6836818159E+00    0.1142859750E-01    0.2506389260E-02
    0.7000000000E+03    0.2384820660E-02    0.1417913574E-02    0.6871601670E+00    0.1567617250E-01    0.3457047168E-02
    0.9000000000E+03    0.2986802378E-02    0.1776645315E-02    0.6891085749E+00    0.1975999855E-01    0.4380474011E-02
    0.1100000000E+04    0.3559977976E-02    0.2118428136E-02    0.6903545842E+00    0.2368903146E-01    0.5278121115E-02
    0.1300000000E+04    0.4106005640E-02    0.2444235098E-02    0.6912200621E+00    0.2747185737E-01    0.6151334207E-02
    0.1500000000E+04    0.4626470815E-02    0.2754995799E-02    0.6918562675E+00    0.3111652898E-01    0.7001362987E-02
    0.1700000000E+04    0.5122863631E-02    0.3051583620E-02    0.6923436674E+00    0.3463055382E-01    0.7829369669E-02
    0.1900000000E+04    0.5596575610E-02    0.3334814027E-02    0.6927290149E+00    0.3802092043E-01    0.8636436625E-02
    0.2100000000E+04    0.6048902973E-02    0.3605446614E-02    0.6930413326E+00    0.4129413440E-01    0.9423573225E-02
    0.2300000000E+04    0.6481052257E-02    0.3864188455E-02    0.6932995898E+00    0.4445625557E-01    0.1019172199E-01
    0.2500000000E+04    0.6894146595E-02    0.4111697807E-02    0.6935167092E+00    0.4751293364E-01    0.1094176412E-01
    0.2700000000E+04    0.7289231989E-02    0.4348587794E-02    0.6937017981E+00    0.5046944127E-01    0.1167452450E-01
    0.2900000000E+04    0.7667283293E-02    0.4575429921E-02    0.6938614600E+00    0.5333070442E-01    0.1239077617E-01
    0.3100000000E+04    0.8029209807E-02    0.4792757345E-02    0.6940005997E+00    0.5610133008E-01    0.1309124445E-01
    0.3300000000E+04    0.8375860425E-02    0.5001067893E-02    0.6941229366E+00    0.5878563142E-01    0.1377661057E-01
    0.3500000000E+04    0.8708028380E-02    0.5200826831E-02    0.6942313423E+00    0.6138765082E-01    0.1444751511E-01
    0.3700000000E+04    0.9026455572E-02    0.5392469396E-02    0.6943280692E+00    0.6391118064E-01    0.1510456095E-01
    0.3900000000E+04    0.9331836523E-02    0.5576403115E-02    0.6944149090E+00    0.6635978226E-01    0.1574831614E-01
    0.4100000000E+04    0.9624821999E-02    0.5753009909E-02    0.6944933046E+00    0.6873680340E-01    0.1637931637E-01
    0.4300000000E+04    0.9906022304E-02    0.5922648031E-02    0.6945644312E+00    0.7104539387E-01    0.1699806731E-01
    0.4500000000E+04    0.1017601030E-01    0.6085653821E-02    0.6946292554E+00    0.7328852001E-01    0.1760504672E-01
    0.4700000000E+04    0.1043532417E-01    0.6242343322E-02    0.6946885798E+00    0.7546897783E-01    0.1820070637E-01
    0.4900000000E+04    0.1068446991E-01    0.6393013751E-02    0.6947430763E+00    0.7758940515E-01    0.1878547388E-01
    0.1000000000E+04    0.3276886107E-02    0.1949593794E-02    0.6897932830E+00    0.2174331567E-01    0.4832433565E-02
    0.3000000000E+04    0.7850207735E-02    0.4685251063E-02    0.6939333395E+00    0.5472707076E-01    0.1274293967E-01
    0.5000000000E+04    0.1080537965E-01    0.6466179881E-02    0.6947686946E+00    0.7862789114E-01    0.1907390048E-01
    0.7000000000E+04    0.1279160230E-01    0.7673369066E-02    0.6951277160E+00    0.9678280033E-01    0.2435849948E-01
    0.9000000000E+04    0.1416133607E-01    0.8514104211E-02    0.6953275127E+00    0.1110655762E+00    0.2890599079E-01
    0.1100000000E+05    0.1512030858E-01    0.9109664072E-02    0.6954548156E+00    0.1226102375E+00    0.3290945752E-01
    0.1300000000E+05    0.1579561463E-01    0.9535162375E-02    0.6955430377E+00    0.1321440405E+00    0.3649647554E-01
    0.1500000000E+05    0.1626938696E-01    0.9839269637E-02    0.6956077898E+00    0.1401553506E+00    0.3975521305E-01
    0.1700000000E+05    0.1659667519E-01    0.1005469872E-01    0.6956573440E+00    0.1469846307E+00    0.4274887187E-01
    0.1900000000E+05    0.1681550487E-01    0.1020411230E-01    0.6956964926E+00    0.1528767278E+00    0.4552415146E-01
    0.2100000000E+05    0.1695281353E-01    0.1030361401E-01    0.6957282044E+00    0.1580124024E+00    0.4811645036E-01
    0.2300000000E+05    0.1702809667E-01    0.1036489596E-01    0.6957544165E+00    0.1625281260E+00    0.5055319250E-01
    0.2500000000E+05    0.1705572471E-01    0.1039660557E-01    0.6957764467E+00    0.1665289478E+00    0.5285602758E-01
    0.2700000000E+05    0.1704645916E-01    0.1040524145E-01    0.6957952230E+00    0.1700971079E+00    0.5504232972E-01
    0.2900000000E+05    0.1700847039E-01    0.1039575577E-01    0.6958114174E+00    0.1732979557E+00    0.5712624455E-01
    0.3100000000E+05    0.1694803624E-01    0.1037196849E-01    0.6958255289E+00    0.1761841090E+00    0.5911943729E-01
    0.3300000000E+05    0.1687003125E-01    0.1033685793E-01    0.6958379356E+00    0.1787984368E+00    0.6103163790E-01
    0.3500000000E+05    0.1677827526E-01    0.1029276817E-01    0.6958489290E+00    0.1811762374E+00    0.6287104548E-01
    0.3700000000E+05    0.1667578579E-01    0.1024155955E-01    0.6958587382E+00    0.1833468547E+00    0.6464463302E-01
    0.3900000000E+05    0.1656496339E-01    0.1018471935E-01    0.6958675448E+00    0.1853348952E+00    0.6635838040E-01
    0.4100000000E+05    0.1644772946E-01    0.1012344434E-01    0.6958754953E+00    0.1871611564E+00    0.6801745486E-01
    0.4300000000E+05    0.1632563008E-01    0.1005870294E-01    0.6958827091E+00    0.1888433443E+00    0.6962635245E-01
    0.4500000000E+05    0.1619991486E-01    0.9991282710E-02    0.6958892840E+00    0.1903966331E+00    0.7118901004E-01
    0.4700000000E+05    0.1607159758E-01    0.9921826845E-02    0.6958953016E+00    0.1918341074E+00    0.7270889511E-01
    0.4900000000E+05    0.1594150319E-01    0.9850862524E-02    0.6959008298E+00    0.1931671136E+00    0.7418907807E-01
    0.1000000000E+05    0.1468288153E-01    0.8837047454E-02    0.6953975120E+00    0.1171276638E+00    0.3096660143E-01
    0.3000000000E+05    0.1698072608E-01    0.1038544672E-01    0.6958187076E+00    0.1747774901E+00    0.5813353301E-01
    0.5000000000E+05    0.1587600493E-01    0.9814953283E-02    0.6959034288E+00    0.1937975824E+00    0.7491514696E-01
    0.7000000000E+05    0.1458226440E-01    0.9089351233E-02    0.6959398690E+00    0.2027658632E+00    0.8788184487E-01
    0.9000000000E+05    0.1342402878E-01    0.8423286117E-02    0.6959601724E+00    0.2075589056E+00    0.9876344205E-01
    0.1100000000E+06    0.1242608218E-01    0.7841052849E-02    0.6959731252E+00    0.2102101953E+00    0.1082902824E+00
    0.1300000000E+06    0.1156762759E-01    0.7335044355E-02    0.6959821126E+00    0.2116211380E+00    0.1168472924E+00
    0.1500000000E+06    0.1082393563E-01    0.6893150622E-02    0.6959887169E+00    0.2122552656E+00    0.1246657276E+00
    0.1700000000E+06    0.1017387348E-01    0.6504318098E-02    0.6959937768E+00    0.2123758991E+00    0.1318970983E+00
    0.1900000000E+06    0.9600596931E-02    0.6159458320E-02    0.6959977785E+00    0.2121437140E+00    0.1386469777E+00
    0.2100000000E+06    0.9090881311E-02    0.5851299015E-02    0.6960010234E+00    0.2116621731E+00    0.1449923973E+00
    0.2300000000E+06    0.8634322533E-02    0.5574042455E-02    0.6960037082E+00    0.2110007471E+00    0.1509916070E+00
    0.2500000000E+06    0.8222668785E-02    0.5323043657E-02    0.6960059669E+00    0.2102076670E+00    0.1566899285E+00
    0.2700000000E+06    0.7849308455E-02    0.5094550688E-02    0.6960078937E+00    0.2093173399E+00    0.1621234551E+00
    0.2900000000E+06    0.7508887841E-02    0.4885504901E-02    0.6960095570E+00    0.2083548671E+00    0.1673214931E+00
    0.3100000000E+06    0.7197026993E-02    0.4693389474E-02    0.6960110076E+00    0.2073389067E+00    0.1723082306E+00
    0.3300000000E+06    0.6910107600E-02    0.4516114702E-02    0.6960122841E+00    0.2062835464E+00    0.1771039129E+00
    0.3500000000E+06    0.6645113325E-02    0.4351930687E-02    0.6960134160E+00    0.2051995651E+00    0.1817256923E+00
    0.3700000000E+06    0.6399508458E-02    0.4199360384E-02    0.6960144268E+00    0.2040953026E+00    0.1861882549E+00
    0.3900000000E+06    0.6171144743E-02    0.4057147805E-02    0.6960153350E+00    0.2029772722E+00    0.1905042939E+00
    0.4100000000E+06    0.5958189108E-02    0.3924217586E-02    0.6960161555E+00    0.2018506010E+00    0.1946848712E+00
    0.4300000000E+06    0.5759067048E-02    0.3799643141E-02    0.6960169005E+00    0.2007193508E+00    0.1987396985E+00
    0.4500000000E+06    0.5572417869E-02    0.3682621355E-02    0.6960175800E+00    0.1995867561E+00    0.2026773598E+00
    0.4700000000E+06    0.5397058976E-02    0.3572452314E-02    0.6960182024E+00    0.1984554024E+00    0.2065054879E+00
    0.4900000000E+06    0.5231957154E-02    0.3468522928E-02    0.6960187745E+00    0.1973273618E+00    0.2102309070E+00
    0.1000000000E+06    0.1290603639E-01    0.8121927682E-02    0.6959672927E+00    0.2090811603E+00    0.1036672087E+00
    0.3000000000E+06    0.7349629353E-02    0.4787470372E-02    0.6960103063E+00    0.2078526023E+00    0.1698399279E+00
    0.5000000000E+06    0.5152964788E-02    0.3418726925E-02    0.6960190436E+00    0.1967651174E+00    0.2120570413E+00
    0.7000000000E+06    0.3940427605E-02    0.2648128708E-02    0.6960228273E+00    0.1859555523E+00    0.2443992411E+00
    0.9000000000E+06    0.3163628365E-02    0.2147520105E-02    0.6960249470E+00    0.1761820737E+00    0.2708807460E+00
    0.1100000000E+07    0.2621846499E-02    0.1794536286E-02    0.6960263056E+00    0.1674240161E+00    0.2933540493E+00
    0.1300000000E+07    0.2222449492E-02    0.1531961306E-02    0.6960272520E+00    0.1595540680E+00    0.3128652118E+00
    0.1500000000E+07    0.1916238464E-02    0.1329090408E-02    0.6960279499E+00    0.1524447610E+00    0.3300772653E+00
    0.1700000000E+07    0.1674476120E-02    0.1167832761E-02    0.6960284863E+00    0.1459868667E+00    0.3454433507E+00
    0.1900000000E+07    0.1479178866E-02    0.1036782063E-02    0.6960289118E+00    0.1400900466E+00    0.3592900283E+00
    0.2100000000E+07    0.1318487246E-02    0.9283662389E-03    0.6960292577E+00    0.1346799862E+00    0.3718620714E+00
    0.2300000000E+07    0.1184251116E-02    0.8373504040E-03    0.6960295445E+00    0.1296952921E+00    0.3833485875E+00
    0.2500000000E+07    0.1070679548E-02    0.7599947538E-03    0.6960297864E+00    0.1250848661E+00    0.3938992261E+00
    0.2700000000E+07    0.9735429932E-03    0.6935541643E-03    0.6960299931E+00    0.1208058249E+00    0.4036347427E+00
    0.2900000000E+07    0.8896799295E-03    0.6359671989E-03    0.6960301719E+00    0.1168218817E+00    0.4126541625E+00
    0.3100000000E+07    0.8166800274E-03    0.5856554531E-03    0.6960303281E+00    0.1131020923E+00    0.4210398016E+00
    0.3300000000E+07    0.7526740484E-03    0.5413899177E-03    0.6960304658E+00    0.1096198769E+00    0.4288608854E+00
    0.3500000000E+07    0.6961906315E-03    0.5021995157E-03    0.6960305880E+00    0.1063522519E+00    0.4361762166E+00
    0.3700000000E+07    0.6460563112E-03    0.4673070057E-03    0.6960306973E+00    0.1032792221E+00    0.4430361844E+00
    0.3900000000E+07    0.6013242397E-03    0.4360831207E-03    0.6960307957E+00    0.1003832938E+00    0.4494843031E+00
    0.4100000000E+07    0.5612224199E-03    0.4080131480E-03    0.6960308846E+00    0.9764908348E-01    0.4555584089E+00
    0.4300000000E+07    0.5251154851E-03    0.3826721731E-03    0.6960309654E+00    0.9506299845E-01    0.4612916045E+00
    0.4500000000E+07    0.4924760581E-03    0.3597064711E-03    0.6960310392E+00    0.9261297593E-01    0.4667130119E+00
    0.4700000000E+07    0.4628630010E-03    0.3388193337E-03    0.6960311069E+00    0.9028826736E-01    0.4718483809E+00
    0.4900000000E+07    0.4359046968E-03    0.3197601430E-03    0.6960311691E+00    0.8807925911E-01    0.4767205841E+00
    0.1000000000E+07    0.2870597896E-02    0.1957031531E-02    0.6960256931E+00    0.1716835901E+00    0.2825410047E+00
    0.3000000000E+07    0.8519496578E-03    0.6099856917E-03    0.6960302526E+00    0.1149307214E+00    0.4169216063E+00
    0.5000000000E+07    0.4233206983E-03    0.3108481780E-03    0.6960311984E+00    0.8701541127E-01    0.4790644613E+00
    0.7000000000E+07    0.2550216050E-03    0.1905533353E-03    0.6960316113E+00    0.7012132065E-01    0.5160860426E+00
    0.9000000000E+07    0.1708514272E-03    0.1293752883E-03    0.6960318430E+00    0.5874191414E-01    0.5408409522E+00
    0.1100000000E+08    0.1225638214E-03    0.9381985141E-04    0.6960319911E+00    0.5054155707E-01    0.5586047177E+00
    0.1300000000E+08    0.9225060913E-04    0.7126140197E-04    0.6960320937E+00    0.4434696094E-01    0.5719866181E+00
    0.1500000000E+08    0.7195952021E-04    0.5602497304E-04    0.6960321687E+00    0.3950097509E-01    0.5824349533E+00
    0.1700000000E+08    0.5770535992E-04    0.4523792335E-04    0.6960322258E+00    0.3560596764E-01    0.5908209181E+00
    0.1900000000E+08    0.4730721418E-04    0.3731465618E-04    0.6960322705E+00    0.3240691233E-01    0.5977009545E+00
    0.2100000000E+08    0.3948842639E-04    0.3132002837E-04    0.6960323063E+00    0.2973259949E-01    0.6034474819E+00
    0.2300000000E+08    0.3346070412E-04    0.2667277217E-04    0.6960323354E+00    0.2746376750E-01    0.6083193105E+00
    0.2500000000E+08    0.2871569689E-04    0.2299579656E-04    0.6960323596E+00    0.2551476802E-01    0.6125019593E+00
    0.2700000000E+08    0.2491353485E-04    0.2003561645E-04    0.6960323799E+00    0.2382249361E-01    0.6161319158E+00
