  Pressure (Pa) 22mC5-500 (mol/kg) 23mC5-500 (mol/kg) 24mC5-500 (mol/kg) 2mC6-500 (mol/kg) 3mC6-500 (mol/kg)
    0.1000000000E+01    0.9565230445E-05    0.1851576381E-05    0.1514066626E+00    0.2120640307E-04    0.3126372766E-04
    0.3000000000E+01    0.2220856697E-04    0.4307353674E-05    0.3165053152E+00    0.5180032286E-04    0.9377448104E-04
    0.5000000000E+01    0.3161468425E-04    0.6144257743E-05    0.4047852206E+00    0.7719680402E-04    0.1562632041E-03
    0.7000000000E+01    0.3982099342E-04    0.7753818745E-05    0.4597429919E+00    0.1010350404E-03    0.2187300093E-03
    0.9000000000E+01    0.4749599303E-04    0.9263754910E-05    0.4972504028E+00    0.1243573833E-03    0.2811749489E-03
    0.1100000000E+02    0.5491010544E-04    0.1072539717E-04    0.5244803057E+00    0.1475220958E-03    0.3435980554E-03
    0.1300000000E+02    0.6218798083E-04    0.1216223429E-04    0.5451480757E+00    0.1706637909E-03    0.4059993526E-03
    0.1500000000E+02    0.6939236018E-04    0.1358599028E-04    0.5613708132E+00    0.1938337532E-03    0.4683788602E-03
    0.1700000000E+02    0.7655681947E-04    0.1500287745E-04    0.5744433289E+00    0.2170496568E-03    0.5307365956E-03
    0.1900000000E+02    0.8370010676E-04    0.1641632296E-04    0.5852020391E+00    0.2403150805E-03    0.5930725752E-03
    0.2100000000E+02    0.9083298298E-04    0.1782826401E-04    0.5942113273E+00    0.2636277217E-03    0.6553868141E-03
    0.2300000000E+02    0.9796171093E-04    0.1923980520E-04    0.6018658232E+00    0.2869830104E-03    0.7176793273E-03
    0.2500000000E+02    0.1050899319E-03    0.2065157027E-04    0.6084497620E+00    0.3103757315E-03    0.7799501290E-03
    0.2700000000E+02    0.1122197188E-03    0.2206389838E-04    0.6141730647E+00    0.3338007444E-03    0.8421992336E-03
    0.2900000000E+02    0.1193521893E-03    0.2347695756E-04    0.6191941351E+00    0.3572532839E-03    0.9044266550E-03
    0.3100000000E+02    0.1264878715E-03    0.2489081199E-04    0.6236347499E+00    0.3807290633E-03    0.9666324069E-03
    0.3300000000E+02    0.1336269286E-03    0.2630546298E-04    0.6275900673E+00    0.4042242848E-03    0.1028816503E-02
    0.3500000000E+02    0.1407692989E-03    0.2772087417E-04    0.6311355226E+00    0.4277356108E-03    0.1090978957E-02
    0.3700000000E+02    0.1479147846E-03    0.2913698742E-04    0.6343316869E+00    0.4512601178E-03    0.1153119783E-02
    0.3900000000E+02    0.1550631081E-03    0.3055373272E-04    0.6372277559E+00    0.4747952486E-03    0.1215238993E-02
    0.4100000000E+02    0.1622139485E-03    0.3197103453E-04    0.6398641011E+00    0.4983387643E-03    0.1277336602E-02
    0.4300000000E+02    0.1693669655E-03    0.3338881578E-04    0.6422741629E+00    0.5218887027E-03    0.1339412623E-02
    0.4500000000E+02    0.1765218137E-03    0.3480700029E-04    0.6444858773E+00    0.5454433399E-03    0.1401467069E-02
    0.4700000000E+02    0.1836781530E-03    0.3622551428E-04    0.6465227632E+00    0.5690011584E-03    0.1463499953E-02
    0.4900000000E+02    0.1908356536E-03    0.3764428728E-04    0.6484047629E+00    0.5925608183E-03    0.1525511289E-02
    0.1000000000E+02    0.5122582016E-04    0.9998754535E-05    0.5118665970E+00    0.1359481291E-03    0.3123892297E-03
    0.3000000000E+02    0.1229196122E-03    0.2418378416E-04    0.6214805210E+00    0.3689885172E-03    0.9355322387E-03
    0.5000000000E+02    0.1944147403E-03    0.3835374990E-04    0.6492930983E+00    0.6043409627E-03    0.1556508881E-02
    0.7000000000E+02    0.2659899133E-03    0.5254251683E-04    0.6619908127E+00    0.8398148059E-03    0.2175332664E-02
    0.9000000000E+02    0.3374221682E-03    0.6670378285E-04    0.6692625132E+00    0.1074692756E-02    0.2792016742E-02
    0.1100000000E+03    0.4085938686E-03    0.8081396467E-04    0.6739739639E+00    0.1308713061E-02    0.3406574111E-02
    0.1300000000E+03    0.4794422289E-03    0.9486065489E-04    0.6772749318E+00    0.1541761491E-02    0.4019017650E-02
    0.1500000000E+03    0.5499316116E-03    0.1088368738E-03    0.6797163607E+00    0.1773782576E-02    0.4629360120E-02
    0.1700000000E+03    0.6200408094E-03    0.1227384963E-03    0.6815953108E+00    0.2004747945E-02    0.5237614177E-02
    0.1900000000E+03    0.6897568441E-03    0.1365630130E-03    0.6830860941E+00    0.2234643119E-02    0.5843792369E-02
    0.2100000000E+03    0.7590717147E-03    0.1503088870E-03    0.6842977394E+00    0.2463461332E-02    0.6447907139E-02
    0.2300000000E+03    0.8279805796E-03    0.1639751951E-03    0.6853019386E+00    0.2691200368E-02    0.7049970830E-02
    0.2500000000E+03    0.8964806831E-03    0.1775614188E-03    0.6861477686E+00    0.2917860827E-02    0.7649995680E-02
    0.2700000000E+03    0.9645706928E-03    0.1910673138E-03    0.6868699570E+00    0.3143445121E-02    0.8247993831E-02
    0.2900000000E+03    0.1032250274E-02    0.2044928283E-03    0.6874937692E+00    0.3367956863E-02    0.8843977321E-02
    0.3100000000E+03    0.1099519807E-02    0.2178380476E-03    0.6880380258E+00    0.3591400481E-02    0.9437958093E-02
    0.3300000000E+03    0.1166380196E-02    0.2311031573E-03    0.6885170342E+00    0.3813780967E-02    0.1002994799E-01
    0.3500000000E+03    0.1232832732E-02    0.2442884170E-03    0.6889418650E+00    0.4035103704E-02    0.1061995877E-01
    0.3700000000E+03    0.1298878997E-02    0.2573941419E-03    0.6893212183E+00    0.4255374355E-02    0.1120800207E-01
    0.3900000000E+03    0.1364520796E-02    0.2704206894E-03    0.6896620262E+00    0.4474598779E-02    0.1179408947E-01
    0.4100000000E+03    0.1429760101E-02    0.2833684488E-03    0.6899698798E+00    0.4692782968E-02    0.1237823242E-01
    0.4300000000E+03    0.1494599016E-02    0.2962378342E-03    0.6902493387E+00    0.4909933012E-02    0.1296044231E-01
    0.4500000000E+03    0.1559039746E-02    0.3090292784E-03    0.6905041586E+00    0.5126055060E-02    0.1354073041E-01
    0.4700000000E+03    0.1623084569E-02    0.3217432290E-03    0.6907374606E+00    0.5341155301E-02    0.1411910792E-01
    0.4900000000E+03    0.1686735828E-02    0.3343801444E-03    0.6909518602E+00    0.5555239941E-02    0.1469558594E-01
    0.1000000000E+03    0.3730453686E-03    0.7376620691E-04    0.6718456010E+00    0.1191819225E-02    0.3099560458E-02
    0.3000000000E+03    0.1065936251E-02    0.2111754652E-03    0.6877748594E+00    0.3479811887E-02    0.9141217304E-02
    0.5000000000E+03    0.1718414614E-02    0.3406698596E-03    0.6910526752E+00    0.5661903353E-02    0.1498311609E-01
    0.7000000000E+03    0.2331925294E-02    0.4625365517E-03    0.6924672839E+00    0.7743365948E-02    0.2063664329E-01
    0.9000000000E+03    0.2908898331E-02    0.5772501022E-03    0.6932557937E+00    0.9730250531E-02    0.2611231199E-01
    0.1100000000E+04    0.3451719193E-02    0.6852753292E-03    0.6937585692E+00    0.1162825364E-01    0.3141984460E-01
    0.1300000000E+04    0.3962622943E-02    0.7870474781E-03    0.6941071097E+00    0.1344265849E-01    0.3656824619E-01
    0.1500000000E+04    0.4443682208E-02    0.8829701032E-03    0.6943629541E+00    0.1517835462E-01    0.4156586972E-01
    0.1700000000E+04    0.4896813781E-02    0.9734164313E-03    0.6945587450E+00    0.1683986858E-01    0.4642047432E-01
    0.1900000000E+04    0.5323789609E-02    0.1058731530E-02    0.6947134081E+00    0.1843139486E-01    0.5113927744E-01
    0.2100000000E+04    0.5726248460E-02    0.1139234586E-02    0.6948386722E+00    0.1995682470E-01    0.5572900155E-01
    0.2300000000E+04    0.6105707127E-02    0.1215221092E-02    0.6949421932E+00    0.2141977234E-01    0.6019591613E-01
    0.2500000000E+04    0.6463570820E-02    0.1286964864E-02    0.6950291811E+00    0.2282359879E-01    0.6454587545E-01
    0.2700000000E+04    0.6801142678E-02    0.1354719889E-02    0.6951033043E+00    0.2417143328E-01    0.6878435261E-01
    0.2900000000E+04    0.7119632414E-02    0.1418722006E-02    0.6951672207E+00    0.2546619263E-01    0.7291647035E-01
    0.3100000000E+04    0.7420164151E-02    0.1479190426E-02    0.6952229029E+00    0.2671059872E-01    0.7694702879E-01
    0.3300000000E+04    0.7703783526E-02    0.1536329110E-02    0.6952718463E+00    0.2790719436E-01    0.8088053071E-01
    0.3500000000E+04    0.7971464124E-02    0.1590328017E-02    0.6953152045E+00    0.2905835757E-01    0.8472120442E-01
    0.3700000000E+04    0.8224113313E-02    0.1641364239E-02    0.6953538822E+00    0.3016631455E-01    0.8847302453E-01
    0.3900000000E+04    0.8462577534E-02    0.1689603025E-02    0.6953885987E+00    0.3123315152E-01    0.9213973091E-01
    0.4100000000E+04    0.8687647115E-02    0.1735198715E-02    0.6954199329E+00    0.3226082541E-01    0.9572484595E-01
    0.4300000000E+04    0.8900060640E-02    0.1778295590E-02    0.6954483563E+00    0.3325117360E-01    0.9923169030E-01
    0.4500000000E+04    0.9100508930E-02    0.1819028642E-02    0.6954742565E+00    0.3420592284E-01    0.1026633973E+00
    0.4700000000E+04    0.9289638674E-02    0.1857524280E-02    0.6954979555E+00    0.3512669736E-01    0.1060229261E+00
    0.4900000000E+04    0.9468055736E-02    0.1893900972E-02    0.6955197223E+00    0.3601502628E-01    0.1093130739E+00
    0.1000000000E+04    0.3184434272E-02    0.6320708064E-03    0.6935322230E+00    0.1069002251E-01    0.2878651648E-01
    0.3000000000E+04    0.7272075919E-02    0.1449384839E-02    0.6951959883E+00    0.2609452688E-01    0.7494415637E-01
    0.5000000000E+04    0.9553425931E-02    0.1911329708E-02    0.6955299536E+00    0.3644747718E-01    0.1109329624E+00
    0.7000000000E+04    0.1081895716E-01    0.2172255725E-02    0.6956732546E+00    0.4370223777E-01    0.1402609598E+00
    0.9000000000E+04    0.1148197580E-01    0.2313138048E-02    0.6957529260E+00    0.4893252799E-01    0.1649369885E+00
    0.1100000000E+05    0.1177423815E-01    0.2379561480E-02    0.6958036544E+00    0.5277503009E-01    0.1862007804E+00
    0.1300000000E+05    0.1183279131E-01    0.2398603231E-02    0.6958387902E+00    0.5563009613E-01    0.2048633211E+00
    0.1500000000E+05    0.1174207217E-01    0.2387030411E-02    0.6958645666E+00    0.5776150656E-01    0.2214804946E+00
    0.1700000000E+05    0.1155579590E-01    0.2355570192E-02    0.6958842849E+00    0.5934978475E-01    0.2364482005E+00
    0.1900000000E+05    0.1130899723E-01    0.2311263989E-02    0.6958998568E+00    0.6052241683E-01    0.2500575506E+00
    0.2100000000E+05    0.1102496871E-01    0.2258827258E-02    0.6959124664E+00    0.6137183613E-01    0.2625284693E+00
    0.2300000000E+05    0.1071941635E-01    0.2201466128E-02    0.6959228858E+00    0.6196657457E-01    0.2740309887E+00
    0.2500000000E+05    0.1040303109E-01    0.2141384220E-02    0.6959316403E+00    0.6235842392E-01    0.2846992211E+00
    0.2700000000E+05    0.1008312497E-01    0.2080106153E-02    0.6959390997E+00    0.6258717592E-01    0.2946408038E+00
    0.2900000000E+05    0.9764697269E-02    0.2018689091E-02    0.6959455316E+00    0.6268384403E-01    0.3039434548E+00
    0.3100000000E+05    0.9451143708E-02    0.1957863997E-02    0.6959511348E+00    0.6267290455E-01    0.3126796279E+00
    0.3300000000E+05    0.9144736736E-02    0.1898131672E-02    0.6959560599E+00    0.6257388804E-01    0.3209098885E+00
    0.3500000000E+05    0.8846955794E-02    0.1839829106E-02    0.6959604229E+00    0.6240253041E-01    0.3286854063E+00
    0.3700000000E+05    0.8558717508E-02    0.1783175932E-02    0.6959643150E+00    0.6217161918E-01    0.3360498275E+00
    0.3900000000E+05    0.8280537988E-02    0.1728307364E-02    0.6959678086E+00    0.6189162511E-01    0.3430407011E+00
    0.4100000000E+05    0.8012648370E-02    0.1675297768E-02    0.6959709619E+00    0.6157117984E-01    0.3496905821E+00
    0.4300000000E+05    0.7755077766E-02    0.1624177700E-02    0.6959738223E+00    0.6121744152E-01    0.3560278942E+00
    0.4500000000E+05    0.7507713205E-02    0.1574946303E-02    0.6959764290E+00    0.6083637798E-01    0.3620776126E+00
    0.4700000000E+05    0.7270343182E-02    0.1527580376E-02    0.6959788141E+00    0.6043298801E-01    0.3678618101E+00
    0.4900000000E+05    0.7042689408E-02    0.1482041058E-02    0.6959810049E+00    0.6001147614E-01    0.3734000986E+00
    0.1000000000E+05    0.1166429590E-01    0.2353653553E-02    0.6957808235E+00    0.5099817147E-01    0.1759372349E+00
    0.3000000000E+05    0.9607147323E-02    0.1988166748E-02    0.6959484264E+00    0.6269050391E-01    0.3083783199E+00
    0.5000000000E+05    0.6932406732E-02    0.1459941189E-02    0.6959820347E+00    0.5979505604E-01    0.3760825727E+00
    0.7000000000E+05    0.5151190363E-02    0.1099460671E-02    0.6959964614E+00    0.5513340541E-01    0.4202361482E+00
    0.9000000000E+05    0.3961409464E-02    0.8547695949E-03    0.6960044862E+00    0.5058245793E-01    0.4520175925E+00
    0.1100000000E+06    0.3136462524E-02    0.6830036784E-03    0.6960095981E+00    0.4650585739E-01    0.4762236919E+00
    0.1300000000E+06    0.2543263371E-02    0.5582369930E-03    0.6960131401E+00    0.4293432293E-01    0.4953703326E+00
    0.1500000000E+06    0.2103130622E-02    0.4648667200E-03    0.6960157396E+00    0.3981761964E-01    0.5109382467E+00
    0.1700000000E+06    0.1767821770E-02    0.3932004183E-03    0.6960177287E+00    0.3709113052E-01    0.5238678169E+00
    0.1900000000E+06    0.1506599277E-02    0.3369977544E-03    0.6960193000E+00    0.3469444278E-01    0.5347898455E+00
    0.2100000000E+06    0.1299180415E-02    0.2921047153E-03    0.6960205727E+00    0.3257578797E-01    0.5441454590E+00
    0.2300000000E+06    0.1131761543E-02    0.2556727699E-03    0.6960216245E+00    0.3069214527E-01    0.5522534842E+00
    0.2500000000E+06    0.9946912474E-03    0.2256969066E-03    0.6960225083E+00    0.2900812412E-01    0.5593506382E+00
    0.2700000000E+06    0.8810597476E-03    0.2007330602E-03    0.6960232615E+00    0.2749464856E-01    0.5656166650E+00
    0.2900000000E+06    0.7858159881E-03    0.1797198818E-03    0.6960239110E+00    0.2612776279E-01    0.5711906760E+00
    0.3100000000E+06    0.7051989450E-03    0.1618631611E-03    0.6960244769E+00    0.2488763454E-01    0.5761821198E+00
    0.3300000000E+06    0.6363618073E-03    0.1465589868E-03    0.6960249743E+00    0.2375775146E-01    0.5806783515E+00
    0.3500000000E+06    0.5771178485E-03    0.1333415034E-03    0.6960254149E+00    0.2272428229E-01    0.5847499785E+00
    0.3700000000E+06    0.5257649998E-03    0.1218466683E-03    0.6960258080E+00    0.2177557101E-01    0.5884547170E+00
    0.3900000000E+06    0.4809624768E-03    0.1117866454E-03    0.6960261608E+00    0.2090173629E-01    0.5918402216E+00
    0.4100000000E+06    0.4416425369E-03    0.1029314133E-03    0.6960264792E+00    0.2009435320E-01    0.5949461981E+00
    0.4300000000E+06    0.4069463886E-03    0.9509535348E-04    0.6960267681E+00    0.1934619914E-01    0.5978060024E+00
    0.4500000000E+06    0.3761769856E-03    0.8812733562E-04    0.6960270312E+00    0.1865104997E-01    0.6004478661E+00
    0.4700000000E+06    0.3487638081E-03    0.8190329463E-04    0.6960272720E+00    0.1800351547E-01    0.6028958481E+00
    0.4900000000E+06    0.3242362756E-03    0.7632060848E-04    0.6960274932E+00    0.1739890581E-01    0.6051705810E+00
    0.1000000000E+06    0.3513311557E-02    0.7617030270E-03    0.6960072971E+00    0.4847962529E-01    0.4648771919E+00
    0.3000000000E+06    0.7438750344E-03    0.1704384618E-03    0.6960242034E+00    0.2549295560E-01    0.5737533127E+00
    0.5000000000E+06    0.3129298021E-03    0.7374248696E-04    0.6960275971E+00    0.1711139648E-01    0.6062486378E+00
    0.7000000000E+06    0.1711529223E-03    0.4110526202E-04    0.6960290518E+00    0.1284931467E-01    0.6219718403E+00
    0.9000000000E+06    0.1076570909E-03    0.2622869875E-04    0.6960298585E+00    0.1027639215E-01    0.6312498502E+00
    0.1100000000E+07    0.7387894853E-04    0.1820721920E-04    0.6960303704E+00    0.8556613022E-02    0.6373713419E+00
    0.1300000000E+07    0.5380778963E-04    0.1338828777E-04    0.6960307233E+00    0.7326821557E-02    0.6417124035E+00
    0.1500000000E+07    0.4092243174E-04    0.1026592066E-04    0.6960309808E+00    0.6404129572E-02    0.6449507359E+00
    0.1700000000E+07    0.3216331013E-04    0.8126422909E-05    0.6960311765E+00    0.5686498057E-02    0.6474588660E+00
    0.1900000000E+07    0.2594092045E-04    0.6595838166E-05    0.6960313300E+00    0.5112538971E-02    0.6494585444E+00
    0.2100000000E+07    0.2136317940E-04    0.5462723894E-05    0.6960314534E+00    0.4643118994E-02    0.6510900129E+00
    0.2300000000E+07    0.1789810658E-04    0.4600156114E-05    0.6960315545E+00    0.4252119317E-02    0.6524462990E+00
    0.2500000000E+07    0.1521253974E-04    0.3928174566E-05    0.6960316387E+00    0.3921444161E-02    0.6535915393E+00
    0.2700000000E+07    0.1308922764E-04    0.3394357108E-05    0.6960317097E+00    0.3638161856E-02    0.6545713847E+00
    0.2900000000E+07    0.1138161573E-04    0.2963166008E-05    0.6960317704E+00    0.3392786551E-02    0.6554192119E+00
    0.3100000000E+07    0.9987942421E-05    0.2609812977E-05    0.6960318226E+00    0.3178202894E-02    0.6561599874E+00
    0.3300000000E+07    0.8835766196E-05    0.2316577308E-05    0.6960318681E+00    0.2988969569E-02    0.6568127588E+00
    0.3500000000E+07    0.7872386063E-05    0.2070516439E-05    0.6960319078E+00    0.2820854643E-02    0.6573923106E+00
    0.3700000000E+07    0.7058723410E-05    0.1861997813E-05    0.6960319429E+00    0.2670517477E-02    0.6579102927E+00
    0.3900000000E+07    0.6365306480E-05    0.1683731647E-05    0.6960319739E+00    0.2535285963E-02    0.6583760096E+00
    0.4100000000E+07    0.5769570582E-05    0.1530118299E-05    0.6960320015E+00    0.2412997374E-02    0.6587969821E+00
    0.4300000000E+07    0.5254003509E-05    0.1396798450E-05    0.6960320263E+00    0.2301882581E-02    0.6591793547E+00
    0.4500000000E+07    0.4804846813E-05    0.1280337102E-05    0.6960320484E+00    0.2200480471E-02    0.6595281969E+00
    0.4700000000E+07    0.4411170400E-05    0.1177997733E-05    0.6960320684E+00    0.2107573753E-02    0.6598477282E+00
    0.4900000000E+07    0.4064202688E-05    0.1087578357E-05    0.6960320865E+00    0.2022140170E-02    0.6601414892E+00
    0.1000000000E+07    0.8840168118E-04    0.2166768713E-04    0.6960301403E+00    0.9338678018E-02    0.6345951797E+00
    0.3000000000E+07    0.1065061795E-04    0.2778001045E-05    0.6960317974E+00    0.3282018762E-02    0.6558016745E+00
    0.5000000000E+07    0.3905959894E-05    0.1046266329E-05    0.6960320949E+00    0.1981950260E-02    0.6602796595E+00
    0.7000000000E+07    0.2017535274E-05    0.5487266668E-06    0.6960322025E+00    0.1417031614E-02    0.6622206083E+00
    0.9000000000E+07    0.1234701864E-05    0.3389533887E-06    0.6960322490E+00    0.1101614690E-02    0.6633037213E+00
    0.1100000000E+08    0.8365563865E-06    0.2309311598E-06    0.6960322690E+00    0.9004754366E-03    0.6639944398E+00
    0.1300000000E+08    0.6066927814E-06    0.1679639075E-06    0.6960322754E+00    0.7611099002E-03    0.6644731502E+00
    0.1500000000E+08    0.4619721708E-06    0.1280147966E-06    0.6960322743E+00    0.6588879588E-03    0.6648243996E+00
    0.1700000000E+08    0.3649216879E-06    0.1010569934E-06    0.6960322687E+00    0.5807289633E-03    0.6650930708E+00
    0.1900000000E+08    0.2966340357E-06    0.8199113560E-07    0.6960322602E+00    0.5190447772E-03    0.6653051961E+00
    0.2100000000E+08    0.2467303611E-06    0.6799892963E-07    0.6960322499E+00    0.4691319154E-03    0.6654769110E+00
    0.2300000000E+08    0.2091275287E-06    0.5741873719E-07    0.6960322385E+00    0.4279203265E-03    0.6656187477E+00
    0.2500000000E+08    0.1800680481E-06    0.4921880430E-07    0.6960322262E+00    0.3933212757E-03    0.6657378729E+00
    0.2700000000E+08    0.1571289273E-06    0.4273070887E-07    0.6960322135E+00    0.3638644547E-03    0.6658393319E+00
