  Pressure (Pa) 22mC5-500 (mol/kg) 23mC5-500 (mol/kg) 24mC5-500 (mol/kg) 2mC6-500 (mol/kg) 3mC6-500 (mol/kg)
    0.1000000000E+01    0.1114357036E-04    0.2155809868E-05    0.3665994357E-01    0.5452202591E-04    0.2605248291E-04
    0.3000000000E+01    0.3081036292E-04    0.5962152572E-05    0.9948597649E-01    0.1521754543E-03    0.7813961117E-04
    0.5000000000E+01    0.4780175550E-04    0.9253141451E-05    0.1513680942E+00    0.2384468299E-03    0.1302029977E-03
    0.7000000000E+01    0.6281417711E-04    0.1216343603E-04    0.1949376564E+00    0.3165313833E-03    0.1822426843E-03
    0.9000000000E+01    0.7632887091E-04    0.1478601095E-04    0.2320449477E+00    0.3885997888E-03    0.2342587063E-03
    0.1100000000E+02    0.8868794783E-04    0.1718690342E-04    0.2640289769E+00    0.4561672373E-03    0.2862510946E-03
    0.1300000000E+02    0.1001405243E-03    0.1941415648E-04    0.2918826698E+00    0.5203158738E-03    0.3382198775E-03
    0.1500000000E+02    0.1108717788E-03    0.2150344890E-04    0.3163579001E+00    0.5818338418E-03    0.3901650810E-03
    0.1700000000E+02    0.1210218460E-03    0.2348175452E-04    0.3380344586E+00    0.6413049442E-03    0.4420867295E-03
    0.1900000000E+02    0.1306984470E-03    0.2536978731E-04    0.3573666235E+00    0.6991680363E-03    0.4939848466E-03
    0.2100000000E+02    0.1399855396E-03    0.2718367508E-04    0.3747153826E+00    0.7557573002E-03    0.5458594548E-03
    0.2300000000E+02    0.1489493695E-03    0.2893612982E-04    0.3903712143E+00    0.8113301246E-03    0.5977105760E-03
    0.2500000000E+02    0.1576427849E-03    0.3063728165E-04    0.4045705024E+00    0.8660867615E-03    0.6495382315E-03
    0.2700000000E+02    0.1661083652E-03    0.3229528329E-04    0.4175075698E+00    0.9201844125E-03    0.7013424426E-03
    0.2900000000E+02    0.1743807244E-03    0.3391675476E-04    0.4293436361E+00    0.9737474732E-03    0.7531232297E-03
    0.3100000000E+02    0.1824882308E-03    0.3550711526E-04    0.4402135798E+00    0.1026875083E-02    0.8048806133E-03
    0.3300000000E+02    0.1904543065E-03    0.3707083382E-04    0.4502311071E+00    0.1079646755E-02    0.8566146136E-03
    0.3500000000E+02    0.1982984216E-03    0.3861162083E-04    0.4594927504E+00    0.1132126624E-02    0.9083252506E-03
    0.3700000000E+02    0.2060368617E-03    0.4013257598E-04    0.4680809929E+00    0.1184366681E-02    0.9600125441E-03
    0.3900000000E+02    0.2136833269E-03    0.4163630353E-04    0.4760667349E+00    0.1236409257E-02    0.1011676514E-02
    0.4100000000E+02    0.2212494038E-03    0.4312500304E-04    0.4835112586E+00    0.1288288954E-02    0.1063317179E-02
    0.4300000000E+02    0.2287449388E-03    0.4460054131E-04    0.4904678059E+00    0.1340034148E-02    0.1114934560E-02
    0.4500000000E+02    0.2361783381E-03    0.4606450982E-04    0.4969828550E+00    0.1391668178E-02    0.1166528676E-02
    0.4700000000E+02    0.2435568084E-03    0.4751827104E-04    0.5030971616E+00    0.1443210284E-02    0.1218099545E-02
    0.4900000000E+02    0.2508865522E-03    0.4896299593E-04    0.5088466137E+00    0.1494676352E-02    0.1269647188E-02
    0.1000000000E+02    0.8263551489E-04    0.1601082111E-04    0.2486086519E+00    0.4228702816E-03    0.2602578529E-03
    0.3000000000E+02    0.1784535173E-03    0.3471552478E-04    0.4348918222E+00    0.1000360335E-02    0.7790048456E-03
    0.5000000000E+02    0.2545348552E-03    0.4968229094E-04    0.5115945795E+00    0.1520385072E-02    0.1295412306E-02
    0.7000000000E+02    0.3259181372E-03    0.6377709586E-04    0.5534453412E+00    0.2032751950E-02    0.1809499921E-02
    0.9000000000E+02    0.3956341691E-03    0.7756849380E-04    0.5798047286E+00    0.2543889797E-02    0.2321286614E-02
    0.1100000000E+03    0.4645435874E-03    0.9121457282E-04    0.5979324878E+00    0.3054438402E-02    0.2830790968E-02
    0.1300000000E+03    0.5329308911E-03    0.1047659298E-03    0.6111645624E+00    0.3564072014E-02    0.3338031311E-02
    0.1500000000E+03    0.6008936468E-03    0.1182388951E-03    0.6212486586E+00    0.4072367052E-02    0.3843025748E-02
    0.1700000000E+03    0.6684616685E-03    0.1316376864E-03    0.6291889708E+00    0.4578966201E-02    0.4345792177E-02
    0.1900000000E+03    0.7356390497E-03    0.1449621051E-03    0.6356035834E+00    0.5083595118E-02    0.4846348293E-02
    0.2100000000E+03    0.8024203831E-03    0.1582104481E-03    0.6408937832E+00    0.5586049175E-02    0.5344711594E-02
    0.2300000000E+03    0.8687973481E-03    0.1713806560E-03    0.6453314570E+00    0.6086177214E-02    0.5840899385E-02
    0.2500000000E+03    0.9347614213E-03    0.1844707647E-03    0.6491073626E+00    0.6583868044E-02    0.6334928784E-02
    0.2700000000E+03    0.1000304945E-02    0.1974790670E-03    0.6523592907E+00    0.7079040244E-02    0.6826816721E-02
    0.2900000000E+03    0.1065421484E-02    0.2104041536E-03    0.6551892567E+00    0.7571634676E-02    0.7316579943E-02
    0.3100000000E+03    0.1130105867E-02    0.2232449031E-03    0.6576744048E+00    0.8061609020E-02    0.7804235017E-02
    0.3300000000E+03    0.1194354108E-02    0.2360004539E-03    0.6598741521E+00    0.8548933777E-02    0.8289798332E-02
    0.3500000000E+03    0.1258163276E-02    0.2486701711E-03    0.6618350046E+00    0.9033589307E-02    0.8773286100E-02
    0.3700000000E+03    0.1321531357E-02    0.2612536137E-03    0.6635938835E+00    0.9515563634E-02    0.9254714363E-02
    0.3900000000E+03    0.1384457125E-02    0.2737505057E-03    0.6651804737E+00    0.9994850780E-02    0.9734098989E-02
    0.4100000000E+03    0.1446940027E-02    0.2861607107E-03    0.6666189139E+00    0.1047144951E-01    0.1021145568E-01
    0.4300000000E+03    0.1508980080E-02    0.2984842096E-03    0.6679290341E+00    0.1094536234E-01    0.1068679997E-01
    0.4500000000E+03    0.1570577785E-02    0.3107210828E-03    0.6691272763E+00    0.1141659482E-01    0.1116014723E-01
    0.4700000000E+03    0.1631734055E-02    0.3228714945E-03    0.6702273879E+00    0.1188515490E-01    0.1163151267E-01
    0.4900000000E+03    0.1692450149E-02    0.3349356796E-03    0.6712409525E+00    0.1235105251E-01    0.1210091134E-01
    0.1000000000E+03    0.4301651586E-03    0.8440528735E-04    0.5896360695E+00    0.2799251713E-02    0.2576322933E-02
    0.3000000000E+03    0.1097817970E-02    0.2168351301E-03    0.6564708693E+00    0.7816951464E-02    0.7560669970E-02
    0.5000000000E+03    0.1722643605E-02    0.3409355271E-03    0.6717184106E+00    0.1258300642E-01    0.1233487780E-01
    0.7000000000E+03    0.2303901499E-02    0.4565013709E-03    0.6784766746E+00    0.1708569294E-01    0.1691450925E-01
    0.9000000000E+03    0.2843930387E-02    0.5639847297E-03    0.6822922065E+00    0.2133997533E-01    0.2131357832E-01
    0.1100000000E+04    0.3345689275E-02    0.6639624438E-03    0.6847436463E+00    0.2536322091E-01    0.2554474043E-01
    0.1300000000E+04    0.3812117837E-02    0.7570079998E-03    0.6864517038E+00    0.2917212124E-01    0.2961945476E-01
    0.1500000000E+04    0.4245974650E-02    0.8436596100E-03    0.6877100689E+00    0.3278212246E-01    0.3354812366E-01
    0.1700000000E+04    0.4649799246E-02    0.9244127893E-03    0.6886757167E+00    0.3620736518E-01    0.3734021298E-01
    0.1900000000E+04    0.5025912550E-02    0.9997204571E-03    0.6894401700E+00    0.3946075534E-01    0.4100435621E-01
    0.2100000000E+04    0.5376430065E-02    0.1069995520E-02    0.6900603943E+00    0.4255406829E-01    0.4454844503E-01
    0.2300000000E+04    0.5703278869E-02    0.1135614191E-02    0.6905737016E+00    0.4549805655E-01    0.4797970818E-01
    0.2500000000E+04    0.6008215076E-02    0.1196919394E-02    0.6910055543E+00    0.4830255129E-01    0.5130478048E-01
    0.2700000000E+04    0.6292840418E-02    0.1254223994E-02    0.6913739229E+00    0.5097655485E-01    0.5452976337E-01
    0.2900000000E+04    0.6558617499E-02    0.1307813766E-02    0.6916918532E+00    0.5352832373E-01    0.5766027811E-01
    0.3100000000E+04    0.6806883589E-02    0.1357950078E-02    0.6919690451E+00    0.5596544260E-01    0.6070151276E-01
    0.3300000000E+04    0.7038863015E-02    0.1404872305E-02    0.6922128607E+00    0.5829489009E-01    0.6365826368E-01
    0.3500000000E+04    0.7255678228E-02    0.1448799977E-02    0.6924289887E+00    0.6052309736E-01    0.6653497237E-01
    0.3700000000E+04    0.7458359681E-02    0.1489934704E-02    0.6926218942E+00    0.6265600005E-01    0.6933575815E-01
    0.3900000000E+04    0.7647854643E-02    0.1528461889E-02    0.6927951312E+00    0.6469908468E-01    0.7206444733E-01
    0.4100000000E+04    0.7825035059E-02    0.1564552256E-02    0.6929515634E+00    0.6665742995E-01    0.7472459920E-01
    0.4300000000E+04    0.7990704575E-02    0.1598363216E-02    0.6930935241E+00    0.6853574357E-01    0.7731952933E-01
    0.4500000000E+04    0.8145604810E-02    0.1630040089E-02    0.6932229339E+00    0.7033839532E-01    0.7985233039E-01
    0.4700000000E+04    0.8290420981E-02    0.1659717197E-02    0.6933413877E+00    0.7206944660E-01    0.8232589097E-01
    0.4900000000E+04    0.8425786935E-02    0.1687518841E-02    0.6934502212E+00    0.7373267697E-01    0.8474291236E-01
    0.1000000000E+04    0.3099406532E-02    0.6148753042E-03    0.6836382159E+00    0.2337940779E-01    0.2344940525E-01
    0.3000000000E+04    0.6684860386E-02    0.1333298154E-02    0.6918350356E+00    0.5476076477E-01    0.5919174695E-01
    0.5000000000E+04    0.8490111233E-02    0.1700752687E-02    0.6935013895E+00    0.7453996928E-01    0.8593101759E-01
    0.7000000000E+04    0.9401982176E-02    0.1890830903E-02    0.6942189238E+00    0.8786408096E-01    0.1072610657E+00
    0.9000000000E+04    0.9828066225E-02    0.1983652267E-02    0.6946186085E+00    0.9724780307E-01    0.1250272933E+00
    0.1100000000E+05    0.9975508492E-02    0.2020135075E-02    0.6948734195E+00    0.1040604575E+00    0.1402849121E+00
    0.1300000000E+05    0.9957648175E-02    0.2022792347E-02    0.6950500768E+00    0.1091096913E+00    0.1536867498E+00
    0.1500000000E+05    0.9839999544E-02    0.2004718872E-02    0.6951797763E+00    0.1129018437E+00    0.1656617874E+00
    0.1700000000E+05    0.9662037723E-02    0.1973860472E-02    0.6952790573E+00    0.1157699989E+00    0.1765056689E+00
    0.1900000000E+05    0.9448308406E-02    0.1935197512E-02    0.6953575061E+00    0.1179419524E+00    0.1864301629E+00
    0.2100000000E+05    0.9214435837E-02    0.1891929502E-02    0.6954210627E+00    0.1195785622E+00    0.1955918718E+00
    0.2300000000E+05    0.8970531020E-02    0.1846149451E-02    0.6954736041E+00    0.1207965035E+00    0.2041097430E+00
    0.2500000000E+05    0.8723203237E-02    0.1799243371E-02    0.6955177685E+00    0.1216823507E+00    0.2120762020E+00
    0.2700000000E+05    0.8476787299E-02    0.1752135006E-02    0.6955554136E+00    0.1223016076E+00    0.2195644846E+00
    0.2900000000E+05    0.8234113627E-02    0.1705440085E-02    0.6955878855E+00    0.1227046794E+00    0.2266336149E+00
    0.3100000000E+05    0.7997003164E-02    0.1659565915E-02    0.6956161832E+00    0.1229309289E+00    0.2333318762E+00
    0.3300000000E+05    0.7766591993E-02    0.1614777052E-02    0.6956410641E+00    0.1230114960E+00    0.2396992863E+00
    0.3500000000E+05    0.7543548015E-02    0.1571239376E-02    0.6956631127E+00    0.1229712994E+00    0.2457694008E+00
    0.3700000000E+05    0.7328217736E-02    0.1529050136E-02    0.6956827872E+00    0.1228304839E+00    0.2515706508E+00
    0.3900000000E+05    0.7120726968E-02    0.1488258702E-02    0.6957004521E+00    0.1226054830E+00    0.2571273508E+00
    0.4100000000E+05    0.6921050629E-02    0.1448881059E-02    0.6957164008E+00    0.1223098132E+00    0.2624604704E+00
    0.4300000000E+05    0.6729061540E-02    0.1410910020E-02    0.6957308722E+00    0.1219546730E+00    0.2675882328E+00
    0.4500000000E+05    0.6544564745E-02    0.1374322487E-02    0.6957440628E+00    0.1215494023E+00    0.2725265846E+00
    0.4700000000E+05    0.6367321769E-02    0.1339084632E-02    0.6957561358E+00    0.1211018372E+00    0.2772895685E+00
    0.4900000000E+05    0.6197067790E-02    0.1305155614E-02    0.6957672276E+00    0.1206185882E+00    0.2818896226E+00
    0.1000000000E+05    0.9928043510E-02    0.2007235874E-02    0.6947587053E+00    0.1009158402E+00    0.1329221431E+00
    0.3000000000E+05    0.8114778892E-02    0.1682381125E-02    0.6956025040E+00    0.1228377947E+00    0.2300264332E+00
    0.5000000000E+05    0.6114474780E-02    0.1288667913E-02    0.6957724423E+00    0.1203653677E+00    0.2841320595E+00
    0.7000000000E+05    0.4762061088E-02    0.1016108393E-02    0.6958455712E+00    0.1144164796E+00    0.3225790777E+00
    0.9000000000E+05    0.3825437505E-02    0.8244193476E-03    0.6958863288E+00    0.1080472163E+00    0.3524231166E+00
    0.1100000000E+06    0.3149509874E-02    0.6844500728E-03    0.6959123363E+00    0.1019806757E+00    0.3766983350E+00
    0.1300000000E+06    0.2644075932E-02    0.5787767516E-03    0.6959303849E+00    0.9639449671E-01    0.3970350666E+00
    0.1500000000E+06    0.2255028656E-02    0.4967708866E-03    0.6959436495E+00    0.9130635651E-01    0.4144273671E+00
    0.1700000000E+06    0.1948399888E-02    0.4316767224E-03    0.6959538133E+00    0.8668393954E-01    0.4295327329E+00
    0.1900000000E+06    0.1701948906E-02    0.3790266233E-03    0.6959618523E+00    0.8248128876E-01    0.4428114193E+00
    0.2100000000E+06    0.1500576870E-02    0.3357620153E-03    0.6959683714E+00    0.7865162777E-01    0.4545993414E+00
    0.2300000000E+06    0.1333712848E-02    0.2997258742E-03    0.6959737655E+00    0.7515178827E-01    0.4651496419E+00
    0.2500000000E+06    0.1193758771E-02    0.2693577457E-03    0.6959783036E+00    0.7194345480E-01    0.4746579893E+00
    0.2700000000E+06    0.1075128389E-02    0.2435036653E-03    0.6959821751E+00    0.6899318675E-01    0.4832787798E+00
    0.2900000000E+06    0.9736331113E-03    0.2212937972E-03    0.6959855173E+00    0.6627199706E-01    0.4911359498E+00
    0.3100000000E+06    0.8860778260E-03    0.2020613908E-03    0.6959884321E+00    0.6375480601E-01    0.4983304373E+00
    0.3300000000E+06    0.8099879793E-03    0.1852877358E-03    0.6959909968E+00    0.6141989800E-01    0.5049454794E+00
    0.3500000000E+06    0.7434210262E-03    0.1705639363E-03    0.6959932713E+00    0.5924842945E-01    0.5110504627E+00
    0.3700000000E+06    0.6848335127E-03    0.1575638310E-03    0.6959953023E+00    0.5722400093E-01    0.5167037807E+00
    0.3900000000E+06    0.6329856633E-03    0.1460244687E-03    0.6959971271E+00    0.5533229264E-01    0.5219549914E+00
    0.4100000000E+06    0.5868717673E-03    0.1357318029E-03    0.6959987756E+00    0.5356075701E-01    0.5268464729E+00
    0.4300000000E+06    0.5456686373E-03    0.1265100597E-03    0.6960002724E+00    0.5189836044E-01    0.5314147106E+00
    0.4500000000E+06    0.5086969356E-03    0.1182137296E-03    0.6960016376E+00    0.5033536674E-01    0.5356913107E+00
    0.4700000000E+06    0.4753918008E-03    0.1107214654E-03    0.6960028878E+00    0.4886315515E-01    0.5397038074E+00
    0.4900000000E+06    0.4452802874E-03    0.1039313792E-03    0.6960040371E+00    0.4747406730E-01    0.5434763105E+00
    0.1000000000E+06    0.3461633358E-02    0.7492653113E-03    0.6959006247E+00    0.1049590029E+00    0.3651346282E+00
    0.3000000000E+06    0.9282819802E-03    0.2113407869E-03    0.6959870228E+00    0.6498933171E-01    0.4948104625E+00
    0.5000000000E+06    0.4312950866E-03    0.1007722160E-03    0.6960045777E+00    0.4680853248E-01    0.5452792942E+00
    0.7000000000E+06    0.2492262370E-03    0.5925848279E-04    0.6960121759E+00    0.3654367670E-01    0.5727553314E+00
    0.9000000000E+06    0.1624141816E-03    0.3912457127E-04    0.6960164284E+00    0.2995478723E-01    0.5901065760E+00
    0.1100000000E+07    0.1142858044E-03    0.2781562910E-04    0.6960191505E+00    0.2536885420E-01    0.6020725976E+00
    0.1300000000E+07    0.8483431765E-04    0.2082158031E-04    0.6960210439E+00    0.2199401336E-01    0.6108269733E+00
    0.1500000000E+07    0.6550454331E-04    0.1619018154E-04    0.6960224378E+00    0.1940706262E-01    0.6175104423E+00
    0.1700000000E+07    0.5213567659E-04    0.1296239723E-04    0.6960235071E+00    0.1736131839E-01    0.6227801540E+00
    0.1900000000E+07    0.4250528631E-04    0.1062159241E-04    0.6960243534E+00    0.1570329006E-01    0.6270416419E+00
    0.2100000000E+07    0.3533818716E-04    0.8869129058E-05    0.6960250399E+00    0.1433247952E-01    0.6305588206E+00
    0.2300000000E+07    0.2986008159E-04    0.7522480849E-05    0.6960256080E+00    0.1318033519E-01    0.6335108748E+00
    0.2500000000E+07    0.2557869604E-04    0.6464919643E-05    0.6960260857E+00    0.1219849675E-01    0.6360237480E+00
    0.2700000000E+07    0.2216890296E-04    0.5618939607E-05    0.6960264930E+00    0.1135187381E-01    0.6381885543E+00
    0.2900000000E+07    0.1940895850E-04    0.4931422423E-05    0.6960268443E+00    0.1061438844E-01    0.6400728409E+00
    0.3100000000E+07    0.1714341819E-04    0.4364964638E-05    0.6960271503E+00    0.9966257632E-02    0.6417277455E+00
    0.3300000000E+07    0.1526069462E-04    0.3892604342E-05    0.6960274192E+00    0.9392202862E-02    0.6431926934E+00
    0.3500000000E+07    0.1367900362E-04    0.3494504412E-05    0.6960276573E+00    0.8880237737E-02    0.6444985689E+00
    0.3700000000E+07    0.1233729753E-04    0.3155804024E-05    0.6960278695E+00    0.8420827054E-02    0.6456699090E+00
    0.3900000000E+07    0.1118926077E-04    0.2865190429E-05    0.6960280597E+00    0.8006291035E-02    0.6467264540E+00
    0.4100000000E+07    0.1019924026E-04    0.2613927493E-05    0.6960282313E+00    0.7630375212E-02    0.6476842647E+00
    0.4300000000E+07    0.9339429535E-05    0.2395181262E-05    0.6960283866E+00    0.7287934613E-02    0.6485565414E+00
    0.4500000000E+07    0.8587883792E-05    0.2203543047E-05    0.6960285280E+00    0.6974698334E-02    0.6493542331E+00
    0.4700000000E+07    0.7927097017E-05    0.2034686530E-05    0.6960286570E+00    0.6687091594E-02    0.6500864980E+00
    0.4900000000E+07    0.7342966393E-05    0.1885117489E-05    0.6960287754E+00    0.6422099547E-02    0.6507610550E+00
    0.1000000000E+07    0.1351768549E-03    0.3274047144E-04    0.6960179238E+00    0.2747312782E-01    0.5965924122E+00
    0.3000000000E+07    0.1822219467E-04    0.4634944930E-05    0.6960270024E+00    0.1028019778E-01    0.6409262704E+00
    0.5000000000E+07    0.7075978262E-05    0.1816654761E-05    0.6960288309E+00    0.6297268556E-02    0.6510787799E+00
    0.7000000000E+07    0.3853586844E-05    0.9845287315E-06    0.6960295985E+00    0.4530809959E-02    0.6555723054E+00
    0.9000000000E+07    0.2487346756E-05    0.6276783253E-06    0.6960300092E+00    0.3534809528E-02    0.6581043246E+00
    0.1100000000E+08    0.1778550486E-05    0.4414020234E-06    0.6960302573E+00    0.2895975015E-02    0.6597280568E+00
    0.1300000000E+08    0.1361449264E-05    0.3314815974E-06    0.6960304180E+00    0.2451636594E-02    0.6608574358E+00
    0.1500000000E+08    0.1093804649E-05    0.2609242353E-06    0.6960305266E+00    0.2124831302E-02    0.6616881532E+00
    0.1700000000E+08    0.9108422923E-06    0.2127629238E-06    0.6960306017E+00    0.1874444238E-02    0.6623247059E+00
    0.1900000000E+08    0.7795736895E-06    0.1783095622E-06    0.6960306543E+00    0.1676521174E-02    0.6628279601E+00
    0.2100000000E+08    0.6817304405E-06    0.1527328887E-06    0.6960306909E+00    0.1516164818E-02    0.6632357639E+00
    0.2300000000E+08    0.6065137526E-06    0.1331681459E-06    0.6960307159E+00    0.1383625837E-02    0.6635728846E+00
    0.2500000000E+08    0.5471972192E-06    0.1178268522E-06    0.6960307322E+00    0.1272257005E-02    0.6638562084E+00
    0.2700000000E+08    0.4994070929E-06    0.1055442407E-06    0.6960307420E+00    0.1177370892E-02    0.6640976432E+00
