  Pressure (Pa) 22mC5-500 (mol/kg) 23mC5-500 (mol/kg) 24mC5-500 (mol/kg) 2mC6-500 (mol/kg) 3mC6-500 (mol/kg)
    0.1000000000E+01    0.9901351457E-05    0.9581619105E-06    0.1266307034E+00    0.5460549271E-04    0.1042115970E-04
    0.3000000000E+01    0.2365521157E-04    0.2292553317E-05    0.2785185958E+00    0.1358833044E-03    0.3125739413E-04
    0.5000000000E+01    0.3391331127E-04    0.3292150674E-05    0.3664236890E+00    0.2025174841E-03    0.5208558246E-04
    0.7000000000E+01    0.4269118338E-04    0.4150923424E-05    0.4237436587E+00    0.2638293047E-03    0.7290576124E-04
    0.9000000000E+01    0.5074509082E-04    0.4941334952E-05    0.4640766147E+00    0.3229860825E-03    0.9371794949E-04
    0.1100000000E+02    0.5841109883E-04    0.5695432895E-05    0.4939998898E+00    0.3812433467E-03    0.1145221597E-03
    0.1300000000E+02    0.6585619796E-04    0.6429058800E-05    0.5170832067E+00    0.4391471891E-03    0.1353184014E-03
    0.1500000000E+02    0.7317018185E-04    0.7150682083E-05    0.5354314621E+00    0.4969478068E-03    0.1561066828E-03
    0.1700000000E+02    0.8040422075E-04    0.7865098301E-05    0.5503661965E+00    0.5547616614E-03    0.1768870109E-03
    0.1900000000E+02    0.8758877538E-04    0.8575141475E-05    0.5627590014E+00    0.6126413543E-03    0.1976593926E-03
    0.2100000000E+02    0.9474258543E-04    0.9282540548E-05    0.5732079983E+00    0.6706079195E-03    0.2184238341E-03
    0.2300000000E+02    0.1018774648E-03    0.9988374739E-05    0.5821372952E+00    0.7286665507E-03    0.2391803418E-03
    0.2500000000E+02    0.1090009899E-03    0.1069332791E-04    0.5898559808E+00    0.7868145608E-03    0.2599289217E-03
    0.2700000000E+02    0.1161180696E-03    0.1139783658E-04    0.5965946422E+00    0.8450455184E-03    0.2806695796E-03
    0.2900000000E+02    0.1232318949E-03    0.1210217901E-04    0.6025287990E+00    0.9033514275E-03    0.3014023215E-03
    0.3100000000E+02    0.1303445286E-03    0.1280653039E-04    0.6077944172E+00    0.9617238772E-03    0.3221271530E-03
    0.3300000000E+02    0.1374572823E-03    0.1351099787E-04    0.6124984564E+00    0.1020154636E-02    0.3428440801E-03
    0.3500000000E+02    0.1445709617E-03    0.1421564324E-04    0.6167262138E+00    0.1078635945E-02    0.3635531083E-03
    0.3700000000E+02    0.1516860287E-03    0.1492049789E-04    0.6205465442E+00    0.1137160641E-02    0.3842542434E-03
    0.3900000000E+02    0.1588027111E-03    0.1562557279E-04    0.6240156397E+00    0.1195722195E-02    0.4049474909E-03
    0.4100000000E+02    0.1659210770E-03    0.1633086530E-04    0.6271798130E+00    0.1254314698E-02    0.4256328567E-03
    0.4300000000E+02    0.1730410866E-03    0.1703636374E-04    0.6300775770E+00    0.1312932825E-02    0.4463103461E-03
    0.4500000000E+02    0.1801626274E-03    0.1774205065E-04    0.6327412205E+00    0.1371571788E-02    0.4669799649E-03
    0.4700000000E+02    0.1872855393E-03    0.1844790491E-04    0.6351980169E+00    0.1430227285E-02    0.4876417186E-03
    0.4900000000E+02    0.1944096325E-03    0.1915390335E-04    0.6374711617E+00    0.1488895453E-02    0.5082956128E-03
    0.1000000000E+02    0.5461365042E-04    0.5321694422E-05    0.4800701801E+00    0.3521831162E-03    0.1041210512E-03
    0.3000000000E+02    0.1267882645E-03    0.1245434560E-04    0.6052379092E+00    0.9325298579E-03    0.3117657257E-03
    0.5000000000E+02    0.1979720577E-03    0.1950694909E-04    0.6385451823E+00    0.1518233188E-02    0.5186196143E-03
    0.7000000000E+02    0.2692307086E-03    0.2656966352E-04    0.6539716770E+00    0.2104976048E-02    0.7246883759E-03
    0.9000000000E+02    0.3403862574E-03    0.3362292173E-04    0.6628694448E+00    0.2690595823E-02    0.9299775163E-03
    0.1100000000E+03    0.4113148760E-03    0.4065406341E-04    0.6686593411E+00    0.3274235419E-02    0.1134492471E-02
    0.1300000000E+03    0.4819445614E-03    0.4765587908E-04    0.6727276373E+00    0.3855504004E-02    0.1338238616E-02
    0.1500000000E+03    0.5522324941E-03    0.5462412972E-04    0.6757428447E+00    0.4434205090E-02    0.1541221275E-02
    0.1700000000E+03    0.6221523293E-03    0.6155622766E-04    0.6780670169E+00    0.5010234295E-02    0.1743445719E-02
    0.1900000000E+03    0.6916874585E-03    0.6845055190E-04    0.6799133023E+00    0.5583535340E-02    0.1944917168E-02
    0.2100000000E+03    0.7608273058E-03    0.7530607625E-04    0.6814153600E+00    0.6154079005E-02    0.2145640790E-02
    0.2300000000E+03    0.8295651909E-03    0.8212215666E-04    0.6826612550E+00    0.6721852208E-02    0.2345621707E-02
    0.2500000000E+03    0.8978970402E-03    0.8889840364E-04    0.6837113719E+00    0.7286851943E-02    0.2544864989E-02
    0.2700000000E+03    0.9658205771E-03    0.9563460262E-04    0.6846084985E+00    0.7849081729E-02    0.2743375661E-02
    0.2900000000E+03    0.1033334796E-02    0.1023306622E-03    0.6853838004E+00    0.8408549445E-02    0.2941158699E-02
    0.3100000000E+03    0.1100439609E-02    0.1089865799E-03    0.6860605163E+00    0.8965265946E-02    0.3138219033E-02
    0.3300000000E+03    0.1167135602E-02    0.1156024182E-03    0.6866563275E+00    0.9519244156E-02    0.3334561545E-02
    0.3500000000E+03    0.1233423865E-02    0.1221782881E-03    0.6871849256E+00    0.1007049846E-01    0.3530191073E-02
    0.3700000000E+03    0.1299305870E-02    0.1287143369E-03    0.6876570776E+00    0.1061904428E-01    0.3725112411E-02
    0.3900000000E+03    0.1364783376E-02    0.1352107401E-03    0.6880813674E+00    0.1116489778E-01    0.3919330305E-02
    0.4100000000E+03    0.1429858368E-02    0.1416676943E-03    0.6884647221E+00    0.1170807565E-01    0.4112849459E-02
    0.4300000000E+03    0.1494533001E-02    0.1480854123E-03    0.6888127938E+00    0.1224859493E-01    0.4305674535E-02
    0.4500000000E+03    0.1558809566E-02    0.1544641200E-03    0.6891302396E+00    0.1278647293E-01    0.4497810149E-02
    0.4700000000E+03    0.1622690455E-02    0.1608040529E-03    0.6894209316E+00    0.1332172712E-01    0.4689260876E-02
    0.4900000000E+03    0.1686178141E-02    0.1671054539E-03    0.6896881156E+00    0.1385437506E-01    0.4880031250E-02
    0.1000000000E+03    0.3758843262E-03    0.3714179935E-04    0.6660413640E+00    0.2982694015E-02    0.1032331429E-02
    0.3000000000E+03    0.1066938355E-02    0.1056636362E-03    0.6857332676E+00    0.8687250830E-02    0.3039778898E-02
    0.5000000000E+03    0.1717775323E-02    0.1702417826E-03    0.6898137656E+00    0.1411972720E-01    0.4975162709E-02
    0.7000000000E+03    0.2329714950E-02    0.2310080825E-03    0.6915778442E+00    0.1929423687E-01    0.6843149604E-02
    0.9000000000E+03    0.2905363884E-02    0.2882177438E-03    0.6925619602E+00    0.2422792694E-01    0.8647997155E-02
    0.1100000000E+04    0.3447290821E-02    0.3421216297E-03    0.6931897658E+00    0.2893686499E-01    0.1039359829E-01
    0.1300000000E+04    0.3957887105E-02    0.3929531150E-03    0.6936251229E+00    0.3343581771E-01    0.1208352002E-01
    0.1500000000E+04    0.4439351350E-02    0.4409267234E-03    0.6939447691E+00    0.3773831949E-01    0.1372103729E-01
    0.1700000000E+04    0.4893698585E-02    0.4862390677E-03    0.6941894291E+00    0.4185678063E-01    0.1530916269E-01
    0.1900000000E+04    0.5322774954E-02    0.5290703015E-03    0.6943827225E+00    0.4580259510E-01    0.1685067254E-01
    0.2100000000E+04    0.5728273036E-02    0.5695856203E-03    0.6945392915E+00    0.4958623964E-01    0.1834812995E-01
    0.2300000000E+04    0.6111746348E-02    0.6079366764E-03    0.6946686956E+00    0.5321736285E-01    0.1980390523E-01
    0.2500000000E+04    0.6474622604E-02    0.6442628720E-03    0.6947774413E+00    0.5670486461E-01    0.2122019391E-01
    0.2700000000E+04    0.6818215680E-02    0.6786925234E-03    0.6948701107E+00    0.6005696692E-01    0.2259903283E-01
    0.2900000000E+04    0.7143736339E-02    0.7113439058E-03    0.6949500240E+00    0.6328127688E-01    0.2394231442E-01
    0.3100000000E+04    0.7452301839E-02    0.7423261871E-03    0.6950196460E+00    0.6638484297E-01    0.2525179954E-01
    0.3300000000E+04    0.7744944516E-02    0.7717402641E-03    0.6950808448E+00    0.6937420521E-01    0.2652912884E-01
    0.3500000000E+04    0.8022619482E-02    0.7996795101E-03    0.6951350621E+00    0.7225544011E-01    0.2777583306E-01
    0.3700000000E+04    0.8286211507E-02    0.8262304452E-03    0.6951834285E+00    0.7503420093E-01    0.2899334225E-01
    0.3900000000E+04    0.8536541205E-02    0.8514733379E-03    0.6952268427E+00    0.7771575383E-01    0.3018299402E-01
    0.4100000000E+04    0.8774370583E-02    0.8754827447E-03    0.6952660284E+00    0.8030501039E-01    0.3134604107E-01
    0.4300000000E+04    0.9000408043E-02    0.8983279971E-03    0.6953015750E+00    0.8280655694E-01    0.3248365792E-01
    0.4500000000E+04    0.9215312883E-02    0.9200736388E-03    0.6953339669E+00    0.8522468097E-01    0.3359694703E-01
    0.4700000000E+04    0.9419699360E-02    0.9407798220E-03    0.6953636064E+00    0.8756339508E-01    0.3468694438E-01
    0.4900000000E+04    0.9614140364E-02    0.9605026642E-03    0.6953908302E+00    0.8982645863E-01    0.3575462447E-01
    0.1000000000E+04    0.3180388601E-02    0.3155678776E-03    0.6929071021E+00    0.2660953699E-01    0.9527973366E-02
    0.3000000000E+04    0.7300072067E-02    0.7270371933E-03    0.6949859930E+00    0.6484773279E-01    0.2460117631E-01
    0.5000000000E+04    0.9707799856E-02    0.9700118463E-03    0.6954036266E+00    0.9093073187E-01    0.3628038441E-01
    0.7000000000E+04    0.1117142706E-01    0.1119607888E-02    0.6955828696E+00    0.1097941010E+00    0.4582069995E-01
    0.9000000000E+04    0.1207450531E-01    0.1213459668E-02    0.6956825360E+00    0.1240201595E+00    0.5390638576E-01
    0.1100000000E+05    0.1262657249E-01    0.1272195695E-02    0.6957460010E+00    0.1350906442E+00    0.6094577388E-01
    0.1300000000E+05    0.1295001624E-01    0.1307908142E-02    0.6957899612E+00    0.1439165998E+00    0.6719957622E-01
    0.1500000000E+05    0.1312010190E-01    0.1328062142E-02    0.6958222132E+00    0.1510890908E+00    0.7284323237E-01
    0.1700000000E+05    0.1318504195E-01    0.1337459425E-02    0.6958468861E+00    0.1570084275E+00    0.7799986844E-01
    0.1900000000E+05    0.1317675211E-01    0.1339292756E-02    0.6958663718E+00    0.1619554369E+00    0.8275891998E-01
    0.2100000000E+05    0.1311693577E-01    0.1335743640E-02    0.6958821510E+00    0.1661329905E+00    0.8718723906E-01
    0.2300000000E+05    0.1302068279E-01    0.1328336631E-02    0.6958951900E+00    0.1696913291E+00    0.9133602253E-01
    0.2500000000E+05    0.1289867954E-01    0.1318157410E-02    0.6959061459E+00    0.1727441103E+00    0.9524530012E-01
    0.2700000000E+05    0.1275861011E-01    0.1305991389E-02    0.6959154812E+00    0.1753789175E+00    0.9894693723E-01
    0.2900000000E+05    0.1260606945E-01    0.1292414265E-02    0.6959235310E+00    0.1776643394E+00    0.1024667010E+00
    0.3100000000E+05    0.1244517300E-01    0.1277852626E-02    0.6959305437E+00    0.1796548592E+00    0.1058257171E+00
    0.3300000000E+05    0.1227897207E-01    0.1262625379E-02    0.6959367079E+00    0.1813943062E+00    0.1090415191E+00
    0.3500000000E+05    0.1210974242E-01    0.1246972594E-02    0.6959421689E+00    0.1829183398E+00    0.1121288187E+00
    0.3700000000E+05    0.1193918784E-01    0.1231075927E-02    0.6959470405E+00    0.1842562686E+00    0.1151000821E+00
    0.3900000000E+05    0.1176858602E-01    0.1215073295E-02    0.6959514134E+00    0.1854324038E+00    0.1179659659E+00
    0.4100000000E+05    0.1159889437E-01    0.1199069559E-02    0.6959553605E+00    0.1864670798E+00    0.1207356532E+00
    0.4300000000E+05    0.1143082772E-01    0.1183144392E-02    0.6959589411E+00    0.1873774350E+00    0.1234171152E+00
    0.4500000000E+05    0.1126491599E-01    0.1167358147E-02    0.6959622040E+00    0.1881780147E+00    0.1260173174E+00
    0.4700000000E+05    0.1110154736E-01    0.1151756260E-02    0.6959651899E+00    0.1888812423E+00    0.1285423834E+00
    0.4900000000E+05    0.1094100091E-01    0.1136372595E-02    0.6959679324E+00    0.1894977922E+00    0.1309977273E+00
    0.1000000000E+05    0.1238532942E-01    0.1246320468E-02    0.6957174373E+00    0.1298832976E+00    0.5753804173E-01
    0.3000000000E+05    0.1252645393E-01    0.1285234442E-02    0.6959271540E+00    0.1786935060E+00    0.1041651327E+00
    0.5000000000E+05    0.1086184963E-01    0.1128770656E-02    0.6959692216E+00    0.1897764945E+00    0.1322007780E+00
    0.7000000000E+05    0.9447204173E-02    0.9912625945E-03    0.6959872842E+00    0.1924903478E+00    0.1535321830E+00
    0.9000000000E+05    0.8325432291E-02    0.8803822245E-03    0.6959973338E+00    0.1921818949E+00    0.1711987017E+00
    0.1100000000E+06    0.7427644009E-02    0.7906081190E-03    0.6960037372E+00    0.1905437998E+00    0.1864769029E+00
    0.1300000000E+06    0.6695507791E-02    0.7167351255E-03    0.6960081753E+00    0.1882659171E+00    0.2000395228E+00
    0.1500000000E+06    0.6087497974E-02    0.6549270072E-03    0.6960114333E+00    0.1856736867E+00    0.2122914094E+00
    0.1700000000E+06    0.5574470261E-02    0.6024394045E-03    0.6960139270E+00    0.1829356539E+00    0.2234984802E+00
    0.1900000000E+06    0.5135653404E-02    0.5572908571E-03    0.6960158974E+00    0.1801446517E+00    0.2338465895E+00
    0.2100000000E+06    0.4755921638E-02    0.5180242070E-03    0.6960174938E+00    0.1773538710E+00    0.2434717971E+00
    0.2300000000E+06    0.4424019657E-02    0.4835465231E-03    0.6960188136E+00    0.1745944493E+00    0.2524773501E+00
    0.2500000000E+06    0.4131403029E-02    0.4530225447E-03    0.6960199230E+00    0.1718846811E+00    0.2609438702E+00
    0.2700000000E+06    0.3871467368E-02    0.4258029049E-03    0.6960208686E+00    0.1692351169E+00    0.2689357970E+00
    0.2900000000E+06    0.3639025063E-02    0.4013749119E-03    0.6960216844E+00    0.1666515148E+00    0.2765056423E+00
    0.3100000000E+06    0.3429942494E-02    0.3793281465E-03    0.6960223954E+00    0.1641366129E+00    0.2836969020E+00
    0.3300000000E+06    0.3240883427E-02    0.3593299612E-03    0.6960230205E+00    0.1616912250E+00    0.2905461089E+00
    0.3500000000E+06    0.3069124099E-02    0.3411077214E-03    0.6960235745E+00    0.1593149343E+00    0.2970843182E+00
    0.3700000000E+06    0.2912417699E-02    0.3244357220E-03    0.6960240689E+00    0.1570065423E+00    0.3033382067E+00
    0.3900000000E+06    0.2768893469E-02    0.3091254026E-03    0.6960245128E+00    0.1547643623E+00    0.3093309019E+00
    0.4100000000E+06    0.2636980530E-02    0.2950179282E-03    0.6960249136E+00    0.1525864150E+00    0.3150826175E+00
    0.4300000000E+06    0.2515349604E-02    0.2819784922E-03    0.6960252772E+00    0.1504705585E+00    0.3206111495E+00
    0.4500000000E+06    0.2402867907E-02    0.2698918908E-03    0.6960256087E+00    0.1484145762E+00    0.3259322669E+00
    0.4700000000E+06    0.2298563846E-02    0.2586590485E-03    0.6960259122E+00    0.1464162354E+00    0.3310600249E+00
    0.4900000000E+06    0.2201599115E-02    0.2481942623E-03    0.6960261909E+00    0.1444733262E+00    0.3360070173E+00
    0.1000000000E+06    0.7852618890E-02    0.8332151674E-03    0.6960008547E+00    0.1914733803E+00    0.1790856797E+00
    0.3000000000E+06    0.3531788562E-02    0.3900762539E-03    0.6960220517E+00    0.1653853900E+00    0.2801461686E+00
    0.5000000000E+06    0.2155637898E-02    0.2432262131E-03    0.6960263220E+00    0.1435219807E+00    0.3384163139E+00
    0.7000000000E+06    0.1487301962E-02    0.1703531727E-03    0.6960281601E+00    0.1269203517E+00    0.3793595084E+00
    0.9000000000E+06    0.1099615859E-02    0.1274285102E-03    0.6960291843E+00    0.1138936868E+00    0.4104236545E+00
    0.1100000000E+07    0.8507413118E-03    0.9954045957E-04    0.6960298376E+00    0.1033696951E+00    0.4350555211E+00
    0.1300000000E+07    0.6799537763E-03    0.8021216869E-04    0.6960302905E+00    0.9467080180E-01    0.4551763173E+00
    0.1500000000E+07    0.5570170048E-03    0.6618124368E-04    0.6960306230E+00    0.8734864955E-01    0.4719754703E+00
    0.1700000000E+07    0.4652649758E-03    0.5563200732E-04    0.6960308775E+00    0.8109360465E-01    0.4862416216E+00
    0.1900000000E+07    0.3948088241E-03    0.4747809404E-04    0.6960310785E+00    0.7568414351E-01    0.4985238625E+00
    0.2100000000E+07    0.3394415995E-03    0.4103259739E-04    0.6960312411E+00    0.7095711099E-01    0.5092188833E+00
    0.2300000000E+07    0.2950901575E-03    0.3584178505E-04    0.6960313755E+00    0.6678940544E-01    0.5186217404E+00
    0.2500000000E+07    0.2589831025E-03    0.3159509712E-04    0.6960314883E+00    0.6308623499E-01    0.5269571570E+00
    0.2700000000E+07    0.2291771550E-03    0.2807358927E-04    0.6960315843E+00    0.5977332420E-01    0.5343997009E+00
    0.2900000000E+07    0.2042745621E-03    0.2511899431E-04    0.6960316670E+00    0.5679158836E-01    0.5410872719E+00
    0.3100000000E+07    0.1832477349E-03    0.2261442131E-04    0.6960317390E+00    0.5409340121E-01    0.5471303915E+00
    0.3300000000E+07    0.1653267311E-03    0.2047191106E-04    0.6960318021E+00    0.5163992150E-01    0.5526187645E+00
    0.3500000000E+07    0.1499249535E-03    0.1862418077E-04    0.6960318580E+00    0.4939914085E-01    0.5576260166E+00
    0.3700000000E+07    0.1365888397E-03    0.1701901062E-04    0.6960319077E+00    0.4734443392E-01    0.5622131800E+00
    0.3900000000E+07    0.1249630364E-03    0.1561534257E-04    0.6960319522E+00    0.4545346528E-01    0.5664313005E+00
    0.4100000000E+07    0.1147658165E-03    0.1438051611E-04    0.6960319923E+00    0.4370735386E-01    0.5703234165E+00
    0.4300000000E+07    0.1057714195E-03    0.1328827562E-04    0.6960320286E+00    0.4209002658E-01    0.5739260824E+00
    0.4500000000E+07    0.9779716403E-04    0.1231731122E-04    0.6960320616E+00    0.4058771257E-01    0.5772705528E+00
    0.4700000000E+07    0.9069390850E-04    0.1145017531E-04    0.6960320918E+00    0.3918854344E-01    0.5803837161E+00
    0.4900000000E+07    0.8433889686E-04    0.1067246748E-04    0.6960321194E+00    0.3788223449E-01    0.5832888350E+00
    0.1000000000E+07    0.9626608878E-03    0.1121187355E-03    0.6960295435E+00    0.1083680403E+00    0.4234005828E+00
    0.3000000000E+07    0.1933298230E-03    0.2381651803E-04    0.6960317042E+00    0.5540965891E-01    0.5441833565E+00
    0.5000000000E+07    0.8140947258E-04    0.1031332646E-04    0.6960321323E+00    0.3726105745E-01    0.5846698048E+00
    0.7000000000E+07    0.4465628916E-04    0.5764606289E-05    0.6960323109E+00    0.2804707050E-01    0.6051203552E+00
    0.9000000000E+07    0.2816000055E-04    0.3686860305E-05    0.6960324063E+00    0.2247234577E-01    0.6174659803E+00
    0.1100000000E+08    0.1936397899E-04    0.2564005264E-05    0.6960324641E+00    0.1873745383E-01    0.6257270716E+00
    0.1300000000E+08    0.1412690971E-04    0.1888142990E-05    0.6960325018E+00    0.1606142879E-01    0.6316416365E+00
    0.1500000000E+08    0.1075922460E-04    0.1449527002E-05    0.6960325275E+00    0.1405041676E-01    0.6360841723E+00
    0.1700000000E+08    0.8466798997E-05    0.1148582780E-05    0.6960325455E+00    0.1248426751E-01    0.6395427626E+00
    0.1900000000E+08    0.6836383705E-05    0.9330509442E-06    0.6960325584E+00    0.1123029501E-01    0.6423112724E+00
    0.2100000000E+08    0.5635707351E-05    0.7733401482E-06    0.6960325676E+00    0.1020377533E-01    0.6445772001E+00
    0.2300000000E+08    0.4726079166E-05    0.6516648147E-06    0.6960325742E+00    0.9348077846E-02    0.6464657992E+00
    0.2500000000E+08    0.4020542991E-05    0.5568078065E-06    0.6960325789E+00    0.8623916492E-02    0.6480639222E+00
    0.2700000000E+08    0.3462339041E-05    0.4814079410E-06    0.6960325820E+00    0.8003184356E-02    0.6494336847E+00
