  Pressure (Pa) 22mC5-500 (mol/kg) 23mC5-500 (mol/kg) 24mC5-500 (mol/kg) 2mC6-500 (mol/kg) 3mC6-500 (mol/kg)
    0.1000000000E+01    0.9901616555E-05    0.4790938142E-05    0.1266328411E+00    0.3276417994E-04    0.1042139756E-04
    0.3000000000E+01    0.2365697880E-04    0.1146362598E-04    0.2785276012E+00    0.8153618003E-04    0.3125953397E-04
    0.5000000000E+01    0.3391758013E-04    0.1646283326E-04    0.3664374368E+00    0.1215259899E-03    0.5209152401E-04
    0.7000000000E+01    0.4269898194E-04    0.2075842152E-04    0.4237600587E+00    0.1583265196E-03    0.7291740189E-04
    0.9000000000E+01    0.5075749786E-04    0.2471273224E-04    0.4640943310E+00    0.1938383125E-03    0.9373718432E-04
    0.1100000000E+02    0.5842922302E-04    0.2848601793E-04    0.4940181189E+00    0.2288147639E-03    0.1145508815E-03
    0.1300000000E+02    0.6588116351E-04    0.3215749375E-04    0.5171014708E+00    0.2635835631E-03    0.1353585006E-03
    0.1500000000E+02    0.7320312053E-04    0.3576951034E-04    0.5354494785E+00    0.2982948409E-03    0.1561600473E-03
    0.1700000000E+02    0.8044626765E-04    0.3934604702E-04    0.5503838009E+00    0.3330184766E-03    0.1769555267E-03
    0.1900000000E+02    0.8764106654E-04    0.4290127432E-04    0.5627761021E+00    0.3677860284E-03    0.1977449431E-03
    0.2100000000E+02    0.9480625663E-04    0.4644383679E-04    0.5732245482E+00    0.4026101116E-03    0.2185283006E-03
    0.2300000000E+02    0.1019536508E-03    0.4997912999E-04    0.5821532754E+00    0.4374938361E-03    0.2393056030E-03
    0.2500000000E+02    0.1090908241E-03    0.5351057256E-04    0.5898713899E+00    0.4724355832E-03    0.2600768541E-03
    0.2700000000E+02    0.1162226838E-03    0.5704034630E-04    0.5966094893E+00    0.5074314870E-03    0.2808420576E-03
    0.2900000000E+02    0.1233524191E-03    0.6056984166E-04    0.6025431001E+00    0.5424767431E-03    0.3016012170E-03
    0.3100000000E+02    0.1304820911E-03    0.6409993374E-04    0.6078081917E+00    0.5775662983E-03    0.3223543357E-03
    0.3300000000E+02    0.1376130097E-03    0.6763115741E-04    0.6125117259E+00    0.6126952071E-03    0.3431014173E-03
    0.3500000000E+02    0.1447459786E-03    0.7116382072E-04    0.6167390007E+00    0.6478588072E-03    0.3638424652E-03
    0.3700000000E+02    0.1518814580E-03    0.7469807973E-04    0.6205588709E+00    0.6830527945E-03    0.3845774826E-03
    0.3900000000E+02    0.1590196739E-03    0.7823398847E-04    0.6240275282E+00    0.7182732450E-03    0.4053064731E-03
    0.4100000000E+02    0.1661606928E-03    0.8177153279E-04    0.6271912846E+00    0.7535166071E-03    0.4260294400E-03
    0.4300000000E+02    0.1733044728E-03    0.8531065355E-04    0.6300886521E+00    0.7887796795E-03    0.4467463865E-03
    0.4500000000E+02    0.1804508997E-03    0.8885126247E-04    0.6327519186E+00    0.8240595832E-03    0.4674573161E-03
    0.4700000000E+02    0.1875998119E-03    0.9239325322E-04    0.6352083565E+00    0.8593537312E-03    0.4881622320E-03
    0.4900000000E+02    0.1947510177E-03    0.9593650900E-04    0.6374811602E+00    0.8946597990E-03    0.5088611375E-03
    0.1000000000E+02    0.5462877623E-04    0.2661585913E-04    0.4800882290E+00    0.2113670306E-03    0.1041447931E-03
    0.3000000000E+02    0.1269171669E-03    0.6233477327E-04    0.6052519444E+00    0.5600162976E-03    0.3119785312E-03
    0.5000000000E+02    0.1983274157E-03    0.9770857327E-04    0.6385550165E+00    0.9123166411E-03    0.5192083374E-03
    0.7000000000E+02    0.2699235074E-03    0.1331872253E-03    0.6539789223E+00    0.1265671585E-02    0.7258375925E-03
    0.9000000000E+02    0.3415258150E-03    0.1686720823E-03    0.6628750012E+00    0.1618777669E-02    0.9318695541E-03
    0.1100000000E+03    0.4130088992E-03    0.2040990584E-03    0.6686637252E+00    0.1971114918E-02    0.1137307438E-02
    0.1300000000E+03    0.4842991793E-03    0.2394313382E-03    0.6727311672E+00    0.2322443213E-02    0.1342154428E-02
    0.1500000000E+03    0.5553522846E-03    0.2746469714E-03    0.6757457283E+00    0.2672639127E-02    0.1546413687E-02
    0.1700000000E+03    0.6261403425E-03    0.3097322760E-03    0.6780693966E+00    0.3021634572E-02    0.1750088346E-02
    0.1900000000E+03    0.6966452391E-03    0.3446784138E-03    0.6799152799E+00    0.3369390397E-02    0.1953181519E-02
    0.2100000000E+03    0.7668549142E-03    0.3794795311E-03    0.6814170104E+00    0.3715883761E-02    0.2155696293E-02
    0.2300000000E+03    0.8367612238E-03    0.4141316952E-03    0.6826626347E+00    0.4061101572E-02    0.2357635732E-02
    0.2500000000E+03    0.9063586515E-03    0.4486322559E-03    0.6837125245E+00    0.4405036856E-02    0.2559002879E-02
    0.2700000000E+03    0.9756434975E-03    0.4829794473E-03    0.6846094586E+00    0.4747686625E-02    0.2759800753E-02
    0.2900000000E+03    0.1044613353E-02    0.5171721292E-03    0.6853845954E+00    0.5089050570E-02    0.2960032351E-02
    0.3100000000E+03    0.1113266745E-02    0.5512096146E-03    0.6860611687E+00    0.5429130237E-02    0.3159700651E-02
    0.3300000000E+03    0.1181602895E-02    0.5850915513E-03    0.6866568556E+00    0.5767928478E-02    0.3358808605E-02
    0.3500000000E+03    0.1249621548E-02    0.6188178385E-03    0.6871853446E+00    0.6105449087E-02    0.3557359147E-02
    0.3700000000E+03    0.1317322846E-02    0.6523885668E-03    0.6876574004E+00    0.6441696544E-02    0.3755355188E-02
    0.3900000000E+03    0.1384707240E-02    0.6858039748E-03    0.6880816047E+00    0.6776675834E-02    0.3952799617E-02
    0.4100000000E+03    0.1451775421E-02    0.7190644162E-03    0.6884648833E+00    0.7110392318E-02    0.4149695306E-02
    0.4300000000E+03    0.1518528272E-02    0.7521703355E-03    0.6888128867E+00    0.7442851641E-02    0.4346045101E-02
    0.4500000000E+03    0.1584966826E-02    0.7851222488E-03    0.6891302711E+00    0.7774059656E-02    0.4541851833E-02
    0.4700000000E+03    0.1651092236E-02    0.8179207300E-03    0.6894209077E+00    0.8104022375E-02    0.4737118308E-02
    0.4900000000E+03    0.1716905752E-02    0.8505663986E-03    0.6896880413E+00    0.8432745926E-02    0.4931847316E-02
    0.1000000000E+03    0.3772877525E-03    0.1863955649E-03    0.6660462849E+00    0.1795061275E-02    0.1034662556E-02
    0.3000000000E+03    0.1078979669E-02    0.5342103002E-03    0.6857339888E+00    0.5259250786E-02    0.3059936728E-02
    0.5000000000E+03    0.1749695962E-02    0.8668321322E-03    0.6898136680E+00    0.8596644952E-02    0.5029011135E-02
    0.7000000000E+03    0.2389478891E-02    0.1184298046E-02    0.6915774415E+00    0.1181111251E-01    0.6944736992E-02
    0.9000000000E+03    0.2999820800E-02    0.1487341137E-02    0.6925614143E+00    0.1490890654E-01    0.8809768751E-02
    0.1100000000E+04    0.3582316898E-02    0.1776741223E-02    0.6931891451E+00    0.1789612122E-01    0.1062658107E-01
    0.1300000000E+04    0.4138506912E-02    0.2053249932E-02    0.6936244611E+00    0.2077849467E-01    0.1239748399E-01
    0.1500000000E+04    0.4669843559E-02    0.2317576040E-02    0.6939440847E+00    0.2356139520E-01    0.1412463655E-01
    0.1700000000E+04    0.5177687869E-02    0.2570383463E-02    0.6941887328E+00    0.2624983903E-01    0.1581005907E-01
    0.1900000000E+04    0.5663312035E-02    0.2812292762E-02    0.6943820211E+00    0.2884851447E-01    0.1745564428E-01
    0.2100000000E+04    0.6127904547E-02    0.3043883695E-02    0.6945385890E+00    0.3136180646E-01    0.1906316736E-01
    0.2300000000E+04    0.6572575913E-02    0.3265698033E-02    0.6946679948E+00    0.3379381985E-01    0.2063429501E-01
    0.2500000000E+04    0.6998364328E-02    0.3478242330E-02    0.6947767441E+00    0.3614840091E-01    0.2217059378E-01
    0.2700000000E+04    0.7406241073E-02    0.3681990561E-02    0.6948694182E+00    0.3842915714E-01    0.2367353753E-01
    0.2900000000E+04    0.7797115542E-02    0.3877386567E-02    0.6949493370E+00    0.4063947534E-01    0.2514451433E-01
    0.3100000000E+04    0.8171839884E-02    0.4064846325E-02    0.6950189650E+00    0.4278253813E-01    0.2658483265E-01
    0.3300000000E+04    0.8531213283E-02    0.4244760020E-02    0.6950801701E+00    0.4486133903E-01    0.2799572712E-01
    0.3500000000E+04    0.8875985872E-02    0.4417493958E-02    0.6951343939E+00    0.4687869626E-01    0.2937836370E-01
    0.3700000000E+04    0.9206862330E-02    0.4583392310E-02    0.6951827668E+00    0.4883726532E-01    0.3073384452E-01
    0.3900000000E+04    0.9524505178E-02    0.4742778721E-02    0.6952261876E+00    0.5073955059E-01    0.3206321217E-01
    0.4100000000E+04    0.9829537796E-02    0.4895957773E-02    0.6952653799E+00    0.5258791585E-01    0.3336745384E-01
    0.4300000000E+04    0.1012254720E-01    0.5043216336E-02    0.6953009329E+00    0.5438459405E-01    0.3464750490E-01
    0.4500000000E+04    0.1040408659E-01    0.5184824807E-02    0.6953333312E+00    0.5613169618E-01    0.3590425239E-01
    0.4700000000E+04    0.1067467766E-01    0.5321038244E-02    0.6953629770E+00    0.5783121950E-01    0.3713853815E-01
    0.4900000000E+04    0.1093481281E-01    0.5452097416E-02    0.6953902069E+00    0.5948505509E-01    0.3835116167E-01
    0.1000000000E+04    0.3294451455E-02    0.1633698644E-02    0.6929065132E+00    0.1641596889E-01    0.9724054273E-02
    0.3000000000E+04    0.7986445336E-02    0.3972083510E-02    0.6949853090E+00    0.4171922231E-01    0.2586842696E-01
    0.5000000000E+04    0.1106110574E-01    0.5515765723E-02    0.6954030063E+00    0.6029540363E-01    0.3894958902E-01
    0.7000000000E+04    0.1313824433E-01    0.6567570550E-02    0.6955823027E+00    0.7449273961E-01    0.4994691414E-01
    0.9000000000E+04    0.1456714224E-01    0.7298502475E-02    0.6956820109E+00    0.8567853411E-01    0.5944850769E-01
    0.1100000000E+05    0.1555754350E-01    0.7811485903E-02    0.6957455093E+00    0.9470284369E-01    0.6783090928E-01
    0.1300000000E+05    0.1624187369E-01    0.8171664079E-02    0.6957894971E+00    0.1021220739E+00    0.7534763953E-01
    0.1500000000E+05    0.1670717336E-01    0.8421966484E-02    0.6958217722E+00    0.1083158544E+00    0.8217645621E-01
    0.1700000000E+05    0.1701256654E-01    0.8591634702E-02    0.6958464649E+00    0.1135522084E+00    0.8844622897E-01
    0.1900000000E+05    0.1719932831E-01    0.8701142396E-02    0.6958659677E+00    0.1180258609E+00    0.9425303711E-01
    0.2100000000E+05    0.1729694472E-01    0.8765160750E-02    0.6958817620E+00    0.1218817704E+00    0.9967023822E-01
    0.2300000000E+05    0.1732689688E-01    0.8794412855E-02    0.6958948145E+00    0.1252301316E+00    0.1047550003E+00
    0.2500000000E+05    0.1730509938E-01    0.8796870441E-02    0.6959057824E+00    0.1281562523E+00    0.1095526749E+00
    0.2700000000E+05    0.1724351497E-01    0.8778547575E-02    0.6959151286E+00    0.1307272363E+00    0.1140998057E+00
    0.2900000000E+05    0.1715124953E-01    0.8744039778E-02    0.6959231882E+00    0.1329966193E+00    0.1184262480E+00
    0.3100000000E+05    0.1703531041E-01    0.8696897996E-02    0.6959302100E+00    0.1350076521E+00    0.1225566943E+00
    0.3300000000E+05    0.1690114140E-01    0.8639892915E-02    0.6959363826E+00    0.1367956718E+00    0.1265117931E+00
    0.3500000000E+05    0.1675300653E-01    0.8575204914E-02    0.6959418512E+00    0.1383898440E+00    0.1303089822E+00
    0.3700000000E+05    0.1659426951E-01    0.8504562642E-02    0.6959467300E+00    0.1398144627E+00    0.1339631210E+00
    0.3900000000E+05    0.1642760000E-01    0.8429345479E-02    0.6959511095E+00    0.1410899326E+00    0.1374869744E+00
    0.4100000000E+05    0.1625512765E-01    0.8350660254E-02    0.6959550628E+00    0.1422335235E+00    0.1408915902E+00
    0.4300000000E+05    0.1607855851E-01    0.8269399301E-02    0.6959586492E+00    0.1432599535E+00    0.1441865947E+00
    0.4500000000E+05    0.1589926387E-01    0.8186284872E-02    0.6959619177E+00    0.1441818469E+00    0.1473804282E+00
    0.4700000000E+05    0.1571834861E-01    0.8101903413E-02    0.6959649087E+00    0.1450100961E+00    0.1504805339E+00
    0.4900000000E+05    0.1553670439E-01    0.8016732249E-02    0.6959676561E+00    0.1457541505E+00    0.1534935101E+00
    0.1000000000E+05    0.1510753612E-01    0.7577509805E-02    0.6957169298E+00    0.9042092656E-01    0.6376156617E-01
    0.3000000000E+05    0.1709586739E-01    0.8721859203E-02    0.6959268159E+00    0.1340320584E+00    0.1205145963E+00
    0.5000000000E+05    0.1544583969E-01    0.7973975105E-02    0.6959689476E+00    0.1460972214E+00    0.1549691869E+00
    0.7000000000E+05    0.1370455085E-01    0.7140486871E-02    0.6959870468E+00    0.1500736975E+00    0.1810502872E+00
    0.9000000000E+05    0.1220343721E-01    0.6406766251E-02    0.6959971211E+00    0.1508472574E+00    0.2024917498E+00
    0.1100000000E+06    0.1094472357E-01    0.5783266383E-02    0.6960035425E+00    0.1500927072E+00    0.2208860603E+00
    0.1300000000E+06    0.9887332703E-02    0.5254213366E-02    0.6960079945E+00    0.1485374912E+00    0.2370805856E+00
    0.1500000000E+06    0.8991346963E-02    0.4802251898E-02    0.6960112637E+00    0.1465447670E+00    0.2515892698E+00
    0.1700000000E+06    0.8224580308E-02    0.4412789839E-02    0.6960137667E+00    0.1443129689E+00    0.2647519873E+00
    0.1900000000E+06    0.7562111141E-02    0.4074267176E-02    0.6960157450E+00    0.1419574053E+00    0.2768077026E+00
    0.2100000000E+06    0.6984735164E-02    0.3777638573E-02    0.6960173482E+00    0.1395479864E+00    0.2879322686E+00
    0.2300000000E+06    0.6477555167E-02    0.3515806729E-02    0.6960186738E+00    0.1371283177E+00    0.2982597300E+00
    0.2500000000E+06    0.6028893601E-02    0.3283157231E-02    0.6960197885E+00    0.1347260547E+00    0.3078951576E+00
    0.2700000000E+06    0.5629491365E-02    0.3075204355E-02    0.6960207388E+00    0.1323588327E+00    0.3169228008E+00
    0.2900000000E+06    0.5271923439E-02    0.2888327225E-02    0.6960215588E+00    0.1300378153E+00    0.3254114932E+00
    0.3100000000E+06    0.4950171355E-02    0.2719573851E-02    0.6960222735E+00    0.1277698948E+00    0.3334183670E+00
    0.3300000000E+06    0.4659307764E-02    0.2566514863E-02    0.6960229021E+00    0.1255590989E+00    0.3409914822E+00
    0.3500000000E+06    0.4395261224E-02    0.2427133417E-02    0.6960234593E+00    0.1234075115E+00    0.3481717370E+00
    0.3700000000E+06    0.4154638833E-02    0.2299741522E-02    0.6960239566E+00    0.1213158889E+00    0.3549942854E+00
    0.3900000000E+06    0.3934590974E-02    0.2182915807E-02    0.6960244032E+00    0.1192840787E+00    0.3614896115E+00
    0.4100000000E+06    0.3732707062E-02    0.2075447710E-02    0.6960248065E+00    0.1173113090E+00    0.3676843554E+00
    0.4300000000E+06    0.3546934353E-02    0.1976304487E-02    0.6960251725E+00    0.1153963904E+00    0.3736019594E+00
    0.4500000000E+06    0.3375514096E-02    0.1884598399E-02    0.6960255062E+00    0.1135378585E+00    0.3792631798E+00
    0.4700000000E+06    0.3216930882E-02    0.1799562166E-02    0.6960258117E+00    0.1117340744E+00    0.3846864972E+00
    0.4900000000E+06    0.3069872099E-02    0.1720529230E-02    0.6960260924E+00    0.1099832970E+00    0.3898884487E+00
    0.1000000000E+06    0.1154618780E-01    0.6082075389E-02    0.6960006516E+00    0.1506032032E+00    0.2120061433E+00
    0.3000000000E+06    0.5106900864E-02    0.2801847713E-02    0.6960219280E+00    0.1288969117E+00    0.3294719663E+00
    0.5000000000E+06    0.3000301453E-02    0.1683079249E-02    0.6960262244E+00    0.1091272267E+00    0.3924111167E+00
    0.7000000000E+06    0.2001882759E-02    0.1140754338E-02    0.6960280767E+00    0.9435941616E-01    0.4341770321E+00
    0.9000000000E+06    0.1439227570E-02    0.8302192339E-03    0.6960291102E+00    0.8306795192E-01    0.4644404739E+00
    0.1100000000E+07    0.1087740995E-02    0.6338042167E-03    0.6960297701E+00    0.7417769422E-01    0.4875454458E+00
    0.1300000000E+07    0.8523666461E-03    0.5009229994E-03    0.6960302282E+00    0.6700061924E-01    0.5058291284E+00
    0.1500000000E+07    0.6865742165E-03    0.4065072722E-03    0.6960305648E+00    0.6108583205E-01    0.5206876720E+00
    0.1700000000E+07    0.5651906377E-03    0.3368563292E-03    0.6960308227E+00    0.5612731385E-01    0.5330157375E+00
    0.1900000000E+07    0.4735552926E-03    0.2839213182E-03    0.6960310264E+00    0.5191046234E-01    0.5434167588E+00
    0.2100000000E+07    0.4026297765E-03    0.2427022221E-03    0.6960311916E+00    0.4828042171E-01    0.5523141242E+00
    0.2300000000E+07    0.3465825788E-03    0.2099512346E-03    0.6960313280E+00    0.4512266202E-01    0.5600144245E+00
    0.2500000000E+07    0.3015083707E-03    0.1834800815E-03    0.6960314427E+00    0.4235065534E-01    0.5667455147E+00
    0.2700000000E+07    0.2647089659E-03    0.1617685269E-03    0.6960315403E+00    0.3989780736E-01    0.5726804698E+00
    0.2900000000E+07    0.2342701343E-03    0.1437325745E-03    0.6960316245E+00    0.3771202653E-01    0.5779532285E+00
    0.3100000000E+07    0.2088024641E-03    0.1285817450E-03    0.6960316978E+00    0.3575197747E-01    0.5826691298E+00
    0.3300000000E+07    0.1872772118E-03    0.1157282149E-03    0.6960317622E+00    0.3398443930E-01    0.5869121996E+00
    0.3500000000E+07    0.1689192319E-03    0.1047272729E-03    0.6960318191E+00    0.3238240642E-01    0.5907503059E+00
    0.3700000000E+07    0.1531353232E-03    0.9523730021E-04    0.6960318699E+00    0.3092369926E-01    0.5942388801E+00
    0.3900000000E+07    0.1394651812E-03    0.8699226544E-04    0.6960319153E+00    0.2958993182E-01    0.5974236508E+00
    0.4100000000E+07    0.1275471410E-03    0.7978244088E-04    0.6960319563E+00    0.2836573358E-01    0.6003426845E+00
    0.4300000000E+07    0.1170938155E-03    0.7344063996E-04    0.6960319935E+00    0.2723815547E-01    0.6030279301E+00
    0.4500000000E+07    0.1078744860E-03    0.6783223587E-04    0.6960320272E+00    0.2619621098E-01    0.6055064034E+00
    0.4700000000E+07    0.9970218565E-04    0.6284781625E-04    0.6960320581E+00    0.2523051786E-01    0.6078011059E+00
    0.4900000000E+07    0.9242409551E-04    0.5839770569E-04    0.6960320863E+00    0.2433301561E-01    0.6099317452E+00
    0.1000000000E+07    0.1244687259E-02    0.7217762070E-03    0.6960294729E+00    0.7837268011E-01    0.4767118685E+00
    0.3000000000E+07    0.2209861854E-03    0.1358371928E-03    0.6960316624E+00    0.3670602681E-01    0.5803751040E+00
    0.5000000000E+07    0.8908014437E-04    0.5634935073E-04    0.6960320996E+00    0.2390762226E-01    0.6109409418E+00
    0.7000000000E+07    0.4778748766E-04    0.3081350943E-04    0.6960322831E+00    0.1770236512E-01    0.6256153193E+00
    0.9000000000E+07    0.2973044494E-04    0.1944731328E-04    0.6960323817E+00    0.1404265162E-01    0.6342315588E+00
    0.1100000000E+08    0.2025966913E-04    0.1340461382E-04    0.6960324417E+00    0.1163034252E-01    0.6398968331E+00
    0.1300000000E+08    0.1468476158E-04    0.9808399236E-05    0.6960324811E+00    0.9921349702E-02    0.6439040772E+00
    0.1500000000E+08    0.1112966421E-04    0.7493863534E-05    0.6960325082E+00    0.8647669253E-02    0.6468874237E+00
    0.1700000000E+08    0.8725085306E-05    0.5915869876E-05    0.6960325274E+00    0.7662029738E-02    0.6491943423E+00
    0.1900000000E+08    0.7023517564E-05    0.4791393170E-05    0.6960325412E+00    0.6876811487E-02    0.6510311430E+00
    0.2100000000E+08    0.5775556561E-05    0.3961528052E-05    0.6960325513E+00    0.6236633254E-02    0.6525280302E+00
    0.2300000000E+08    0.4833295512E-05    0.3331417946E-05    0.6960325586E+00    0.5704780398E-02    0.6537712218E+00
    0.2500000000E+08    0.4104520867E-05    0.2841574800E-05    0.6960325639E+00    0.5255955050E-02    0.6548200709E+00
    0.2700000000E+08    0.3529324823E-05    0.2453144354E-05    0.6960325675E+00    0.4872160655E-02    0.6557167694E+00
