  Pressure (Pa) 22mC5-500 (mol/kg) 23mC5-500 (mol/kg) 24mC5-500 (mol/kg) 2mC6-500 (mol/kg) 3mC6-500 (mol/kg)
    0.1000000000E+01    0.1114360994E-04    0.2155817465E-05    0.3666017970E-01    0.4846416572E-04    0.3126294774E-04
    0.3000000000E+01    0.3081060648E-04    0.5962199199E-05    0.9948765878E-01    0.1352679071E-03    0.9376724768E-04
    0.5000000000E+01    0.4780220656E-04    0.9253227467E-05    0.1513718648E+00    0.2119541790E-03    0.1562428038E-03
    0.7000000000E+01    0.6281473430E-04    0.1216354161E-04    0.1949437161E+00    0.2813627944E-03    0.2186896663E-03
    0.9000000000E+01    0.7632938361E-04    0.1478610682E-04    0.2320532746E+00    0.3454230705E-03    0.2811078778E-03
    0.1100000000E+02    0.8868824404E-04    0.1718695623E-04    0.2640394406E+00    0.4054817790E-03    0.3434974758E-03
    0.1300000000E+02    0.1001404247E-03    0.1941413151E-04    0.2918950917E+00    0.4625008136E-03    0.4058584941E-03
    0.1500000000E+02    0.1108711040E-03    0.2150331143E-04    0.3163720861E+00    0.5171807569E-03    0.4681909642E-03
    0.1700000000E+02    0.1210204196E-03    0.2348147045E-04    0.3380502158E+00    0.5700405654E-03    0.5304949157E-03
    0.1900000000E+02    0.1306960974E-03    0.2536932346E-04    0.3573837690E+00    0.6214703565E-03    0.5927703769E-03
    0.2100000000E+02    0.1399821000E-03    0.2718299923E-04    0.3747337479E+00    0.6717672044E-03    0.6550173751E-03
    0.2300000000E+02    0.1489446782E-03    0.2893521073E-04    0.3903906459E+00    0.7211599207E-03    0.7172359368E-03
    0.2500000000E+02    0.1576366847E-03    0.3063608897E-04    0.4045908624E+00    0.7698265265E-03    0.7794260878E-03
    0.2700000000E+02    0.1661007032E-03    0.3229378746E-04    0.4175287349E+00    0.8179067733E-03    0.8415878535E-03
    0.2900000000E+02    0.1743713514E-03    0.3391492697E-04    0.4293654966E+00    0.8655112494E-03    0.9037212589E-03
    0.3100000000E+02    0.1824770008E-03    0.3550492731E-04    0.4402360381E+00    0.9127280908E-03    0.9658263288E-03
    0.3300000000E+02    0.1904410766E-03    0.3706825807E-04    0.4502540769E+00    0.9596279870E-03    0.1027903087E-02
    0.3500000000E+02    0.1982830511E-03    0.3860863014E-04    0.4595161551E+00    0.1006267955E-02    0.1089951559E-02
    0.3700000000E+02    0.2060192123E-03    0.4012914360E-04    0.4681047646E+00    0.1052694217E-02    0.1151971768E-02
    0.3900000000E+02    0.2136632622E-03    0.4163240310E-04    0.4760908137E+00    0.1098944407E-02    0.1213963737E-02
    0.4100000000E+02    0.2212267889E-03    0.4312060852E-04    0.4835355913E+00    0.1145049287E-02    0.1275927491E-02
    0.4300000000E+02    0.2287196406E-03    0.4459562692E-04    0.4904923454E+00    0.1191034085E-02    0.1337863053E-02
    0.4500000000E+02    0.2361502245E-03    0.4605905004E-04    0.4970075595E+00    0.1236919552E-02    0.1399770446E-02
    0.4700000000E+02    0.2435257484E-03    0.4751224057E-04    0.5031219942E+00    0.1282722792E-02    0.1461649694E-02
    0.4900000000E+02    0.2508524160E-03    0.4895636964E-04    0.5088715417E+00    0.1328457930E-02    0.1523500821E-02
    0.1000000000E+02    0.8263594153E-04    0.1601089974E-04    0.2486180675E+00    0.3758851992E-03    0.3123062513E-03
    0.3000000000E+02    0.1784432339E-03    0.3471352041E-04    0.4349139930E+00    0.8891633467E-03    0.9347773343E-03
    0.5000000000E+02    0.2544991324E-03    0.4967535737E-04    0.5116195440E+00    0.1351303695E-02    0.1554415846E-02
    0.7000000000E+02    0.3258440290E-03    0.6376272955E-04    0.5534700159E+00    0.1806585819E-02    0.2171245593E-02
    0.9000000000E+02    0.3955092688E-03    0.7754429370E-04    0.5798282050E+00    0.2260725694E-02    0.2785289467E-02
    0.1100000000E+03    0.4643557236E-03    0.9117818233E-04    0.5979545513E+00    0.2714292600E-02    0.3396569945E-02
    0.1300000000E+03    0.5326680517E-03    0.1047150226E-03    0.6111852337E+00    0.3166997407E-02    0.4005109201E-02
    0.1500000000E+03    0.6005439592E-03    0.1181711714E-03    0.6212680357E+00    0.3618464017E-02    0.4610929138E-02
    0.1700000000E+03    0.6680133942E-03    0.1315508720E-03    0.6292071717E+00    0.4068375242E-02    0.5214051409E-02
    0.1900000000E+03    0.7350805832E-03    0.1448539513E-03    0.6356207241E+00    0.4516487657E-02    0.5814497424E-02
    0.2100000000E+03    0.8017402516E-03    0.1580787316E-03    0.6409099703E+00    0.4962619814E-02    0.6412288353E-02
    0.2300000000E+03    0.8679842112E-03    0.1712231790E-03    0.6453467854E+00    0.5406637796E-02    0.7007445135E-02
    0.2500000000E+03    0.9338040704E-03    0.1842853545E-03    0.6491219159E+00    0.5848443213E-02    0.7599988482E-02
    0.2700000000E+03    0.9991923033E-03    0.1972635763E-03    0.6523731421E+00    0.6287964138E-02    0.8189938879E-02
    0.2900000000E+03    0.1064142604E-02    0.2101564599E-03    0.6552024703E+00    0.6725148446E-02    0.8777316592E-02
    0.3100000000E+03    0.1128649932E-02    0.2229629089E-03    0.6576870366E+00    0.7159958962E-02    0.9362141668E-02
    0.3300000000E+03    0.1192710429E-02    0.2356820862E-03    0.6598862516E+00    0.7592369901E-02    0.9944433938E-02
    0.3500000000E+03    0.1256321292E-02    0.2483133815E-03    0.6618466154E+00    0.8022364242E-02    0.1052421302E-01
    0.3700000000E+03    0.1319480632E-02    0.2608563778E-03    0.6636050441E+00    0.8449931769E-02    0.1110149834E-01
    0.3900000000E+03    0.1382187349E-02    0.2733108233E-03    0.6651912184E+00    0.8875067596E-02    0.1167630908E-01
    0.4100000000E+03    0.1444441012E-02    0.2856766049E-03    0.6666292732E+00    0.9297771045E-02    0.1224866426E-01
    0.4300000000E+03    0.1506241762E-02    0.2979537274E-03    0.6679390354E+00    0.9718044779E-02    0.1281858267E-01
    0.4500000000E+03    0.1567590220E-02    0.3101422942E-03    0.6691369441E+00    0.1013589414E-01    0.1338608292E-01
    0.4700000000E+03    0.1628487418E-02    0.3222424924E-03    0.6702367444E+00    0.1055132661E-01    0.1395118341E-01
    0.4900000000E+03    0.1688934734E-02    0.3342545797E-03    0.6712500177E+00    0.1096435141E-01    0.1451390237E-01
    0.1000000000E+03    0.4300102873E-03    0.8437528460E-04    0.5896588459E+00    0.2487593148E-02    0.3091273738E-02
    0.3000000000E+03    0.1096451907E-02    0.2165705467E-03    0.6564837854E+00    0.6942852272E-02    0.9070046965E-02
    0.5000000000E+03    0.1718990198E-02    0.3402276787E-03    0.6717273371E+00    0.1116996421E-01    0.1479437441E-01
    0.7000000000E+03    0.2297006621E-02    0.4551649878E-03    0.6784835259E+00    0.1515892562E-01    0.2028309095E-01
    0.9000000000E+03    0.2832949572E-02    0.5618555957E-03    0.6822977847E+00    0.1892341699E-01    0.2555316068E-01
    0.1100000000E+04    0.3329876112E-02    0.6608951760E-03    0.6847483620E+00    0.2247921782E-01    0.3061990605E-01
    0.1300000000E+04    0.3790813585E-02    0.7528740639E-03    0.6864557953E+00    0.2584147367E-01    0.3549720332E-01
    0.1500000000E+04    0.4218599019E-02    0.8383455560E-03    0.6877136869E+00    0.2902419332E-01    0.4019765070E-01
    0.1700000000E+04    0.4615842195E-02    0.9178186834E-03    0.6886789629E+00    0.3204019850E-01    0.4473271341E-01
    0.1900000000E+04    0.4984927001E-02    0.9917584863E-03    0.6894431162E+00    0.3490118964E-01    0.4911284943E-01
    0.2100000000E+04    0.5328025406E-02    0.1060588750E-02    0.6900630930E+00    0.3761784091E-01    0.5334761881E-01
    0.2300000000E+04    0.5647115174E-02    0.1124695458E-02    0.6905761926E+00    0.4019989816E-01    0.5744577893E-01
    0.2500000000E+04    0.5943997939E-02    0.1184430319E-02    0.6910078683E+00    0.4265627113E-01    0.6141536796E-01
    0.2700000000E+04    0.6220316346E-02    0.1240114096E-02    0.6913760844E+00    0.4499511738E-01    0.6526377799E-01
    0.2900000000E+04    0.6477569781E-02    0.1292039672E-02    0.6916938817E+00    0.4722391766E-01    0.6899781946E-01
    0.3100000000E+04    0.6717128611E-02    0.1340474820E-02    0.6919709565E+00    0.4934954300E-01    0.7262377790E-01
    0.3300000000E+04    0.6940246943E-02    0.1385664678E-02    0.6922146683E+00    0.5137831447E-01    0.7614746426E-01
    0.3500000000E+04    0.7148074041E-02    0.1427833975E-02    0.6924307036E+00    0.5331605632E-01    0.7957425941E-01
    0.3700000000E+04    0.7341664500E-02    0.1467189007E-02    0.6926235259E+00    0.5516814315E-01    0.8290915378E-01
    0.3900000000E+04    0.7521987333E-02    0.1503919398E-02    0.6927966875E+00    0.5693954198E-01    0.8615678264E-01
    0.4100000000E+04    0.7689934068E-02    0.1538199684E-02    0.6929530512E+00    0.5863484976E-01    0.8932145763E-01
    0.4300000000E+04    0.7846325988E-02    0.1570190712E-02    0.6930949495E+00    0.6025832687E-01    0.9240719492E-01
    0.4500000000E+04    0.7991920595E-02    0.1600040899E-02    0.6932243021E+00    0.6181392705E-01    0.9541774055E-01
    0.4700000000E+04    0.8127417403E-02    0.1627887361E-02    0.6933427032E+00    0.6330532426E-01    0.9835659310E-01
    0.4900000000E+04    0.8253463125E-02    0.1653856918E-02    0.6934514881E+00    0.6473593680E-01    0.1012270242E+00
    0.1000000000E+04    0.3086097136E-02    0.6122941793E-03    0.6836433252E+00    0.2072643265E-01    0.2811104984E-01
    0.3000000000E+04    0.6599480055E-02    0.1316677725E-02    0.6918370037E+00    0.4829921989E-01    0.7082393530E-01
    0.5000000000E+04    0.8313130646E-02    0.1666174898E-02    0.6935026334E+00    0.6542945251E-01    0.1026375465E+00
    0.7000000000E+04    0.9134055079E-02    0.1838300222E-02    0.6942198400E+00    0.7677633905E-01    0.1279051911E+00
    0.9000000000E+04    0.9476717033E-02    0.1914534050E-02    0.6946193362E+00    0.8461133186E-01    0.1488610224E+00
    0.1100000000E+05    0.9550187938E-02    0.1936196927E-02    0.6948740242E+00    0.9016812560E-01    0.1667816852E+00
    0.1300000000E+05    0.9467828076E-02    0.1925829848E-02    0.6950505945E+00    0.9417234575E-01    0.1824565767E+00
    0.1500000000E+05    0.9294459981E-02    0.1896412015E-02    0.6951802292E+00    0.9707756783E-01    0.1964042594E+00
    0.1700000000E+05    0.9068644353E-02    0.1855725845E-02    0.6952794599E+00    0.9918123768E-01    0.2089820938E+00
    0.1900000000E+05    0.8813993671E-02    0.1808580958E-02    0.6953578684E+00    0.1006861067E+00    0.2204461012E+00
    0.2100000000E+05    0.8545261704E-02    0.1758015429E-02    0.6954213920E+00    0.1017348442E+00    0.2309856827E+00
    0.2300000000E+05    0.8271779587E-02    0.1705976242E-02    0.6954739058E+00    0.1024305433E+00    0.2407447794E+00
    0.2500000000E+05    0.7999471650E-02    0.1653720157E-02    0.6955180469E+00    0.1028493904E+00    0.2498353171E+00
    0.2700000000E+05    0.7732077086E-02    0.1602057782E-02    0.6955556719E+00    0.1030487782E+00    0.2583460562E+00
    0.2900000000E+05    0.7471910817E-02    0.1551506335E-02    0.6955881262E+00    0.1030726631E+00    0.2663485981E+00
    0.3100000000E+05    0.7220348393E-02    0.1502387537E-02    0.6956164086E+00    0.1029551977E+00    0.2739015705E+00
    0.3300000000E+05    0.6978141076E-02    0.1454891608E-02    0.6956412759E+00    0.1027232526E+00    0.2810536134E+00
    0.3500000000E+05    0.6745623934E-02    0.1409119815E-02    0.6956633123E+00    0.1023982035E+00    0.2878455534E+00
    0.3700000000E+05    0.6522855136E-02    0.1365113155E-02    0.6956829759E+00    0.1019972212E+00    0.2943120166E+00
    0.3900000000E+05    0.6309710203E-02    0.1322871943E-02    0.6957006309E+00    0.1015342182E+00    0.3004826448E+00
    0.4100000000E+05    0.6105946318E-02    0.1282369288E-02    0.6957165706E+00    0.1010205529E+00    0.3063830264E+00
    0.4300000000E+05    0.5911246463E-02    0.1243560452E-02    0.6957310338E+00    0.1004655622E+00    0.3120354189E+00
    0.4500000000E+05    0.5725249794E-02    0.1206389376E-02    0.6957442169E+00    0.9987696697E-01    0.3174593155E+00
    0.4700000000E+05    0.5547572552E-02    0.1170793237E-02    0.6957562830E+00    0.9926118665E-01    0.3226718961E+00
    0.4900000000E+05    0.5377822401E-02    0.1136705633E-02    0.6957673684E+00    0.9862358342E-01    0.3276883888E+00
    0.1000000000E+05    0.9538500324E-02    0.1930479888E-02    0.6947593657E+00    0.8762084302E-01    0.1581432624E+00
    0.3000000000E+05    0.7344995387E-02    0.1526753465E-02    0.6956027369E+00    0.1030297730E+00    0.2701780351E+00
    0.5000000000E+05    0.5295797504E-02    0.1120206364E-02    0.6957725801E+00    0.9829803316E-01    0.3301274003E+00
    0.7000000000E+05    0.3982996652E-02    0.8536353337E-03    0.6958456654E+00    0.9141728511E-01    0.3712522583E+00
    0.9000000000E+05    0.3109083189E-02    0.6734010149E-03    0.6958863974E+00    0.8474893160E-01    0.4022047543E+00
    0.1100000000E+06    0.2498556012E-02    0.5459692217E-03    0.6959123878E+00    0.7873103915E-01    0.4267060217E+00
    0.1300000000E+06    0.2054502967E-02    0.4523695091E-03    0.6959304240E+00    0.7339639652E-01    0.4467426556E+00
    0.1500000000E+06    0.1720859405E-02    0.3814523305E-03    0.6959436791E+00    0.6868060383E-01    0.4635128708E+00
    0.1700000000E+06    0.1463450226E-02    0.3263391109E-03    0.6959538352E+00    0.6450178218E-01    0.4777985410E+00
    0.1900000000E+06    0.1260462698E-02    0.2825962431E-03    0.6959618679E+00    0.6078282451E-01    0.4901388047E+00
    0.2100000000E+06    0.1097421485E-02    0.2472568911E-03    0.6959683817E+00    0.5745687215E-01    0.5009209807E+00
    0.2300000000E+06    0.9643989229E-03    0.2182714652E-03    0.6959737712E+00    0.5446761349E-01    0.5104323096E+00
    0.2500000000E+06    0.8543927055E-03    0.1941849627E-03    0.6959783053E+00    0.5176807699E-01    0.5188913121E+00
    0.2700000000E+06    0.7623433970E-03    0.1739399592E-03    0.6959821732E+00    0.4931913592E-01    0.5264677504E+00
    0.2900000000E+06    0.6845180758E-03    0.1567521331E-03    0.6959855121E+00    0.4708811738E-01    0.5332958495E+00
    0.3100000000E+06    0.6181116062E-03    0.1420292289E-03    0.6959884240E+00    0.4504762028E-01    0.5394833436E+00
    0.3300000000E+06    0.5609816534E-03    0.1293168933E-03    0.6959909861E+00    0.4317454665E-01    0.5451178370E+00
    0.3500000000E+06    0.5114683468E-03    0.1182616217E-03    0.6959932582E+00    0.4144931979E-01    0.5502713826E+00
    0.3700000000E+06    0.4682689331E-03    0.1085848795E-03    0.6959952869E+00    0.3985525645E-01    0.5550038433E+00
    0.3900000000E+06    0.4303489920E-03    0.1000646902E-03    0.6959971096E+00    0.3837806278E-01    0.5593654048E+00
    0.4100000000E+06    0.3968784733E-03    0.9252231675E-04    0.6959987561E+00    0.3700542872E-01    0.5633984821E+00
    0.4300000000E+06    0.3671849056E-03    0.8581247976E-04    0.6960002511E+00    0.3572670010E-01    0.5671391861E+00
    0.4500000000E+06    0.3407186852E-03    0.7981607544E-04    0.6960016145E+00    0.3453261246E-01    0.5706184668E+00
    0.4700000000E+06    0.3170269978E-03    0.7443468545E-04    0.6960028631E+00    0.3341507377E-01    0.5738630131E+00
    0.4900000000E+06    0.2957339968E-03    0.6958639037E-04    0.6960040108E+00    0.3236698612E-01    0.5768959689E+00
    0.1000000000E+06    0.2778232166E-02    0.6045131334E-03    0.6959006841E+00    0.8165264266E-01    0.4151124748E+00
    0.3000000000E+06    0.6500344758E-03    0.1491136947E-03    0.6959870161E+00    0.4604558813E-01    0.5364637858E+00
    0.5000000000E+06    0.2858867757E-03    0.6734025552E-04    0.6960045506E+00    0.3186700345E-01    0.5783395073E+00
    0.7000000000E+06    0.1604060073E-03    0.3844932102E-04    0.6960121365E+00    0.2433054019E-01    0.5998598618E+00
    0.9000000000E+06    0.1026680057E-03    0.2492560565E-04    0.6960163800E+00    0.1966181971E-01    0.6129909977E+00
    0.1100000000E+07    0.7139685606E-04    0.1750471090E-04    0.6960190947E+00    0.1648796504E-01    0.6218418026E+00
    0.1300000000E+07    0.5257330683E-04    0.1299041035E-04    0.6960209819E+00    0.1419116806E-01    0.6282120707E+00
    0.1500000000E+07    0.4036849892E-04    0.1003757046E-04    0.6960223702E+00    0.1245259343E-01    0.6330161179E+00
    0.1700000000E+07    0.3200580445E-04    0.7999022348E-05    0.6960234346E+00    0.1109112674E-01    0.6367679898E+00
    0.1900000000E+07    0.2602567166E-04    0.6531697093E-05    0.6960242764E+00    0.9996294231E-02    0.6397789643E+00
    0.2100000000E+07    0.2160122448E-04    0.5439808685E-05    0.6960249587E+00    0.9096898261E-02    0.6422485742E+00
    0.2300000000E+07    0.1823555129E-04    0.4604936138E-05    0.6960255228E+00    0.8344995851E-02    0.6443106246E+00
    0.2500000000E+07    0.1561543183E-04    0.3952001446E-05    0.6960259968E+00    0.7707125832E-02    0.6460581969E+00
    0.2700000000E+07    0.1353548585E-04    0.3431517240E-05    0.6960264006E+00    0.7159227571E-02    0.6475580452E+00
    0.2900000000E+07    0.1185649996E-04    0.3009778896E-05    0.6960267485E+00    0.6683558161E-02    0.6488592880E+00
    0.3100000000E+07    0.1048140087E-04    0.2663180998E-05    0.6960270514E+00    0.6266747692E-02    0.6499988703E+00
    0.3300000000E+07    0.9340824260E-05    0.2374787731E-05    0.6960273172E+00    0.5898530973E-02    0.6510051136E+00
    0.3500000000E+07    0.8384136933E-05    0.2132190080E-05    0.6960275523E+00    0.5570896285E-02    0.6519000933E+00
    0.3700000000E+07    0.7573678226E-05    0.1926125905E-05    0.6960277617E+00    0.5277499546E-02    0.6527012693E+00
    0.3900000000E+07    0.6880965908E-05    0.1749567382E-05    0.6960279492E+00    0.5013252140E-02    0.6534226327E+00
    0.4100000000E+07    0.6284136391E-05    0.1597103174E-05    0.6960281181E+00    0.4774025176E-02    0.6540755256E+00
    0.4300000000E+07    0.5766180774E-05    0.1464511288E-05    0.6960282708E+00    0.4556433560E-02    0.6546692399E+00
    0.4500000000E+07    0.5313706010E-05    0.1348458170E-05    0.6960284097E+00    0.4357675827E-02    0.6552114601E+00
    0.4700000000E+07    0.4916049844E-05    0.1246283091E-05    0.6960285363E+00    0.4175413640E-02    0.6557085963E+00
    0.4900000000E+07    0.4564638592E-05    0.1155841269E-05    0.6960286523E+00    0.4007679942E-02    0.6561660381E+00
    0.1000000000E+07    0.8489806238E-04    0.2071909407E-04    0.6960178715E+00    0.1793668897E-01    0.6178089697E+00
    0.3000000000E+07    0.1113582427E-04    0.2828272406E-05    0.6960269050E+00    0.6468498340E-02    0.6494473468E+00
    0.5000000000E+07    0.4404047681E-05    0.1114462036E-05    0.6960287066E+00    0.3928730326E-02    0.6563813276E+00
    0.7000000000E+07    0.2465305545E-05    0.6122860787E-06    0.6960294534E+00    0.2816011966E-02    0.6594144568E+00
    0.9000000000E+07    0.1639833993E-05    0.3969928461E-06    0.6960298466E+00    0.2192295609E-02    0.6611140700E+00
    0.1100000000E+08    0.1208284543E-05    0.2843047817E-06    0.6960300792E+00    0.1793635283E-02    0.6622004604E+00
    0.1300000000E+08    0.9518875776E-06    0.2175203237E-06    0.6960302261E+00    0.1516988661E-02    0.6629544946E+00
    0.1500000000E+08    0.7855855851E-06    0.1744228017E-06    0.6960303220E+00    0.1313853080E-02    0.6635083051E+00
    0.1700000000E+08    0.6705891913E-06    0.1448280002E-06    0.6960303853E+00    0.1158409179E-02    0.6639322115E+00
    0.1900000000E+08    0.5870946714E-06    0.1235190023E-06    0.6960304269E+00    0.1035653271E-02    0.6642670720E+00
    0.2100000000E+08    0.5240997970E-06    0.1075918403E-06    0.6960304531E+00    0.9362730979E-03    0.6645382458E+00
    0.2300000000E+08    0.4750764394E-06    0.9532202579E-07    0.6960304683E+00    0.8541840245E-03    0.6647623028E+00
    0.2500000000E+08    0.4359412868E-06    0.8563098743E-07    0.6960304753E+00    0.7852428078E-03    0.6649505270E+00
    0.2700000000E+08    0.4040272174E-06    0.7781482022E-07    0.6960304761E+00    0.7265308729E-03    0.6651108678E+00
