  Pressure (Pa) 22mC5-500 (mol/kg) 23mC5-500 (mol/kg) 24mC5-500 (mol/kg) 2mC6-500 (mol/kg) 3mC6-500 (mol/kg)
    0.1000000000E+01    0.1275356106E-04    0.1851565111E-05    0.1514031105E+00    0.4241265546E-04    0.5210663763E-05
    0.3000000000E+01    0.2961189263E-04    0.4307423534E-05    0.3164917840E+00    0.1036026555E-03    0.1562946246E-04
    0.5000000000E+01    0.4215529032E-04    0.6144606169E-05    0.4047655766E+00    0.1544020248E-03    0.2604492898E-04
    0.7000000000E+01    0.5310019841E-04    0.7754627893E-05    0.4597201687E+00    0.2020887577E-03    0.3645708178E-04
    0.9000000000E+01    0.6333785980E-04    0.9265194131E-05    0.4972260717E+00    0.2487473019E-03    0.4686592933E-04
    0.1100000000E+02    0.7322879243E-04    0.1072762932E-04    0.5244554011E+00    0.2950940708E-03    0.5727147673E-04
    0.1300000000E+02    0.8293917397E-04    0.1216541900E-04    0.5451231259E+00    0.3413982423E-03    0.6767372771E-04
    0.1500000000E+02    0.9255264740E-04    0.1359028552E-04    0.5613461184E+00    0.3877623638E-03    0.7807268526E-04
    0.1700000000E+02    0.1021139743E-03    0.1500844029E-04    0.5744190586E+00    0.4342217742E-03    0.8846835203E-04
    0.1900000000E+02    0.1116481485E-03    0.1642330997E-04    0.5851782854E+00    0.4807836262E-03    0.9886073045E-04
    0.2100000000E+02    0.1211695156E-03    0.1783683144E-04    0.5941881362E+00    0.5274433123E-03    0.1092498228E-03
    0.2300000000E+02    0.1306864245E-03    0.1925010908E-04    0.6018432121E+00    0.5741916910E-03    0.1196356313E-03
    0.2500000000E+02    0.1402037289E-03    0.2066376647E-04    0.6084277317E+00    0.6210183301E-03    0.1300181580E-03
    0.2700000000E+02    0.1497241921E-03    0.2207814263E-04    0.6141516052E+00    0.6679129473E-03    0.1403974051E-03
    0.2900000000E+02    0.1592493029E-03    0.2349340546E-04    0.6191732303E+00    0.7148660109E-03    0.1507733746E-03
    0.3100000000E+02    0.1687797649E-03    0.2490961904E-04    0.6236143806E+00    0.7618689451E-03    0.1611460686E-03
    0.3300000000E+02    0.1783157948E-03    0.2632678453E-04    0.6275702121E+00    0.8089141529E-03    0.1715154890E-03
    0.3500000000E+02    0.1878573096E-03    0.2774486547E-04    0.6311161598E+00    0.8559949567E-03    0.1818816378E-03
    0.3700000000E+02    0.1974040445E-03    0.2916380359E-04    0.6343127946E+00    0.9031055078E-03    0.1922445172E-03
    0.3900000000E+02    0.2069556286E-03    0.3058352876E-04    0.6372093129E+00    0.9502406888E-03    0.2026041289E-03
    0.4100000000E+02    0.2165116333E-03    0.3200396532E-04    0.6398460867E+00    0.9973960201E-03    0.2129604750E-03
    0.4300000000E+02    0.2260716037E-03    0.3342503605E-04    0.6422565574E+00    0.1044567575E-02    0.2233135575E-03
    0.4500000000E+02    0.2356350787E-03    0.3484666465E-04    0.6444686619E+00    0.1091751902E-02    0.2336633784E-03
    0.4700000000E+02    0.2452016035E-03    0.3626877721E-04    0.6465059202E+00    0.1138945964E-02    0.2440099394E-03
    0.4900000000E+02    0.2547707377E-03    0.3769130313E-04    0.6483882753E+00    0.1186147080E-02    0.2543532427E-03
    0.1000000000E+02    0.6831354901E-04    0.1000057012E-04    0.5118418932E+00    0.2719370336E-03    0.5206911529E-04
    0.3000000000E+02    0.1640138427E-03    0.2420139221E-04    0.6214598866E+00    0.7383617414E-03    0.1559601309E-03
    0.5000000000E+02    0.2595561508E-03    0.3840270004E-04    0.6492767825E+00    0.1209749529E-02    0.2595236733E-03
    0.7000000000E+02    0.3553111275E-03    0.5263822142E-04    0.6619772568E+00    0.1681716682E-02    0.3627617256E-03
    0.9000000000E+02    0.4509805056E-03    0.6686151228E-04    0.6692508366E+00    0.2152825830E-02    0.4656762140E-03
    0.1100000000E+03    0.5464064252E-03    0.8104884320E-04    0.6739636490E+00    0.2622550598E-02    0.5682690417E-03
    0.1300000000E+03    0.6415041583E-03    0.9518766026E-04    0.6772656513E+00    0.3090659659E-02    0.6705420940E-03
    0.1500000000E+03    0.7362251787E-03    0.1092708380E-03    0.6797078949E+00    0.3557039218E-02    0.7724972396E-03
    0.1700000000E+03    0.8305402087E-03    0.1232941065E-03    0.6815875049E+00    0.4021629701E-02    0.8741363319E-03
    0.1900000000E+03    0.9244309514E-03    0.1372548131E-03    0.6830788348E+00    0.4484399349E-02    0.9754612086E-03
    0.2100000000E+03    0.1017885755E-02    0.1511512788E-03    0.6842909412E+00    0.4945331851E-02    0.1076473693E-02
    0.2300000000E+03    0.1110897191E-02    0.1649824397E-03    0.6852955351E+00    0.5404420022E-02    0.1177175592E-02
    0.2500000000E+03    0.1203460620E-02    0.1787476379E-03    0.6861417073E+00    0.5861662339E-02    0.1277568701E-02
    0.2700000000E+03    0.1295573310E-02    0.1924464911E-03    0.6868641957E+00    0.6317060925E-02    0.1377654797E-02
    0.2900000000E+03    0.1387233869E-02    0.2060788110E-03    0.6874882733E+00    0.6770620332E-02    0.1477435647E-02
    0.3100000000E+03    0.1478441869E-02    0.2196445475E-03    0.6880327665E+00    0.7222346769E-02    0.1576913000E-02
    0.3300000000E+03    0.1569197586E-02    0.2331437522E-03    0.6885119875E+00    0.7672247595E-02    0.1676088593E-02
    0.3500000000E+03    0.1659501825E-02    0.2465765521E-03    0.6889370104E+00    0.8120330982E-02    0.1774964150E-02
    0.3700000000E+03    0.1749355785E-02    0.2599431311E-03    0.6893165384E+00    0.8566605682E-02    0.1873541380E-02
    0.3900000000E+03    0.1838760973E-02    0.2732437165E-03    0.6896575058E+00    0.9011080862E-02    0.1971821978E-02
    0.4100000000E+03    0.1927719128E-02    0.2864785687E-03    0.6899655057E+00    0.9453765987E-02    0.2069807627E-02
    0.4300000000E+03    0.2016232172E-02    0.2996479743E-03    0.6902450995E+00    0.9894670732E-02    0.2167499997E-02
    0.4500000000E+03    0.2104302168E-02    0.3127522399E-03    0.6905000441E+00    0.1033380492E-01    0.2264900743E-02
    0.4700000000E+03    0.2191931293E-02    0.3257916880E-03    0.6907334619E+00    0.1077117848E-01    0.2362011508E-02
    0.4900000000E+03    0.2279121810E-02    0.3387666532E-03    0.6909479692E+00    0.1120680139E-01    0.2458833922E-02
    0.1000000000E+03    0.4987303357E-03    0.7396062952E-04    0.6718346554E+00    0.2387879664E-02    0.5170127172E-03
    0.3000000000E+03    0.1432894436E-02    0.2128700010E-03    0.6877694851E+00    0.6996712234E-02    0.1527212151E-02
    0.5000000000E+03    0.2322553316E-02    0.3452300620E-03    0.6910488353E+00    0.1142395948E-01    0.2507137504E-02
    0.7000000000E+03    0.3168749638E-02    0.4712002775E-03    0.6924641995E+00    0.1567766282E-01    0.3458459624E-02
    0.9000000000E+03    0.3973922054E-02    0.5911393939E-03    0.6932531699E+00    0.1976764711E-01    0.4382723740E-02
    0.1100000000E+04    0.4740523705E-02    0.7054070757E-03    0.6937562602E+00    0.2370323169E-01    0.5281361258E-02
    0.1300000000E+04    0.5470873554E-02    0.8143429853E-03    0.6941050318E+00    0.2749309167E-01    0.6155700200E-02
    0.1500000000E+04    0.6167133651E-02    0.9182636993E-03    0.6943610543E+00    0.3114527897E-01    0.7006974508E-02
    0.1700000000E+04    0.6831311993E-02    0.1017463215E-02    0.6945569876E+00    0.3466726749E-01    0.7836332357E-02
    0.1900000000E+04    0.7465271899E-02    0.1112214357E-02    0.6947117674E+00    0.3806600051E-01    0.8644843585E-02
    0.2100000000E+04    0.8070742864E-02    0.1202770381E-02    0.6948371294E+00    0.4134793552E-01    0.9433506368E-02
    0.2300000000E+04    0.8649331309E-02    0.1289366552E-02    0.6949407340E+00    0.4451908524E-01    0.1020325322E-01
    0.2500000000E+04    0.9202530695E-02    0.1372221625E-02    0.6950277942E+00    0.4758505499E-01    0.1095495637E-01
    0.2700000000E+04    0.9731730856E-02    0.1451539211E-02    0.6951019807E+00    0.5055107643E-01    0.1168943267E-01
    0.2900000000E+04    0.1023822653E-01    0.1527509022E-02    0.6951659530E+00    0.5342203809E-01    0.1240744796E-01
    0.3100000000E+04    0.1072322510E-01    0.1600308005E-02    0.6952216852E+00    0.5620251303E-01    0.1310972108E-01
    0.3300000000E+04    0.1118785368E-01    0.1670101373E-02    0.6952706735E+00    0.5889678388E-01    0.1379692749E-01
    0.3500000000E+04    0.1163316548E-01    0.1737043539E-02    0.6953140723E+00    0.6150886552E-01    0.1446970250E-01
    0.3700000000E+04    0.1206014565E-01    0.1801278963E-02    0.6953527870E+00    0.6404252568E-01    0.1512864435E-01
    0.3900000000E+04    0.1246971657E-01    0.1862942931E-02    0.6953875373E+00    0.6650130373E-01    0.1577431682E-01
    0.4100000000E+04    0.1286274264E-01    0.1922162251E-02    0.6954189026E+00    0.6888852770E-01    0.1640725183E-01
    0.4300000000E+04    0.1324003470E-01    0.1979055895E-02    0.6954473548E+00    0.7120732986E-01    0.1702795162E-01
    0.4500000000E+04    0.1360235399E-01    0.2033735588E-02    0.6954732817E+00    0.7346066095E-01    0.1763689087E-01
    0.4700000000E+04    0.1395041584E-01    0.2086306332E-02    0.6954970053E+00    0.7565130310E-01    0.1823451859E-01
    0.4900000000E+04    0.1428489299E-01    0.2136866902E-02    0.6955187953E+00    0.7778188180E-01    0.1882125989E-01
    0.1000000000E+04    0.4361895668E-02    0.6489604007E-03    0.6935297698E+00    0.2175418210E-01    0.4835160514E-02
    0.3000000000E+04    0.1048334070E-01    0.1564294278E-02    0.6951947463E+00    0.5482331221E-01    0.1276050910E-01
    0.5000000000E+04    0.1444723664E-01    0.2161422646E-02    0.6955290376E+00    0.7882542768E-01    0.1911067482E-01
    0.7000000000E+04    0.1711643199E-01    0.2566914967E-02    0.6956725027E+00    0.9707777636E-01    0.2441490557E-01
    0.9000000000E+04    0.1896015845E-01    0.2849753245E-02    0.6957522765E+00    0.1114481723E+00    0.2898110328E-01
    0.1100000000E+05    0.2025293388E-01    0.3050390696E-02    0.6958030764E+00    0.1230696563E+00    0.3300193329E-01
    0.1300000000E+05    0.2116468365E-01    0.3193930883E-02    0.6958382657E+00    0.1326701775E+00    0.3660490917E-01
    0.1500000000E+05    0.2180539917E-01    0.3296666290E-02    0.6958640840E+00    0.1407392699E+00    0.3987827101E-01
    0.1700000000E+05    0.2224890454E-01    0.3369562532E-02    0.6958838362E+00    0.1476186067E+00    0.4288533752E-01
    0.1900000000E+05    0.2254625430E-01    0.3420225194E-02    0.6958994365E+00    0.1535541383E+00    0.4567293335E-01
    0.2100000000E+05    0.2273365321E-01    0.3454064113E-02    0.6959120701E+00    0.1587275822E+00    0.4827657598E-01
    0.2300000000E+05    0.2283732764E-01    0.3475010619E-02    0.6959225103E+00    0.1632762229E+00    0.5072379681E-01
    0.2500000000E+05    0.2287662525E-01    0.3485974600E-02    0.6959312830E+00    0.1673057933E+00    0.5303634039E-01
    0.2700000000E+05    0.2286604552E-01    0.3489144419E-02    0.6959387585E+00    0.1708991081E+00    0.5523166371E-01
    0.2900000000E+05    0.2281660423E-01    0.3486188769E-02    0.6959452048E+00    0.1741219992E+00    0.5732398449E-01
    0.3100000000E+05    0.2273677091E-01    0.3478395602E-02    0.6959508209E+00    0.1770274910E+00    0.5932503055E-01
    0.3300000000E+05    0.2263312574E-01    0.3466769651E-02    0.6959557577E+00    0.1796587966E+00    0.6124458635E-01
    0.3500000000E+05    0.2251082803E-01    0.3452102110E-02    0.6959601315E+00    0.1820515064E+00    0.6309089853E-01
    0.3700000000E+05    0.2237395564E-01    0.3435021201E-02    0.6959640335E+00    0.1842352136E+00    0.6487098167E-01
    0.3900000000E+05    0.2222575433E-01    0.3416029412E-02    0.6959675362E+00    0.1862347379E+00    0.6659085215E-01
    0.4100000000E+05    0.2206882340E-01    0.3395531254E-02    0.6959706979E+00    0.1880710606E+00    0.6825570939E-01
    0.4300000000E+05    0.2190525540E-01    0.3373854215E-02    0.6959735662E+00    0.1897620466E+00    0.6987007786E-01
    0.4500000000E+05    0.2173674254E-01    0.3351264736E-02    0.6959761801E+00    0.1913230077E+00    0.7143791969E-01
    0.4700000000E+05    0.2156465838E-01    0.3327980513E-02    0.6959785722E+00    0.1927671486E+00    0.7296272483E-01
    0.4900000000E+05    0.2139012122E-01    0.3304180056E-02    0.6959807694E+00    0.1941059204E+00    0.7444758377E-01
    0.1000000000E+05    0.1966300658E-01    0.2958515415E-02    0.6957802126E+00    0.1175499971E+00    0.3105057212E-01
    0.3000000000E+05    0.2278003727E-01    0.3482828369E-02    0.6959481062E+00    0.1756115181E+00    0.5833526510E-01
    0.5000000000E+05    0.2130222485E-01    0.3292133187E-02    0.6959818023E+00    0.1947389634E+00    0.7517590482E-01
    0.7000000000E+05    0.1956423482E-01    0.3048430482E-02    0.6959962765E+00    0.2037286952E+00    0.8817835226E-01
    0.9000000000E+05    0.1800687902E-01    0.2824514453E-02    0.6960043326E+00    0.2085118386E+00    0.9908386779E-01
    0.1100000000E+06    0.1666472411E-01    0.2628733104E-02    0.6960094675E+00    0.2111403960E+00    0.1086276332E+00
    0.1300000000E+06    0.1551017259E-01    0.2458583224E-02    0.6960130275E+00    0.2125233306E+00    0.1171970294E+00
    0.1500000000E+06    0.1451007125E-01    0.2310008475E-02    0.6960156417E+00    0.2131276123E+00    0.1250247127E+00
    0.1700000000E+06    0.1363601563E-01    0.2179294690E-02    0.6960176431E+00    0.2132182246E+00    0.1322630615E+00
    0.1900000000E+06    0.1286534031E-01    0.2063384159E-02    0.6960192250E+00    0.2129566677E+00    0.1390182198E+00
    0.2100000000E+06    0.1218024020E-01    0.1959828687E-02    0.6960205070E+00    0.2124468065E+00    0.1453676125E+00
    0.2300000000E+06    0.1156670345E-01    0.1866675842E-02    0.6960215670E+00    0.2117582922E+00    0.1513697701E+00
    0.2500000000E+06    0.1101361508E-01    0.1782361132E-02    0.6960224583E+00    0.2109394167E+00    0.1570702208E+00
    0.2700000000E+06    0.1051206883E-01    0.1705620769E-02    0.6960232183E+00    0.2100245829E+00    0.1625052136E+00
    0.2900000000E+06    0.1005485290E-01    0.1635424477E-02    0.6960238740E+00    0.2090388531E+00    0.1677041744E+00
    0.3100000000E+06    0.9636067365E-02    0.1570924520E-02    0.6960244456E+00    0.2080008285E+00    0.1726913849E+00
    0.3300000000E+06    0.9250838549E-02    0.1511417066E-02    0.6960249483E+00    0.2069245320E+00    0.1774871647E+00
    0.3500000000E+06    0.8895103917E-02    0.1456312784E-02    0.6960253939E+00    0.2058206750E+00    0.1821087260E+00
    0.3700000000E+06    0.8565448573E-02    0.1405114276E-02    0.6960257917E+00    0.2046975306E+00    0.1865708036E+00
    0.3900000000E+06    0.8258979702E-02    0.1357398632E-02    0.6960261489E+00    0.2035615479E+00    0.1908861307E+00
    0.4100000000E+06    0.7973229168E-02    0.1312803798E-02    0.6960264715E+00    0.2024177933E+00    0.1950658024E+00
    0.4300000000E+06    0.7706077222E-02    0.1271017846E-02    0.6960267643E+00    0.2012702717E+00    0.1991195583E+00
    0.4500000000E+06    0.7455692168E-02    0.1231770446E-02    0.6960270312E+00    0.2001221644E+00    0.2030560057E+00
    0.4700000000E+06    0.7220482242E-02    0.1194826030E-02    0.6960272756E+00    0.1989760078E+00    0.2068827974E+00
    0.4900000000E+06    0.6999056903E-02    0.1159978279E-02    0.6960275001E+00    0.1978338286E+00    0.2106067744E+00
    0.1000000000E+06    0.1731023609E-01    0.2723181839E-02    0.6960071559E+00    0.2100237176E+00    0.1039967836E+00
    0.3000000000E+06    0.9840982178E-02    0.1602509435E-02    0.6960241693E+00    0.2085254111E+00    0.1702228969E+00
    0.5000000000E+06    0.6893126084E-02    0.1143283052E-02    0.6960276057E+00    0.1972647507E+00    0.2124321526E+00
    0.7000000000E+06    0.5267888177E-02    0.8850520960E-03    0.6960290880E+00    0.1863447978E+00    0.2447563068E+00
    0.9000000000E+06    0.4227565074E-02    0.7174366625E-03    0.6960299157E+00    0.1764954216E+00    0.2712177860E+00
    0.1100000000E+07    0.3502435394E-02    0.5993227813E-03    0.6960304446E+00    0.1676822927E+00    0.2936713781E+00
    0.1300000000E+07    0.2968131337E-02    0.5115032483E-03    0.6960308120E+00    0.1597708081E+00    0.3131638907E+00
    0.1500000000E+07    0.2558645759E-02    0.4436780337E-03    0.6960310823E+00    0.1526292485E+00    0.3303585787E+00
    0.1700000000E+07    0.2235446334E-02    0.3897821458E-03    0.6960312895E+00    0.1461457357E+00    0.3457086051E+00
    0.1900000000E+07    0.1974431840E-02    0.3459935383E-03    0.6960314535E+00    0.1402281912E+00    0.3595404719E+00
    0.2100000000E+07    0.1759715286E-02    0.3097760503E-03    0.6960315865E+00    0.1348011104E+00    0.3720988642E+00
    0.2300000000E+07    0.1580382745E-02    0.2793769925E-03    0.6960316966E+00    0.1298022590E+00    0.3835727928E+00
    0.2500000000E+07    0.1428682051E-02    0.2535446564E-03    0.6960317892E+00    0.1251799284E+00    0.3941118123E+00
    0.2700000000E+07    0.1298952840E-02    0.2313605201E-03    0.6960318682E+00    0.1208907813E+00    0.4038365887E+00
    0.2900000000E+07    0.1186965157E-02    0.2121350033E-03    0.6960319364E+00    0.1168981878E+00    0.4128460654E+00
    0.3100000000E+07    0.1089494838E-02    0.1953402295E-03    0.6960319959E+00    0.1131709390E+00    0.4212224845E+00
    0.3300000000E+07    0.1004042018E-02    0.1805652585E-03    0.6960320482E+00    0.1096822486E+00    0.4290350044E+00
    0.3500000000E+07    0.9286393075E-03    0.1674854552E-03    0.6960320945E+00    0.1064089695E+00    0.4363423681E+00
    0.3700000000E+07    0.8617179034E-03    0.1558410291E-03    0.6960321359E+00    0.1033309756E+00    0.4431949113E+00
    0.3900000000E+07    0.8020121605E-03    0.1454216824E-03    0.6960321730E+00    0.1004306676E+00    0.4496361002E+00
    0.4100000000E+07    0.7484903002E-03    0.1360554252E-03    0.6960322065E+00    0.9769257547E-01    0.4557037283E+00
    0.4300000000E+07    0.7003032604E-03    0.1276002922E-03    0.6960322370E+00    0.9510303566E-01    0.4614308596E+00
    0.4500000000E+07    0.6567463722E-03    0.1199381167E-03    0.6960322647E+00    0.9264992652E-01    0.4668465818E+00
    0.4700000000E+07    0.6172302619E-03    0.1129697901E-03    0.6960322900E+00    0.9032245033E-01    0.4719766135E+00
    0.4900000000E+07    0.5812584883E-03    0.1066116081E-03    0.6960323133E+00    0.8811095222E-01    0.4768437994E+00
    0.1000000000E+07    0.3835320342E-02    0.6536883660E-03    0.6960302063E+00    0.1719673514E+00    0.2828680845E+00
    0.3000000000E+07    0.1136585953E-02    0.2034617848E-03    0.6960319671E+00    0.1150031630E+00    0.4171088132E+00
    0.5000000000E+07    0.5644676433E-03    0.1036386620E-03    0.6960323243E+00    0.8704595248E-01    0.4791852798E+00
    0.7000000000E+07    0.3399446565E-03    0.6351611416E-04    0.6960324772E+00    0.7013725990E-01    0.5161707591E+00
    0.9000000000E+07    0.2276858593E-03    0.4311623033E-04    0.6960325615E+00    0.5875133887E-01    0.5409038158E+00
    0.1100000000E+08    0.1632952851E-03    0.3126206520E-04    0.6960326143E+00    0.5054761394E-01    0.5586533159E+00
    0.1300000000E+08    0.1228784430E-03    0.2374190304E-04    0.6960326502E+00    0.4435109394E-01    0.5720253702E+00
    0.1500000000E+08    0.9582705267E-04    0.1866305803E-04    0.6960326759E+00    0.3950392621E-01    0.5824666125E+00
    0.1700000000E+08    0.7682567002E-04    0.1506759762E-04    0.6960326950E+00    0.3560815122E-01    0.5908472914E+00
    0.1900000000E+08    0.6296571295E-04    0.1242683120E-04    0.6960327096E+00    0.3240857505E-01    0.5977232788E+00
    0.2100000000E+08    0.5254470976E-04    0.1042897534E-04    0.6960327210E+00    0.2973389591E-01    0.6034666330E+00
    0.2300000000E+08    0.4451151481E-04    0.8880243285E-05    0.6960327300E+00    0.2746479857E-01    0.6083359265E+00
    0.2500000000E+08    0.3818831016E-04    0.7654924415E-05    0.6960327372E+00    0.2551560202E-01    0.6125165165E+00
    0.2700000000E+08    0.3312194795E-04    0.6668518205E-05    0.6960327431E+00    0.2382317811E-01    0.6161447772E+00
