  Pressure (Pa) 22mC5-500 (mol/kg) 23mC5-500 (mol/kg) 24mC5-500 (mol/kg) 2mC6-500 (mol/kg) 3mC6-500 (mol/kg)
    0.1000000000E+01    0.1485857114E-04    0.5389697780E-05    0.3666105824E-01    0.1817457158E-04    0.3647413849E-04
    0.3000000000E+01    0.4108406245E-04    0.1490667984E-04    0.9949388329E-01    0.5072941999E-04    0.1094014142E-03
    0.5000000000E+01    0.6374418209E-04    0.2313594235E-04    0.1513857382E+00    0.7949256526E-04    0.1823007398E-03
    0.7000000000E+01    0.8376684112E-04    0.3041389572E-04    0.1949658870E+00    0.1055283942E-03    0.2551721653E-03
    0.9000000000E+01    0.1017933900E-03    0.3697286610E-04    0.2320835696E+00    0.1295601676E-03    0.3280157319E-03
    0.1100000000E+02    0.1182798455E-03    0.4297789979E-04    0.2640772950E+00    0.1520928397E-03    0.4008314747E-03
    0.1300000000E+02    0.1335583204E-03    0.4854908935E-04    0.2919397771E+00    0.1734871057E-03    0.4736194249E-03
    0.1500000000E+02    0.1478757198E-03    0.5377563235E-04    0.3164228302E+00    0.1940057005E-03    0.5463796108E-03
    0.1700000000E+02    0.1614189110E-03    0.5872497118E-04    0.3381062641E+00    0.2138432618E-03    0.6191120584E-03
    0.1900000000E+02    0.1743315513E-03    0.6344890146E-04    0.3574444153E+00    0.2331461156E-03    0.6918167923E-03
    0.2100000000E+02    0.1867256152E-03    0.6798775405E-04    0.3747983470E+00    0.2520256956E-03    0.7644938359E-03
    0.2300000000E+02    0.1986894604E-03    0.7237331978E-04    0.3904586174E+00    0.2705678336E-03    0.8371432117E-03
    0.2500000000E+02    0.2102935783E-03    0.7663093388E-04    0.4046616892E+00    0.2888393113E-03    0.9097649415E-03
    0.2700000000E+02    0.2215947657E-03    0.8078098686E-04    0.4176019589E+00    0.3068925554E-03    0.9823590467E-03
    0.2900000000E+02    0.2326391957E-03    0.8484003640E-04    0.4294407140E+00    0.3247690530E-03    0.1054925548E-02
    0.3100000000E+02    0.2434647106E-03    0.8882163698E-04    0.4403128936E+00    0.3425018684E-03    0.1127464466E-02
    0.3300000000E+02    0.2541025552E-03    0.9273696667E-04    0.4503322587E+00    0.3601175207E-03    0.1199975820E-02
    0.3500000000E+02    0.2645787025E-03    0.9659530608E-04    0.4595953899E+00    0.3776373998E-03    0.1272459631E-02
    0.3700000000E+02    0.2749148773E-03    0.1004044083E-03    0.4681848130E+00    0.3950788449E-03    0.1344915918E-02
    0.3900000000E+02    0.2851293556E-03    0.1041707871E-03    0.4761714659E+00    0.4124559739E-03    0.1417344700E-02
    0.4100000000E+02    0.2952375931E-03    0.1078999441E-03    0.4836166640E+00    0.4297803260E-03    0.1489745998E-02
    0.4300000000E+02    0.3052527247E-03    0.1115965483E-03    0.4905736781E+00    0.4470613642E-03    0.1562119831E-02
    0.4500000000E+02    0.3151859634E-03    0.1152645802E-03    0.4970890121E+00    0.4643068708E-03    0.1634466216E-02
    0.4700000000E+02    0.3250469218E-03    0.1189074473E-03    0.5032034441E+00    0.4815232607E-03    0.1706785174E-02
    0.4900000000E+02    0.3348438729E-03    0.1225280781E-03    0.5089528818E+00    0.4987158311E-03    0.1779076724E-02
    0.1000000000E+02    0.1102060047E-03    0.4003626052E-04    0.2486522267E+00    0.1409886102E-03    0.3644270792E-03
    0.3000000000E+02    0.2380772273E-03    0.8683976971E-04    0.4349900710E+00    0.3336516286E-03    0.1091198453E-02
    0.5000000000E+02    0.3397206179E-03    0.1243308580E-03    0.5117007936E+00    0.5073045839E-03    0.1815212226E-02
    0.7000000000E+02    0.4351958825E-03    0.1596774144E-03    0.5535463812E+00    0.6785570673E-03    0.2536487903E-02
    0.9000000000E+02    0.5285443229E-03    0.1943008811E-03    0.5798974354E+00    0.8495506704E-03    0.3255044047E-02
    0.1100000000E+03    0.6209118872E-03    0.2285958948E-03    0.5980166406E+00    0.1020495931E-02    0.3970898865E-02
    0.1300000000E+03    0.7126759666E-03    0.2626882340E-03    0.6112408074E+00    0.1191281401E-02    0.4684070330E-02
    0.1500000000E+03    0.8039646608E-03    0.2966179958E-03    0.6213178443E+00    0.1361763086E-02    0.5394576224E-02
    0.1700000000E+03    0.8948157617E-03    0.3303950066E-03    0.6292519288E+00    0.1531819163E-02    0.6102434152E-02
    0.1900000000E+03    0.9852328131E-03    0.3640180699E-03    0.6356610614E+00    0.1701355544E-02    0.6807661553E-02
    0.2100000000E+03    0.1075206738E-02    0.3974822446E-03    0.6409464312E+00    0.1870301446E-02    0.7510275701E-02
    0.2300000000E+03    0.1164724618E-02    0.4307817154E-03    0.6453798334E+00    0.2038603967E-02    0.8210293715E-02
    0.2500000000E+03    0.1253773307E-02    0.4639109198E-03    0.6491519453E+00    0.2206223577E-02    0.8907732558E-02
    0.2700000000E+03    0.1342340850E-02    0.4968649516E-03    0.6524004888E+00    0.2373130722E-02    0.9602609038E-02
    0.2900000000E+03    0.1430416955E-02    0.5296396621E-03    0.6552274219E+00    0.2539303315E-02    0.1029493981E-01
    0.3100000000E+03    0.1517993055E-02    0.5622316349E-03    0.6577098402E+00    0.2704724922E-02    0.1098474139E-01
    0.3300000000E+03    0.1605062192E-02    0.5946381149E-03    0.6599071204E+00    0.2869383423E-02    0.1167203014E-01
    0.3500000000E+03    0.1691618845E-02    0.6268569248E-03    0.6618657347E+00    0.3033270021E-02    0.1235682227E-01
    0.3700000000E+03    0.1777658747E-02    0.6588863834E-03    0.6636225754E+00    0.3196378516E-02    0.1303913386E-01
    0.3900000000E+03    0.1863178712E-02    0.6907252324E-03    0.6652073032E+00    0.3358704743E-02    0.1371898083E-01
    0.4100000000E+03    0.1948176476E-02    0.7223725724E-03    0.6666440361E+00    0.3520246152E-02    0.1439637899E-01
    0.4300000000E+03    0.2032650568E-02    0.7538278083E-03    0.6679525867E+00    0.3681001486E-02    0.1507134397E-01
    0.4500000000E+03    0.2116600184E-02    0.7850906028E-03    0.6691493815E+00    0.3840970527E-02    0.1574389130E-01
    0.4700000000E+03    0.2200025098E-02    0.8161608379E-03    0.6702481551E+00    0.4000153896E-02    0.1641403636E-01
    0.4900000000E+03    0.2282925571E-02    0.8470385815E-03    0.6712604797E+00    0.4158552901E-02    0.1708179438E-01
    0.1000000000E+03    0.5748181046E-03    0.2114784611E-03    0.5897244482E+00    0.9350341762E-03    0.3613307994E-02
    0.3000000000E+03    0.1474267977E-02    0.5459586774E-03    0.6565076343E+00    0.2622108838E-02    0.1064015573E-01
    0.5000000000E+03    0.2324179341E-02    0.8624053343E-03    0.6717373515E+00    0.4237458833E-02    0.1741478298E-01
    0.7000000000E+03    0.3122058808E-02    0.1159754370E-02    0.6784872088E+00    0.5775065317E-02    0.2395286129E-01
    0.9000000000E+03    0.3869768352E-02    0.1438675681E-02    0.6822979917E+00    0.7238130826E-02    0.3026875302E-01
    0.1100000000E+04    0.4570200940E-02    0.1700225511E-02    0.6847464467E+00    0.8630928371E-02    0.3637564652E-01
    0.1300000000E+04    0.5226393925E-02    0.1945513830E-02    0.6864524916E+00    0.9957732445E-02    0.4228567414E-01
    0.1500000000E+04    0.5841285820E-02    0.2175614506E-02    0.6877094313E+00    0.1122259391E-01    0.4801001621E-01
    0.1700000000E+04    0.6417642946E-02    0.2391538454E-02    0.6886740321E+00    0.1242929068E-01    0.5355899295E-01
    0.1900000000E+04    0.6958041095E-02    0.2594226998E-02    0.6894376947E+00    0.1358132688E-01    0.5894214599E-01
    0.2100000000E+04    0.7464867338E-02    0.2784552581E-02    0.6900573086E+00    0.1468194704E-01    0.6416831075E-01
    0.2300000000E+04    0.7940329507E-02    0.2963322253E-02    0.6905701368E+00    0.1573415475E-01    0.6924568092E-01
    0.2500000000E+04    0.8386468402E-02    0.3131282145E-02    0.6910016080E+00    0.1674073197E-01    0.7418186605E-01
    0.2700000000E+04    0.8805170608E-02    0.3289122154E-02    0.6913696695E+00    0.1770425761E-01    0.7898394298E-01
    0.2900000000E+04    0.9198180987E-02    0.3437480502E-02    0.6916873503E+00    0.1862712470E-01    0.8365850196E-01
    0.3100000000E+04    0.9567114464E-02    0.3576948037E-02    0.6919643381E+00    0.1951155630E-01    0.8821168814E-01
    0.3300000000E+04    0.9913466931E-02    0.3708072202E-02    0.6922079859E+00    0.2035961981E-01    0.9264923874E-01
    0.3500000000E+04    0.1023862526E-01    0.3831360692E-02    0.6924239752E+00    0.2117324010E-01    0.9697651668E-01
    0.3700000000E+04    0.1054387644E-01    0.3947284777E-02    0.6926167659E+00    0.2195421132E-01    0.1011985409E+00
    0.3900000000E+04    0.1083041590E-01    0.4056282334E-02    0.6927899077E+00    0.2270420763E-01    0.1053200137E+00
    0.4100000000E+04    0.1109935506E-01    0.4158760600E-02    0.6929462609E+00    0.2342479291E-01    0.1093453457E+00
    0.4300000000E+04    0.1135172820E-01    0.4255098672E-02    0.6930881563E+00    0.2411742959E-01    0.1132786782E+00
    0.4500000000E+04    0.1158849871E-01    0.4345649780E-02    0.6932175122E+00    0.2478348662E-01    0.1171239040E+00
    0.4700000000E+04    0.1181056472E-01    0.4430743350E-02    0.6933359217E+00    0.2542424675E-01    0.1208846854E+00
    0.4900000000E+04    0.1201876432E-01    0.4510686885E-02    0.6934447192E+00    0.2604091312E-01    0.1245644719E+00
    0.1000000000E+04    0.4225703645E-02    0.1571552374E-02    0.6836423516E+00    0.7943041905E-02    0.3334754281E-01
    0.3000000000E+04    0.9385561177E-02    0.3508290433E-02    0.6918304256E+00    0.1907401224E-01    0.8594989893E-01
    0.5000000000E+04    0.1211791086E-01    0.4548817912E-02    0.6934958721E+00    0.2634056686E-01    0.1263750155E+00
    0.7000000000E+04    0.1353760279E-01    0.5101581512E-02    0.6942133266E+00    0.3130930689E-01    0.1590324351E+00
    0.9000000000E+04    0.1420515599E-01    0.5372685340E-02    0.6946131175E+00    0.3481012002E-01    0.1863563882E+00
    0.1100000000E+05    0.1442460357E-01    0.5474417144E-02    0.6948680825E+00    0.3732161477E-01    0.2098098135E+00
    0.1300000000E+05    0.1437078793E-01    0.5471681466E-02    0.6950449014E+00    0.3913854598E-01    0.2303313323E+00
    0.1500000000E+05    0.1414882698E-01    0.5403728198E-02    0.6951747571E+00    0.4045207546E-01    0.2485553057E+00
    0.1700000000E+05    0.1382409642E-01    0.5295130919E-02    0.6952741847E+00    0.4139144866E-01    0.2649290085E+00
    0.1900000000E+05    0.1343830634E-01    0.5161687821E-02    0.6953527694E+00    0.4204707753E-01    0.2797790780E+00
    0.2100000000E+05    0.1301856591E-01    0.5013758067E-02    0.6954164516E+00    0.4248402237E-01    0.2933512030E+00
    0.2300000000E+05    0.1258271154E-01    0.4858228927E-02    0.6954691091E+00    0.4275022437E-01    0.3058348843E+00
    0.2500000000E+05    0.1214254983E-01    0.4699717125E-02    0.6955133810E+00    0.4288172664E-01    0.3173794676E+00
    0.2700000000E+05    0.1170589034E-01    0.4541324700E-02    0.6955511259E+00    0.4290609517E-01    0.3281048632E+00
    0.2900000000E+05    0.1127785200E-01    0.4385126785E-02    0.6955836905E+00    0.4284472456E-01    0.3381089184E+00
    0.3100000000E+05    0.1086172091E-01    0.4232493311E-02    0.6956120748E+00    0.4271443129E-01    0.3474726137E+00
    0.3300000000E+05    0.1045952385E-01    0.4084305162E-02    0.6956370367E+00    0.4252857900E-01    0.3562638087E+00
    0.3500000000E+05    0.1007241778E-01    0.3941101756E-02    0.6956591612E+00    0.4229788884E-01    0.3645399943E+00
    0.3700000000E+05    0.9700957743E-02    0.3803183183E-02    0.6956789072E+00    0.4203103337E-01    0.3723503527E+00
    0.3900000000E+05    0.9345283302E-02    0.3670681727E-02    0.6956966393E+00    0.4173507848E-01    0.3797373236E+00
    0.4100000000E+05    0.9005249306E-02    0.3543612411E-02    0.6957126515E+00    0.4141581698E-01    0.3867378124E+00
    0.4300000000E+05    0.8680518319E-02    0.3421909016E-02    0.6957271831E+00    0.4107802363E-01    0.3933841347E+00
    0.4500000000E+05    0.8370626236E-02    0.3305449893E-02    0.6957404307E+00    0.4072565221E-01    0.3997047648E+00
    0.4700000000E+05    0.8075029011E-02    0.3194076544E-02    0.6957525578E+00    0.4036198961E-01    0.4057249334E+00
    0.4900000000E+05    0.7793135937E-02    0.3087607015E-02    0.6957637012E+00    0.3998977724E-01    0.4114671122E+00
    0.1000000000E+05    0.1435783553E-01    0.5439883638E-02    0.6947532888E+00    0.3616800294E-01    0.1984992344E+00
    0.3000000000E+05    0.1106814714E-01    0.4308299973E-02    0.6955983531E+00    0.4278728785E-01    0.3428662985E+00
    0.5000000000E+05    0.7657137076E-02    0.3036150349E-02    0.6957689408E+00    0.3980119665E-01    0.4142403220E+00
    0.7000000000E+05    0.5510740267E-02    0.2216027610E-02    0.6958424687E+00    0.3597142155E-01    0.4590434130E+00
    0.9000000000E+05    0.4131905390E-02    0.1680528460E-02    0.6958835040E+00    0.3246350197E-01    0.4901524384E+00
    0.1100000000E+06    0.3204843007E-02    0.1315932990E-02    0.6959097194E+00    0.2944013159E-01    0.5131045353E+00
    0.1300000000E+06    0.2554880833E-02    0.1057672754E-02    0.6959279315E+00    0.2686592255E-01    0.5307647991E+00
    0.1500000000E+06    0.2082792126E-02    0.8684452823E-03    0.6959413290E+00    0.2467030292E-01    0.5447848403E+00
    0.1700000000E+06    0.1729616508E-02    0.7258031748E-03    0.6959516038E+00    0.2278574786E-01    0.5561894002E+00
    0.1900000000E+06    0.1458760532E-02    0.6156712951E-03    0.6959597373E+00    0.2115573894E-01    0.5656498657E+00
    0.2100000000E+06    0.1246616752E-02    0.5288907205E-03    0.6959663381E+00    0.1973483668E-01    0.5736251936E+00
    0.2300000000E+06    0.1077433457E-02    0.4593044505E-03    0.6959718038E+00    0.1848691161E-01    0.5804400622E+00
    0.2500000000E+06    0.9403882592E-03    0.4026542188E-03    0.6959764054E+00    0.1738322811E-01    0.5863307633E+00
    0.2700000000E+06    0.8278531360E-03    0.3559208173E-03    0.6959803336E+00    0.1640081303E-01    0.5914734257E+00
    0.2900000000E+06    0.7343297201E-03    0.3169162485E-03    0.6959837269E+00    0.1552116672E-01    0.5960020485E+00
    0.3100000000E+06    0.6557755189E-03    0.2840239353E-03    0.6959866880E+00    0.1472927203E-01    0.6000204037E+00
    0.3300000000E+06    0.5891657131E-03    0.2560287712E-03    0.6959892951E+00    0.1401283888E-01    0.6036101137E+00
    0.3500000000E+06    0.5322011255E-03    0.2320032574E-03    0.6959916084E+00    0.1336172838E-01    0.6068362662E+00
    0.3700000000E+06    0.4831092959E-03    0.2112295653E-03    0.6959936752E+00    0.1276751200E-01    0.6097514026E+00
    0.3900000000E+06    0.4405062822E-03    0.1931451479E-03    0.6959955331E+00    0.1222313196E-01    0.6123984034E+00
    0.4100000000E+06    0.4032989237E-03    0.1773041157E-03    0.6959972124E+00    0.1172263768E-01    0.6148126123E+00
    0.4300000000E+06    0.3706145922E-03    0.1633493674E-03    0.6959987378E+00    0.1126097968E-01    0.6170234226E+00
    0.4500000000E+06    0.3417499486E-03    0.1509921872E-03    0.6960001298E+00    0.1083384722E-01    0.6190554796E+00
    0.4700000000E+06    0.3161330569E-03    0.1399971077E-03    0.6960014051E+00    0.1043753933E-01    0.6209296021E+00
    0.4900000000E+06    0.2932950212E-03    0.1301705422E-03    0.6960025780E+00    0.1006886159E-01    0.6226634973E+00
    0.1000000000E+06    0.3625176771E-02    0.1481746770E-02    0.6958979107E+00    0.3089176818E-01    0.5024301084E+00
    0.3000000000E+06    0.6933903923E-03    0.2997898651E-03    0.6959852561E+00    0.1511507497E-01    0.5980694644E+00
    0.5000000000E+06    0.2827943247E-03    0.1256442395E-03    0.6960031298E+00    0.9894003524E-02    0.6234826828E+00
    0.7000000000E+06    0.1527180383E-03    0.6904671020E-04    0.6960109010E+00    0.7336171629E-02    0.6352438990E+00
    0.9000000000E+06    0.9557640613E-04    0.4374928652E-04    0.6960152652E+00    0.5822691124E-02    0.6420208566E+00
    0.1100000000E+07    0.6552357350E-04    0.3026927800E-04    0.6960180664E+00    0.4823687353E-02    0.6464263169E+00
    0.1300000000E+07    0.4779495549E-04    0.2223365326E-04    0.6960200193E+00    0.4115449720E-02    0.6495189229E+00
    0.1500000000E+07    0.3646735150E-04    0.1705472249E-04    0.6960214597E+00    0.3587405732E-02    0.6518090051E+00
    0.1700000000E+07    0.2879104475E-04    0.1351932755E-04    0.6960225664E+00    0.3178680874E-02    0.6535728223E+00
    0.1900000000E+07    0.2334858379E-04    0.1099686984E-04    0.6960234436E+00    0.2853017131E-02    0.6549729334E+00
    0.2100000000E+07    0.1934914136E-04    0.9132978373E-05    0.6960241560E+00    0.2587480730E-02    0.6561112225E+00
    0.2300000000E+07    0.1632328609E-04    0.7715959197E-05    0.6960247460E+00    0.2366860577E-02    0.6570547855E+00
    0.2500000000E+07    0.1397809683E-04    0.6612965556E-05    0.6960252426E+00    0.2180672103E-02    0.6578496065E+00
    0.2700000000E+07    0.1212311849E-04    0.5737178355E-05    0.6960256662E+00    0.2021454939E-02    0.6585282539E+00
    0.2900000000E+07    0.1063017358E-04    0.5029895227E-05    0.6960260318E+00    0.1883756558E-02    0.6591144391E+00
    0.3100000000E+07    0.9410428951E-05    0.4450258901E-05    0.6960263504E+00    0.1763499820E-02    0.6596258349E+00
    0.3300000000E+07    0.8400742791E-05    0.3969114224E-05    0.6960266305E+00    0.1657575298E-02    0.6600758819E+00
    0.3500000000E+07    0.7555235634E-05    0.3565199740E-05    0.6960268785E+00    0.1563570436E-02    0.6604749840E+00
    0.3700000000E+07    0.6839919980E-05    0.3222711767E-05    0.6960270996E+00    0.1479584804E-02    0.6608313195E+00
    0.3900000000E+07    0.6229182840E-05    0.2929703157E-05    0.6960272978E+00    0.1404101151E-02    0.6611514059E+00
    0.4100000000E+07    0.5703425020E-05    0.2677004984E-05    0.6960274765E+00    0.1335893520E-02    0.6614405013E+00
    0.4300000000E+07    0.5247441956E-05    0.2457484599E-05    0.6960276383E+00    0.1273960593E-02    0.6617028941E+00
    0.4500000000E+07    0.4849291351E-05    0.2265525204E-05    0.6960277855E+00    0.1217476526E-02    0.6619421168E+00
    0.4700000000E+07    0.4499487238E-05    0.2096654393E-05    0.6960279199E+00    0.1165754147E-02    0.6621611054E+00
    0.4900000000E+07    0.4190417201E-05    0.1947274835E-05    0.6960280430E+00    0.1118217045E-02    0.6623623205E+00
    0.1000000000E+07    0.7841255398E-04    0.3606938388E-04    0.6960168032E+00    0.5276736037E-02    0.6444348588E+00
    0.3000000000E+07    0.9990582096E-05    0.4726164600E-05    0.6960261964E+00    0.1821661314E-02    0.6593785628E+00
    0.5000000000E+07    0.4049183254E-05    0.1878959533E-05    0.6960281008E+00    0.1095862749E-02    0.6624569249E+00
    0.7000000000E+07    0.2342130676E-05    0.1050862168E-05    0.6960288969E+00    0.7822032819E-03    0.6637834419E+00
    0.9000000000E+07    0.1610367739E-05    0.6954987165E-06    0.6960293183E+00    0.6075270421E-03    0.6645217887E+00
    0.1100000000E+08    0.1223769364E-05    0.5086907096E-06    0.6960295685E+00    0.4963063363E-03    0.6649919979E+00
    0.1300000000E+08    0.9912205390E-06    0.3973043679E-06    0.6960297266E+00    0.4193208705E-03    0.6653176178E+00
    0.1500000000E+08    0.8383631988E-06    0.3249107394E-06    0.6960298298E+00    0.3628936982E-03    0.6655564192E+00
    0.1700000000E+08    0.7311998726E-06    0.2748107665E-06    0.6960298979E+00    0.3197723701E-03    0.6657390222E+00
    0.1900000000E+08    0.6523081363E-06    0.2384413605E-06    0.6960299422E+00    0.2857544461E-03    0.6658831669E+00
    0.2100000000E+08    0.5919646078E-06    0.2110275862E-06    0.6960299699E+00    0.2582373011E-03    0.6659998399E+00
    0.2300000000E+08    0.5443703493E-06    0.1897275012E-06    0.6960299856E+00    0.2355233136E-03    0.6660962083E+00
    0.2500000000E+08    0.5058780139E-06    0.1727589396E-06    0.6960299923E+00    0.2164581325E-03    0.6661771463E+00
    0.2700000000E+08    0.4740912707E-06    0.1589554024E-06    0.6960299923E+00    0.2002295568E-03    0.6662460842E+00
