  Pressure (Pa) 22mC5-500 (mol/kg) 23mC5-500 (mol/kg) 24mC5-500 (mol/kg) 2mC6-500 (mol/kg) 3mC6-500 (mol/kg)
    0.1000000000E+01    0.1103067360E-04    0.2404382640E-05    0.2487139238E+00    0.4704102356E-05    0.1042171013E-04
    0.3000000000E+01    0.2388587964E-04    0.5227545659E-05    0.4351471059E+00    0.1115779117E-04    0.3126246987E-04
    0.5000000000E+01    0.3418179459E-04    0.7505930339E-05    0.5118894763E+00    0.1700806018E-04    0.5209979703E-04
    0.7000000000E+01    0.4392520693E-04    0.9669786364E-05    0.5537434577E+00    0.2280880525E-04    0.7293372433E-04
    0.9000000000E+01    0.5352008444E-04    0.1180436298E-04    0.5800941484E+00    0.2863127756E-04    0.9376426229E-04
    0.1100000000E+02    0.6308059051E-04    0.1393324321E-04    0.5982095135E+00    0.3448228014E-04    0.1145914160E-03
    0.1300000000E+02    0.7264396076E-04    0.1606386321E-04    0.6114284979E+00    0.4035786803E-04    0.1354151886E-03
    0.1500000000E+02    0.8222248283E-04    0.1819851437E-04    0.6214999387E+00    0.4625301031E-04    0.1562355824E-03
    0.1700000000E+02    0.9181941114E-04    0.2033767141E-04    0.6294284338E+00    0.5216341730E-04    0.1770525990E-03
    0.1900000000E+02    0.1014345782E-03    0.2248114836E-04    0.6358321727E+00    0.5808572658E-04    0.1978662402E-03
    0.2100000000E+02    0.1110665592E-03    0.2462853562E-04    0.6411124250E+00    0.6401735528E-04    0.2186765073E-03
    0.2300000000E+02    0.1207135505E-03    0.2677937233E-04    0.6455410120E+00    0.6995631921E-04    0.2394834016E-03
    0.2500000000E+02    0.1303737311E-03    0.2893321398E-04    0.6493086110E+00    0.7590108245E-04    0.2602869244E-03
    0.2700000000E+02    0.1400454045E-03    0.3108965663E-04    0.6525529315E+00    0.8185044381E-04    0.2810870768E-03
    0.2900000000E+02    0.1497270458E-03    0.3324834294E-04    0.6553759131E+00    0.8780345343E-04    0.3018838600E-03
    0.3100000000E+02    0.1594173076E-03    0.3540896064E-04    0.6578546313E+00    0.9375935190E-04    0.3226772752E-03
    0.3300000000E+02    0.1691150087E-03    0.3757123823E-04    0.6600484428E+00    0.9971752574E-04    0.3434673234E-03
    0.3500000000E+02    0.1788191163E-03    0.3973493997E-04    0.6620038003E+00    0.1056774744E-03    0.3642540058E-03
    0.3700000000E+02    0.1885287282E-03    0.4189986094E-04    0.6637575784E+00    0.1116387858E-03    0.3850373234E-03
    0.3900000000E+02    0.1982430546E-03    0.4406582262E-04    0.6653394213E+00    0.1176011175E-03    0.4058172773E-03
    0.4100000000E+02    0.2079614031E-03    0.4623266907E-04    0.6667734321E+00    0.1235641833E-03    0.4265938686E-03
    0.4300000000E+02    0.2176831644E-03    0.4840026359E-04    0.6680794098E+00    0.1295277415E-03    0.4473670984E-03
    0.4500000000E+02    0.2274078015E-03    0.5056848595E-04    0.6692737689E+00    0.1354915872E-03    0.4681369677E-03
    0.4700000000E+02    0.2371348387E-03    0.5273723004E-04    0.6703702330E+00    0.1414555452E-03    0.4889034776E-03
    0.4900000000E+02    0.2468638541E-03    0.5490640189E-04    0.6713803643E+00    0.1474194650E-03    0.5096666291E-03
    0.1000000000E+02    0.5830140361E-04    0.1286886289E-04    0.5899195009E+00    0.3155338793E-04    0.1041782620E-03
    0.3000000000E+02    0.1545711766E-03    0.3432842823E-04    0.6566542453E+00    0.9078108289E-04    0.3122809885E-03
    0.5000000000E+02    0.2517289845E-03    0.5599112176E-04    0.6718561802E+00    0.1504013693E-03    0.5200469457E-03
    0.7000000000E+02    0.3490629103E-03    0.7769191882E-04    0.6785892733E+00    0.2100136230E-03    0.7274772196E-03
    0.9000000000E+02    0.4463395409E-03    0.9937921126E-04    0.6823886784E+00    0.2695424342E-03    0.9345728464E-03
    0.1100000000E+03    0.5434664356E-03    0.1210328375E-03    0.6848288001E+00    0.3289638193E-03    0.1141334849E-02
    0.1300000000E+03    0.6403993622E-03    0.1426432308E-03    0.6865284176E+00    0.3882679272E-03    0.1347764245E-02
    0.1500000000E+03    0.7371144338E-03    0.1642052577E-03    0.6877802117E+00    0.4474500934E-03    0.1553862043E-02
    0.1700000000E+03    0.8335976700E-03    0.1857159300E-03    0.6887405763E+00    0.5065079291E-03    0.1759629249E-02
    0.1900000000E+03    0.9298404316E-03    0.2071734108E-03    0.6895006746E+00    0.5654401738E-03    0.1965066864E-02
    0.2100000000E+03    0.1025837188E-02    0.2285765304E-03    0.6901172368E+00    0.6242461791E-03    0.2170175885E-02
    0.2300000000E+03    0.1121584327E-02    0.2499245299E-03    0.6906274146E+00    0.6829256520E-03    0.2374957303E-02
    0.2500000000E+03    0.1217079477E-02    0.2712169152E-03    0.6910565565E+00    0.7414785170E-03    0.2579412107E-02
    0.2700000000E+03    0.1312321104E-02    0.2924533698E-03    0.6914225502E+00    0.7999048378E-03    0.2783541281E-02
    0.2900000000E+03    0.1407308250E-02    0.3136337006E-03    0.6917383795E+00    0.8582047705E-03    0.2987345803E-02
    0.3100000000E+03    0.1502040374E-02    0.3347578017E-03    0.6920136971E+00    0.9163785341E-03    0.3190826649E-02
    0.3300000000E+03    0.1596517235E-02    0.3558256311E-03    0.6922558284E+00    0.9744263914E-03    0.3393984792E-02
    0.3500000000E+03    0.1690738816E-02    0.3768371944E-03    0.6924704328E+00    0.1032348636E-02    0.3596821197E-02
    0.3700000000E+03    0.1784705270E-02    0.3977925325E-03    0.6926619524E+00    0.1090145586E-02    0.3799336828E-02
    0.3900000000E+03    0.1878416881E-02    0.4186917142E-03    0.6928339221E+00    0.1147817574E-02    0.4001532646E-02
    0.4100000000E+03    0.1971874033E-02    0.4395348290E-03    0.6929891901E+00    0.1205364945E-02    0.4203409604E-02
    0.4300000000E+03    0.2065077191E-02    0.4603219837E-03    0.6931300771E+00    0.1262788055E-02    0.4404968655E-02
    0.4500000000E+03    0.2158026882E-02    0.4810532978E-03    0.6932584926E+00    0.1320087264E-02    0.4606210746E-02
    0.4700000000E+03    0.2250723685E-02    0.5017289016E-03    0.6933760227E+00    0.1377262939E-02    0.4807136821E-02
    0.4900000000E+03    0.2343168218E-02    0.5223489337E-03    0.6934839951E+00    0.1434315450E-02    0.5007747819E-02
    0.1000000000E+03    0.4949251388E-03    0.1102109767E-03    0.6837285792E+00    0.2992673485E-03    0.1037995487E-02
    0.3000000000E+03    0.1454706211E-02    0.3242027837E-03    0.6918805990E+00    0.8873074079E-03    0.3089126625E-02
    0.5000000000E+03    0.2389296086E-02    0.5326381557E-03    0.6935347544E+00    0.1462795636E-02    0.5107935456E-02
    0.7000000000E+03    0.3298780939E-02    0.7355432217E-03    0.6942462108E+00    0.2026025173E-02    0.7095373703E-02
    0.9000000000E+03    0.4183886575E-02    0.9330787082E-03    0.6946421455E+00    0.2577369378E-02    0.9052354760E-02
    0.1100000000E+04    0.5045393963E-02    0.1125416397E-02    0.6948943669E+00    0.3117195334E-02    0.1097975569E-01
    0.1300000000E+04    0.5884074673E-02    0.1312725692E-02    0.6950691065E+00    0.3645857216E-02    0.1287841902E-01
    0.1500000000E+04    0.6700676664E-02    0.1495170696E-02    0.6951973165E+00    0.4163695505E-02    0.1474915448E-01
    0.1700000000E+04    0.7495920628E-02    0.1672909483E-02    0.6952953997E+00    0.4671037248E-02    0.1659274054E-01
    0.1900000000E+04    0.8270499412E-02    0.1846094002E-02    0.6953728596E+00    0.5168196567E-02    0.1840992597E-01
    0.2100000000E+04    0.9025078518E-02    0.2014870199E-02    0.6954355827E+00    0.5655475223E-02    0.2020143121E-01
    0.2300000000E+04    0.9760297005E-02    0.2179378222E-02    0.6954874096E+00    0.6133163189E-02    0.2196794975E-01
    0.2500000000E+04    0.1047676855E-01    0.2339752659E-02    0.6955309532E+00    0.6601539203E-02    0.2371014935E-01
    0.2700000000E+04    0.1117508254E-01    0.2496122777E-02    0.6955680527E+00    0.7060871292E-02    0.2542867327E-01
    0.2900000000E+04    0.1185580516E-01    0.2648612764E-02    0.6956000403E+00    0.7511417279E-02    0.2712414135E-01
    0.3100000000E+04    0.1251948046E-01    0.2797341961E-02    0.6956279045E+00    0.7953425259E-02    0.2879715111E-01
    0.3300000000E+04    0.1316663138E-01    0.2942425086E-02    0.6956523946E+00    0.8387134045E-02    0.3044827876E-01
    0.3500000000E+04    0.1379776069E-01    0.3083972445E-02    0.6956740885E+00    0.8812773603E-02    0.3207808011E-01
    0.3700000000E+04    0.1441335196E-01    0.3222090140E-02    0.6956934393E+00    0.9230565447E-02    0.3368709150E-01
    0.3900000000E+04    0.1501387042E-01    0.3356880256E-02    0.6957108073E+00    0.9640723030E-02    0.3527583068E-01
    0.4100000000E+04    0.1559976378E-01    0.3488441046E-02    0.6957264825E+00    0.1004345210E-01    0.3684479755E-01
    0.4300000000E+04    0.1617146307E-01    0.3616867108E-02    0.6957407009E+00    0.1043895104E-01    0.3839447499E-01
    0.4500000000E+04    0.1672938333E-01    0.3742249543E-02    0.6957536565E+00    0.1082741122E-01    0.3992532957E-01
    0.4700000000E+04    0.1727392437E-01    0.3864676116E-02    0.6957655106E+00    0.1120901725E-01    0.4143781220E-01
    0.4900000000E+04    0.1780547145E-01    0.3984231402E-02    0.6957763979E+00    0.1158394733E-01    0.4293235887E-01
    0.1000000000E+04    0.4617541355E-02    0.1029886582E-02    0.6947808414E+00    0.2848699681E-02    0.1001969929E-01
    0.3000000000E+04    0.1218974056E-01    0.2723440186E-02    0.6956144363E+00    0.7733473382E-02    0.2796341702E-01
    0.5000000000E+04    0.1806648881E-01    0.4042957906E-02    0.6957815152E+00    0.1176896288E-01    0.4367303851E-01
    0.7000000000E+04    0.2268820891E-01    0.5085095381E-02    0.6958531809E+00    0.1515764631E-01    0.5764059760E-01
    0.9000000000E+04    0.2636003954E-01    0.5916884785E-02    0.6958930181E+00    0.1804212835E-01    0.7021861487E-01
    0.1100000000E+05    0.2929926088E-01    0.6586109508E-02    0.6959183806E+00    0.2052571312E-01    0.8166666061E-01
    0.1300000000E+05    0.3166430175E-01    0.7127650523E-02    0.6959359460E+00    0.2268506204E-01    0.9218038598E-01
    0.1500000000E+05    0.3357306967E-01    0.7567498544E-02    0.6959488318E+00    0.2457826528E-01    0.1019102764E+00
    0.1700000000E+05    0.3511489507E-01    0.7925369722E-02    0.6959586888E+00    0.2625015106E-01    0.1109741417E+00
    0.1900000000E+05    0.3635852688E-01    0.8216457574E-02    0.6959664728E+00    0.2773587433E-01    0.1194656587E+00
    0.2100000000E+05    0.3735761352E-01    0.8452634605E-02    0.6959727758E+00    0.2906340086E-01    0.1274603526E+00
    0.2300000000E+05    0.3815453991E-01    0.8643294016E-02    0.6959779840E+00    0.3025526365E-01    0.1350198724E+00
    0.2500000000E+05    0.3878316458E-01    0.8795950491E-02    0.6959823600E+00    0.3132982826E-01    0.1421951032E+00
    0.2700000000E+05    0.3927080529E-01    0.8916676317E-02    0.6959860884E+00    0.3230222014E-01    0.1490284717E+00
    0.2900000000E+05    0.3963970154E-01    0.9010422820E-02    0.6959893034E+00    0.3318501461E-01    0.1555556768E+00
    0.3100000000E+05    0.3990810679E-01    0.9081260583E-02    0.6959921040E+00    0.3398875749E-01    0.1618070099E+00
    0.3300000000E+05    0.4009111445E-01    0.9132561222E-02    0.6959945657E+00    0.3472236288E-01    0.1678083712E+00
    0.3500000000E+05    0.4020128969E-01    0.9167136558E-02    0.6959967465E+00    0.3539342070E-01    0.1735820642E+00
    0.3700000000E+05    0.4024915795E-01    0.9187346272E-02    0.6959986919E+00    0.3600843699E-01    0.1791474204E+00
    0.3900000000E+05    0.4024358626E-01    0.9195182022E-02    0.6960004381E+00    0.3657302345E-01    0.1845212976E+00
    0.4100000000E+05    0.4019208363E-01    0.9192333751E-02    0.6960020142E+00    0.3709204843E-01    0.1897184791E+00
    0.4300000000E+05    0.4010103961E-01    0.9180242391E-02    0.6960034439E+00    0.3756975816E-01    0.1947519976E+00
    0.4500000000E+05    0.3997591525E-01    0.9160142094E-02    0.6960047468E+00    0.3800987484E-01    0.1996333987E+00
    0.4700000000E+05    0.3982139714E-01    0.9133094303E-02    0.6960059389E+00    0.3841567666E-01    0.2043729578E+00
    0.4900000000E+05    0.3964152234E-01    0.9100015435E-02    0.6960070340E+00    0.3879006344E-01    0.2089798596E+00
    0.1000000000E+05    0.2791019910E-01    0.6269390826E-02    0.6959069661E+00    0.1932872854E-01    0.7607041564E-01
    0.3000000000E+05    0.3978545635E-01    0.9048479994E-02    0.6959907503E+00    0.3359617610E-01    0.1587141159E+00
    0.5000000000E+05    0.3954318566E-01    0.9081466727E-02    0.6960075487E+00    0.3896629247E-01    0.2112361732E+00
    0.7000000000E+05    0.3688060815E-01    0.8539142739E-02    0.6960147597E+00    0.4133747283E-01    0.2510180391E+00
    0.9000000000E+05    0.3376598271E-01    0.7873127234E-02    0.6960187711E+00    0.4231163008E-01    0.2833792067E+00
    0.1100000000E+06    0.3074221709E-01    0.7212751009E-02    0.6960213267E+00    0.4252708806E-01    0.3106903108E+00
    0.1300000000E+06    0.2796754132E-01    0.6598483675E-02    0.6960230977E+00    0.4229601973E-01    0.3342542266E+00
    0.1500000000E+06    0.2547543808E-01    0.6041102537E-02    0.6960243976E+00    0.4179127834E-01    0.3548882920E+00
    0.1700000000E+06    0.2325589682E-01    0.5540536134E-02    0.6960253924E+00    0.4111654161E-01    0.3731524820E+00
    0.1900000000E+06    0.2128441070E-01    0.5092756038E-02    0.6960261784E+00    0.4033739171E-01    0.3894544151E+00
    0.2100000000E+06    0.1953308911E-01    0.4692510983E-02    0.6960268151E+00    0.3949682381E-01    0.4041037864E+00
    0.2300000000E+06    0.1797497633E-01    0.4334448622E-02    0.6960273414E+00    0.3862370039E-01    0.4173433194E+00
    0.2500000000E+06    0.1658561273E-01    0.4013564806E-02    0.6960277838E+00    0.3773768090E-01    0.4293677154E+00
    0.2700000000E+06    0.1534344044E-01    0.3725360048E-02    0.6960281608E+00    0.3685224966E-01    0.4403359631E+00
    0.2900000000E+06    0.1422972878E-01    0.3465866841E-02    0.6960284860E+00    0.3597665270E-01    0.4503797314E+00
    0.3100000000E+06    0.1322831511E-01    0.3231621645E-02    0.6960287694E+00    0.3511717718E-01    0.4596093166E+00
    0.3300000000E+06    0.1232529236E-01    0.3019615667E-02    0.6960290185E+00    0.3427801838E-01    0.4681179938E+00
    0.3500000000E+06    0.1150870047E-01    0.2827240283E-02    0.6960292393E+00    0.3346187936E-01    0.4759852829E+00
    0.3700000000E+06    0.1076824491E-01    0.2652234266E-02    0.6960294363E+00    0.3267039283E-01    0.4832794527E+00
    0.3900000000E+06    0.1009504957E-01    0.2492635771E-02    0.6960296132E+00    0.3190442180E-01    0.4900594746E+00
    0.4100000000E+06    0.9481444339E-02    0.2346740007E-02    0.6960297728E+00    0.3116427624E-01    0.4963765689E+00
    0.4300000000E+06    0.8920784431E-02    0.2213062580E-02    0.6960299177E+00    0.3044987059E-01    0.5022754454E+00
    0.4500000000E+06    0.8407297781E-02    0.2090308063E-02    0.6960300497E+00    0.2976083905E-01    0.5077953075E+00
    0.4700000000E+06    0.7935956400E-02    0.1977343186E-02    0.6960301706E+00    0.2909662036E-01    0.5129706736E+00
    0.4900000000E+06    0.7502368092E-02    0.1873174047E-02    0.6960302816E+00    0.2845652033E-01    0.5178320541E+00
    0.1000000000E+06    0.3222831510E-01    0.7538637667E-02    0.6960201764E+00    0.4249013352E-01    0.2975690899E+00
    0.3000000000E+06    0.1371590304E-01    0.3345786312E-02    0.6960286324E+00    0.3554459660E-01    0.4550901109E+00
    0.5000000000E+06    0.7298509882E-02    0.1824110568E-02    0.6960303337E+00    0.2814527316E-01    0.5201535787E+00
    0.7000000000E+06    0.4485508975E-02    0.1140556693E-02    0.6960310651E+00    0.2298253938E-01    0.5552846742E+00
    0.9000000000E+06    0.3023305974E-02    0.7791154904E-03    0.6960314722E+00    0.1932927338E-01    0.5770937039E+00
    0.1100000000E+07    0.2171252066E-02    0.5656974796E-03    0.6960317314E+00    0.1664201343E-01    0.5918874797E+00
    0.1300000000E+07    0.1632901944E-02    0.4293936276E-03    0.6960319109E+00    0.1459344369E-01    0.6025567722E+00
    0.1500000000E+07    0.1271700083E-02    0.3371046569E-03    0.6960320425E+00    0.1298451757E-01    0.6106040883E+00
    0.1700000000E+07    0.1017874314E-02    0.2717367321E-03    0.6960321430E+00    0.1168949881E-01    0.6168845524E+00
    0.1900000000E+07    0.8328324656E-03    0.2237494783E-03    0.6960322223E+00    0.1062575783E-01    0.6219194536E+00
    0.2100000000E+07    0.6938499503E-03    0.1874812851E-03    0.6960322863E+00    0.9737017323E-02    0.6260441492E+00
    0.2300000000E+07    0.5868507758E-03    0.1594011372E-03    0.6960323392E+00    0.8983732447E-02    0.6294839342E+00
    0.2500000000E+07    0.5027439582E-03    0.1372145038E-03    0.6960323834E+00    0.8337353392E-02    0.6323956494E+00
    0.2700000000E+07    0.4354484625E-03    0.1193780157E-03    0.6960324210E+00    0.7776777986E-02    0.6348917817E+00
    0.2900000000E+07    0.3807733212E-03    0.1048225989E-03    0.6960324533E+00    0.7286085487E-02    0.6370550722E+00
    0.3100000000E+07    0.3357548851E-03    0.9278872052E-04    0.6960324814E+00    0.6853045919E-02    0.6389477187E+00
    0.3300000000E+07    0.2982499244E-03    0.8272472710E-04    0.6960325060E+00    0.6468113673E-02    0.6406173660E+00
    0.3500000000E+07    0.2666777085E-03    0.7422210619E-04    0.6960325277E+00    0.6123732079E-02    0.6421011199E+00
    0.3700000000E+07    0.2398518814E-03    0.6697310596E-04    0.6960325469E+00    0.5813842771E-02    0.6434283029E+00
    0.3900000000E+07    0.2168681272E-03    0.6074230487E-04    0.6960325641E+00    0.5533533009E-02    0.6446223908E+00
    0.4100000000E+07    0.1970274414E-03    0.5534712034E-04    0.6960325796E+00    0.5278777866E-02    0.6457023979E+00
    0.4300000000E+07    0.1797826790E-03    0.5064418244E-04    0.6960325936E+00    0.5046248855E-02    0.6466838876E+00
    0.4500000000E+07    0.1647006495E-03    0.4651963914E-04    0.6960326062E+00    0.4833169907E-02    0.6475797202E+00
    0.4700000000E+07    0.1514348012E-03    0.4288214778E-04    0.6960326178E+00    0.4637207588E-02    0.6484006145E+00
    0.4900000000E+07    0.1397052454E-03    0.3965773462E-04    0.6960326283E+00    0.4456386443E-02    0.6491555754E+00
    0.1000000000E+07    0.2545097368E-02    0.6596432759E-03    0.6960316147E+00    0.1788923504E-01    0.5851404765E+00
    0.3000000000E+07    0.3572066252E-03    0.9852892314E-04    0.6960324678E+00    0.7063009246E-02    0.6380319616E+00
    0.5000000000E+07    0.1343436160E-03    0.3818110397E-04    0.6960326332E+00    0.4371117826E-02    0.6495107587E+00
    0.7000000000E+07    0.6971649858E-04    0.2021089595E-04    0.6960327004E+00    0.3158536643E-02    0.6545056850E+00
    0.9000000000E+07    0.4253219710E-04    0.1251470546E-04    0.6960327350E+00    0.2470040410E-02    0.6572969666E+00
    0.1100000000E+08    0.2860821401E-04    0.8518197560E-05    0.6960327551E+00    0.2026669704E-02    0.6590782750E+00
    0.1300000000E+08    0.2054235923E-04    0.6177239468E-05    0.6960327674E+00    0.1717483415E-02    0.6603133524E+00
    0.1500000000E+08    0.1545815677E-04    0.4687792934E-05    0.6960327752E+00    0.1489665525E-02    0.6612198327E+00
    0.1700000000E+08    0.1204950408E-04    0.3681119948E-05    0.6960327802E+00    0.1314882869E-02    0.6619133385E+00
    0.1900000000E+08    0.9654090181E-05    0.2968646504E-05    0.6960327832E+00    0.1176578366E-02    0.6624609663E+00
    0.2100000000E+08    0.7907086455E-05    0.2445728350E-05    0.6960327849E+00    0.1064431611E-02    0.6629043196E+00
    0.2300000000E+08    0.6594147125E-05    0.2050480424E-05    0.6960327857E+00    0.9716764948E-03    0.6632705625E+00
    0.2500000000E+08    0.5582655019E-05    0.1744387909E-05    0.6960327857E+00    0.8936931633E-03    0.6635781826E+00
    0.2700000000E+08    0.4787001771E-05    0.1502454957E-05    0.6960327853E+00    0.8272199711E-03    0.6638401977E+00
