  Pressure (Pa) 22mC5-500 (mol/kg) 23mC5-500 (mol/kg) 24mC5-500 (mol/kg) 2mC6-500 (mol/kg) 3mC6-500 (mol/kg)
    0.1000000000E+01    0.1369740267E-04    0.6957837670E-05    0.9950015535E-01    0.2818895774E-04    0.5210746919E-05
    0.3000000000E+01    0.3395282019E-04    0.1726509682E-04    0.2321155908E+00    0.7202633632E-04    0.1563019009E-04
    0.5000000000E+01    0.4934860409E-04    0.2512431189E-04    0.3164790125E+00    0.1079092869E-03    0.2604692339E-04
    0.7000000000E+01    0.6234927079E-04    0.3178261025E-04    0.3748731320E+00    0.1402594658E-03    0.3646096154E-04
    0.9000000000E+01    0.7403881549E-04    0.3778686264E-04    0.4176904340E+00    0.1708951520E-03    0.4687231241E-04
    0.1100000000E+02    0.8495714513E-04    0.4340855645E-04    0.4504306799E+00    0.2006561508E-03    0.5728098093E-04
    0.1300000000E+02    0.9539778800E-04    0.4879477126E-04    0.4762770749E+00    0.2299622370E-03    0.6768697060E-04
    0.1500000000E+02    0.1055310434E-03    0.5403051885E-04    0.4971997851E+00    0.2590350898E-03    0.7809028416E-04
    0.1700000000E+02    0.1154607801E-03    0.5916744031E-04    0.5144835126E+00    0.2879962222E-03    0.8849092385E-04
    0.1900000000E+02    0.1252528957E-03    0.6423815570E-04    0.5290017574E+00    0.3169137493E-03    0.9888889167E-04
    0.2100000000E+02    0.1349505394E-03    0.6926392322E-04    0.5413691521E+00    0.3458261448E-03    0.1092841894E-03
    0.2300000000E+02    0.1445826966E-03    0.7425894908E-04    0.5520307459E+00    0.3747549171E-03    0.1196768188E-03
    0.2500000000E+02    0.1541692471E-03    0.7923292085E-04    0.5613167197E+00    0.4037116462E-03    0.1300667813E-03
    0.2700000000E+02    0.1637240573E-03    0.8419255225E-04    0.5694772003E+00    0.4327020182E-03    0.1404540786E-03
    0.2900000000E+02    0.1732569292E-03    0.8914255483E-04    0.5767051367E+00    0.4617281989E-03    0.1508387120E-03
    0.3100000000E+02    0.1827748645E-03    0.9408626593E-04    0.5831517553E+00    0.4907902595E-03    0.1612206831E-03
    0.3300000000E+02    0.1922829018E-03    0.9902606393E-04    0.5889372597E+00    0.5198870462E-03    0.1715999933E-03
    0.3500000000E+02    0.2017846843E-03    0.1039636485E-03    0.5941583975E+00    0.5490167164E-03    0.1819766439E-03
    0.3700000000E+02    0.2112828501E-03    0.1089002332E-03    0.5988939161E+00    0.5781770709E-03    0.1923506363E-03
    0.3900000000E+02    0.2207793060E-03    0.1138366797E-03    0.6032085628E+00    0.6073657603E-03    0.2027219720E-03
    0.4100000000E+02    0.2302754223E-03    0.1187735934E-03    0.6071560639E+00    0.6365804114E-03    0.2130906521E-03
    0.4300000000E+02    0.2397721721E-03    0.1237113909E-03    0.6107813737E+00    0.6658187033E-03    0.2234566782E-03
    0.4500000000E+02    0.2492702328E-03    0.1286503497E-03    0.6141223951E+00    0.6950784120E-03    0.2338200515E-03
    0.4700000000E+02    0.2587700615E-03    0.1335906444E-03    0.6172113095E+00    0.7243574340E-03    0.2441807734E-03
    0.4900000000E+02    0.2682719494E-03    0.1385323730E-03    0.6200756177E+00    0.7536537977E-03    0.2545388452E-03
    0.1000000000E+02    0.7957217566E-04    0.4063439023E-04    0.4350839194E+00    0.1858523964E-03    0.5207698172E-04
    0.3000000000E+02    0.1780174107E-03    0.9161502950E-04    0.5800179719E+00    0.4762547952E-03    0.1560300303E-03
    0.5000000000E+02    0.2730237217E-03    0.1410037898E-03    0.6214310642E+00    0.7683079032E-03    0.2597168877E-03
    0.7000000000E+02    0.3681705233E-03    0.1905010049E-03    0.6410506729E+00    0.1061922519E-02    0.3631389281E-03
    0.9000000000E+02    0.4634371546E-03    0.2400707904E-03    0.6524969316E+00    0.1355873049E-02    0.4662974545E-03
    0.1100000000E+03    0.5586792404E-03    0.2896315869E-03    0.6599970490E+00    0.1649585597E-02    0.5691937493E-03
    0.1300000000E+03    0.6537913230E-03    0.3391265491E-03    0.6652917738E+00    0.1942773898E-02    0.6718290827E-03
    0.1500000000E+03    0.7487031592E-03    0.3885185193E-03    0.6692292256E+00    0.2235282468E-02    0.7742047146E-03
    0.1700000000E+03    0.8433676885E-03    0.4377828758E-03    0.6722720466E+00    0.2527020999E-02    0.8763218958E-03
    0.1900000000E+03    0.9377527000E-03    0.4869028943E-03    0.6746940624E+00    0.2817934406E-02    0.9781818681E-03
    0.2100000000E+03    0.1031835666E-02    0.5358669470E-03    0.6766676919E+00    0.3107987944E-02    0.1079785865E-02
    0.2300000000E+03    0.1125600548E-02    0.5846667954E-03    0.6783069127E+00    0.3397159263E-02    0.1181135111E-02
    0.2500000000E+03    0.1219035773E-02    0.6332965217E-03    0.6796900885E+00    0.3685433904E-02    0.1282230824E-02
    0.2700000000E+03    0.1312132926E-02    0.6817518400E-03    0.6808728714E+00    0.3972802629E-02    0.1383074211E-02
    0.2900000000E+03    0.1404885869E-02    0.7300296381E-03    0.6818958741E+00    0.4259259753E-02    0.1483666473E-02
    0.3100000000E+03    0.1497290148E-02    0.7781276670E-03    0.6827894290E+00    0.4544802082E-02    0.1584008802E-02
    0.3300000000E+03    0.1589342568E-02    0.8260443234E-03    0.6835766472E+00    0.4829428204E-02    0.1684102384E-02
    0.3500000000E+03    0.1681040897E-02    0.8737784949E-03    0.6842754471E+00    0.5113138005E-02    0.1783948395E-02
    0.3700000000E+03    0.1772383646E-02    0.9213294480E-03    0.6848999351E+00    0.5395932334E-02    0.1883548005E-02
    0.3900000000E+03    0.1863369908E-02    0.9686967448E-03    0.6854613683E+00    0.5677812768E-02    0.1982902373E-02
    0.4100000000E+03    0.1953999237E-02    0.1015880181E-02    0.6859688393E+00    0.5958781435E-02    0.2082012655E-02
    0.4300000000E+03    0.2044271556E-02    0.1062879740E-02    0.6864297724E+00    0.6238840886E-02    0.2180879996E-02
    0.4500000000E+03    0.2134187084E-02    0.1109695553E-02    0.6868502896E+00    0.6517994002E-02    0.2279505535E-02
    0.4700000000E+03    0.2223746280E-02    0.1156327875E-02    0.6872354844E+00    0.6796243922E-02    0.2377890404E-02
    0.4900000000E+03    0.2312949801E-02    0.1202777058E-02    0.6875896285E+00    0.7073593985E-02    0.2476035726E-02
    0.1000000000E+03    0.5110688395E-03    0.2648564266E-03    0.6566006725E+00    0.1502781202E-02    0.5177783012E-03
    0.3000000000E+03    0.1451131817E-02    0.7541012370E-03    0.6823572465E+00    0.4402145391E-02    0.1533868805E-02
    0.5000000000E+03    0.2357418434E-02    0.1225933106E-02    0.6877562069E+00    0.7211932658E-02    0.2525018906E-02
    0.7000000000E+03    0.3228380293E-02    0.1679576562E-02    0.6900971766E+00    0.9932373819E-02    0.3492375629E-02
    0.9000000000E+03    0.4065235486E-02    0.2115665313E-02    0.6914050096E+00    0.1256725881E-01    0.4437013823E-02
    0.1100000000E+04    0.4869533483E-02    0.2534997336E-02    0.6922400678E+00    0.1512053153E-01    0.5359941894E-02
    0.1300000000E+04    0.5642840604E-02    0.2938377139E-02    0.6928195017E+00    0.1759598306E-01    0.6262106941E-02
    0.1500000000E+04    0.6386667148E-02    0.3326579633E-02    0.6932451265E+00    0.1999720103E-01    0.7144399415E-02
    0.1700000000E+04    0.7102447647E-02    0.3700340503E-02    0.6935710210E+00    0.2232756629E-01    0.8007657355E-02
    0.1900000000E+04    0.7791536904E-02    0.4060354396E-02    0.6938285696E+00    0.2459026149E-01    0.8852670242E-02
    0.2100000000E+04    0.8455211525E-02    0.4407275816E-02    0.6940372374E+00    0.2678828282E-01    0.9680182522E-02
    0.2300000000E+04    0.9094673492E-02    0.4741721006E-02    0.6942097380E+00    0.2892445225E-01    0.1049089682E-01
    0.2500000000E+04    0.9711054434E-02    0.5064270170E-02    0.6943547274E+00    0.3100142943E-01    0.1128547689E-01
    0.2700000000E+04    0.1030542004E-01    0.5375469746E-02    0.6944783032E+00    0.3302172282E-01    0.1206455028E-01
    0.2900000000E+04    0.1087877439E-01    0.5675834626E-02    0.6945848845E+00    0.3498770017E-01    0.1282871084E-01
    0.3100000000E+04    0.1143206402E-01    0.5965850263E-02    0.6946777530E+00    0.3690159811E-01    0.1357852100E-01
    0.3300000000E+04    0.1196618183E-01    0.6245974649E-02    0.6947593961E+00    0.3876553104E-01    0.1431451380E-01
    0.3500000000E+04    0.1248197067E-01    0.6516640157E-02    0.6948317340E+00    0.4058149936E-01    0.1503719488E-01
    0.3700000000E+04    0.1298022666E-01    0.6778255252E-02    0.6948962724E+00    0.4235139704E-01    0.1574704421E-01
    0.3900000000E+04    0.1346170231E-01    0.7031206076E-02    0.6949542087E+00    0.4407701859E-01    0.1644451773E-01
    0.4100000000E+04    0.1392710938E-01    0.7275857916E-02    0.6950065073E+00    0.4576006549E-01    0.1713004889E-01
    0.4300000000E+04    0.1437712154E-01    0.7512556560E-02    0.6950539531E+00    0.4740215218E-01    0.1780405002E-01
    0.4500000000E+04    0.1481237682E-01    0.7741629558E-02    0.6950971922E+00    0.4900481155E-01    0.1846691362E-01
    0.4700000000E+04    0.1523347991E-01    0.7963387379E-02    0.6951367604E+00    0.5056950003E-01    0.1911901358E-01
    0.4900000000E+04    0.1564100421E-01    0.8178124495E-02    0.6951731064E+00    0.5209760231E-01    0.1976070629E-01
    0.1000000000E+04    0.4471355355E-02    0.2327375151E-02    0.6918640171E+00    0.1385385520E-01    0.4901131050E-02
    0.3000000000E+04    0.1115787027E-01    0.5822106854E-02    0.6946328619E+00    0.3595102415E-01    0.1320537574E-01
    0.5000000000E+04    0.1583984546E-01    0.8282948182E-02    0.6951901917E+00    0.5284834780E-01    0.2007775676E-01
    0.7000000000E+04    0.1922221404E-01    0.1007168374E-01    0.6954295866E+00    0.6623086741E-01    0.2594721404E-01
    0.9000000000E+04    0.2172204063E-01    0.1140269463E-01    0.6955627765E+00    0.7712122820E-01    0.3108082327E-01
    0.1100000000E+05    0.2360016894E-01    0.1241029438E-01    0.6956476280E+00    0.8617658890E-01    0.3565446394E-01
    0.1300000000E+05    0.2502725818E-01    0.1318252008E-01    0.6957064257E+00    0.9383898655E-01    0.3978923959E-01
    0.1500000000E+05    0.2611914362E-01    0.1377924149E-01    0.6957495788E+00    0.1004170454E+00    0.4357162223E-01
    0.1700000000E+05    0.2695688288E-01    0.1424243678E-01    0.6957826022E+00    0.1061330219E+00    0.4706524777E-01
    0.1900000000E+05    0.2759867285E-01    0.1460230713E-01    0.6958086905E+00    0.1111512170E+00    0.5031815517E-01
    0.2100000000E+05    0.2808722258E-01    0.1488106360E-01    0.6958298226E+00    0.1155958392E+00    0.5336740821E-01
    0.2300000000E+05    0.2845447267E-01    0.1509535374E-01    0.6958472896E+00    0.1195626253E+00    0.5624214710E-01
    0.2500000000E+05    0.2872470640E-01    0.1525786293E-01    0.6958619698E+00    0.1231266277E+00    0.5896566281E-01
    0.2700000000E+05    0.2891665352E-01    0.1537839853E-01    0.6958744816E+00    0.1263475682E+00    0.6155684304E-01
    0.2900000000E+05    0.2904494554E-01    0.1546464061E-01    0.6958852730E+00    0.1292736043E+00    0.6403120306E-01
    0.3100000000E+05    0.2912114240E-01    0.1552267230E-01    0.6958946764E+00    0.1319440310E+00    0.6640163511E-01
    0.3300000000E+05    0.2915446999E-01    0.1555736116E-01    0.6959029437E+00    0.1343912553E+00    0.6867896303E-01
    0.3500000000E+05    0.2915235832E-01    0.1557263787E-01    0.6959102693E+00    0.1366422624E+00    0.7087235911E-01
    0.3700000000E+05    0.2912084005E-01    0.1557170281E-01    0.6959168058E+00    0.1387197201E+00    0.7298966209E-01
    0.3900000000E+05    0.2906484937E-01    0.1555718123E-01    0.6959226743E+00    0.1406428215E+00    0.7503762278E-01
    0.4100000000E+05    0.2898844894E-01    0.1553124123E-01    0.6959279724E+00    0.1424279375E+00    0.7702209614E-01
    0.4300000000E+05    0.2889500400E-01    0.1549568437E-01    0.6959327794E+00    0.1440891251E+00    0.7894819305E-01
    0.4500000000E+05    0.2878731740E-01    0.1545201605E-01    0.6959371609E+00    0.1456385295E+00    0.8082040148E-01
    0.4700000000E+05    0.2866773511E-01    0.1540150063E-01    0.6959411709E+00    0.1470867044E+00    0.8264268409E-01
    0.4900000000E+05    0.2853822963E-01    0.1534520495E-01    0.6959448549E+00    0.1484428690E+00    0.8441855759E-01
    0.1000000000E+05    0.2272655140E-01    0.1194059725E-01    0.6956094344E+00    0.8184679682E-01    0.3342907683E-01
    0.3000000000E+05    0.2908893166E-01    0.1549685372E-01    0.6958901309E+00    0.1306386012E+00    0.6522869056E-01
    0.5000000000E+05    0.2847028653E-01    0.1531517757E-01    0.6959465868E+00    0.1490890157E+00    0.8529008417E-01
    0.7000000000E+05    0.2688125927E-01    0.1457025062E-01    0.6959708714E+00    0.1587087909E+00    0.1008938170E+00
    0.9000000000E+05    0.2521202771E-01    0.1375114882E-01    0.6959844031E+00    0.1643933210E+00    0.1140323492E+00
    0.1100000000E+06    0.2365299143E-01    0.1296995096E-01    0.6959930366E+00    0.1679398453E+00    0.1255553797E+00
    0.1300000000E+06    0.2224049255E-01    0.1225266488E-01    0.6959990276E+00    0.1701834594E+00    0.1359130761E+00
    0.1500000000E+06    0.2097033381E-01    0.1160127198E-01    0.6960034303E+00    0.1715717353E+00    0.1453770838E+00
    0.1700000000E+06    0.1982792526E-01    0.1101076847E-01    0.6960068037E+00    0.1723687327E+00    0.1541261680E+00
    0.1900000000E+06    0.1879726801E-01    0.1047451073E-01    0.6960094718E+00    0.1727413704E+00    0.1622854670E+00
    0.2100000000E+06    0.1786364411E-01    0.9985972002E-02    0.6960116355E+00    0.1728007806E+00    0.1699467170E+00
    0.2300000000E+06    0.1701426761E-01    0.9539282927E-02    0.6960134258E+00    0.1726239992E+00    0.1771796148E+00
    0.2500000000E+06    0.1623826337E-01    0.9129340255E-02    0.6960149320E+00    0.1722661744E+00    0.1840386413E+00
    0.2700000000E+06    0.1552644380E-01    0.8751764694E-02    0.6960162170E+00    0.1717678348E+00    0.1905673824E+00
    0.2900000000E+06    0.1487104903E-01    0.8402813078E-02    0.6960173264E+00    0.1711594184E+00    0.1968013855E+00
    0.3100000000E+06    0.1426550638E-01    0.8079284444E-02    0.6960182940E+00    0.1704642057E+00    0.2027701153E+00
    0.3300000000E+06    0.1370422464E-01    0.7778434071E-02    0.6960191454E+00    0.1697002796E+00    0.2084983360E+00
    0.3500000000E+06    0.1318242372E-01    0.7497899422E-02    0.6960199005E+00    0.1688818724E+00    0.2140071113E+00
    0.3700000000E+06    0.1269599560E-01    0.7235638077E-02    0.6960205748E+00    0.1680203144E+00    0.2193145454E+00
    0.3900000000E+06    0.1224139140E-01    0.6989876326E-02    0.6960211806E+00    0.1671247140E+00    0.2244363421E+00
    0.4100000000E+06    0.1181552973E-01    0.6759066802E-02    0.6960217280E+00    0.1662024564E+00    0.2293862348E+00
    0.4300000000E+06    0.1141572196E-01    0.6541853592E-02    0.6960222251E+00    0.1652595742E+00    0.2341763210E+00
    0.4500000000E+06    0.1103961129E-01    0.6337043435E-02    0.6960226785E+00    0.1643010264E+00    0.2388173271E+00
    0.4700000000E+06    0.1068512264E-01    0.6143581889E-02    0.6960230937E+00    0.1633309125E+00    0.2433188196E+00
    0.4900000000E+06    0.1035042135E-01    0.5960533531E-02    0.6960234755E+00    0.1623526373E+00    0.2476893765E+00
    0.1000000000E+06    0.2441487651E-01    0.1335326840E-01    0.6959891490E+00    0.1663687389E+00    0.1199619338E+00
    0.3000000000E+06    0.1456241648E-01    0.8238052198E-02    0.6960178261E+00    0.1708214278E+00    0.1998172648E+00
    0.5000000000E+06    0.1018997482E-01    0.5872650397E-02    0.6960236550E+00    0.1618613456E+00    0.2498279994E+00
    0.7000000000E+06    0.7706991349E-02    0.4500768827E-02    0.6960261803E+00    0.1520908819E+00    0.2872612574E+00
    0.9000000000E+06    0.6105641854E-02    0.3602819379E-02    0.6960275955E+00    0.1429699039E+00    0.3172167375E+00
    0.1100000000E+07    0.4991127754E-02    0.2970619001E-02    0.6960285027E+00    0.1347177810E+00    0.3420916461E+00
    0.1300000000E+07    0.4174657223E-02    0.2503067014E-02    0.6960291349E+00    0.1273005857E+00    0.3632522545E+00
    0.1500000000E+07    0.3553896506E-02    0.2144701385E-02    0.6960296011E+00    0.1206290329E+00    0.3815673239E+00
    0.1700000000E+07    0.3068370557E-02    0.1862420324E-02    0.6960299595E+00    0.1146091103E+00    0.3976299264E+00
    0.1900000000E+07    0.2680000788E-02    0.1635203722E-02    0.6960302438E+00    0.1091556185E+00    0.4118656469E+00
    0.2100000000E+07    0.2363614075E-02    0.1449051975E-02    0.6960304749E+00    0.1041949081E+00    0.4245914053E+00
    0.2300000000E+07    0.2101912743E-02    0.1294281394E-02    0.6960306666E+00    0.9966434334E-01    0.4360500548E+00
    0.2500000000E+07    0.1882630158E-02    0.1163983633E-02    0.6960308282E+00    0.9551088423E-01    0.4464319900E+00
    0.2700000000E+07    0.1696836300E-02    0.1053101977E-02    0.6960309664E+00    0.9168957543E-01    0.4558892933E+00
    0.2900000000E+07    0.1537884256E-02    0.9578536291E-03    0.6960310859E+00    0.8816218733E-01    0.4645453545E+00
    0.3100000000E+07    0.1400731306E-02    0.8753554044E-03    0.6960311902E+00    0.8489606683E-01    0.4725016196E+00
    0.3300000000E+07    0.1281487874E-02    0.8033738055E-03    0.6960312822E+00    0.8186318906E-01    0.4798424520E+00
    0.3500000000E+07    0.1177109895E-02    0.7401537735E-03    0.6960313639E+00    0.7903938278E-01    0.4866387121E+00
    0.3700000000E+07    0.1085184137E-02    0.6842986676E-03    0.6960314370E+00    0.7640369925E-01    0.4929504440E+00
    0.3900000000E+07    0.1003775348E-02    0.6346844607E-03    0.6960315027E+00    0.7393789738E-01    0.4988289264E+00
    0.4100000000E+07    0.9313154638E-03    0.5903973076E-03    0.6960315621E+00    0.7162602248E-01    0.5043182606E+00
    0.4300000000E+07    0.8665220081E-03    0.5506873980E-03    0.6960316161E+00    0.6945406010E-01    0.5094566162E+00
    0.4500000000E+07    0.8083371315E-03    0.5149343601E-03    0.6960316654E+00    0.6740965034E-01    0.5142772201E+00
    0.4700000000E+07    0.7558814663E-03    0.4826209893E-03    0.6960317106E+00    0.6548185079E-01    0.5188091490E+00
    0.4900000000E+07    0.7084187874E-03    0.4533130660E-03    0.6960317522E+00    0.6366093892E-01    0.5230779711E+00
    0.1000000000E+07    0.5502178111E-02    0.3261315624E-02    0.6960280937E+00    0.1387349660E+00    0.3301883134E+00
    0.3000000000E+07    0.1466848864E-02    0.9151632622E-03    0.6960311398E+00    0.8649831881E-01    0.4686053356E+00
    0.5000000000E+07    0.6863620257E-03    0.4396692146E-03    0.6960317717E+00    0.6278781983E-01    0.5251208788E+00
    0.7000000000E+07    0.3982742863E-03    0.2597848316E-03    0.6960320472E+00    0.4926048961E-01    0.5564699626E+00
    0.9000000000E+07    0.2600830840E-03    0.1720059388E-03    0.6960322016E+00    0.4051217725E-01    0.5764756099E+00
    0.1100000000E+08    0.1831407143E-03    0.1224818955E-03    0.6960323000E+00    0.3439067612E-01    0.5903655917E+00
    0.1300000000E+08    0.1359124237E-03    0.9175377843E-04    0.6960323680E+00    0.2986797209E-01    0.6005754761E+00
    0.1500000000E+08    0.1048469180E-03    0.7135658222E-04    0.6960324175E+00    0.2639063648E-01    0.6083971836E+00
    0.1700000000E+08    0.8332734962E-04    0.5711511040E-04    0.6960324550E+00    0.2363421329E-01    0.6145807199E+00
    0.1900000000E+08    0.6780812587E-04    0.4677281604E-04    0.6960324843E+00    0.2139588633E-01    0.6195916408E+00
    0.2100000000E+08    0.5624957498E-04    0.3902182161E-04    0.6960325076E+00    0.1954236036E-01    0.6237343204E+00
    0.2300000000E+08    0.4741056305E-04    0.3306098636E-04    0.6960325266E+00    0.1798242779E-01    0.6272161810E+00
    0.2500000000E+08    0.4050062754E-04    0.2837702034E-04    0.6960325422E+00    0.1665157606E-01    0.6301834598E+00
    0.2700000000E+08    0.3499693327E-04    0.2462857362E-04    0.6960325551E+00    0.1550288962E-01    0.6327422224E+00
