  Pressure (Pa) 22mC5-500 (mol/kg) 23mC5-500 (mol/kg) 24mC5-500 (mol/kg) 2mC6-500 (mol/kg) 3mC6-500 (mol/kg)
    0.1000000000E+01    0.1163293383E-04    0.4224462862E-05    0.2142848278E+00    0.4910268056E-05    0.1042169472E-04
    0.3000000000E+01    0.2562963005E-04    0.9337654810E-05    0.3978636415E+00    0.1168447995E-04    0.3126229161E-04
    0.5000000000E+01    0.3644210440E-04    0.1331632425E-04    0.4801308570E+00    0.1762473237E-04    0.5209926943E-04
    0.7000000000E+01    0.4641336013E-04    0.1700056773E-04    0.5268162854E+00    0.2343256464E-04    0.7293266266E-04
    0.9000000000E+01    0.5610346399E-04    0.2058896418E-04    0.5569000866E+00    0.2923382667E-04    0.9376248332E-04
    0.1100000000E+02    0.6569345822E-04    0.2414483607E-04    0.5779010002E+00    0.3505459491E-04    0.1145887374E-03
    0.1300000000E+02    0.7525184473E-04    0.2769171749E-04    0.5933930188E+00    0.4089816901E-04    0.1354114284E-03
    0.1500000000E+02    0.8480671958E-04    0.3123901252E-04    0.6052924567E+00    0.4676230179E-04    0.1562305591E-03
    0.1700000000E+02    0.9436982820E-04    0.3479048387E-04    0.6147191657E+00    0.5264370999E-04    0.1770461316E-03
    0.1900000000E+02    0.1039457740E-03    0.3834747286E-04    0.6223713732E+00    0.5853929905E-04    0.1978581477E-03
    0.2100000000E+02    0.1135359008E-03    0.4191024240E-04    0.6287070402E+00    0.6444644557E-04    0.2186666089E-03
    0.2300000000E+02    0.1231400457E-03    0.4547857549E-04    0.6340390224E+00    0.7036300284E-04    0.2394715167E-03
    0.2500000000E+02    0.1327573694E-03    0.4905205386E-04    0.6385883229E+00    0.7628723337E-04    0.2602728725E-03
    0.2700000000E+02    0.1423867616E-03    0.5263019091E-04    0.6425154971E+00    0.8221773195E-04    0.2810706778E-03
    0.2900000000E+02    0.1520270399E-03    0.5621249506E-04    0.6459399964E+00    0.8815335772E-04    0.3018649337E-03
    0.3100000000E+02    0.1616770477E-03    0.5979849899E-04    0.6489525309E+00    0.9409317896E-04    0.3226556416E-03
    0.3300000000E+02    0.1713356987E-03    0.6338777178E-04    0.6516232234E+00    0.1000364295E-03    0.3434428028E-03
    0.3500000000E+02    0.1810019942E-03    0.6697992253E-04    0.6540071365E+00    0.1059824748E-03    0.3642264183E-03
    0.3700000000E+02    0.1906750279E-03    0.7057459972E-04    0.6561481095E+00    0.1119307857E-03    0.3850064896E-03
    0.3900000000E+02    0.2003539819E-03    0.7417148870E-04    0.6580814792E+00    0.1178809178E-03    0.4057830177E-03
    0.4100000000E+02    0.2100381212E-03    0.7777030837E-04    0.6598360463E+00    0.1238324955E-03    0.4265560039E-03
    0.4300000000E+02    0.2197267860E-03    0.8137080767E-04    0.6614355193E+00    0.1297851994E-03    0.4473254493E-03
    0.4500000000E+02    0.2294193839E-03    0.8497276222E-04    0.6628995927E+00    0.1357387563E-03    0.4680913552E-03
    0.4700000000E+02    0.2391153829E-03    0.8857597124E-04    0.6642447618E+00    0.1416929310E-03    0.4888537227E-03
    0.4900000000E+02    0.2488143045E-03    0.9218025476E-04    0.6654849470E+00    0.1476475203E-03    0.5096125530E-03
    0.1000000000E+02    0.6090528035E-04    0.2236899862E-04    0.5682578176E+00    0.3214133915E-04    0.1041760559E-03
    0.3000000000E+02    0.1568508975E-03    0.5800506241E-04    0.6474929688E+00    0.9112279523E-04    0.3122607311E-03
    0.5000000000E+02    0.2536647249E-03    0.9398274828E-04    0.6660694379E+00    0.1506249144E-03    0.5199906421E-03
    0.7000000000E+02    0.3507419211E-03    0.1300574311E-03    0.6743616834E+00    0.2101618962E-03    0.7273670056E-03
    0.9000000000E+02    0.4478088996E-03    0.1661271488E-03    0.6790585683E+00    0.2696302559E-03    0.9343909784E-03
    0.1100000000E+03    0.5447507422E-03    0.2021497743E-03    0.6820818478E+00    0.3289958247E-03    0.1141063702E-02
    0.1300000000E+03    0.6415108647E-03    0.2381047575E-03    0.6841907904E+00    0.3882442308E-03    0.1347386309E-02
    0.1500000000E+03    0.7380581249E-03    0.2739808643E-03    0.6857457122E+00    0.4473685136E-03    0.1553359926E-02
    0.1700000000E+03    0.8343740126E-03    0.3097714538E-03    0.6869395872E+00    0.5063650045E-03    0.1758985673E-02
    0.1900000000E+03    0.9304469180E-03    0.3454723818E-03    0.6878850903E+00    0.5652316818E-03    0.1964264665E-02
    0.2100000000E+03    0.1026269284E-02    0.3810809638E-03    0.6886524288E+00    0.6239674227E-03    0.2169198013E-02
    0.2300000000E+03    0.1121836076E-02    0.4165954203E-03    0.6892876273E+00    0.6825716293E-03    0.2373786821E-02
    0.2500000000E+03    0.1217143897E-02    0.4520145587E-03    0.6898221146E+00    0.7410440261E-03    0.2578032188E-02
    0.2700000000E+03    0.1312190459E-02    0.4873375820E-03    0.6902780845E+00    0.7993845456E-03    0.2781935210E-02
    0.2900000000E+03    0.1406974249E-02    0.5225639684E-03    0.6906716558E+00    0.8575932578E-03    0.2985496976E-02
    0.3100000000E+03    0.1501494304E-02    0.5576933924E-03    0.6910148176E+00    0.9156703274E-03    0.3188718572E-02
    0.3300000000E+03    0.1595750068E-02    0.5927256719E-03    0.6913166726E+00    0.9736159853E-03    0.3391601078E-02
    0.3500000000E+03    0.1689741285E-02    0.6276607318E-03    0.6915842562E+00    0.1031430510E-02    0.3594145570E-02
    0.3700000000E+03    0.1783467929E-02    0.6624985779E-03    0.6918230918E+00    0.1089114214E-02    0.3796353117E-02
    0.3900000000E+03    0.1876930151E-02    0.6972392781E-03    0.6920375764E+00    0.1146667437E-02    0.3998224787E-02
    0.4100000000E+03    0.1970128238E-02    0.7318829488E-03    0.6922312538E+00    0.1204090534E-02    0.4199761641E-02
    0.4300000000E+03    0.2063062588E-02    0.7664297443E-03    0.6924070119E+00    0.1261383879E-02    0.4400964735E-02
    0.4500000000E+03    0.2155733683E-02    0.8008798495E-03    0.6925672280E+00    0.1318547853E-02    0.4601835122E-02
    0.4700000000E+03    0.2248142074E-02    0.8352334730E-03    0.6927138764E+00    0.1375582846E-02    0.4802373849E-02
    0.4900000000E+03    0.2340288369E-02    0.8694908435E-03    0.6928486107E+00    0.1432489256E-02    0.5002581960E-02
    0.1000000000E+03    0.4962998288E-03    0.1841459371E-03    0.6807180317E+00    0.2993270401E-03    0.1037771175E-02
    0.3000000000E+03    0.1454267286E-02    0.5401408150E-03    0.6908489125E+00    0.8866482348E-03    0.3087150228E-02
    0.5000000000E+03    0.2386263434E-02    0.8865835096E-03    0.6929119548E+00    0.1460894367E-02    0.5102562359E-02
    0.7000000000E+03    0.3292181528E-02    0.1223449223E-02    0.6938000609E+00    0.2022345524E-02    0.7085064741E-02
    0.9000000000E+03    0.4172780489E-02    0.1551018686E-02    0.6942945147E+00    0.2571407326E-02    0.9035669545E-02
    0.1100000000E+04    0.5028902123E-02    0.1869600779E-02    0.6946095773E+00    0.3108481547E-02    0.1095534641E-01
    0.1300000000E+04    0.5861382977E-02    0.2179501787E-02    0.6948278919E+00    0.3633955841E-02    0.1284502467E-01
    0.1500000000E+04    0.6671034631E-02    0.2481018608E-02    0.6949880946E+00    0.4148202327E-02    0.1470559546E-01
    0.1700000000E+04    0.7458638404E-02    0.2774436962E-02    0.6951106654E+00    0.4651577763E-02    0.1653791369E-01
    0.1900000000E+04    0.8224944302E-02    0.3060031080E-02    0.6952074718E+00    0.5144424111E-02    0.1834279983E-01
    0.2100000000E+04    0.8970671442E-02    0.3338063880E-02    0.6952858661E+00    0.5627069196E-02    0.2012104171E-01
    0.2300000000E+04    0.9696509046E-02    0.3608787353E-02    0.6953506456E+00    0.6099827386E-02    0.2187339610E-01
    0.2500000000E+04    0.1040311766E-01    0.3872443009E-02    0.6954050744E+00    0.6563000248E-02    0.2360059024E-01
    0.2700000000E+04    0.1109113042E-01    0.4129262353E-02    0.6954514502E+00    0.7016877180E-02    0.2530332331E-01
    0.2900000000E+04    0.1176115433E-01    0.4379467351E-02    0.6954914375E+00    0.7461736008E-02    0.2698226774E-01
    0.3100000000E+04    0.1241377154E-01    0.4623270888E-02    0.6955262715E+00    0.7897843555E-02    0.2863807054E-01
    0.3300000000E+04    0.1304954048E-01    0.4860877203E-02    0.6955568883E+00    0.8325456171E-02    0.3027135444E-01
    0.3500000000E+04    0.1366899706E-01    0.5092482307E-02    0.6955840103E+00    0.8744820245E-02    0.3188271909E-01
    0.3700000000E+04    0.1427265572E-01    0.5318274378E-02    0.6956082036E+00    0.9156172679E-02    0.3347274210E-01
    0.3900000000E+04    0.1486101048E-01    0.5538434142E-02    0.6956299184E+00    0.9559741334E-02    0.3504198005E-01
    0.4100000000E+04    0.1543453587E-01    0.5753135219E-02    0.6956495172E+00    0.9955745464E-02    0.3659096947E-01
    0.4300000000E+04    0.1599368795E-01    0.5962544469E-02    0.6956672950E+00    0.1034439611E-01    0.3812022773E-01
    0.4500000000E+04    0.1653890506E-01    0.6166822306E-02    0.6956834943E+00    0.1072589648E-01    0.3963025388E-01
    0.4700000000E+04    0.1707060873E-01    0.6366122998E-02    0.6956983165E+00    0.1110044232E-01    0.4112152950E-01
    0.4900000000E+04    0.1758920446E-01    0.6560594955E-02    0.6957119301E+00    0.1146822224E-01    0.4259451945E-01
    0.1000000000E+04    0.4603848218E-02    0.1711413830E-02    0.6944677588E+00    0.2841418295E-02    0.9999314966E-02
    0.3000000000E+04    0.1208960333E-01    0.4502156340E-02    0.6955094343E+00    0.7680867430E-02    0.2781302237E-01
    0.5000000000E+04    0.1784370934E-01    0.6656064999E-02    0.6957183290E+00    0.1164963205E-01    0.4332429817E-01
    0.7000000000E+04    0.2233311795E-01    0.8343986375E-02    0.6958079489E+00    0.1496353870E-01    0.5706131498E-01
    0.9000000000E+04    0.2587596186E-01    0.9682437041E-02    0.6958577731E+00    0.1777215545E-01    0.6939665364E-01
    0.1100000000E+05    0.2869558723E-01    0.1075331040E-01    0.6958894972E+00    0.2018238191E-01    0.8060114366E-01
    0.1300000000E+05    0.3095289769E-01    0.1161567480E-01    0.6959114707E+00    0.2227265356E-01    0.9087672533E-01
    0.1500000000E+05    0.3276641208E-01    0.1231309346E-01    0.6959275914E+00    0.2410183421E-01    0.1003773006E+00
    0.1700000000E+05    0.3422512404E-01    0.1287831998E-01    0.6959399237E+00    0.2571497446E-01    0.1092224086E+00
    0.1900000000E+05    0.3539699014E-01    0.1333639945E-01    0.6959496633E+00    0.2714715145E-01    0.1175064572E+00
    0.2100000000E+05    0.3633467718E-01    0.1370676947E-01    0.6959575502E+00    0.2842609550E-01    0.1253051115E+00
    0.2300000000E+05    0.3707954215E-01    0.1400471603E-01    0.6959640676E+00    0.2957402815E-01    0.1326798156E+00
    0.2500000000E+05    0.3766444404E-01    0.1424240269E-01    0.6959695438E+00    0.3060897425E-01    0.1396810549E+00
    0.2700000000E+05    0.3811576608E-01    0.1442961132E-01    0.6959742101E+00    0.3154571575E-01    0.1463507529E+00
    0.2900000000E+05    0.3845489381E-01    0.1457428384E-01    0.6959782338E+00    0.3239649620E-01    0.1527240592E+00
    0.3100000000E+05    0.3869931113E-01    0.1468292426E-01    0.6959817392E+00    0.3317154885E-01    0.1588307033E+00
    0.3300000000E+05    0.3886342398E-01    0.1476090103E-01    0.6959848205E+00    0.3387949788E-01    0.1646960325E+00
    0.3500000000E+05    0.3895918676E-01    0.1481267711E-01    0.6959875503E+00    0.3452766678E-01    0.1703418178E+00
    0.3700000000E+05    0.3899658410E-01    0.1484198714E-01    0.6959899855E+00    0.3512231829E-01    0.1757868852E+00
    0.3900000000E+05    0.3898400510E-01    0.1485197509E-01    0.6959921715E+00    0.3566884277E-01    0.1810476172E+00
    0.4100000000E+05    0.3892853680E-01    0.1484530235E-01    0.6959941446E+00    0.3617190764E-01    0.1861383530E+00
    0.4300000000E+05    0.3883619638E-01    0.1482423326E-01    0.6959959346E+00    0.3663557695E-01    0.1910717115E+00
    0.4500000000E+05    0.3871211624E-01    0.1479070342E-01    0.6959975658E+00    0.3706340777E-01    0.1958588542E+00
    0.4700000000E+05    0.3856069274E-01    0.1474637458E-01    0.6959990585E+00    0.3745852857E-01    0.2005097005E+00
    0.4900000000E+05    0.3838570652E-01    0.1469267911E-01    0.6960004296E+00    0.3782370342E-01    0.2050331047E+00
    0.1000000000E+05    0.2736493630E-01    0.1024719610E-01    0.6958752194E+00    0.1902162158E-01    0.7512630708E-01
    0.3000000000E+05    0.3858797692E-01    0.1463274892E-01    0.6959800448E+00    0.3279291577E-01    0.1558090375E+00
    0.5000000000E+05    0.3829041499E-01    0.1466271284E-01    0.6960010741E+00    0.3799583842E-01    0.2072495287E+00
    0.7000000000E+05    0.3574025103E-01    0.1379787377E-01    0.6960101049E+00    0.4033779089E-01    0.2464441339E+00
    0.9000000000E+05    0.3277371299E-01    0.1274158038E-01    0.6960151301E+00    0.4134154458E-01    0.2785006276E+00
    0.1100000000E+06    0.2989336063E-01    0.1169389403E-01    0.6960183326E+00    0.4161193105E-01    0.3056806784E+00
    0.1300000000E+06    0.2724571197E-01    0.1071753645E-01    0.6960205524E+00    0.4144550442E-01    0.3292248411E+00
    0.1500000000E+06    0.2486222760E-01    0.9829469987E-02    0.6960221821E+00    0.4100740842E-01    0.3499118482E+00
    0.1700000000E+06    0.2273416906E-01    0.9029891253E-02    0.6960234296E+00    0.4039745671E-01    0.3682764778E+00
    0.1900000000E+06    0.2083926528E-01    0.8312820343E-02    0.6960244154E+00    0.3967935740E-01    0.3847093529E+00
    0.2100000000E+06    0.1915195492E-01    0.7670312639E-02    0.6960252142E+00    0.3889529975E-01    0.3995084734E+00
    0.2300000000E+06    0.1764739611E-01    0.7094199440E-02    0.6960258746E+00    0.3807392186E-01    0.4129084266E+00
    0.2500000000E+06    0.1630294178E-01    0.6576795697E-02    0.6960264297E+00    0.3723497274E-01    0.4250982291E+00
    0.2700000000E+06    0.1509854671E-01    0.6111155508E-02    0.6960269030E+00    0.3639218894E-01    0.4362329054E+00
    0.2900000000E+06    0.1401672573E-01    0.5691126123E-02    0.6960273113E+00    0.3555514491E-01    0.4464413812E+00
    0.3100000000E+06    0.1304233522E-01    0.5311314008E-02    0.6960276671E+00    0.3473048286E-01    0.4558320843E+00
    0.3300000000E+06    0.1216229976E-01    0.4967015902E-02    0.6960279800E+00    0.3392275179E-01    0.4644970499E+00
    0.3500000000E+06    0.1136533807E-01    0.4654139714E-02    0.6960282573E+00    0.3313499206E-01    0.4725150115E+00
    0.3700000000E+06    0.1064171039E-01    0.4369126729E-02    0.6960285048E+00    0.3236914963E-01    0.4799537774E+00
    0.3900000000E+06    0.9982995063E-02    0.4108880039E-02    0.6960287270E+00    0.3162637366E-01    0.4868720925E+00
    0.4100000000E+06    0.9381895367E-02    0.3870700939E-02    0.6960289276E+00    0.3090723268E-01    0.4933211179E+00
    0.4300000000E+06    0.8832074294E-02    0.3652233458E-02    0.6960291097E+00    0.3021187309E-01    0.4993456211E+00
    0.4500000000E+06    0.8328014342E-02    0.3451416522E-02    0.6960292757E+00    0.2954013620E-01    0.5049849446E+00
    0.4700000000E+06    0.7864898832E-02    0.3266442958E-02    0.6960294276E+00    0.2889164504E-01    0.5102738006E+00
    0.4900000000E+06    0.7438511609E-02    0.3095724470E-02    0.6960295671E+00    0.2826586918E-01    0.5152429287E+00
    0.1000000000E+06    0.3130942027E-01    0.1221109671E-01    0.6960168910E+00    0.4154558027E-01    0.2926079099E+00
    0.3000000000E+06    0.1351696407E-01    0.5496502124E-02    0.6960274951E+00    0.3514094062E-01    0.4512328582E+00
    0.5000000000E+06    0.7237916621E-02    0.3015266942E-02    0.6960296328E+00    0.2796130392E-01    0.5176162514E+00
    0.7000000000E+06    0.4461668819E-02    0.1890949521E-02    0.6960305531E+00    0.2288599782E-01    0.5535441191E+00
    0.9000000000E+06    0.3012184744E-02    0.1293805949E-02    0.6960310659E+00    0.1927290112E-01    0.5758380262E+00
    0.1100000000E+07    0.2165408769E-02    0.9403202643E-03    0.6960313929E+00    0.1660639696E-01    0.5909425750E+00
    0.1300000000E+07    0.1629552555E-02    0.7142032490E-03    0.6960316195E+00    0.1456955956E-01    0.6018212775E+00
    0.1500000000E+07    0.1269649038E-02    0.5609431654E-03    0.6960317859E+00    0.1296774218E-01    0.6100158277E+00
    0.1700000000E+07    0.1016551766E-02    0.4523104653E-03    0.6960319131E+00    0.1167727364E-01    0.6164035291E+00
    0.1900000000E+07    0.8319437463E-03    0.3725199466E-03    0.6960320135E+00    0.1061657712E-01    0.6215188635E+00
    0.2100000000E+07    0.6932323918E-03    0.3121913799E-03    0.6960320948E+00    0.9729949179E-02    0.6257053938E+00
    0.2300000000E+07    0.5864096360E-03    0.2654686408E-03    0.6960321618E+00    0.8978175550E-02    0.6291937200E+00
    0.2500000000E+07    0.5024215335E-03    0.2285433658E-03    0.6960322180E+00    0.8332905860E-02    0.6321442298E+00
    0.2700000000E+07    0.4352082521E-03    0.1988523985E-03    0.6960322659E+00    0.7773163051E-02    0.6346718519E+00
    0.2900000000E+07    0.3805914743E-03    0.1746194211E-03    0.6960323070E+00    0.7283107552E-02    0.6368610513E+00
    0.3100000000E+07    0.3356153721E-03    0.1545819444E-03    0.6960323428E+00    0.6850563605E-02    0.6387752705E+00
    0.3300000000E+07    0.2981417038E-03    0.1378227231E-03    0.6960323742E+00    0.6466022742E-02    0.6404630708E+00
    0.3500000000E+07    0.2665930075E-03    0.1236623359E-03    0.6960324019E+00    0.6121954321E-02    0.6419622446E+00
    0.3700000000E+07    0.2397851219E-03    0.1115888283E-03    0.6960324265E+00    0.5812318580E-02    0.6433026375E+00
    0.3900000000E+07    0.2168152363E-03    0.1012104960E-03    0.6960324486E+00    0.5532216315E-02    0.6445081284E+00
    0.4100000000E+07    0.1969853989E-03    0.9222350091E-04    0.6960324684E+00    0.5277632607E-02    0.6455980472E+00
    0.4300000000E+07    0.1797492137E-03    0.8438922621E-04    0.6960324864E+00    0.5045246480E-02    0.6465882070E+00
    0.4500000000E+07    0.1646740315E-03    0.7751815991E-04    0.6960325026E+00    0.4832287572E-02    0.6474916673E+00
    0.4700000000E+07    0.1514136976E-03    0.7145824184E-04    0.6960325175E+00    0.4636426839E-02    0.6483193080E+00
    0.4900000000E+07    0.1396886182E-03    0.6608631474E-04    0.6960325310E+00    0.4455692244E-02    0.6490802647E+00
    0.1000000000E+07    0.2537136563E-02    0.1096006454E-02    0.6960312457E+00    0.1784480509E-01    0.5840563330E+00
    0.3000000000E+07    0.3570475869E-03    0.1641401802E-03    0.6960323255E+00    0.7060294157E-02    0.6378492055E+00
    0.5000000000E+07    0.1343289094E-03    0.6362616601E-04    0.6960325374E+00    0.4370462125E-02    0.6494381989E+00
    0.7000000000E+07    0.6971857167E-04    0.3368389699E-04    0.6960326245E+00    0.3158285110E-02    0.6544668857E+00
    0.9000000000E+07    0.4253759669E-04    0.2085868271E-04    0.6960326701E+00    0.2469918421E-02    0.6572728141E+00
    0.1100000000E+08    0.2861432093E-04    0.1419832235E-04    0.6960326970E+00    0.2026601512E-02    0.6590617852E+00
    0.1300000000E+08    0.2054849469E-04    0.1029685517E-04    0.6960327140E+00    0.1717441483E-02    0.6603013734E+00
    0.1500000000E+08    0.1546412411E-04    0.7814456634E-05    0.6960327251E+00    0.1489637913E-02    0.6612107338E+00
    0.1700000000E+08    0.1205525120E-04    0.6136639112E-05    0.6960327324E+00    0.1314863726E-02    0.6619061915E+00
    0.1900000000E+08    0.9659612834E-05    0.4949139908E-05    0.6960327373E+00    0.1176564549E-02    0.6624552037E+00
    0.2100000000E+08    0.7912396460E-05    0.4077562594E-05    0.6960327404E+00    0.1064421312E-02    0.6628995749E+00
    0.2300000000E+08    0.6599260970E-05    0.3418769697E-05    0.6960327422E+00    0.9716686123E-03    0.6632665885E+00
    0.2500000000E+08    0.5587589635E-05    0.2908571539E-05    0.6960327432E+00    0.8936869956E-03    0.6635748062E+00
    0.2700000000E+08    0.4791772995E-05    0.2505308932E-05    0.6960327434E+00    0.8272150541E-03    0.6638372943E+00
