  Pressure (Pa) 22mC5-500 (mol/kg) 23mC5-500 (mol/kg) 24mC5-500 (mol/kg) 2mC6-500 (mol/kg) 3mC6-500 (mol/kg)
    0.1000000000E+01    0.1275360919E-04    0.1851571995E-05    0.1514046195E+00    0.3180957812E-04    0.1563195953E-04
    0.3000000000E+01    0.2961182001E-04    0.4307412445E-05    0.3164974644E+00    0.7770169765E-04    0.4688810164E-04
    0.5000000000E+01    0.4215463562E-04    0.6144510177E-05    0.4047737305E+00    0.1157998087E-03    0.7813399341E-04
    0.7000000000E+01    0.5309854703E-04    0.7754386933E-05    0.4597295426E+00    0.1515625367E-03    0.1093696904E-03
    0.9000000000E+01    0.6333483517E-04    0.9264753633E-05    0.4972359662E+00    0.1865532983E-03    0.1405952182E-03
    0.1100000000E+02    0.7322403692E-04    0.1072693744E-04    0.5244654347E+00    0.2213094382E-03    0.1718105924E-03
    0.1300000000E+02    0.8293233919E-04    0.1216442520E-04    0.5451330894E+00    0.2560328542E-03    0.2030158242E-03
    0.1500000000E+02    0.9254338952E-04    0.1358893992E-04    0.5613558981E+00    0.2908004628E-03    0.2342109228E-03
    0.1700000000E+02    0.1021019519E-03    0.1500669334E-04    0.5744285941E+00    0.3256387704E-03    0.2653958965E-03
    0.1900000000E+02    0.1116330213E-03    0.1642111230E-04    0.5851875476E+00    0.3605531425E-03    0.2965707526E-03
    0.2100000000E+02    0.1211509442E-03    0.1783413376E-04    0.5941971138E+00    0.3955401237E-03    0.3277354982E-03
    0.2300000000E+02    0.1306640697E-03    0.1924686218E-04    0.6018519047E+00    0.4305928579E-03    0.3588901401E-03
    0.2500000000E+02    0.1401772521E-03    0.2065992117E-04    0.6084361448E+00    0.4657035211E-03    0.3900346848E-03
    0.2700000000E+02    0.1496932546E-03    0.2207364978E-04    0.6141597480E+00    0.5008644016E-03    0.4211691389E-03
    0.2900000000E+02    0.1592135665E-03    0.2348821593E-04    0.6191811137E+00    0.5360683507E-03    0.4522935086E-03
    0.3100000000E+02    0.1687388913E-03    0.2490368373E-04    0.6236220163E+00    0.5713089368E-03    0.4834078004E-03
    0.3300000000E+02    0.1782694461E-03    0.2632005438E-04    0.6275776122E+00    0.6065804623E-03    0.5145120203E-03
    0.3500000000E+02    0.1878051480E-03    0.2773729144E-04    0.6311233362E+00    0.6418779195E-03    0.5456061746E-03
    0.3700000000E+02    0.1973457325E-03    0.2915533667E-04    0.6343197587E+00    0.6771969220E-03    0.5766902694E-03
    0.3900000000E+02    0.2068908288E-03    0.3057411996E-04    0.6372160756E+00    0.7125336323E-03    0.6077643109E-03
    0.4100000000E+02    0.2164400085E-03    0.3199356569E-04    0.6398526584E+00    0.7478846911E-03    0.6388283051E-03
    0.4300000000E+02    0.2259928170E-03    0.3341359667E-04    0.6422629480E+00    0.7832471534E-03    0.6698822582E-03
    0.4500000000E+02    0.2355487934E-03    0.3483413664E-04    0.6444748806E+00    0.8186184322E-03    0.7009261762E-03
    0.4700000000E+02    0.2451074832E-03    0.3625511172E-04    0.6465119756E+00    0.8539962495E-03    0.7319600651E-03
    0.4900000000E+02    0.2546684463E-03    0.3767645135E-04    0.6483941756E+00    0.8893785941E-03    0.7629839310E-03
    0.1000000000E+02    0.6830970291E-04    0.1000001030E-04    0.5118518917E+00    0.2039437262E-03    0.1562041737E-03
    0.3000000000E+02    0.1639755799E-03    0.2419583593E-04    0.6214676446E+00    0.5536844370E-03    0.4678519139E-03
    0.5000000000E+02    0.2594496478E-03    0.3838723682E-04    0.6492826081E+00    0.9070708996E-03    0.7784921072E-03
    0.7000000000E+02    0.3551028092E-03    0.5260797621E-04    0.6619819040E+00    0.1260815742E-02    0.1088130889E-02
    0.9000000000E+02    0.4506370701E-03    0.6681164942E-04    0.6692547058E+00    0.1613841496E-02    0.1396774222E-02
    0.1100000000E+03    0.5458948588E-03    0.8097456858E-04    0.6739669680E+00    0.1965753964E-02    0.1704427998E-02
    0.1300000000E+03    0.6407917380E-03    0.9508422173E-04    0.6772685608E+00    0.2316380242E-02    0.2011098055E-02
    0.1500000000E+03    0.7352794722E-03    0.1091335253E-03    0.6797104876E+00    0.2665635572E-02    0.2316790179E-02
    0.1700000000E+03    0.8293290722E-03    0.1231182509E-03    0.6815898450E+00    0.3013475856E-02    0.2621510108E-02
    0.1900000000E+03    0.9229225275E-03    0.1370357874E-03    0.6830809687E+00    0.3359877855E-02    0.2925263532E-02
    0.2100000000E+03    0.1016048471E-02    0.1508844965E-03    0.6842929035E+00    0.3704829909E-02    0.3228056096E-02
    0.2300000000E+03    0.1108699754E-02    0.1646633552E-03    0.6852973523E+00    0.4048327199E-02    0.3529893397E-02
    0.2500000000E+03    0.1200872018E-02    0.1783717455E-03    0.6861434001E+00    0.4390369147E-02    0.3830780988E-02
    0.2700000000E+03    0.1292562808E-02    0.1920093253E-03    0.6868657806E+00    0.4730957904E-02    0.4130724378E-02
    0.2900000000E+03    0.1383771004E-02    0.2055759456E-03    0.6874897638E+00    0.5070097439E-02    0.4429729032E-02
    0.3100000000E+03    0.1474496450E-02    0.2190715955E-03    0.6880341737E+00    0.5407792958E-02    0.4727800369E-02
    0.3300000000E+03    0.1564739693E-02    0.2324963655E-03    0.6885133204E+00    0.5744050525E-02    0.5024943766E-02
    0.3500000000E+03    0.1654501802E-02    0.2458504210E-03    0.6889382768E+00    0.6078876808E-02    0.5321164559E-02
    0.3700000000E+03    0.1743784242E-02    0.2591339839E-03    0.6893177449E+00    0.6412278907E-02    0.5616468039E-02
    0.3900000000E+03    0.1832588781E-02    0.2723473193E-03    0.6896586580E+00    0.6744264228E-02    0.5910859457E-02
    0.4100000000E+03    0.1920917417E-02    0.2854907250E-03    0.6899666085E+00    0.7074840394E-02    0.6204344021E-02
    0.4300000000E+03    0.2008772329E-02    0.2985645248E-03    0.6902461571E+00    0.7404015183E-02    0.6496926899E-02
    0.4500000000E+03    0.2096155837E-02    0.3115690619E-03    0.6905010602E+00    0.7731796480E-02    0.6788613218E-02
    0.4700000000E+03    0.2183070367E-02    0.3245046952E-03    0.6907344397E+00    0.8058192239E-02    0.7079408066E-02
    0.4900000000E+03    0.2269518434E-02    0.3373717954E-03    0.6909489117E+00    0.8383210457E-02    0.7369316488E-02
    0.1000000000E+03    0.4983069433E-03    0.7389915743E-04    0.6718382277E+00    0.1789950655E-02    0.1550724438E-02
    0.3000000000E+03    0.1429194051E-02    0.2123326382E-03    0.6877709326E+00    0.5239125338E-02    0.4578881028E-02
    0.5000000000E+03    0.2312568346E-02    0.3437797640E-03    0.6910497611E+00    0.8545205494E-02    0.7513939856E-02
    0.7000000000E+03    0.3149729760E-02    0.4684371039E-03    0.6924648856E+00    0.1171474383E-01    0.1036107377E-01
    0.9000000000E+03    0.3943351816E-02    0.5866972845E-03    0.6932537172E+00    0.1475558692E-01    0.1312506616E-01
    0.1100000000E+04    0.4696102272E-02    0.6989509361E-03    0.6937567167E+00    0.1767516259E-01    0.1581034742E-01
    0.1300000000E+04    0.5410496410E-02    0.8055660520E-03    0.6941054240E+00    0.2048037962E-01    0.1842102725E-01
    0.1500000000E+04    0.6088876027E-02    0.9068851545E-03    0.6943613984E+00    0.2317764689E-01    0.2096092347E-01
    0.1700000000E+04    0.6733413852E-02    0.1003226026E-02    0.6945572944E+00    0.2577291018E-01    0.2343358775E-01
    0.1900000000E+04    0.7346124318E-02    0.1094883314E-02    0.6947120444E+00    0.2827169047E-01    0.2584232862E-01
    0.2100000000E+04    0.7928875657E-02    0.1182130317E-02    0.6948373820E+00    0.3067911987E-01    0.2819023223E-01
    0.2300000000E+04    0.8483401771E-02    0.1265220720E-02    0.6949409661E+00    0.3299997468E-01    0.3048018088E-01
    0.2500000000E+04    0.9011313358E-02    0.1344390224E-02    0.6950280090E+00    0.3523870527E-01    0.3271486979E-01
    0.2700000000E+04    0.9514108145E-02    0.1419858040E-02    0.6951021806E+00    0.3739946318E-01    0.3489682226E-01
    0.2900000000E+04    0.9993180237E-02    0.1491828254E-02    0.6951661400E+00    0.3948612559E-01    0.3702840327E-01
    0.3100000000E+04    0.1044982861E-01    0.1560491063E-02    0.6952218609E+00    0.4150231756E-01    0.3911183194E-01
    0.3300000000E+04    0.1088526483E-01    0.1626023906E-02    0.6952708391E+00    0.4345143200E-01    0.4114919270E-01
    0.3500000000E+04    0.1130062007E-01    0.1688592481E-02    0.6953142290E+00    0.4533664797E-01    0.4314244552E-01
    0.3700000000E+04    0.1169695145E-01    0.1748351677E-02    0.6953529357E+00    0.4716094715E-01    0.4509343519E-01
    0.3900000000E+04    0.1207524784E-01    0.1805446414E-02    0.6953876787E+00    0.4892712889E-01    0.4700389978E-01
    0.4100000000E+04    0.1243643513E-01    0.1860012414E-02    0.6954190374E+00    0.5063782388E-01    0.4887547837E-01
    0.4300000000E+04    0.1278138100E-01    0.1912176898E-02    0.6954474835E+00    0.5229550664E-01    0.5070971809E-01
    0.4500000000E+04    0.1311089932E-01    0.1962059221E-02    0.6954734049E+00    0.5390250689E-01    0.5250808059E-01
    0.4700000000E+04    0.1342575412E-01    0.2009771462E-02    0.6954971236E+00    0.5546101997E-01    0.5427194796E-01
    0.4900000000E+04    0.1372666324E-01    0.2055418945E-02    0.6955189089E+00    0.5697311639E-01    0.5600262816E-01
    0.1000000000E+04    0.4324674759E-02    0.6435513336E-03    0.6935302675E+00    0.1623008928E-01    0.1447728166E-01
    0.3000000000E+04    0.1022422970E-01    0.1526561707E-02    0.6951949274E+00    0.4050281311E-01    0.3807600334E-01
    0.5000000000E+04    0.1387210069E-01    0.2077499592E-02    0.6955291489E+00    0.5771237339E-01    0.5685591278E-01
    0.7000000000E+04    0.1619284389E-01    0.2431879422E-02    0.6956725826E+00    0.7048155587E-01    0.7244806878E-01
    0.9000000000E+04    0.1768424465E-01    0.2662846178E-02    0.6957523382E+00    0.8027833864E-01    0.8579767249E-01
    0.1100000000E+05    0.1863428533E-01    0.2812834768E-02    0.6958031261E+00    0.8798783670E-01    0.9749381140E-01
    0.1300000000E+05    0.1921906986E-01    0.2907873639E-02    0.6958383068E+00    0.9417536577E-01    0.1079248949E+00
    0.1500000000E+05    0.1955110797E-01    0.2964646597E-02    0.6958641187E+00    0.9921894593E-01    0.1173587834E+00
    0.1700000000E+05    0.1970486370E-01    0.2994234767E-02    0.6958838659E+00    0.1033809995E+00    0.1259871068E+00
    0.1900000000E+05    0.1973106744E-01    0.3004216057E-02    0.6958994621E+00    0.1068494605E+00    0.1339512098E+00
    0.2100000000E+05    0.1966511948E-01    0.2999899944E-02    0.6959120923E+00    0.1097625021E+00    0.1413580741E+00
    0.2300000000E+05    0.1953222280E-01    0.2985083010E-02    0.6959225296E+00    0.1122240209E+00    0.1482904812E+00
    0.2500000000E+05    0.1935062512E-01    0.2962527060E-02    0.6959312998E+00    0.1143136726E+00    0.1548137243E+00
    0.2700000000E+05    0.1913372662E-01    0.2934270575E-02    0.6959387731E+00    0.1160935716E+00    0.1609801700E+00
    0.2900000000E+05    0.1889148502E-01    0.2901836765E-02    0.6959452175E+00    0.1176128820E+00    0.1668324401E+00
    0.3100000000E+05    0.1863137304E-01    0.2866375663E-02    0.6959508319E+00    0.1189110351E+00    0.1724056806E+00
    0.3300000000E+05    0.1835904371E-01    0.2828763067E-02    0.6959557672E+00    0.1200200305E+00    0.1777292119E+00
    0.3500000000E+05    0.1807880050E-01    0.2789670655E-02    0.6959601396E+00    0.1209661132E+00    0.1828277519E+00
    0.3700000000E+05    0.1779393489E-01    0.2749616424E-02    0.6959640403E+00    0.1217710136E+00    0.1877223347E+00
    0.3900000000E+05    0.1750697194E-01    0.2709001509E-02    0.6959675418E+00    0.1224528804E+00    0.1924310139E+00
    0.4100000000E+05    0.1721985130E-01    0.2668137371E-02    0.6959707025E+00    0.1230269894E+00    0.1969694049E+00
    0.4300000000E+05    0.1693406201E-01    0.2627266119E-02    0.6959735698E+00    0.1235062910E+00    0.2013511105E+00
    0.4500000000E+05    0.1665074395E-01    0.2586575852E-02    0.6959761828E+00    0.1239018359E+00    0.2055880573E+00
    0.4700000000E+05    0.1637076497E-01    0.2546212348E-02    0.6959785740E+00    0.1242231109E+00    0.2096907646E+00
    0.4900000000E+05    0.1609477987E-01    0.2506288044E-02    0.6959807705E+00    0.1244783047E+00    0.2136685618E+00
    0.1000000000E+05    0.1821402466E-01    0.2746056452E-02    0.6957802677E+00    0.8435312875E-01    0.9182462200E-01
    0.3000000000E+05    0.1876327314E-01    0.2884424397E-02    0.6959481181E+00    0.1182874512E+00    0.1696519860E+00
    0.5000000000E+05    0.1595844285E-01    0.2486518356E-02    0.6959818030E+00    0.1245833788E+00    0.2156132533E+00
    0.7000000000E+05    0.1350369254E-01    0.2126114082E-02    0.6959962712E+00    0.1245269898E+00    0.2495673378E+00
    0.9000000000E+05    0.1155416464E-01    0.1834834190E-02    0.6960043234E+00    0.1222679717E+00    0.2768174922E+00
    0.1100000000E+06    0.1000807824E-01    0.1600966946E-02    0.6960094553E+00    0.1191478166E+00    0.2996528671E+00
    0.1300000000E+06    0.8765317008E-02    0.1411144358E-02    0.6960130129E+00    0.1157093077E+00    0.3193071133E+00
    0.1500000000E+06    0.7750950584E-02    0.1254944757E-02    0.6960156249E+00    0.1121997247E+00    0.3365363899E+00
    0.1700000000E+06    0.6911059756E-02    0.1124703413E-02    0.6960176246E+00    0.1087386843E+00    0.3518446834E+00
    0.1900000000E+06    0.6206698948E-02    0.1014801816E-02    0.6960192048E+00    0.1053848590E+00    0.3655882006E+00
    0.2100000000E+06    0.5609321183E-02    0.9210751767E-03    0.6960204853E+00    0.1021658352E+00    0.3780298273E+00
    0.2300000000E+06    0.5097640573E-02    0.8403896396E-03    0.6960215441E+00    0.9909265568E-01    0.3893701131E+00
    0.2500000000E+06    0.4655516311E-02    0.7703504537E-03    0.6960224341E+00    0.9616735432E-01    0.3997661067E+00
    0.2700000000E+06    0.4270515862E-02    0.7091006271E-03    0.6960231929E+00    0.9338704606E-01    0.4093434220E+00
    0.2900000000E+06    0.3932925124E-02    0.6551805305E-03    0.6960238475E+00    0.9074622125E-01    0.4182042991E+00
    0.3100000000E+06    0.3635055068E-02    0.6074285898E-03    0.6960244181E+00    0.8823806317E-01    0.4264331814E+00
    0.3300000000E+06    0.3370747802E-02    0.5649099653E-03    0.6960249198E+00    0.8585521412E-01    0.4341006890E+00
    0.3500000000E+06    0.3135019018E-02    0.5268645577E-03    0.6960253645E+00    0.8359022162E-01    0.4412665196E+00
    0.3700000000E+06    0.2923795219E-02    0.4926685600E-03    0.6960257613E+00    0.8143579517E-01    0.4479816121E+00
    0.3900000000E+06    0.2733717895E-02    0.4618056455E-03    0.6960261176E+00    0.7938494898E-01    0.4542897916E+00
    0.4100000000E+06    0.2561995690E-02    0.4338451070E-03    0.6960264394E+00    0.7743107544E-01    0.4602290389E+00
    0.4300000000E+06    0.2406291471E-02    0.4084250788E-03    0.6960267313E+00    0.7556797654E-01    0.4658324854E+00
    0.4500000000E+06    0.2264635097E-02    0.3852395232E-03    0.6960269975E+00    0.7378986987E-01    0.4711292026E+00
    0.4700000000E+06    0.2135355366E-02    0.3640280359E-03    0.6960272411E+00    0.7209137951E-01    0.4761448350E+00
    0.4900000000E+06    0.2017026413E-02    0.3445677873E-03    0.6960274649E+00    0.7046751828E-01    0.4809021145E+00
    0.1000000000E+06    0.1073753148E-01    0.1711619545E-02    0.6960071450E+00    0.1207714652E+00    0.2886946742E+00
    0.3000000000E+06    0.3779441029E-02    0.6305965951E-03    0.6960241423E+00    0.8947601244E-01    0.4223930401E+00
    0.5000000000E+06    0.1961579318E-02    0.3354334094E-03    0.6960275702E+00    0.6968211597E-01    0.4831902840E+00
    0.7000000000E+06    0.1206299970E-02    0.2098476407E-03    0.6960290460E+00    0.5694078868E-01    0.5193069054E+00
    0.9000000000E+06    0.8179946616E-03    0.1441938895E-03    0.6960298684E+00    0.4810423937E-01    0.5434468019E+00
    0.1100000000E+07    0.5914983148E-03    0.1053992949E-03    0.6960303926E+00    0.4162522940E-01    0.5607740871E+00
    0.1300000000E+07    0.4477169178E-03    0.8050980117E-04    0.6960307559E+00    0.3667419626E-01    0.5738335999E+00
    0.1500000000E+07    0.3506957302E-03    0.6356327104E-04    0.6960310224E+00    0.3276888038E-01    0.5840357699E+00
    0.1700000000E+07    0.2821246857E-03    0.5149232289E-04    0.6960312261E+00    0.2961030605E-01    0.5922285578E+00
    0.1900000000E+07    0.2318650220E-03    0.4258364833E-04    0.6960313868E+00    0.2700340638E-01    0.5989535249E+00
    0.2100000000E+07    0.1939280543E-03    0.3581755494E-04    0.6960315168E+00    0.2481553964E-01    0.6045731875E+00
    0.2300000000E+07    0.1645895047E-03    0.3055564160E-04    0.6960316239E+00    0.2295338831E-01    0.6093395432E+00
    0.2500000000E+07    0.1414337188E-03    0.2638132308E-04    0.6960317138E+00    0.2134940184E-01    0.6134332874E+00
    0.2700000000E+07    0.1228378728E-03    0.2301320407E-04    0.6960317901E+00    0.1995348301E-01    0.6169874068E+00
    0.2900000000E+07    0.1076788505E-03    0.2025555945E-04    0.6960318558E+00    0.1872769638E-01    0.6201019697E+00
    0.3100000000E+07    0.9515926332E-04    0.1796878479E-04    0.6960319128E+00    0.1764279109E-01    0.6228537290E+00
    0.3300000000E+07    0.8470028495E-04    0.1605110514E-04    0.6960319627E+00    0.1667585157E-01    0.6253025443E+00
    0.3500000000E+07    0.7587349104E-04    0.1442688868E-04    0.6960320068E+00    0.1580867149E-01    0.6274957905E+00
    0.3700000000E+07    0.6835627744E-04    0.1303897048E-04    0.6960320460E+00    0.1502660387E-01    0.6294714531E+00
    0.3900000000E+07    0.6190197183E-04    0.1184348608E-04    0.6960320810E+00    0.1431773229E-01    0.6312603454E+00
    0.4100000000E+07    0.5631935233E-04    0.1080631796E-04    0.6960321124E+00    0.1367226328E-01    0.6328877258E+00
    0.4300000000E+07    0.5145833437E-04    0.9900603603E-05    0.6960321408E+00    0.1308207406E-01    0.6343744953E+00
    0.4500000000E+07    0.4719979029E-04    0.9104957216E-05    0.6960321666E+00    0.1254037102E-01    0.6357380990E+00
    0.4700000000E+07    0.4344819169E-04    0.8402180502E-05    0.6960321901E+00    0.1204142870E-01    0.6369932118E+00
    0.4900000000E+07    0.4012621420E-04    0.7778314509E-05    0.6960322115E+00    0.1158038798E-01    0.6381522672E+00
    0.1000000000E+07    0.6909786900E-03    0.1224932613E-03    0.6960301566E+00    0.4463289027E-01    0.5527659692E+00
    0.3000000000E+07    0.1011294843E-03    0.1906039960E-04    0.6960318853E+00    0.1816919242E-01    0.6215191221E+00
    0.5000000000E+07    0.3860613884E-04    0.7492318946E-05    0.6960322215E+00    0.1136275957E-01    0.6386991493E+00
    0.7000000000E+07    0.2019260127E-04    0.3994747461E-05    0.6960323579E+00    0.8252280170E-02    0.6464998026E+00
    0.9000000000E+07    0.1238374811E-04    0.2484822899E-05    0.6960324281E+00    0.6472609187E-02    0.6509507565E+00
    0.1100000000E+08    0.8363329434E-05    0.1696834216E-05    0.6960324685E+00    0.5321109478E-02    0.6538265002E+00
    0.1300000000E+08    0.6025926479E-05    0.1233679667E-05    0.6960324932E+00    0.4515511960E-02    0.6558366890E+00
    0.1500000000E+08    0.4548517258E-05    0.9382430607E-06    0.6960325087E+00    0.3920534115E-02    0.6573205419E+00
    0.1700000000E+08    0.3555815915E-05    0.7381683825E-06    0.6960325182E+00    0.3463255930E-02    0.6584605914E+00
    0.1900000000E+08    0.2856910766E-05    0.5963362621E-06    0.6960325239E+00    0.3100911694E-02    0.6593637613E+00
    0.2100000000E+08    0.2346375020E-05    0.4920976489E-06    0.6960325269E+00    0.2806769764E-02    0.6600968287E+00
    0.2300000000E+08    0.1962141050E-05    0.4132167840E-06    0.6960325279E+00    0.2563265303E-02    0.6607036438E+00
    0.2500000000E+08    0.1665741579E-05    0.3520661243E-06    0.6960325276E+00    0.2358383006E-02    0.6612141874E+00
    0.2700000000E+08    0.1432308638E-05    0.3036885954E-06    0.6960325262E+00    0.2183626920E-02    0.6616496508E+00
