  Pressure (Pa) 22mC5-500 (mol/kg) 23mC5-500 (mol/kg) 24mC5-500 (mol/kg) 2mC6-500 (mol/kg) 3mC6-500 (mol/kg)
    0.1000000000E+01    0.1424647030E-04    0.3101011848E-05    0.6965441369E-01    0.5835695321E-05    0.5210547967E-04
    0.3000000000E+01    0.3703018478E-04    0.8065464415E-05    0.1741075516E+00    0.1547108372E-04    0.1562839120E-03
    0.5000000000E+01    0.5512840470E-04    0.1201643905E-04    0.2486966523E+00    0.2350927107E-04    0.2604191419E-03
    0.7000000000E+01    0.7045819930E-04    0.1537032981E-04    0.3046278724E+00    0.3066097489E-04    0.3645112975E-03
    0.9000000000E+01    0.8404532993E-04    0.1834952198E-04    0.3481239607E+00    0.3729162788E-04    0.4685604651E-03
    0.1100000000E+02    0.9648194904E-04    0.2108213997E-04    0.3829172777E+00    0.4360314717E-04    0.5725667096E-03
    0.1300000000E+02    0.1081302684E-03    0.2364639169E-04    0.4113823317E+00    0.4971331666E-04    0.6765300834E-03
    0.1500000000E+02    0.1192221878E-03    0.2609223820E-04    0.4351017960E+00    0.5569378798E-04    0.7804506321E-03
    0.1700000000E+02    0.1299117492E-03    0.2845279013E-04    0.4551711826E+00    0.6158961198E-04    0.8843283965E-03
    0.1900000000E+02    0.1403044291E-03    0.3075066448E-04    0.4723728912E+00    0.6742986403E-04    0.9881634145E-03
    0.2100000000E+02    0.1504743067E-03    0.3300170559E-04    0.4872806160E+00    0.7323369859E-04    0.1091955722E-02
    0.2300000000E+02    0.1604745401E-03    0.3521725297E-04    0.5003245857E+00    0.7901393539E-04    0.1195705353E-02
    0.2500000000E+02    0.1703439821E-03    0.3740557145E-04    0.5118337718E+00    0.8477925376E-04    0.1299412342E-02
    0.2700000000E+02    0.1801114833E-03    0.3957278011E-04    0.5220640233E+00    0.9053557333E-04    0.1403076720E-02
    0.2900000000E+02    0.1897987631E-03    0.4172347123E-04    0.5312173139E+00    0.9628694380E-04    0.1506698520E-02
    0.3100000000E+02    0.1994223685E-03    0.4386113195E-04    0.5394552142E+00    0.1020361303E-03    0.1610277773E-02
    0.3300000000E+02    0.2089950386E-03    0.4598843743E-04    0.5469085135E+00    0.1077850057E-03    0.1713814510E-02
    0.3500000000E+02    0.2185266699E-03    0.4810745813E-04    0.5536842171E+00    0.1135348175E-03    0.1817308762E-02
    0.3700000000E+02    0.2280250119E-03    0.5021980880E-04    0.5598707174E+00    0.1192863718E-03    0.1920760560E-02
    0.3900000000E+02    0.2374961749E-03    0.5232675707E-04    0.5655416727E+00    0.1250401623E-03    0.2024169934E-02
    0.4100000000E+02    0.2469450051E-03    0.5442930354E-04    0.5707589543E+00    0.1307964606E-03    0.2127536914E-02
    0.4300000000E+02    0.2563753656E-03    0.5652824171E-04    0.5755749134E+00    0.1365553813E-03    0.2230861530E-02
    0.4500000000E+02    0.2657903484E-03    0.5862420311E-04    0.5800341448E+00    0.1423169275E-03    0.2334143813E-02
    0.4700000000E+02    0.2751924370E-03    0.6071769178E-04    0.5841748717E+00    0.1480810251E-03    0.2437383792E-02
    0.4900000000E+02    0.2845836311E-03    0.6280911067E-04    0.5880300447E+00    0.1538475463E-03    0.2540581496E-02
    0.1000000000E+02    0.9038091074E-04    0.1974091789E-04    0.3664366137E+00    0.4047851616E-04    0.5205689493E-03
    0.3000000000E+02    0.1946176525E-03    0.4279374693E-04    0.5354418846E+00    0.9916167570E-04    0.1558493463E-02
    0.5000000000E+02    0.2892756595E-03    0.6385414740E-04    0.5898596237E+00    0.1567316657E-03    0.2592164505E-02
    0.7000000000E+02    0.3828011862E-03    0.8469667727E-04    0.6167249876E+00    0.2144942940E-03    0.3621612505E-02
    0.9000000000E+02    0.4759526475E-03    0.1054689630E-03    0.6327366722E+00    0.2722835913E-03    0.4646866786E-02
    0.1100000000E+03    0.5687641151E-03    0.1261719199E-03    0.6433670058E+00    0.3299658071E-03    0.5667956232E-02
    0.1300000000E+03    0.6611754741E-03    0.1467895682E-03    0.6509387620E+00    0.3874619900E-03    0.6684909404E-02
    0.1500000000E+03    0.7531258913E-03    0.1673072203E-03    0.6566060415E+00    0.4447254681E-03    0.7697754574E-02
    0.1700000000E+03    0.8445675119E-03    0.1877136771E-03    0.6610071617E+00    0.5017277965E-03    0.8706519741E-02
    0.1900000000E+03    0.9354648884E-03    0.2080007747E-03    0.6645238413E+00    0.5584511589E-03    0.9711232637E-02
    0.2100000000E+03    0.1025792266E-02    0.2281626399E-03    0.6673983659E+00    0.6148842014E-03    0.1071192073E-01
    0.2300000000E+03    0.1115531110E-02    0.2481950739E-03    0.6697919264E+00    0.6710196591E-03    0.1170861125E-01
    0.2500000000E+03    0.1204668213E-02    0.2680950996E-03    0.6718159286E+00    0.7268529458E-03    0.1270133114E-01
    0.2700000000E+03    0.1293194326E-02    0.2878606391E-03    0.6735498363E+00    0.7823812847E-03    0.1369010713E-01
    0.2900000000E+03    0.1381103160E-02    0.3074902838E-03    0.6750518539E+00    0.8376031528E-03    0.1467496568E-01
    0.3100000000E+03    0.1468390677E-02    0.3269831296E-03    0.6763655905E+00    0.8925179162E-03    0.1565593303E-01
    0.3300000000E+03    0.1555054557E-02    0.3463386575E-03    0.6775243647E+00    0.9471255829E-03    0.1663303517E-01
    0.3500000000E+03    0.1641093814E-02    0.3655566458E-03    0.6785540713E+00    0.1001426632E-02    0.1760629783E-01
    0.3700000000E+03    0.1726508504E-02    0.3846371042E-03    0.6794751397E+00    0.1055421894E-02    0.1857574655E-01
    0.3900000000E+03    0.1811299506E-02    0.4035802246E-03    0.6803039034E+00    0.1109112463E-02    0.1954140660E-01
    0.4100000000E+03    0.1895468351E-02    0.4223863435E-03    0.6810535781E+00    0.1162499634E-02    0.2050330305E-01
    0.4300000000E+03    0.1979017093E-02    0.4410559122E-03    0.6817349710E+00    0.1215584854E-02    0.2146146072E-01
    0.4500000000E+03    0.2061948207E-02    0.4595894748E-03    0.6823570061E+00    0.1268369688E-02    0.2241590423E-01
    0.4700000000E+03    0.2144264505E-02    0.4779876498E-03    0.6829271173E+00    0.1320855793E-02    0.2336665796E-01
    0.4900000000E+03    0.2225969074E-02    0.4962511159E-03    0.6834515466E+00    0.1373044893E-02    0.2431374608E-01
    0.1000000000E+03    0.5224042349E-03    0.1158300672E-03    0.6385393791E+00    0.3011440021E-03    0.5157930321E-02
    0.3000000000E+03    0.1424824763E-02    0.3172538468E-03    0.6757299727E+00    0.8650989349E-03    0.1516593413E-01
    0.5000000000E+03    0.2266592988E-02    0.5053325588E-03    0.6836983129E+00    0.1399028621E-02    0.2478592302E-01
    0.7000000000E+03    0.3047846625E-02    0.6800848664E-03    0.6871723598E+00    0.1903562252E-02    0.3404276046E-01
    0.9000000000E+03    0.3772370770E-02    0.8423412083E-03    0.6891182389E+00    0.2380547274E-02    0.4295918006E-01
    0.1100000000E+04    0.4444233291E-02    0.9929928647E-03    0.6903625809E+00    0.2831820517E-02    0.5155600913E-01
    0.1300000000E+04    0.5067318253E-02    0.1132890326E-02    0.6912268752E+00    0.3259097298E-02    0.5985236403E-01
    0.1500000000E+04    0.5645233775E-02    0.1262823511E-02    0.6918621962E+00    0.3663959817E-02    0.6786582214E-01
    0.1700000000E+04    0.6181302705E-02    0.1383519900E-02    0.6923489098E+00    0.4047863372E-02    0.7561257362E-01
    0.1900000000E+04    0.6678576323E-02    0.1495647611E-02    0.6927337089E+00    0.4412146342E-02    0.8310755556E-01
    0.2100000000E+04    0.7139854563E-02    0.1599819858E-02    0.6930455782E+00    0.4758040532E-02    0.9036457104E-01
    0.2300000000E+04    0.7567707331E-02    0.1696599619E-02    0.6933034619E+00    0.5086680938E-02    0.9739639491E-01
    0.2500000000E+04    0.7964495019E-02    0.1786504128E-02    0.6935202653E+00    0.5399114681E-02    0.1042148680E+00
    0.2700000000E+04    0.8332387527E-02    0.1870009030E-02    0.6937050833E+00    0.5696309080E-02    0.1108309812E+00
    0.2900000000E+04    0.8673381641E-02    0.1947552171E-02    0.6938645104E+00    0.5979158914E-02    0.1172549506E+00
    0.3100000000E+04    0.8989316759E-02    0.2019537032E-02    0.6940034446E+00    0.6248492939E-02    0.1234962852E+00
    0.3300000000E+04    0.9281889098E-02    0.2086335826E-02    0.6941256001E+00    0.6505079740E-02    0.1295638471E+00
    0.3500000000E+04    0.9552664482E-02    0.2148292291E-02    0.6942338445E+00    0.6749632988E-02    0.1354659058E+00
    0.3700000000E+04    0.9803089873E-02    0.2205724199E-02    0.6943304270E+00    0.6982816169E-02    0.1412101879E+00
    0.3900000000E+04    0.1003450375E-01    0.2258925623E-02    0.6944171369E+00    0.7205246837E-02    0.1468039207E+00
    0.4100000000E+04    0.1024814547E-01    0.2308168975E-02    0.6944954148E+00    0.7417500457E-02    0.1522538725E+00
    0.4300000000E+04    0.1044516373E-01    0.2353706854E-02    0.6945664344E+00    0.7620113867E-02    0.1575663889E+00
    0.4500000000E+04    0.1062662417E-01    0.2395773704E-02    0.6946311609E+00    0.7813588412E-02    0.1627474256E+00
    0.4700000000E+04    0.1079351632E-01    0.2434587324E-02    0.6946903958E+00    0.7998392783E-02    0.1678025781E+00
    0.4900000000E+04    0.1094675981E-01    0.2470350227E-02    0.6947448097E+00    0.8174965592E-02    0.1727371092E+00
    0.1000000000E+04    0.4114635924E-02    0.9190631338E-03    0.6898020359E+00    0.2609287525E-02    0.4729631066E-01
    0.3000000000E+04    0.8834372362E-02    0.1984215424E-02    0.6939362838E+00    0.6115466020E-02    0.1203978789E+00
    0.5000000000E+04    0.1101853298E-01    0.2487147073E-02    0.6947703893E+00    0.8260294581E-02    0.1751607014E+00
    0.7000000000E+04    0.1191593473E-01    0.2702291366E-02    0.6951288634E+00    0.9621818735E-02    0.2183618305E+00
    0.9000000000E+04    0.1212817887E-01    0.2762515314E-02    0.6953283528E+00    0.1049905257E-01    0.2536916629E+00
    0.1100000000E+05    0.1196751450E-01    0.2737210977E-02    0.6954554590E+00    0.1106092947E-01    0.2833480327E+00
    0.1300000000E+05    0.1160491236E-01    0.2664658606E-02    0.6955435443E+00    0.1140948727E-01    0.3087336572E+00
    0.1500000000E+05    0.1113754611E-01    0.2566810586E-02    0.6956081958E+00    0.1160963340E-01    0.3307943285E+00
    0.1700000000E+05    0.1062199518E-01    0.2456587747E-02    0.6956576729E+00    0.1170437691E-01    0.3501966827E+00
    0.1900000000E+05    0.1009160203E-01    0.2341707647E-02    0.6956967605E+00    0.1172316141E-01    0.3674279623E+00
    0.2100000000E+05    0.9565996978E-02    0.2226794396E-02    0.6957284228E+00    0.1168668108E-01    0.3828551328E+00
    0.2300000000E+05    0.9056533844E-02    0.2114588684E-02    0.6957545939E+00    0.1160979469E-01    0.3967615645E+00
    0.2500000000E+05    0.8569492308E-02    0.2006664650E-02    0.6957765897E+00    0.1150335845E-01    0.4093707139E+00
    0.2700000000E+05    0.8108013554E-02    0.1903865979E-02    0.6957953365E+00    0.1137541748E-01    0.4208619460E+00
    0.2900000000E+05    0.7673294587E-02    0.1806576912E-02    0.6958115055E+00    0.1123200261E-01    0.4313814293E+00
    0.3100000000E+05    0.7265336951E-02    0.1714893563E-02    0.6958255948E+00    0.1107767648E-01    0.4410498380E+00
    0.3300000000E+05    0.6883421611E-02    0.1628733600E-02    0.6958379818E+00    0.1091591575E-01    0.4499679269E+00
    0.3500000000E+05    0.6526412386E-02    0.1547907121E-02    0.6958489579E+00    0.1074938370E-01    0.4582206495E+00
    0.3700000000E+05    0.6192950379E-02    0.1472162675E-02    0.6958587514E+00    0.1058012771E-01    0.4658802581E+00
    0.3900000000E+05    0.5881578256E-02    0.1401217168E-02    0.6958675440E+00    0.1040972455E-01    0.4730086744E+00
    0.4100000000E+05    0.5590818935E-02    0.1334775201E-02    0.6958754818E+00    0.1023938839E-01    0.4796593305E+00
    0.4300000000E+05    0.5319224464E-02    0.1272541426E-02    0.6958826840E+00    0.1007005217E-01    0.4858786161E+00
    0.4500000000E+05    0.5065405337E-02    0.1214228275E-02    0.6958892483E+00    0.9902429476E-02    0.4917070309E+00
    0.4700000000E+05    0.4828046959E-02    0.1159560592E-02    0.6958952562E+00    0.9737061908E-02    0.4971801106E+00
    0.4900000000E+05    0.4605917728E-02    0.1108278222E-02    0.6959007754E+00    0.9574355757E-02    0.5023291795E+00
    0.1000000000E+05    0.1208148979E-01    0.2757657170E-02    0.6953982440E+00    0.1081191325E-01    0.2691277720E+00
    0.3000000000E+05    0.7466002862E-02    0.1760036466E-02    0.6958187842E+00    0.1115596434E-01    0.4363153080E+00
    0.5000000000E+05    0.4500202587E-02    0.1083829655E-02    0.6959033702E+00    0.9494097828E-02    0.5047910011E+00
    0.7000000000E+05    0.2951395233E-02    0.7221898729E-03    0.6959397494E+00    0.8065504627E-02    0.5423190844E+00
    0.9000000000E+05    0.2070716487E-02    0.5131054271E-03    0.6959600164E+00    0.6957294264E-02    0.5659309940E+00
    0.1100000000E+06    0.1528268562E-02    0.3826480092E-03    0.6959729441E+00    0.6096549046E-02    0.5821134908E+00
    0.1300000000E+06    0.1172319805E-02    0.2961332532E-03    0.6959819124E+00    0.5415951006E-02    0.5938765004E+00
    0.1500000000E+06    0.9268354000E-03    0.2359301804E-03    0.6959885014E+00    0.4867101379E-02    0.6028033573E+00
    0.1700000000E+06    0.7506771732E-03    0.1923913947E-03    0.6959935484E+00    0.4416382839E-02    0.6098044760E+00
    0.1900000000E+06    0.6201221995E-03    0.1599012075E-03    0.6959975390E+00    0.4040272285E-02    0.6154396052E+00
    0.2100000000E+06    0.5207498347E-03    0.1350184360E-03    0.6960007739E+00    0.3722008168E-02    0.6200714105E+00
    0.2300000000E+06    0.4434003609E-03    0.1155418674E-03    0.6960034498E+00    0.3449401026E-02    0.6239449891E+00
    0.2500000000E+06    0.3820362026E-03    0.1000114591E-03    0.6960057002E+00    0.3213408745E-02    0.6272318323E+00
    0.2700000000E+06    0.3325500853E-03    0.8742833165E-04    0.6960076193E+00    0.3007199281E-02    0.6300554692E+00
    0.2900000000E+06    0.2920708507E-03    0.7709061833E-04    0.6960092755E+00    0.2825523168E-02    0.6325071052E+00
    0.3100000000E+06    0.2585433894E-03    0.6849355446E-04    0.6960107194E+00    0.2664285255E-02    0.6346555264E+00
    0.3300000000E+06    0.2304658499E-03    0.6126664437E-04    0.6960119895E+00    0.2520246783E-02    0.6365535777E+00
    0.3500000000E+06    0.2067203701E-03    0.5513299358E-04    0.6960131153E+00    0.2390814344E-02    0.6382425205E+00
    0.3700000000E+06    0.1864611955E-03    0.4988230893E-04    0.6960141203E+00    0.2273887825E-02    0.6397550369E+00
    0.3900000000E+06    0.1690390112E-03    0.4535256229E-04    0.6960150229E+00    0.2167749126E-02    0.6411173466E+00
    0.4100000000E+06    0.1539487008E-03    0.4141728251E-04    0.6960158380E+00    0.2070979521E-02    0.6423507264E+00
    0.4300000000E+06    0.1407926050E-03    0.3797658544E-04    0.6960165778E+00    0.1982397476E-02    0.6434726216E+00
    0.4500000000E+06    0.1292542441E-03    0.3495073670E-04    0.6960172523E+00    0.1901011278E-02    0.6444974700E+00
    0.4700000000E+06    0.1190792357E-03    0.3227546200E-04    0.6960178697E+00    0.1825982531E-02    0.6454373225E+00
    0.4900000000E+06    0.1100612420E-03    0.2989848316E-04    0.6960184370E+00    0.1756597735E-02    0.6463023167E+00
    0.1000000000E+06    0.1769220692E-02    0.4407810499E-03    0.6959671231E+00    0.6500656616E-02    0.5747153689E+00
    0.3000000000E+06    0.2745426498E-03    0.7260024890E-04    0.6960100214E+00    0.2742569114E-02    0.6336156004E+00
    0.5000000000E+06    0.1059321471E-03    0.2880814655E-04    0.6960187038E+00    0.1723827403E-02    0.6467094781E+00
    0.7000000000E+06    0.5577031577E-04    0.1543727716E-04    0.6960224459E+00    0.1254272645E-02    0.6524503644E+00
    0.9000000000E+06    0.3440103211E-04    0.9640840984E-05    0.6960245305E+00    0.9847194755E-03    0.6556716849E+00
    0.1100000000E+07    0.2336631183E-04    0.6608098334E-05    0.6960258581E+00    0.8100051449E-03    0.6577330069E+00
    0.1300000000E+07    0.1693571424E-04    0.4822151138E-05    0.6960267764E+00    0.6876421951E-03    0.6591650700E+00
    0.1500000000E+07    0.1286252989E-04    0.3681113051E-05    0.6960274484E+00    0.5972046539E-03    0.6602177537E+00
    0.1700000000E+07    0.1012020475E-04    0.2907271349E-05    0.6960279607E+00    0.5276611158E-03    0.6610241273E+00
    0.1900000000E+07    0.8185705587E-05    0.2357955381E-05    0.6960283635E+00    0.4725333348E-03    0.6616615543E+00
    0.2100000000E+07    0.6769826769E-05    0.1953709974E-05    0.6960286880E+00    0.4277680199E-03    0.6621780765E+00
    0.2300000000E+07    0.5702113979E-05    0.1647408858E-05    0.6960289545E+00    0.3906998714E-03    0.6626051014E+00
    0.2500000000E+07    0.4876818356E-05    0.1409650124E-05    0.6960291768E+00    0.3595046236E-03    0.6629640272E+00
    0.2700000000E+07    0.4225511512E-05    0.1221311477E-05    0.6960293649E+00    0.3328917451E-03    0.6632699354E+00
    0.2900000000E+07    0.3702326223E-05    0.1069516082E-05    0.6960295257E+00    0.3099226536E-03    0.6635337611E+00
    0.3100000000E+07    0.3275583666E-05    0.9453327727E-06    0.6960296646E+00    0.2898984627E-03    0.6637636263E+00
    0.3300000000E+07    0.2922833692E-05    0.8424075911E-06    0.6960297855E+00    0.2722881009E-03    0.6639656897E+00
    0.3500000000E+07    0.2627806055E-05    0.7561190941E-06    0.6960298916E+00    0.2566808234E-03    0.6641447059E+00
    0.3700000000E+07    0.2378475201E-05    0.6830401195E-06    0.6960299852E+00    0.2427539803E-03    0.6643044041E+00
    0.3900000000E+07    0.2165796942E-05    0.6205851601E-06    0.6960300682E+00    0.2302506153E-03    0.6644477501E+00
    0.4100000000E+07    0.1982863054E-05    0.5667735997E-06    0.6960301423E+00    0.2189635652E-03    0.6645771326E+00
    0.4300000000E+07    0.1824322940E-05    0.5200672354E-06    0.6960302087E+00    0.2087239640E-03    0.6646944963E+00
    0.4500000000E+07    0.1685980117E-05    0.4792565775E-06    0.6960302683E+00    0.1993927892E-03    0.6648014414E+00
    0.4700000000E+07    0.1564505620E-05    0.4433798711E-06    0.6960303222E+00    0.1908545522E-03    0.6648992956E+00
    0.4900000000E+07    0.1457231169E-05    0.4116644960E-06    0.6960303710E+00    0.1830125235E-03    0.6649891707E+00
    0.1000000000E+07    0.2807956115E-04    0.7907710259E-05    0.6960252607E+00    0.8889280581E-03    0.6568043402E+00
    0.3000000000E+07    0.3478476428E-05    0.1004418654E-05    0.6960295976E+00    0.2995789225E-03    0.6636525155E+00
    0.5000000000E+07    0.1408227641E-05    0.3971667511E-06    0.6960303936E+00    0.1793265708E-03    0.6650314148E+00
    0.7000000000E+07    0.8167476281E-06    0.2217840768E-06    0.6960306863E+00    0.1277261122E-03    0.6656230065E+00
    0.9000000000E+07    0.5635445941E-06    0.1467452436E-06    0.6960308153E+00    0.9908526430E-04    0.6659517876E+00
    0.1100000000E+08    0.4297483276E-06    0.1073583777E-06    0.6960308725E+00    0.8088432868E-04    0.6661610491E+00
    0.1300000000E+08    0.3491908512E-06    0.8389249657E-07    0.6960308927E+00    0.6830198922E-04    0.6663059409E+00
    0.1500000000E+08    0.2961692137E-06    0.6864753743E-07    0.6960308920E+00    0.5908800994E-04    0.6664122077E+00
    0.1700000000E+08    0.2589407496E-06    0.5809905126E-07    0.6960308787E+00    0.5205150091E-04    0.6664934812E+00
    0.1900000000E+08    0.2314894364E-06    0.5044159705E-07    0.6960308575E+00    0.4650338921E-04    0.6665576542E+00
    0.2100000000E+08    0.2104575988E-06    0.4466916231E-07    0.6960308310E+00    0.4201739154E-04    0.6666096125E+00
    0.2300000000E+08    0.1938422139E-06    0.4018330411E-07    0.6960308011E+00    0.3831569615E-04    0.6666525430E+00
    0.2500000000E+08    0.1803829097E-06    0.3660888499E-07    0.6960307690E+00    0.3520952931E-04    0.6666886122E+00
    0.2700000000E+08    0.1692511684E-06    0.3370042908E-07    0.6960307353E+00    0.3256614729E-04    0.6667193451E+00
