  Pressure (Pa) 22mC5-500 (mol/kg) 23mC5-500 (mol/kg) 24mC5-500 (mol/kg) 2mC6-500 (mol/kg) 3mC6-500 (mol/kg)
    0.1000000000E+01    0.1103061014E-04    0.1602912463E-05    0.2487141239E+00    0.4704073014E-05    0.1563246012E-04
    0.3000000000E+01    0.2388526897E-04    0.3484941077E-05    0.4351476428E+00    0.1115751352E-04    0.4689275923E-04
    0.5000000000E+01    0.3418007574E-04    0.5003702097E-05    0.5118901471E+00    0.1700728210E-04    0.7814706949E-04
    0.7000000000E+01    0.4392182359E-04    0.6446029324E-05    0.5537441797E+00    0.2280727634E-04    0.1093954404E-03
    0.9000000000E+01    0.5351448203E-04    0.7868755839E-05    0.5800948864E+00    0.2862874795E-04    0.1406378884E-03
    0.1100000000E+02    0.6307221527E-04    0.9287603763E-05    0.5982102513E+00    0.3447850022E-04    0.1718744215E-03
    0.1300000000E+02    0.7263225942E-04    0.1070753062E-04    0.6114292277E+00    0.4035258834E-04    0.2031050449E-03
    0.1500000000E+02    0.8220690259E-04    0.1213006407E-04    0.6215006568E+00    0.4624598154E-04    0.2343297625E-03
    0.1700000000E+02    0.9179939956E-04    0.1355552063E-04    0.6294291383E+00    0.5215439029E-04    0.2655485776E-03
    0.1900000000E+02    0.1014095832E-03    0.1498377639E-04    0.6358328630E+00    0.5807445232E-04    0.2967614929E-03
    0.2100000000E+02    0.1110360292E-03    0.1641455833E-04    0.6411131010E+00    0.6400358493E-04    0.3279685110E-03
    0.2300000000E+02    0.1206769341E-03    0.1784755926E-04    0.6455416739E+00    0.6993980405E-04    0.3591696345E-03
    0.2500000000E+02    0.1303304773E-03    0.1928248291E-04    0.6493092593E+00    0.7588157394E-04    0.3903648657E-03
    0.2700000000E+02    0.1399949628E-03    0.2071906002E-04    0.6525535667E+00    0.8182769355E-04    0.4215542068E-03
    0.2900000000E+02    0.1496688660E-03    0.2215705244E-04    0.6553765358E+00    0.8777721316E-04    0.4527376602E-03
    0.3100000000E+02    0.1593508398E-03    0.2359625202E-04    0.6578552421E+00    0.9372937355E-04    0.4839152279E-03
    0.3300000000E+02    0.1690397035E-03    0.2503647783E-04    0.6600490422E+00    0.9968356137E-04    0.5150869122E-03
    0.3500000000E+02    0.1787344247E-03    0.2647757276E-04    0.6620043888E+00    0.1056392762E-03    0.5462527153E-03
    0.3700000000E+02    0.1884341013E-03    0.2791940025E-04    0.6637581565E+00    0.1115961062E-03    0.5774126391E-03
    0.3900000000E+02    0.1981379442E-03    0.2936184135E-04    0.6653399894E+00    0.1175537091E-03    0.6085666860E-03
    0.4100000000E+02    0.2078452611E-03    0.3080479213E-04    0.6667739908E+00    0.1235117986E-03    0.6397148579E-03
    0.4300000000E+02    0.2175554433E-03    0.3224816153E-04    0.6680799595E+00    0.1294701335E-03    0.6708571570E-03
    0.4500000000E+02    0.2272679540E-03    0.3369186945E-04    0.6692743100E+00    0.1354285088E-03    0.7019935853E-03
    0.4700000000E+02    0.2369823180E-03    0.3513584521E-04    0.6703707658E+00    0.1413867496E-03    0.7331241449E-03
    0.4900000000E+02    0.2466981137E-03    0.3658002620E-04    0.6713808892E+00    0.1473447055E-03    0.7642488380E-03
    0.1000000000E+02    0.5829448397E-04    0.8578229781E-05    0.5899202402E+00    0.3155026436E-04    0.1562568939E-03
    0.3000000000E+02    0.1545089216E-03    0.2287651324E-04    0.6566548620E+00    0.9075300458E-04    0.4683271796E-03
    0.5000000000E+02    0.2515564294E-03    0.3730217603E-04    0.6718567012E+00    0.1503235354E-03    0.7798089852E-03
    0.7000000000E+02    0.3487254623E-03    0.5174525582E-04    0.6785897316E+00    0.2098613878E-03    0.1090704436E-02
    0.9000000000E+02    0.4457829782E-03    0.6617140117E-04    0.6823890922E+00    0.2692913071E-03    0.1401015578E-02
    0.1100000000E+03    0.5426369051E-03    0.8056722471E-04    0.6848291802E+00    0.3285894638E-03    0.1710744438E-02
    0.1300000000E+03    0.6392433777E-03    0.9492640207E-04    0.6865287711E+00    0.3877461600E-03    0.2019893024E-02
    0.1500000000E+03    0.7355788729E-03    0.1092455638E-03    0.6877805436E+00    0.4467568831E-03    0.2328463337E-02
    0.1700000000E+03    0.8316297721E-03    0.1235227705E-03    0.6887408901E+00    0.5056193957E-03    0.2636457363E-02
    0.1900000000E+03    0.9273877956E-03    0.1377568499E-03    0.6895009730E+00    0.5643325875E-03    0.2943877083E-02
    0.2100000000E+03    0.1022847769E-02    0.1519470741E-03    0.6901175219E+00    0.6228959591E-03    0.3250724465E-02
    0.2300000000E+03    0.1118006435E-02    0.1660929888E-03    0.6906276880E+00    0.6813093658E-03    0.3557001467E-02
    0.2500000000E+03    0.1212861775E-02    0.1801943158E-03    0.6910568196E+00    0.7395728791E-03    0.3862710041E-02
    0.2700000000E+03    0.1307412603E-02    0.1942508950E-03    0.6914228040E+00    0.7976867093E-03    0.4167852125E-02
    0.2900000000E+03    0.1401658310E-02    0.2082626483E-03    0.6917386251E+00    0.8556511575E-03    0.4472429652E-02
    0.3100000000E+03    0.1495598699E-02    0.2222295553E-03    0.6920139351E+00    0.9134665870E-03    0.4776444545E-02
    0.3300000000E+03    0.1589233871E-02    0.2361516379E-03    0.6922560595E+00    0.9711334042E-03    0.5079898715E-02
    0.3500000000E+03    0.1682564150E-02    0.2500289493E-03    0.6924706576E+00    0.1028652046E-02    0.5382794068E-02
    0.3700000000E+03    0.1775590028E-02    0.2638615661E-03    0.6926621714E+00    0.1086022969E-02    0.5685132499E-02
    0.3900000000E+03    0.1868312124E-02    0.2776495830E-03    0.6928341357E+00    0.1143246650E-02    0.5986915894E-02
    0.4100000000E+03    0.1960731155E-02    0.2913931083E-03    0.6929893987E+00    0.1200323572E-02    0.6288146131E-02
    0.4300000000E+03    0.2052847919E-02    0.3050922614E-03    0.6931302810E+00    0.1257254229E-02    0.6588825079E-02
    0.4500000000E+03    0.2144663272E-02    0.3187471699E-03    0.6932586922E+00    0.1314039120E-02    0.6888954598E-02
    0.4700000000E+03    0.2236178119E-02    0.3323579682E-03    0.6933762181E+00    0.1370678749E-02    0.7188536541E-02
    0.4900000000E+03    0.2327393403E-02    0.3459247961E-03    0.6934841868E+00    0.1427173622E-02    0.7487572749E-02
    0.1000000000E+03    0.4942388009E-03    0.7337359586E-04    0.6837289750E+00    0.2989576397E-03    0.1555952668E-02
    0.3000000000E+03    0.1448666669E-02    0.2152517070E-03    0.6918808406E+00    0.8845774750E-03    0.4624507308E-02
    0.5000000000E+03    0.2372889012E-02    0.3526917660E-03    0.6935349442E+00    0.1455366934E-02    0.7636886776E-02
    0.7000000000E+03    0.3267323585E-02    0.4857594647E-03    0.6942463723E+00    0.2011757998E-02    0.1059496072E-01
    0.9000000000E+03    0.4133006321E-02    0.6146071087E-03    0.6946422884E+00    0.2554254101E-02    0.1350051411E-01
    0.1100000000E+04    0.4971008396E-02    0.7393914774E-03    0.6948944965E+00    0.3083344252E-02    0.1635525208E-01
    0.1300000000E+04    0.5782373064E-02    0.8602650712E-03    0.6950692260E+00    0.3599496966E-02    0.1916080439E-01
    0.1500000000E+04    0.6568102742E-02    0.9773743528E-03    0.6951974278E+00    0.4103160011E-02    0.2191872955E-01
    0.1700000000E+04    0.7329156545E-02    0.1090859434E-02    0.6952955044E+00    0.4594761140E-02    0.2463051871E-01
    0.1900000000E+04    0.8066450813E-02    0.1200854172E-02    0.6953729586E+00    0.5074709054E-02    0.2729759926E-01
    0.2100000000E+04    0.8780860624E-02    0.1307486398E-02    0.6954356769E+00    0.5543394378E-02    0.2992133820E-01
    0.2300000000E+04    0.9473221641E-02    0.1410878194E-02    0.6954874997E+00    0.6001190612E-02    0.3250304536E-01
    0.2500000000E+04    0.1014433204E-01    0.1511146170E-02    0.6955310396E+00    0.6448455038E-02    0.3504397634E-01
    0.2700000000E+04    0.1079495441E-01    0.1608401750E-02    0.6955681358E+00    0.6885529576E-02    0.3754533530E-01
    0.2900000000E+04    0.1142581758E-01    0.1702751437E-02    0.6956001205E+00    0.7312741589E-02    0.4000827760E-01
    0.3100000000E+04    0.1203761841E-01    0.1794297067E-02    0.6956279821E+00    0.7730404641E-02    0.4243391226E-01
    0.3300000000E+04    0.1263102339E-01    0.1883136055E-02    0.6956524697E+00    0.8138819207E-02    0.4482330426E-01
    0.3500000000E+04    0.1320667026E-01    0.1969361620E-02    0.6956741614E+00    0.8538273347E-02    0.4717747671E-01
    0.3700000000E+04    0.1376516947E-01    0.2053063004E-02    0.6956935102E+00    0.8929043331E-02    0.4949741295E-01
    0.3900000000E+04    0.1430710557E-01    0.2134325672E-02    0.6957108764E+00    0.9311394235E-02    0.5178405840E-01
    0.4100000000E+04    0.1483303854E-01    0.2213231508E-02    0.6957265498E+00    0.9685580492E-02    0.5403832246E-01
    0.4300000000E+04    0.1534350501E-01    0.2289858989E-02    0.6957407666E+00    0.1005184643E-01    0.5626108016E-01
    0.4500000000E+04    0.1583901944E-01    0.2364283361E-02    0.6957537207E+00    0.1041042673E-01    0.5845317384E-01
    0.4700000000E+04    0.1632007521E-01    0.2436576796E-02    0.6957655734E+00    0.1076154696E-01    0.6061541460E-01
    0.4900000000E+04    0.1678714566E-01    0.2506808543E-02    0.6957764594E+00    0.1110542394E-01    0.6274858381E-01
    0.1000000000E+04    0.4555401348E-02    0.6774975386E-03    0.6947809771E+00    0.2820445146E-02    0.1493413144E-01
    0.3000000000E+04    0.1173405844E-01    0.1748868570E-02    0.6956145151E+00    0.7522747657E-02    0.4122569082E-01
    0.5000000000E+04    0.1701557908E-01    0.2541172159E-02    0.6957815761E+00    0.1127471169E-01    0.6380450296E-01
    0.7000000000E+04    0.2095128810E-01    0.3135027755E-02    0.6958532320E+00    0.1432690337E-01    0.8356605271E-01
    0.9000000000E+04    0.2390700060E-01    0.3583996975E-02    0.6958930628E+00    0.1684906183E-01    0.1011294493E+00
    0.1100000000E+05    0.2613351453E-01    0.3924853637E-02    0.6959184207E+00    0.1896014365E-01    0.1169370606E+00
    0.1300000000E+05    0.2780760991E-01    0.4183558747E-02    0.6959359827E+00    0.2074594525E-01    0.1313138949E+00
    0.1500000000E+05    0.2905687262E-01    0.4378880095E-02    0.6959488657E+00    0.2226988784E-01    0.1445045039E+00
    0.1700000000E+05    0.2997527371E-01    0.4524665312E-02    0.6959587203E+00    0.2357986259E-01    0.1566967497E+00
    0.1900000000E+05    0.3063325589E-01    0.4631314485E-02    0.6959665024E+00    0.2471271403E-01    0.1680375875E+00
    0.2100000000E+05    0.3108444328E-01    0.4706760476E-02    0.6959728037E+00    0.2569725806E-01    0.1786438313E+00
    0.2300000000E+05    0.3137021249E-01    0.4757137298E-02    0.6959780104E+00    0.2655636312E-01    0.1886096729E+00
    0.2500000000E+05    0.3152287331E-01    0.4787245547E-02    0.6959823850E+00    0.2730841650E-01    0.1980120428E+00
    0.2700000000E+05    0.3156792384E-01    0.4800882704E-02    0.6959861124E+00    0.2796837710E-01    0.2069145049E+00
    0.2900000000E+05    0.3152567678E-01    0.4801081528E-02    0.6959893262E+00    0.2854854462E-01    0.2153701337E+00
    0.3100000000E+05    0.3141245011E-01    0.4790284770E-02    0.6959921259E+00    0.2905913024E-01    0.2234236716E+00
    0.3300000000E+05    0.3124145105E-01    0.4770475014E-02    0.6959945868E+00    0.2950868599E-01    0.2311131700E+00
    0.3500000000E+05    0.3102344059E-01    0.4743272372E-02    0.6959967667E+00    0.2990443207E-01    0.2384712515E+00
    0.3700000000E+05    0.3076723882E-01    0.4710008871E-02    0.6959987114E+00    0.3025250933E-01    0.2455260939E+00
    0.3900000000E+05    0.3048011324E-01    0.4671785673E-02    0.6960004569E+00    0.3055817608E-01    0.2523022035E+00
    0.4100000000E+05    0.3016808013E-01    0.4629517534E-02    0.6960020323E+00    0.3082596310E-01    0.2588210305E+00
    0.4300000000E+05    0.2983614044E-01    0.4583967654E-02    0.6960034614E+00    0.3105979689E-01    0.2651014621E+00
    0.4500000000E+05    0.2948846608E-01    0.4535775220E-02    0.6960047637E+00    0.3126309847E-01    0.2711602208E+00
    0.4700000000E+05    0.2912854806E-01    0.4485477351E-02    0.6960059554E+00    0.3143886322E-01    0.2770121892E+00
    0.4900000000E+05    0.2875931514E-01    0.4433526700E-02    0.6960070499E+00    0.3158972592E-01    0.2826706770E+00
    0.1000000000E+05    0.2509897224E-01    0.3766114178E-02    0.6959070084E+00    0.1794999866E-01    0.1092301779E+00
    0.3000000000E+05    0.3147704623E-01    0.4796924177E-02    0.6959907727E+00    0.2881196604E-01    0.2194446453E+00
    0.5000000000E+05    0.2857199107E-01    0.4407053496E-02    0.6960075644E+00    0.3165655709E-01    0.2854311498E+00
    0.7000000000E+05    0.2475936684E-01    0.3857184915E-02    0.6960147716E+00    0.3212924997E-01    0.3328418192E+00
    0.9000000000E+05    0.2129749268E-01    0.3346208306E-02    0.6960187804E+00    0.3165165415E-01    0.3694712476E+00
    0.1100000000E+06    0.1836968307E-01    0.2907743843E-02    0.6960213340E+00    0.3075508370E-01    0.3988967523E+00
    0.1300000000E+06    0.1593736357E-01    0.2539472264E-02    0.6960231034E+00    0.2967850980E-01    0.4231382775E+00
    0.1500000000E+06    0.1392042920E-01    0.2231347480E-02    0.6960244020E+00    0.2854013800E-01    0.4434779166E+00
    0.1700000000E+06    0.1224128526E-01    0.1972860284E-02    0.6960253957E+00    0.2740113028E-01    0.4607898280E+00
    0.1900000000E+06    0.1083465560E-01    0.1754870476E-02    0.6960261807E+00    0.2629338384E-01    0.4756988988E+00
    0.2100000000E+06    0.9648066860E-02    0.1569880283E-02    0.6960268165E+00    0.2523298643E-01    0.4886670641E+00
    0.2300000000E+06    0.8639976601E-02    0.1411867734E-02    0.6960273420E+00    0.2422721937E-01    0.5000445482E+00
    0.2500000000E+06    0.7777598356E-02    0.1276026708E-02    0.6960277837E+00    0.2327838965E-01    0.5101022557E+00
    0.2700000000E+06    0.7034993951E-02    0.1158519998E-02    0.6960281600E+00    0.2238600209E-01    0.5190532262E+00
    0.2900000000E+06    0.6391539821E-02    0.1056272818E-02    0.6960284846E+00    0.2154802065E-01    0.5270673582E+00
    0.3100000000E+06    0.5830735289E-02    0.9668083655E-03    0.6960287674E+00    0.2076161159E-01    0.5342818025E+00
    0.3300000000E+06    0.5339288752E-02    0.8881195191E-03    0.6960290161E+00    0.2002358416E-01    0.5408084679E+00
    0.3500000000E+06    0.4906419480E-02    0.8185695053E-03    0.6960292363E+00    0.1933065086E-01    0.5467395462E+00
    0.3700000000E+06    0.4523323460E-02    0.7568150839E-03    0.6960294328E+00    0.1867957865E-01    0.5521516457E+00
    0.3900000000E+06    0.4182763133E-02    0.7017470228E-03    0.6960296092E+00    0.1806727353E-01    0.5571089278E+00
    0.4100000000E+06    0.3878750606E-02    0.6524437826E-03    0.6960297685E+00    0.1749082443E-01    0.5616655176E+00
    0.4300000000E+06    0.3606301564E-02    0.6081352967E-03    0.6960299129E+00    0.1694752216E-01    0.5658673770E+00
    0.4500000000E+06    0.3361242890E-02    0.5681744844E-03    0.6960300446E+00    0.1643486340E-01    0.5697537759E+00
    0.4700000000E+06    0.3140061276E-02    0.5320147171E-03    0.6960301650E+00    0.1595054580E-01    0.5733584568E+00
    0.4900000000E+06    0.2939783342E-02    0.4991918841E-03    0.6960302757E+00    0.1549245816E-01    0.5767105671E+00
    0.1000000000E+06    0.1976728427E-01    0.3117717856E-02    0.6960201846E+00    0.3123680015E-01    0.3849350934E+00
    0.3000000000E+06    0.6101703197E-02    0.1010077916E-02    0.6960286307E+00    0.2114856434E-01    0.5307670282E+00
    0.5000000000E+06    0.2846677791E-02    0.4839057540E-03    0.6960303277E+00    0.1527264006E-01    0.5782999479E+00
    0.7000000000E+06    0.1632052474E-02    0.2825731224E-03    0.6960310560E+00    0.1186576582E-01    0.6015011305E+00
    0.9000000000E+06    0.1054267358E-02    0.1851187521E-03    0.6960314607E+00    0.9677113471E-02    0.6151680990E+00
    0.1100000000E+07    0.7358570775E-03    0.1306884152E-03    0.6960317180E+00    0.8160178302E-02    0.6241543526E+00
    0.1300000000E+07    0.5422256970E-03    0.9722519380E-04    0.6960318957E+00    0.7049406759E-02    0.6305051796E+00
    0.1500000000E+07    0.4158715772E-03    0.7518673583E-04    0.6960320258E+00    0.6201969420E-02    0.6352283793E+00
    0.1700000000E+07    0.3289325419E-03    0.5990160838E-04    0.6960321249E+00    0.5534639908E-02    0.6388770018E+00
    0.1900000000E+07    0.2665927780E-03    0.4886405657E-04    0.6960322029E+00    0.4995778513E-02    0.6417794671E+00
    0.2100000000E+07    0.2203894410E-03    0.4063192699E-04    0.6960322658E+00    0.4551697521E-02    0.6441429480E+00
    0.2300000000E+07    0.1852057563E-03    0.3432742033E-04    0.6960323175E+00    0.4179506113E-02    0.6461045290E+00
    0.2500000000E+07    0.1578014974E-03    0.2939132031E-04    0.6960323607E+00    0.3863116196E-02    0.6477585012E+00
    0.2700000000E+07    0.1360443922E-03    0.2545361913E-04    0.6960323973E+00    0.3590895453E-02    0.6491718357E+00
    0.2900000000E+07    0.1184850267E-03    0.2226154743E-04    0.6960324286E+00    0.3354227551E-02    0.6503934004E+00
    0.3100000000E+07    0.1041104508E-03    0.1963763909E-04    0.6960324558E+00    0.3146595841E-02    0.6514596846E+00
    0.3300000000E+07    0.9219554994E-04    0.1745431323E-04    0.6960324795E+00    0.2962981516E-02    0.6523984818E+00
    0.3500000000E+07    0.8221025314E-04    0.1561793435E-04    0.6960325003E+00    0.2799457272E-02    0.6532313325E+00
    0.3700000000E+07    0.7375983905E-04    0.1405851567E-04    0.6960325188E+00    0.2652906290E-02    0.6539751876E+00
    0.3900000000E+07    0.6654550904E-04    0.1272289199E-04    0.6960325352E+00    0.2520823683E-02    0.6546435684E+00
    0.4100000000E+07    0.6033773108E-04    0.1157008717E-04    0.6960325499E+00    0.2401173537E-02    0.6552473915E+00
    0.4300000000E+07    0.5495783830E-04    0.1056810531E-04    0.6960325632E+00    0.2292284185E-02    0.6557955668E+00
    0.4500000000E+07    0.5026508594E-04    0.9691666367E-05    0.6960325751E+00    0.2192770336E-02    0.6562954380E+00
    0.4700000000E+07    0.4614739229E-04    0.8920581427E-05    0.6960325860E+00    0.2101474330E-02    0.6567531120E+00
    0.4900000000E+07    0.4251461258E-04    0.8238568927E-05    0.6960325958E+00    0.2017421279E-02    0.6571737090E+00
    0.1000000000E+07    0.8738213436E-03    0.1543515866E-03    0.6960316022E+00    0.8855302131E-02    0.6200829345E+00
    0.3000000000E+07    0.1109504153E-03    0.2088749446E-04    0.6960324427E+00    0.3247125445E-02    0.6509440450E+00
    0.5000000000E+07    0.4085664674E-04    0.7926725264E-05    0.6960326004E+00    0.1977847491E-02    0.6573714817E+00
    0.7000000000E+07    0.2101366954E-04    0.4158569550E-05    0.6960326616E+00    0.1419339646E-02    0.6601460367E+00
    0.9000000000E+07    0.1275862245E-04    0.2562426013E-05    0.6960326913E+00    0.1105680670E-02    0.6616914508E+00
    0.1100000000E+08    0.8557133214E-05    0.1738835946E-05    0.6960327070E+00    0.9049830388E-03    0.6626759892E+00
    0.1300000000E+08    0.6133326832E-05    0.1258417341E-05    0.6960327154E+00    0.7656135822E-03    0.6633579216E+00
    0.1500000000E+08    0.4609906331E-05    0.9536395318E-06    0.6960327197E+00    0.6632275563E-03    0.6638580913E+00
    0.1700000000E+08    0.3590695884E-05    0.7480931162E-06    0.6960327213E+00    0.5848510685E-03    0.6642405756E+00
    0.1900000000E+08    0.2875594132E-05    0.6028578576E-06    0.6960327212E+00    0.5229389097E-03    0.6645425095E+00
    0.2100000000E+08    0.2354708348E-05    0.4964015302E-06    0.6960327200E+00    0.4728051951E-03    0.6647868962E+00
    0.2300000000E+08    0.1963626336E-05    0.4160207162E-06    0.6960327181E+00    0.4313867124E-03    0.6649887445E+00
    0.2500000000E+08    0.1662571655E-05    0.3538245660E-06    0.6960327155E+00    0.3965968140E-03    0.6651582634E+00
    0.2700000000E+08    0.1425907563E-05    0.3047001193E-06    0.6960327126E+00    0.3669651657E-03    0.6653026381E+00
