  Pressure (Pa) 22mC5-500 (mol/kg) 23mC5-500 (mol/kg) 24mC5-500 (mol/kg) 2mC6-500 (mol/kg) 3mC6-500 (mol/kg)
    0.1000000000E+01    0.1485884276E-04    0.1077959488E-04    0.3666082422E-01    0.1817496059E-04    0.1042153268E-04
    0.3000000000E+01    0.4108664914E-04    0.2981525649E-04    0.9949218964E-01    0.5073308263E-04    0.3126069810E-04
    0.5000000000E+01    0.6375165451E-04    0.4627736161E-04    0.1513818828E+00    0.7950306133E-04    0.5209467588E-04
    0.7000000000E+01    0.8378190703E-04    0.6083883011E-04    0.1949595959E+00    0.1055494309E-03    0.7292347738E-04
    0.9000000000E+01    0.1018188237E-03    0.7396436225E-04    0.2320747942E+00    0.1295955191E-03    0.9374711145E-04
    0.1100000000E+02    0.1183184517E-03    0.8598407229E-04    0.2640661051E+00    0.1521463069E-03    0.1145655852E-03
    0.1300000000E+02    0.1336129146E-03    0.9713815321E-04    0.2919263016E+00    0.1735624956E-03    0.1353789046E-03
    0.1500000000E+02    0.1479491188E-03    0.1076050007E-03    0.3164072242E+00    0.1941068163E-03    0.1561870749E-03
    0.1700000000E+02    0.1615139272E-03    0.1175194963E-03    0.3380886911E+00    0.2139738980E-03    0.1769901004E-03
    0.1900000000E+02    0.1744509902E-03    0.1269852263E-03    0.3574250370E+00    0.2333100560E-03    0.1977879855E-03
    0.2100000000E+02    0.1868722747E-03    0.1360828465E-03    0.3747773180E+00    0.2522267127E-03    0.2185807338E-03
    0.2300000000E+02    0.1988661296E-03    0.1448759325E-03    0.3904360826E+00    0.2708096887E-03    0.2393683488E-03
    0.2500000000E+02    0.2105030385E-03    0.1534151487E-03    0.4046377826E+00    0.2891257551E-03    0.2601508339E-03
    0.2700000000E+02    0.2218397899E-03    0.1617412704E-03    0.4175768036E+00    0.3072273287E-03    0.2809281923E-03
    0.2900000000E+02    0.2329225494E-03    0.1698874074E-03    0.4294144224E+00    0.3251558871E-03    0.3017004270E-03
    0.3100000000E+02    0.2437891520E-03    0.1778806633E-03    0.4402855685E+00    0.3429444860E-03    0.3224675409E-03
    0.3300000000E+02    0.2544708360E-03    0.1857433894E-03    0.4503039932E+00    0.3606196364E-03    0.3432295370E-03
    0.3500000000E+02    0.2649935678E-03    0.1934941424E-03    0.4595662688E+00    0.3782027207E-03    0.3639864179E-03
    0.3700000000E+02    0.2753790663E-03    0.2011484239E-03    0.4681549133E+00    0.3957110710E-03    0.3847381866E-03
    0.3900000000E+02    0.2856456015E-03    0.2087192574E-03    0.4761408578E+00    0.4131587985E-03    0.4054848455E-03
    0.4100000000E+02    0.2958086240E-03    0.2162176422E-03    0.4835854111E+00    0.4305574362E-03    0.4262263975E-03
    0.4300000000E+02    0.3058812633E-03    0.2236529125E-03    0.4905418384E+00    0.4479164411E-03    0.4469628451E-03
    0.4500000000E+02    0.3158747275E-03    0.2310330257E-03    0.4970566382E+00    0.4652435897E-03    0.4676941909E-03
    0.4700000000E+02    0.3257986245E-03    0.2383647934E-03    0.5031705843E+00    0.4825452914E-03    0.4884204374E-03
    0.4900000000E+02    0.3356612227E-03    0.2456540690E-03    0.5089195800E+00    0.4998268382E-03    0.5091415873E-03
    0.1000000000E+02    0.1102376731E-03    0.8009571530E-04    0.2486422307E+00    0.1410325437E-03    0.1041569930E-03
    0.3000000000E+02    0.2383807805E-03    0.1739016496E-03    0.4349632505E+00    0.3340658896E-03    0.3120846239E-03
    0.5000000000E+02    0.3405718055E-03    0.2492843778E-03    0.5116672860E+00    0.5084614517E-03    0.5195002518E-03
    0.7000000000E+02    0.4368650024E-03    0.3205757183E-03    0.5535103194E+00    0.6808223553E-03    0.7264065767E-03
    0.9000000000E+02    0.5312977412E-03    0.3906157024E-03    0.5798605717E+00    0.8532855736E-03    0.9328060614E-03
    0.1100000000E+03    0.6250125336E-03    0.4601911077E-03    0.5979797833E+00    0.1026057507E-02    0.1138701099E-02
    0.1300000000E+03    0.7183835144E-03    0.5295511245E-03    0.6112043475E+00    0.1199022720E-02    0.1344094049E-02
    0.1500000000E+03    0.8115356130E-03    0.5987736412E-03    0.6212819722E+00    0.1372033303E-02    0.1548987246E-02
    0.1700000000E+03    0.9045035071E-03    0.6678760454E-03    0.6292167326E+00    0.1544963570E-02    0.1753383005E-02
    0.1900000000E+03    0.9972876697E-03    0.7368537102E-03    0.6356265743E+00    0.1717715610E-02    0.1957283626E-02
    0.2100000000E+03    0.1089875992E-02    0.8056945474E-03    0.6409126570E+00    0.1890214862E-02    0.2160691390E-02
    0.2300000000E+03    0.1182252562E-02    0.8743847476E-03    0.6453467594E+00    0.2062404686E-02    0.2363608564E-02
    0.2500000000E+03    0.1274401273E-02    0.9429110319E-03    0.6491195501E+00    0.2234241860E-02    0.2566037400E-02
    0.2700000000E+03    0.1366307245E-02    0.1011261460E-02    0.6523687468E+00    0.2405693172E-02    0.2767980135E-02
    0.2900000000E+03    0.1457957299E-02    0.1079425632E-02    0.6551963055E+00    0.2576732927E-02    0.2969438992E-02
    0.3100000000E+03    0.1549340009E-02    0.1147394635E-02    0.6576793215E+00    0.2747341116E-02    0.3170416179E-02
    0.3300000000E+03    0.1640445595E-02    0.1215160906E-02    0.6598771721E+00    0.2917502087E-02    0.3370913891E-02
    0.3500000000E+03    0.1731265746E-02    0.1282718059E-02    0.6618363302E+00    0.3087203555E-02    0.3570934307E-02
    0.3700000000E+03    0.1821793440E-02    0.1350060726E-02    0.6635936894E+00    0.3256435865E-02    0.3770479595E-02
    0.3900000000E+03    0.1912022763E-02    0.1417184407E-02    0.6651789119E+00    0.3425191440E-02    0.3969551906E-02
    0.4100000000E+03    0.2001948762E-02    0.1484085342E-02    0.6666161170E+00    0.3593464358E-02    0.4168153381E-02
    0.4300000000E+03    0.2091567300E-02    0.1550760404E-02    0.6679251185E+00    0.3761250026E-02    0.4366286145E-02
    0.4500000000E+03    0.2180874946E-02    0.1617207006E-02    0.6691223444E+00    0.3928544926E-02    0.4563952310E-02
    0.4700000000E+03    0.2269868874E-02    0.1683423017E-02    0.6702215305E+00    0.4095346422E-02    0.4761153976E-02
    0.4900000000E+03    0.2358546775E-02    0.1749406704E-02    0.6712342500E+00    0.4261652598E-02    0.4957893230E-02
    0.1000000000E+03    0.5782124769E-03    0.4254396604E-03    0.5896875201E+00    0.9396380348E-03    0.1035816488E-02
    0.3000000000E+03    0.1503682720E-02    0.1113435032E-02    0.6564768203E+00    0.2662092034E-02    0.3069987657E-02
    0.5000000000E+03    0.2402766619E-02    0.1782310978E-02    0.6717113130E+00    0.4344619508E-02    0.5056090100E-02
    0.7000000000E+03    0.3270304488E-02    0.2427998709E-02    0.6784643026E+00    0.5977860656E-02    0.6996251159E-02
    0.9000000000E+03    0.4105786487E-02    0.3050111319E-02    0.6822773124E+00    0.7562035380E-02    0.8892469496E-02
    0.1100000000E+04    0.4909993211E-02    0.3649223120E-02    0.6847274495E+00    0.9098750542E-02    0.1074662508E-01
    0.1300000000E+04    0.5684078314E-02    0.4226182064E-02    0.6864348220E+00    0.1058989387E-01    0.1256048803E-01
    0.1500000000E+04    0.6429298493E-02    0.4781910620E-02    0.6876928433E+00    0.1203737653E-01    0.1433572659E-01
    0.1700000000E+04    0.7146916774E-02    0.5317335108E-02    0.6886583475E+00    0.1344305561E-01    0.1607391448E-01
    0.1900000000E+04    0.7838163813E-02    0.5833357631E-02    0.6894227793E+00    0.1480870868E-01    0.1777653753E-01
    0.2100000000E+04    0.8504221891E-02    0.6330844551E-02    0.6900430585E+00    0.1613602641E-01    0.1944499988E-01
    0.2300000000E+04    0.9146218795E-02    0.6810622142E-02    0.6905564695E+00    0.1742661239E-01    0.2108062951E-01
    0.2500000000E+04    0.9765226322E-02    0.7273475581E-02    0.6909884569E+00    0.1868198583E-01    0.2268468344E-01
    0.2700000000E+04    0.1036226106E-01    0.7720149565E-02    0.6913569797E+00    0.1990358545E-01    0.2425835247E-01
    0.2900000000E+04    0.1093828625E-01    0.8151349731E-02    0.6916750761E+00    0.2109277388E-01    0.2580276553E-01
    0.3100000000E+04    0.1149421422E-01    0.8567744433E-02    0.6919524409E+00    0.2225084204E-01    0.2731899370E-01
    0.3300000000E+04    0.1203090900E-01    0.8969966683E-02    0.6921964325E+00    0.2337901349E-01    0.2880805394E-01
    0.3500000000E+04    0.1254918899E-01    0.9358616117E-02    0.6924127374E+00    0.2447844849E-01    0.3027091247E-01
    0.3700000000E+04    0.1304982959E-01    0.9734260918E-02    0.6926058190E+00    0.2555024795E-01    0.3170848799E-01
    0.3900000000E+04    0.1353356575E-01    0.1009743968E-01    0.6927792299E+00    0.2659545706E-01    0.3312165458E-01
    0.4100000000E+04    0.1400109436E-01    0.1044866317E-01    0.6929358332E+00    0.2761506866E-01    0.3451124443E-01
    0.4300000000E+04    0.1445307654E-01    0.1078841599E-01    0.6930779619E+00    0.2861002651E-01    0.3587805034E-01
    0.4500000000E+04    0.1489013979E-01    0.1111715818E-01    0.6932075359E+00    0.2958122817E-01    0.3722282808E-01
    0.4700000000E+04    0.1531288000E-01    0.1143532663E-01    0.6933261500E+00    0.3052952782E-01    0.3854629856E-01
    0.4900000000E+04    0.1572186333E-01    0.1174333653E-01    0.6934351399E+00    0.3145573882E-01    0.3984914981E-01
    0.1000000000E+04    0.4511731396E-02    0.3352492409E-02    0.6836225670E+00    0.8336209537E-02    0.9824692024E-02
    0.3000000000E+04    0.1121870728E-01    0.8361357396E-02    0.6918183443E+00    0.2167561999E-01    0.2656433794E-01
    0.5000000000E+04    0.1592136540E-01    0.1189365613E-01    0.6934863849E+00    0.3191080468E-01    0.4049304974E-01
    0.7000000000E+04    0.1930672756E-01    0.1445296958E-01    0.6942052560E+00    0.4002262313E-01    0.5243357560E-01
    0.9000000000E+04    0.2179014830E-01    0.1634415270E-01    0.6946059725E+00    0.4661625608E-01    0.6290495871E-01
    0.1100000000E+05    0.2363466400E-01    0.1776058559E-01    0.6948616036E+00    0.5208485481E-01    0.7225226322E-01
    0.1300000000E+05    0.2501394506E-01    0.1883017818E-01    0.6950389316E+00    0.5669506005E-01    0.8071475211E-01
    0.1500000000E+05    0.2604670131E-01    0.1964052843E-01    0.6951691930E+00    0.6063424756E-01    0.8846416260E-01
    0.1700000000E+05    0.2681646265E-01    0.2025339819E-01    0.6952689538E+00    0.6403806567E-01    0.9562737941E-01
    0.1900000000E+05    0.2738346572E-01    0.2071341992E-01    0.6953478187E+00    0.6700722761E-01    0.1023004782E+00
    0.2100000000E+05    0.2779207232E-01    0.2105353572E-01    0.6954117409E+00    0.6961815122E-01    0.1085577576E+00
    0.2300000000E+05    0.2807555209E-01    0.2129850749E-01    0.6954646069E+00    0.7192992523E-01    0.1144577385E+00
    0.2500000000E+05    0.2825925423E-01    0.2146724715E-01    0.6955090623E+00    0.7398900230E-01    0.1200472615E+00
    0.2700000000E+05    0.2836276344E-01    0.2157440235E-01    0.6955469703E+00    0.7583244015E-01    0.1253643553E+00
    0.2900000000E+05    0.2840139757E-01    0.2163145924E-01    0.6955796812E+00    0.7749018994E-01    0.1304402877E+00
    0.3100000000E+05    0.2838726844E-01    0.2164752447E-01    0.6956081976E+00    0.7898674378E-01    0.1353010606E+00
    0.3300000000E+05    0.2833004620E-01    0.2162988939E-01    0.6956332797E+00    0.8034234180E-01    0.1399685195E+00
    0.3500000000E+05    0.2823751885E-01    0.2158444353E-01    0.6956555142E+00    0.8157387072E-01    0.1444611880E+00
    0.3700000000E+05    0.2811600753E-01    0.2151598185E-01    0.6956753612E+00    0.8269554218E-01    0.1487949063E+00
    0.3900000000E+05    0.2797067874E-01    0.2142843615E-01    0.6956931868E+00    0.8371941170E-01    0.1529833243E+00
    0.4100000000E+05    0.2780578187E-01    0.2132505117E-01    0.6957092856E+00    0.8465578038E-01    0.1570382877E+00
    0.4300000000E+05    0.2762483171E-01    0.2120852035E-01    0.6957238978E+00    0.8551350920E-01    0.1609701436E+00
    0.4500000000E+05    0.2743075030E-01    0.2108109119E-01    0.6957372207E+00    0.8630026751E-01    0.1647879844E+00
    0.4700000000E+05    0.2722597788E-01    0.2094464807E-01    0.6957494184E+00    0.8702273125E-01    0.1684998440E+00
    0.4900000000E+05    0.2701256066E-01    0.2080077765E-01    0.6957606281E+00    0.8768674242E-01    0.1721128583E+00
    0.1000000000E+05    0.2277981822E-01    0.1710254806E-01    0.6947465013E+00    0.4947223537E-01    0.6770223577E-01
    0.3000000000E+05    0.2840027418E-01    0.2164412301E-01    0.6955944115E+00    0.7825726347E-01    0.1328961173E+00
    0.5000000000E+05    0.2690315942E-01    0.2072648468E-01    0.6957658994E+00    0.8799845824E-01    0.1738843154E+00
    0.7000000000E+05    0.2455959531E-01    0.1908516716E-01    0.6958399139E+00    0.9213679525E-01    0.2053649768E+00
    0.9000000000E+05    0.2227518965E-01    0.1743593343E-01    0.6958812667E+00    0.9379658885E-01    0.2314043066E+00
    0.1100000000E+06    0.2022187212E-01    0.1592842295E-01    0.6959077111E+00    0.9414441893E-01    0.2537667546E+00
    0.1300000000E+06    0.1841475037E-01    0.1458584509E-01    0.6959260989E+00    0.9372911260E-01    0.2734096942E+00
    0.1500000000E+06    0.1683115162E-01    0.1339832906E-01    0.6959396370E+00    0.9284651782E-01    0.2909268705E+00
    0.1700000000E+06    0.1544138163E-01    0.1234806398E-01    0.6959500279E+00    0.9167076519E-01    0.3067202601E+00
    0.1900000000E+06    0.1421729522E-01    0.1141681981E-01    0.6959582595E+00    0.9031067158E-01    0.3210791304E+00
    0.2100000000E+06    0.1313442801E-01    0.1058815307E-01    0.6959649448E+00    0.8883716275E-01    0.3342210751E+00
    0.2300000000E+06    0.1217214966E-01    0.9847874905E-02    0.6959704844E+00    0.8729787202E-01    0.3463153188E+00
    0.2500000000E+06    0.1131324033E-01    0.9183947411E-02    0.6959751513E+00    0.8572546824E-01    0.3574969047E+00
    0.2700000000E+06    0.1054335234E-01    0.8586213968E-02    0.6959791379E+00    0.8414267055E-01    0.3678758223E+00
    0.2900000000E+06    0.9850505977E-02    0.8046107492E-02    0.6959825838E+00    0.8256540130E-01    0.3775431499E+00
    0.3100000000E+06    0.9224659324E-02    0.7556384961E-02    0.6959855928E+00    0.8100483897E-01    0.3865753417E+00
    0.3300000000E+06    0.8657354882E-02    0.7110900861E-02    0.6959882437E+00    0.7946879410E-01    0.3950373149E+00
    0.3500000000E+06    0.8141433569E-02    0.6704419127E-02    0.6959905972E+00    0.7796265353E-01    0.4029847293E+00
    0.3700000000E+06    0.7670804553E-02    0.6332458931E-02    0.6959927012E+00    0.7649004175E-01    0.4104657101E+00
    0.3900000000E+06    0.7240260035E-02    0.5991168756E-02    0.6959945937E+00    0.7505329187E-01    0.4175221734E+00
    0.4100000000E+06    0.6845325828E-02    0.5677223610E-02    0.6959963052E+00    0.7365378581E-01    0.4241908631E+00
    0.4300000000E+06    0.6482140364E-02    0.5387740952E-02    0.6959978608E+00    0.7229220308E-01    0.4305041743E+00
    0.4500000000E+06    0.6147356249E-02    0.5120211698E-02    0.6959992811E+00    0.7096870453E-01    0.4364908151E+00
    0.4700000000E+06    0.5838059769E-02    0.4872443393E-02    0.6960005832E+00    0.6968306918E-01    0.4421763442E+00
    0.4900000000E+06    0.5551704741E-02    0.4642513188E-02    0.6960017813E+00    0.6843479694E-01    0.4475836125E+00
    0.1000000000E+06    0.2121715523E-01    0.1666170750E-01    0.6958957962E+00    0.9409182568E-01    0.2429736769E+00
    0.3000000000E+06    0.9529769763E-02    0.7795355668E-02    0.6959841375E+00    0.8178247741E-01    0.3821343400E+00
    0.5000000000E+06    0.5416421441E-02    0.4533700451E-02    0.6960023452E+00    0.6782445884E-01    0.4501893906E+00
    0.7000000000E+06    0.3496305731E-02    0.2974683332E-02    0.6960103069E+00    0.5735602296E-01    0.4917200770E+00
    0.9000000000E+06    0.2443662631E-02    0.2105694607E-02    0.6960148017E+00    0.4951496121E-01    0.5198569716E+00
    0.1100000000E+07    0.1804009390E-02    0.1570804204E-02    0.6960177015E+00    0.4348933750E-01    0.5402137560E+00
    0.1300000000E+07    0.1386248726E-02    0.1217767176E-02    0.6960197333E+00    0.3873612451E-01    0.5556347775E+00
    0.1500000000E+07    0.1098398654E-02    0.9723339134E-03    0.6960212394E+00    0.3489981463E-01    0.5677237914E+00
    0.1700000000E+07    0.8916720171E-03    0.7946996472E-03    0.6960224024E+00    0.3174272169E-01    0.5774561131E+00
    0.1900000000E+07    0.7382181260E-03    0.6619356191E-03    0.6960233289E+00    0.2910138881E-01    0.5854597012E+00
    0.2100000000E+07    0.6211918205E-03    0.5600649654E-03    0.6960240851E+00    0.2686026161E-01    0.5921574123E+00
    0.2300000000E+07    0.5299167674E-03    0.4801680385E-03    0.6960247146E+00    0.2493557230E-01    0.5978445178E+00
    0.2500000000E+07    0.4573597106E-03    0.4163325034E-03    0.6960252472E+00    0.2326522266E-01    0.6027334891E+00
    0.2700000000E+07    0.3987341985E-03    0.3645122326E-03    0.6960257040E+00    0.2180225803E-01    0.6069811368E+00
    0.2900000000E+07    0.3506911552E-03    0.3218616847E-03    0.6960261003E+00    0.2051054616E-01    0.6107057244E+00
    0.3100000000E+07    0.3108303645E-03    0.2863319235E-03    0.6960264476E+00    0.1936184598E-01    0.6139981298E+00
    0.3300000000E+07    0.2773952530E-03    0.2564169225E-03    0.6960267544E+00    0.1833377491E-01    0.6169293393E+00
    0.3500000000E+07    0.2490763721E-03    0.2309894475E-03    0.6960270277E+00    0.1740837080E-01    0.6195556075E+00
    0.3700000000E+07    0.2248814798E-03    0.2091920859E-03    0.6960272727E+00    0.1657105597E-01    0.6219220903E+00
    0.3900000000E+07    0.2040476218E-03    0.1903632027E-03    0.6960274936E+00    0.1580987850E-01    0.6240654530E+00
    0.4100000000E+07    0.1859803815E-03    0.1739855832E-03    0.6960276939E+00    0.1511494828E-01    0.6260157756E+00
    0.4300000000E+07    0.1702111096E-03    0.1596501461E-03    0.6960278764E+00    0.1447801197E-01    0.6277979676E+00
    0.4500000000E+07    0.1563663004E-03    0.1470298746E-03    0.6960280434E+00    0.1389212873E-01    0.6294328328E+00
    0.4700000000E+07    0.1441453259E-03    0.1358608015E-03    0.6960281968E+00    0.1335141986E-01    0.6309378812E+00
    0.4900000000E+07    0.1333040200E-03    0.1259279474E-03    0.6960283382E+00    0.1285087360E-01    0.6323279563E+00
    0.1000000000E+07    0.2087549309E-02    0.1808659043E-02    0.6960163921E+00    0.4631457582E-01    0.5307900300E+00
    0.3000000000E+07    0.3298601429E-03    0.3033113000E-03    0.6960262795E+00    0.1991983663E-01    0.6124011165E+00
    0.5000000000E+07    0.1283367971E-03    0.1213686692E-03    0.6960284048E+00    0.1261429378E-01    0.6329839107E+00
    0.7000000000E+07    0.6780241371E-04    0.6528049827E-04    0.6960293521E+00    0.9211900223E-02    0.6423448419E+00
    0.9000000000E+07    0.4188242223E-04    0.4084049488E-04    0.6960298918E+00    0.7247748031E-02    0.6476894481E+00
    0.1100000000E+08    0.2845712395E-04    0.2801366238E-04    0.6960302409E+00    0.5970216357E-02    0.6511437223E+00
    0.1300000000E+08    0.2061831524E-04    0.2044492129E-04    0.6960304851E+00    0.5073360893E-02    0.6535588110E+00
    0.1500000000E+08    0.1564691145E-04    0.1560271095E-04    0.6960306652E+00    0.4409363690E-02    0.6553418032E+00
    0.1700000000E+08    0.1229709826E-04    0.1231570367E-04    0.6960308030E+00    0.3898108251E-02    0.6567118304E+00
    0.1900000000E+08    0.9932839978E-05    0.9980905819E-05    0.6960309116E+00    0.3492419732E-02    0.6577972863E+00
    0.2100000000E+08    0.8201904849E-05    0.8261971733E-05    0.6960309990E+00    0.3162720322E-02    0.6586783710E+00
    0.2300000000E+08    0.6896442789E-05    0.6959161685E-05    0.6960310706E+00    0.2889528202E-02    0.6594077557E+00
    0.2500000000E+08    0.5887382737E-05    0.5947735517E-05    0.6960311301E+00    0.2659490779E-02    0.6600214562E+00
    0.2700000000E+08    0.5091141791E-05    0.5146500305E-05    0.6960311801E+00    0.2463151308E-02    0.6605449315E+00
