  Pressure (Pa) 22mC5-500 (mol/kg) 23mC5-500 (mol/kg) 24mC5-500 (mol/kg) 2mC6-500 (mol/kg) 3mC6-500 (mol/kg)
    0.1000000000E+01    0.1369707903E-04    0.1987906267E-05    0.9950015905E-01    0.3382586531E-04    0.2605288543E-04
    0.3000000000E+01    0.3394991468E-04    0.4932459632E-05    0.2321157393E+00    0.8642365235E-04    0.7814331080E-04
    0.5000000000E+01    0.4934053230E-04    0.7177193593E-05    0.3164794840E+00    0.1294690397E-03    0.1302134036E-03
    0.7000000000E+01    0.6233344041E-04    0.9078429109E-05    0.3748740175E+00    0.1682679982E-03    0.1822632449E-03
    0.9000000000E+01    0.7401263154E-04    0.1079241459E-04    0.4176917613E+00    0.2050024614E-03    0.2342928815E-03
    0.1100000000E+02    0.8491801353E-04    0.1239671801E-04    0.4504324424E+00    0.2406802016E-03    0.2863023457E-03
    0.1300000000E+02    0.9534311731E-04    0.1393336249E-04    0.4762792487E+00    0.2758049581E-03    0.3382916625E-03
    0.1500000000E+02    0.1054582456E-03    0.1542663762E-04    0.4972023392E+00    0.3106427560E-03    0.3902608530E-03
    0.1700000000E+02    0.1153672708E-03    0.1689129854E-04    0.5144864138E+00    0.3453394212E-03    0.4422099360E-03
    0.1900000000E+02    0.1251360946E-03    0.1833666583E-04    0.5290049730E+00    0.3799767015E-03    0.4941389289E-03
    0.2100000000E+02    0.1348078697E-03    0.1976881381E-04    0.5413726514E+00    0.4146007755E-03    0.5460478481E-03
    0.2300000000E+02    0.1444115853E-03    0.2119180194E-04    0.5520345007E+00    0.4492374624E-03    0.5979367096E-03
    0.2500000000E+02    0.1539671250E-03    0.2260839863E-04    0.5613207042E+00    0.4839006675E-03    0.6498055286E-03
    0.2700000000E+02    0.1634883586E-03    0.2402052262E-04    0.5694813913E+00    0.5185972230E-03    0.7016543202E-03
    0.2900000000E+02    0.1729850919E-03    0.2542952058E-04    0.5767095133E+00    0.5533297367E-03    0.7534830993E-03
    0.3100000000E+02    0.1824643299E-03    0.2683634655E-04    0.5831562990E+00    0.5880983027E-03    0.8052918806E-03
    0.3300000000E+02    0.1919311149E-03    0.2824168057E-04    0.5889419537E+00    0.6229015451E-03    0.8570806784E-03
    0.3500000000E+02    0.2013890932E-03    0.2964600875E-04    0.5941632269E+00    0.6577372612E-03    0.9088495073E-03
    0.3700000000E+02    0.2108409065E-03    0.3104967830E-04    0.5988988675E+00    0.6926028205E-03    0.9605983814E-03
    0.3900000000E+02    0.2202884650E-03    0.3245293596E-04    0.6032136242E+00    0.7274954120E-03    0.1012327315E-02
    0.4100000000E+02    0.2297331422E-03    0.3385595512E-04    0.6071612244E+00    0.7624121961E-03    0.1064036322E-02
    0.4300000000E+02    0.2391759144E-03    0.3525885531E-04    0.6107866237E+00    0.7973503961E-03    0.1115725417E-02
    0.4500000000E+02    0.2486174627E-03    0.3666171631E-04    0.6141277258E+00    0.8323073514E-03    0.1167394614E-02
    0.4700000000E+02    0.2580582470E-03    0.3806458847E-04    0.6172167132E+00    0.8672805463E-03    0.1219043927E-02
    0.4900000000E+02    0.2674985621E-03    0.3946750028E-04    0.6200810871E+00    0.9022676227E-03    0.1270673369E-02
    0.1000000000E+02    0.7953984201E-04    0.1160509393E-04    0.4350854665E+00    0.2229343122E-03    0.2603001335E-03
    0.3000000000E+02    0.1777265443E-03    0.2613315723E-04    0.5800224343E+00    0.5707095737E-03    0.7793899888E-03
    0.5000000000E+02    0.2722186009E-03    0.4016897542E-04    0.6214365640E+00    0.9197656737E-03    0.1296480643E-02
    0.7000000000E+02    0.3665987768E-03    0.5419884589E-04    0.6410565372E+00    0.1270003956E-02    0.1811586337E-02
    0.9000000000E+02    0.4608496197E-03    0.6821298314E-04    0.6525028973E+00    0.1619961811E-02    0.2324720863E-02
    0.1100000000E+03    0.5548299032E-03    0.8218854314E-04    0.6600030008E+00    0.1968958544E-02    0.2835897829E-02
    0.1300000000E+03    0.6484372748E-03    0.9610973656E-04    0.6652976581E+00    0.2316658525E-02    0.3345130694E-02
    0.1500000000E+03    0.7416045560E-03    0.1099663935E-03    0.6692350174E+00    0.2662882961E-02    0.3852432783E-02
    0.1700000000E+03    0.8342877130E-03    0.1237519199E-03    0.6722777349E+00    0.3007531178E-02    0.4357817289E-02
    0.1900000000E+03    0.9264575229E-03    0.1374619728E-03    0.6746996437E+00    0.3350544676E-02    0.4861297283E-02
    0.2100000000E+03    0.1018094409E-02    0.1510936599E-03    0.6766731665E+00    0.3691889274E-02    0.5362885708E-02
    0.2300000000E+03    0.1109185247E-02    0.1646450519E-03    0.6783122831E+00    0.4031545566E-02    0.5862595389E-02
    0.2500000000E+03    0.1199721343E-02    0.1781148773E-03    0.6796953581E+00    0.4369503536E-02    0.6360439028E-02
    0.2700000000E+03    0.1289697123E-02    0.1915023255E-03    0.6808780441E+00    0.4705759334E-02    0.6856429211E-02
    0.2900000000E+03    0.1379109257E-02    0.2048069164E-03    0.6819009541E+00    0.5040313296E-02    0.7350578406E-02
    0.3100000000E+03    0.1467956062E-02    0.2180284113E-03    0.6827944203E+00    0.5373168654E-02    0.7842898965E-02
    0.3300000000E+03    0.1556237082E-02    0.2311667509E-03    0.6835815540E+00    0.5704330695E-02    0.8333403127E-02
    0.3500000000E+03    0.1643952787E-02    0.2442220115E-03    0.6842802732E+00    0.6033806181E-02    0.8822103019E-02
    0.3700000000E+03    0.1731104361E-02    0.2571943724E-03    0.6849046842E+00    0.6361602947E-02    0.9309010654E-02
    0.3900000000E+03    0.1817693533E-02    0.2700840931E-03    0.6854660439E+00    0.6687729619E-02    0.9794137937E-02
    0.4100000000E+03    0.1903722463E-02    0.2828914947E-03    0.6859734446E+00    0.7012195402E-02    0.1027749666E-01
    0.4300000000E+03    0.1989193646E-02    0.2956169472E-03    0.6864343105E+00    0.7335009932E-02    0.1075909852E-01
    0.4500000000E+03    0.2074109842E-02    0.3082608587E-03    0.6868547634E+00    0.7656183162E-02    0.1123895510E-01
    0.4700000000E+03    0.2158474022E-02    0.3208236675E-03    0.6872398964E+00    0.7975725274E-02    0.1171707786E-01
    0.4900000000E+03    0.2242289323E-02    0.3333058359E-03    0.6875939814E+00    0.8293646619E-02    0.1219347819E-01
    0.1000000000E+03    0.5078809601E-03    0.7520673240E-04    0.6566066406E+00    0.1794606381E-02    0.2580553196E-02
    0.3000000000E+03    0.1423603379E-02    0.2114280582E-03    0.6823622816E+00    0.5206953010E-02    0.7596966497E-02
    0.5000000000E+03    0.2283992160E-02    0.3395168296E-03    0.6877605312E+00    0.8452002769E-02    0.1243103597E-01
    0.7000000000E+03    0.3090077358E-02    0.4596271949E-03    0.6901010278E+00    0.1153661940E-01    0.1709446534E-01
    0.9000000000E+03    0.3845357197E-02    0.5722725285E-03    0.6914085196E+00    0.1447119700E-01    0.2159794642E-01
    0.1100000000E+04    0.4553400664E-02    0.6779752237E-03    0.6922433168E+00    0.1726566617E-01    0.2595126720E-01
    0.1300000000E+04    0.5217565411E-02    0.7772263411E-03    0.6928225426E+00    0.1992920552E-01    0.3016340610E-01
    0.1500000000E+04    0.5840952861E-02    0.8704793532E-03    0.6932479963E+00    0.2247024952E-01    0.3424261464E-01
    0.1700000000E+04    0.6426412640E-02    0.9581509083E-03    0.6935737466E+00    0.2489654401E-01    0.3819649013E-01
    0.1900000000E+04    0.6976559565E-02    0.1040623360E-02    0.6938311717E+00    0.2721520806E-01    0.4203203981E-01
    0.2100000000E+04    0.7493793384E-02    0.1118247671E-02    0.6940397320E+00    0.2943279295E-01    0.4575573755E-01
    0.2300000000E+04    0.7980318196E-02    0.1191346252E-02    0.6942121378E+00    0.3155533598E-01    0.4937357414E-01
    0.2500000000E+04    0.8438160552E-02    0.1260215614E-02    0.6943570429E+00    0.3358840890E-01    0.5289110195E-01
    0.2700000000E+04    0.8869185972E-02    0.1325128770E-02    0.6944805429E+00    0.3553716131E-01    0.5631347476E-01
    0.2900000000E+04    0.9275113853E-02    0.1386337417E-02    0.6945870557E+00    0.3740635942E-01    0.5964548326E-01
    0.3100000000E+04    0.9657530890E-02    0.1444073889E-02    0.6946798618E+00    0.3920042072E-01    0.6289158684E-01
    0.3300000000E+04    0.1001790312E-01    0.1498552913E-02    0.6947614478E+00    0.4092344505E-01    0.6605594207E-01
    0.3500000000E+04    0.1035758674E-01    0.1549973184E-02    0.6948337330E+00    0.4257924236E-01    0.6914242832E-01
    0.3700000000E+04    0.1067783783E-01    0.1598518786E-02    0.6948982228E+00    0.4417135777E-01    0.7215467074E-01
    0.3900000000E+04    0.1097982106E-01    0.1644360457E-02    0.6949561139E+00    0.4570309398E-01    0.7509606105E-01
    0.4100000000E+04    0.1126461756E-01    0.1687656743E-02    0.6950083704E+00    0.4717753154E-01    0.7796977629E-01
    0.4300000000E+04    0.1153323204E-01    0.1728555021E-02    0.6950557770E+00    0.4859754706E-01    0.8077879577E-01
    0.4500000000E+04    0.1178659911E-01    0.1767192438E-02    0.6950989791E+00    0.4996582974E-01    0.8352591645E-01
    0.4700000000E+04    0.1202558914E-01    0.1803696751E-02    0.6951385126E+00    0.5128489631E-01    0.8621376690E-01
    0.4900000000E+04    0.1225101339E-01    0.1838187085E-02    0.6951748259E+00    0.5255710451E-01    0.8884481995E-01
    0.1000000000E+04    0.4205067740E-02    0.6259601492E-03    0.6918673888E+00    0.1588535352E-01    0.2379279774E-01
    0.3000000000E+04    0.9469166904E-02    0.1415625862E-02    0.6946350012E+00    0.3831251883E-01    0.6127900659E-01
    0.5000000000E+04    0.1235887691E-01    0.1854712049E-02    0.6951918956E+00    0.5317633311E-01    0.9013978051E-01
    0.7000000000E+04    0.1396302753E-01    0.2102862469E-02    0.6954310471E+00    0.6357077160E-01    0.1135565128E+00
    0.9000000000E+04    0.1482248467E-01    0.2239652668E-02    0.6955640757E+00    0.7111395096E-01    0.1332655493E+00
    0.1100000000E+05    0.1522981877E-01    0.2308299125E-02    0.6956488098E+00    0.7673220881E-01    0.1503025073E+00
    0.1300000000E+05    0.1535369267E-01    0.2333827074E-02    0.6957075170E+00    0.8099332734E-01    0.1653279694E+00
    0.1500000000E+05    0.1529618681E-01    0.2331458083E-02    0.6957505975E+00    0.8426438825E-01    0.1787860873E+00
    0.1700000000E+05    0.1512146867E-01    0.2310813344E-02    0.6957835608E+00    0.8679309590E-01    0.1909884423E+00
    0.1900000000E+05    0.1487109150E-01    0.2278161711E-02    0.6958095984E+00    0.8875256524E-01    0.2021613870E+00
    0.2100000000E+05    0.1457259919E-01    0.2237687268E-02    0.6958306868E+00    0.9026736907E-01    0.2124742378E+00
    0.2300000000E+05    0.1424458120E-01    0.2192235964E-02    0.6958481157E+00    0.9142938876E-01    0.2220568291E+00
    0.2500000000E+05    0.1389975247E-01    0.2143771852E-02    0.6958627623E+00    0.9230783713E-01    0.2310108633E+00
    0.2700000000E+05    0.1354688880E-01    0.2093664694E-02    0.6958752441E+00    0.9295580775E-01    0.2394174902E+00
    0.2900000000E+05    0.1319207592E-01    0.2042876182E-02    0.6958860084E+00    0.9341467830E-01    0.2473425135E+00
    0.3100000000E+05    0.1283953401E-01    0.1992083330E-02    0.6958953873E+00    0.9371714576E-01    0.2548400559E+00
    0.3300000000E+05    0.1249217314E-01    0.1941761904E-02    0.6959036323E+00    0.9388936503E-01    0.2619551959E+00
    0.3500000000E+05    0.1215197376E-01    0.1892243816E-02    0.6959109374E+00    0.9395248561E-01    0.2687259020E+00
    0.3700000000E+05    0.1182025142E-01    0.1843757233E-02    0.6959174550E+00    0.9392377513E-01    0.2751844767E+00
    0.3900000000E+05    0.1149784334E-01    0.1796454983E-02    0.6959233060E+00    0.9381745394E-01    0.2813586507E+00
    0.4100000000E+05    0.1118524141E-01    0.1750434911E-02    0.6959285878E+00    0.9364532375E-01    0.2872724249E+00
    0.4300000000E+05    0.1088268796E-01    0.1705754616E-02    0.6959333797E+00    0.9341724751E-01    0.2929467258E+00
    0.4500000000E+05    0.1059024529E-01    0.1662442221E-02    0.6959377469E+00    0.9314151981E-01    0.2983999224E+00
    0.4700000000E+05    0.1030784649E-01    0.1620504298E-02    0.6959417436E+00    0.9282515603E-01    0.3036482380E+00
    0.4900000000E+05    0.1003533284E-01    0.1579931745E-02    0.6959454150E+00    0.9247412031E-01    0.3087060813E+00
    0.1000000000E+05    0.1507008982E-01    0.2280630394E-02    0.6956106707E+00    0.7412217550E-01    0.1420703246E+00
    0.3000000000E+05    0.1301531365E-01    0.2017446620E-02    0.6958908537E+00    0.9358369480E-01    0.2511417159E+00
    0.5000000000E+05    0.9902715206E-02    0.1560151452E-02    0.6959471410E+00    0.9228722216E-01    0.3111676498E+00
    0.7000000000E+05    0.7699997745E-02    0.1228298176E-02    0.6959713324E+00    0.8763973406E-01    0.3529099548E+00
    0.9000000000E+05    0.6151401787E-02    0.9912415945E-03    0.6959848024E+00    0.8246334626E-01    0.3846162533E+00
    0.1100000000E+06    0.5029472382E-02    0.8174086361E-03    0.6959933907E+00    0.7747680437E-01    0.4098879241E+00
    0.1300000000E+06    0.4191536823E-02    0.6862920593E-03    0.6959993466E+00    0.7287526350E-01    0.4306691531E+00
    0.1500000000E+06    0.3548957876E-02    0.5849000315E-03    0.6960037209E+00    0.6869194593E-01    0.4481429120E+00
    0.1700000000E+06    0.3045045445E-02    0.5048074351E-03    0.6960070706E+00    0.6490626956E-01    0.4630866969E+00
    0.1900000000E+06    0.2642309651E-02    0.4403817113E-03    0.6960097185E+00    0.6148111695E-01    0.4760398910E+00
    0.2100000000E+06    0.2315174108E-02    0.3877453690E-03    0.6960118645E+00    0.5837657958E-01    0.4873920284E+00
    0.2300000000E+06    0.2045701416E-02    0.3441578583E-03    0.6960136394E+00    0.5555501429E-01    0.4974333330E+00
    0.2500000000E+06    0.1821003111E-02    0.3076365655E-03    0.6960151318E+00    0.5298268719E-01    0.5063855106E+00
    0.2700000000E+06    0.1631619614E-02    0.2767174513E-03    0.6960164043E+00    0.5063004852E-01    0.5144214448E+00
    0.2900000000E+06    0.1470476813E-02    0.2502996222E-03    0.6960175023E+00    0.4847147540E-01    0.5216782966E+00
    0.3100000000E+06    0.1332196057E-02    0.2275418132E-03    0.6960184595E+00    0.4648483574E-01    0.5282665035E+00
    0.3300000000E+06    0.1212626939E-02    0.2077918483E-03    0.6960193014E+00    0.4465102217E-01    0.5342761290E+00
    0.3500000000E+06    0.1108524125E-02    0.1905375733E-03    0.6960200476E+00    0.4295351598E-01    0.5397814488E+00
    0.3700000000E+06    0.1017319529E-02    0.1753720836E-03    0.6960207136E+00    0.4137800181E-01    0.5448443280E+00
    0.3900000000E+06    0.9369589008E-03    0.1619686647E-03    0.6960213118E+00    0.3991203638E-01    0.5495167527E+00
    0.4100000000E+06    0.8657827766E-03    0.1500624558E-03    0.6960218520E+00    0.3854476783E-01    0.5538427564E+00
    0.4300000000E+06    0.8024385062E-03    0.1394368437E-03    0.6960223422E+00    0.3726669959E-01    0.5578599059E+00
    0.4500000000E+06    0.7458143986E-03    0.1299132387E-03    0.6960227891E+00    0.3606949219E-01    0.5616004616E+00
    0.4700000000E+06    0.6949898329E-03    0.1213433009E-03    0.6960231983E+00    0.3494579712E-01    0.5650922937E+00
    0.4900000000E+06    0.6491970508E-03    0.1136029671E-03    0.6960235742E+00    0.3388911725E-01    0.5683596127E+00
    0.1000000000E+06    0.5547628967E-02    0.8979242143E-03    0.6959895241E+00    0.7992817417E-01    0.3979107044E+00
    0.3000000000E+06    0.1398762519E-02    0.2385077491E-03    0.6960179968E+00    0.4745792366E-01    0.5250499349E+00
    0.5000000000E+06    0.6279820377E-03    0.1100106073E-03    0.6960237510E+00    0.3338408118E-01    0.5699157918E+00
    0.7000000000E+06    0.3553516679E-03    0.6340746569E-04    0.6960262311E+00    0.2569832912E-01    0.5932012697E+00
    0.9000000000E+06    0.2282485506E-03    0.4130043444E-04    0.6960276137E+00    0.2087012686E-01    0.6074913386E+00
    0.1100000000E+07    0.1588734757E-03    0.2907204835E-04    0.6960284954E+00    0.1755937906E-01    0.6171598816E+00
    0.1300000000E+07    0.1169062292E-03    0.2159400366E-04    0.6960291064E+00    0.1514935476E-01    0.6241374858E+00
    0.1500000000E+07    0.8960610292E-04    0.1668474337E-04    0.6960295546E+00    0.1331723496E-01    0.6294101715E+00
    0.1700000000E+07    0.7085907266E-04    0.1328677086E-04    0.6960298970E+00    0.1187782686E-01    0.6335345023E+00
    0.1900000000E+07    0.5743385728E-04    0.1083638413E-04    0.6960301671E+00    0.1071734327E-01    0.6368485394E+00
    0.2100000000E+07    0.4749231804E-04    0.9010514481E-05    0.6960303853E+00    0.9762037811E-02    0.6395695148E+00
    0.2300000000E+07    0.3992628527E-04    0.7613098923E-05    0.6960305651E+00    0.8962028597E-02    0.6418433947E+00
    0.2500000000E+07    0.3403546699E-04    0.6519500002E-05    0.6960307158E+00    0.8282373890E-02    0.6437718898E+00
    0.2700000000E+07    0.2935974065E-04    0.5647382615E-05    0.6960308437E+00    0.7697872016E-02    0.6454280453E+00
    0.2900000000E+07    0.2558670466E-04    0.4940568358E-05    0.6960309535E+00    0.7189890859E-02    0.6468656742E+00
    0.3100000000E+07    0.2249822880E-04    0.4359652352E-05    0.6960310488E+00    0.6744359542E-02    0.6481252947E+00
    0.3300000000E+07    0.1993827598E-04    0.3876327364E-05    0.6960311322E+00    0.6350454067E-02    0.6492379965E+00
    0.3500000000E+07    0.1779284390E-04    0.3469830151E-05    0.6960312057E+00    0.5999712479E-02    0.6502280316E+00
    0.3700000000E+07    0.1597707733E-04    0.3124648840E-05    0.6960312709E+00    0.5685424306E-02    0.6511145960E+00
    0.3900000000E+07    0.1442676464E-04    0.2829004435E-05    0.6960313291E+00    0.5402199997E-02    0.6519130814E+00
    0.4100000000E+07    0.1309259342E-04    0.2573821336E-05    0.6960313813E+00    0.5145661357E-02    0.6526359730E+00
    0.4300000000E+07    0.1193618765E-04    0.2352014749E-05    0.6960314284E+00    0.4912215113E-02    0.6532935043E+00
    0.4500000000E+07    0.1092732205E-04    0.2157988145E-05    0.6960314710E+00    0.4698884672E-02    0.6538941427E+00
    0.4700000000E+07    0.1004193015E-04    0.1987272845E-05    0.6960315097E+00    0.4503183362E-02    0.6544449544E+00
    0.4900000000E+07    0.9260657966E-05    0.1836265550E-05    0.6960315450E+00    0.4323017687E-02    0.6549518831E+00
    0.1000000000E+07    0.1888764287E-03    0.3437815855E-04    0.6960280985E+00    0.1907341995E-01    0.6127507283E+00
    0.3000000000E+07    0.2396782524E-04    0.4636352999E-05    0.6960310028E+00    0.6960059565E-02    0.6475156067E+00
    0.5000000000E+07    0.8904039168E-05    0.1767214236E-05    0.6960315615E+00    0.4238195265E-02    0.6551904954E+00
    0.7000000000E+07    0.4631539828E-05    0.9324123934E-06    0.6960317835E+00    0.3041257316E-02    0.6585544266E+00
    0.9000000000E+07    0.2849090744E-05    0.5782889124E-06    0.6960318943E+00    0.2369149948E-02    0.6604412366E+00
    0.1100000000E+08    0.1938884710E-05    0.3952502624E-06    0.6960319553E+00    0.1939113991E-02    0.6616479816E+00
    0.1300000000E+08    0.1411845526E-05    0.2882750190E-06    0.6960319902E+00    0.1640490106E-02    0.6624858720E+00
    0.1500000000E+08    0.1079246452E-05    0.2202690908E-06    0.6960320098E+00    0.1421110348E-02    0.6631014386E+00
    0.1700000000E+08    0.8557580832E-06    0.1743034348E-06    0.6960320198E+00    0.1253174930E-02    0.6635727090E+00
    0.1900000000E+08    0.6982250935E-06    0.1417489782E-06    0.6960320235E+00    0.1120516850E-02    0.6639450405E+00
    0.2100000000E+08    0.5829135616E-06    0.1178282031E-06    0.6960320229E+00    0.1013095880E-02    0.6642465934E+00
    0.2300000000E+08    0.4958911770E-06    0.9972027756E-07    0.6960320193E+00    0.9243486529E-03    0.6644957735E+00
    0.2500000000E+08    0.4285406428E-06    0.8567156263E-07    0.6960320135E+00    0.8498042407E-03    0.6647051175E+00
    0.2700000000E+08    0.3752986701E-06    0.7454478756E-07    0.6960320061E+00    0.7863122477E-03    0.6648834590E+00
