  Pressure (Pa) 22mC5-500 (mol/kg) 23mC5-500 (mol/kg) 24mC5-500 (mol/kg) 2mC6-500 (mol/kg) 3mC6-500 (mol/kg)
    0.1000000000E+01    0.1424655097E-04    0.6202059969E-05    0.6965332412E-01    0.1750723852E-04    0.2605331813E-04
    0.3000000000E+01    0.3703147713E-04    0.1613150115E-04    0.1741011240E+00    0.4641525098E-04    0.7814715879E-04
    0.5000000000E+01    0.5513287492E-04    0.2403484956E-04    0.2486842292E+00    0.7053431421E-04    0.1302240178E-03
    0.7000000000E+01    0.7046800277E-04    0.3074497470E-04    0.3046101613E+00    0.9199675390E-04    0.1822839543E-03
    0.9000000000E+01    0.8406263649E-04    0.3670665296E-04    0.3481019190E+00    0.1118988607E-03    0.2343270064E-03
    0.1100000000E+02    0.9650890074E-04    0.4217612084E-04    0.3828917973E+00    0.1308463427E-03    0.2863532012E-03
    0.1300000000E+02    0.1081689738E-03    0.4730977945E-04    0.4113541634E+00    0.1491925090E-03    0.3383625601E-03
    0.1500000000E+02    0.1192747257E-03    0.5220753799E-04    0.4350715490E+00    0.1671522796E-03    0.3903551009E-03
    0.1700000000E+02    0.1299801744E-03    0.5693560727E-04    0.4551393435E+00    0.1848607807E-03    0.4423308387E-03
    0.1900000000E+02    0.1403907773E-03    0.6153921299E-04    0.4723398472E+00    0.2024052182E-03    0.4942897877E-03
    0.2100000000E+02    0.1505805985E-03    0.6605003734E-04    0.4872466746E+00    0.2198430404E-03    0.5462319606E-03
    0.2300000000E+02    0.1606027842E-03    0.7049075414E-04    0.5002899917E+00    0.2372126947E-03    0.5981573696E-03
    0.2500000000E+02    0.1704961775E-03    0.7487788890E-04    0.5117987207E+00    0.2545402099E-03    0.6500660264E-03
    0.2700000000E+02    0.1802896211E-03    0.7922367637E-04    0.5220286712E+00    0.2718433376E-03    0.7019579423E-03
    0.2900000000E+02    0.1900048276E-03    0.8353729823E-04    0.5311817861E+00    0.2891342205E-03    0.7538331281E-03
    0.3100000000E+02    0.1996583387E-03    0.8782572636E-04    0.5394196114E+00    0.3064211490E-03    0.8056915946E-03
    0.3300000000E+02    0.2092628882E-03    0.9209430892E-04    0.5468729166E+00    0.3237097369E-03    0.8575333525E-03
    0.3500000000E+02    0.2188283684E-03    0.9634718497E-04    0.5536486912E+00    0.3410037225E-03    0.9093584120E-03
    0.3700000000E+02    0.2283625248E-03    0.1005875823E-03    0.5598353149E+00    0.3583055206E-03    0.9611667836E-03
    0.3900000000E+02    0.2378714641E-03    0.1048180346E-03    0.5655064357E+00    0.3756166085E-03    0.1012958477E-02
    0.4100000000E+02    0.2473600291E-03    0.1090405415E-03    0.5707239164E+00    0.3929377980E-03    0.1064733504E-02
    0.4300000000E+02    0.2568320796E-03    0.1132566888E-03    0.5755401014E+00    0.4102694290E-03    0.1116491872E-02
    0.4500000000E+02    0.2662907047E-03    0.1174677382E-03    0.5799995799E+00    0.4276115083E-03    0.1168233593E-02
    0.4700000000E+02    0.2757383849E-03    0.1216746964E-03    0.5841405705E+00    0.4449638101E-03    0.1219958677E-02
    0.4900000000E+02    0.2851771169E-03    0.1258783681E-03    0.5879960200E+00    0.4623259482E-03    0.1271667133E-02
    0.1000000000E+02    0.9040277425E-04    0.3949144441E-04    0.3664127495E+00    0.1214656434E-03    0.2603422095E-03
    0.3000000000E+02    0.1948384229E-03    0.8568429473E-04    0.5354063081E+00    0.2977777763E-03    0.7797644506E-03
    0.5000000000E+02    0.2898936434E-03    0.1279791781E-03    0.5898257411E+00    0.4710105546E-03    0.1297515128E-02
    0.7000000000E+02    0.3840106612E-03    0.1699234702E-03    0.6166941013E+00    0.6450773603E-03    0.1813604494E-02
    0.9000000000E+02    0.4779452534E-03    0.2118112787E-03    0.6327085446E+00    0.8194773106E-03    0.2328042307E-02
    0.1100000000E+03    0.5717289774E-03    0.2536433404E-03    0.6433412181E+00    0.9938062040E-03    0.2840838165E-02
    0.1300000000E+03    0.6652992299E-03    0.2953866122E-03    0.6509149364E+00    0.1167824239E-02    0.3352001563E-02
    0.1500000000E+03    0.7585927109E-03    0.3370106442E-03    0.6565838706E+00    0.1341388471E-02    0.3861541911E-02
    0.1700000000E+03    0.8515591221E-03    0.3784919744E-03    0.6609864005E+00    0.1514410663E-02    0.4369468538E-02
    0.1900000000E+03    0.9441605992E-03    0.4198132221E-03    0.6645042939E+00    0.1686834494E-02    0.4875790695E-02
    0.2100000000E+03    0.1036368999E-02    0.4609616002E-03    0.6673798743E+00    0.1858623062E-02    0.5380517559E-02
    0.2300000000E+03    0.1128163423E-02    0.5019276827E-03    0.6697743619E+00    0.2029751767E-02    0.5883658234E-02
    0.2500000000E+03    0.1219528335E-02    0.5427044996E-03    0.6717991848E+00    0.2200204076E-02    0.6385221752E-02
    0.2700000000E+03    0.1310452179E-02    0.5832868915E-03    0.6735338247E+00    0.2369968919E-02    0.6885217075E-02
    0.2900000000E+03    0.1400926394E-02    0.6236710499E-03    0.6750364999E+00    0.2539039022E-02    0.7383653091E-02
    0.3100000000E+03    0.1490944691E-02    0.6638541879E-03    0.6763508307E+00    0.2707409808E-02    0.7880538623E-02
    0.3300000000E+03    0.1580502534E-02    0.7038343007E-03    0.6775101448E+00    0.2875078660E-02    0.8375882422E-02
    0.3500000000E+03    0.1669596744E-02    0.7436099902E-03    0.6785403444E+00    0.3042044407E-02    0.8869693172E-02
    0.3700000000E+03    0.1758225213E-02    0.7831803329E-03    0.6794618648E+00    0.3208306963E-02    0.9361979491E-02
    0.3900000000E+03    0.1846386682E-02    0.8225447817E-03    0.6802910448E+00    0.3373867062E-02    0.9852749929E-02
    0.4100000000E+03    0.1934080573E-02    0.8617030898E-03    0.6810411043E+00    0.3538726074E-02    0.1034201297E-01
    0.4300000000E+03    0.2021306855E-02    0.9006552522E-03    0.6817228540E+00    0.3702885857E-02    0.1082977703E-01
    0.4500000000E+03    0.2108065944E-02    0.9394014602E-03    0.6823452212E+00    0.3866348652E-02    0.1131605047E-01
    0.4700000000E+03    0.2194358619E-02    0.9779420651E-03    0.6829156422E+00    0.4029117001E-02    0.1180084158E-01
    0.4900000000E+03    0.2280185962E-02    0.1016277550E-02    0.6834403613E+00    0.4191193685E-02    0.1228415858E-01
    0.1000000000E+03    0.5248594842E-03    0.2327362651E-03    0.6385124728E+00    0.9066685770E-03    0.2584644884E-02
    0.3000000000E+03    0.1445992852E-02    0.6437878877E-03    0.6757149232E+00    0.2623312032E-02    0.7632289119E-02
    0.5000000000E+03    0.2322925541E-02    0.1035368553E-02    0.6836872658E+00    0.4271973574E-02    0.1252526684E-01
    0.7000000000E+03    0.3153706937E-02    0.1406605783E-02    0.6871633876E+00    0.5852051085E-02    0.1727200519E-01
    0.9000000000E+03    0.3940278746E-02    0.1758357173E-02    0.6891105634E+00    0.7366880889E-02    0.2188031111E-01
    0.1100000000E+04    0.4685079859E-02    0.2091695242E-02    0.6903558045E+00    0.8820015732E-02    0.2635742807E-01
    0.1300000000E+04    0.5390553059E-02    0.2407692552E-02    0.6912207651E+00    0.1021486127E-01    0.3071008626E-01
    0.1500000000E+04    0.6059029769E-02    0.2707372089E-02    0.6918566030E+00    0.1155461467E-01    0.3494454753E-01
    0.1700000000E+04    0.6692700746E-02    0.2991694851E-02    0.6923437315E+00    0.1284226025E-01    0.3906664564E-01
    0.1900000000E+04    0.7293612461E-02    0.3261558468E-02    0.6927288724E+00    0.1408057951E-01    0.4308182246E-01
    0.2100000000E+04    0.7863672266E-02    0.3517799562E-02    0.6930410291E+00    0.1527216482E-01    0.4699516052E-01
    0.2300000000E+04    0.8404656602E-02    0.3761197404E-02    0.6932991585E+00    0.1641943368E-01    0.5081141240E-01
    0.2500000000E+04    0.8918220077E-02    0.3992477911E-02    0.6935161748E+00    0.1752464233E-01    0.5453502725E-01
    0.2700000000E+04    0.9405904492E-02    0.4212317615E-02    0.6937011795E+00    0.1858989848E-01    0.5817017481E-01
    0.2900000000E+04    0.9869147447E-02    0.4421347437E-02    0.6938607720E+00    0.1961717298E-01    0.6172076720E-01
    0.3100000000E+04    0.1030929039E-01    0.4620156213E-02    0.6939998538E+00    0.2060831059E-01    0.6519047863E-01
    0.3300000000E+04    0.1072758606E-01    0.4809293951E-02    0.6941221421E+00    0.2156503968E-01    0.6858276341E-01
    0.3500000000E+04    0.1112520531E-01    0.4989274823E-02    0.6942305068E+00    0.2248898117E-01    0.7190087232E-01
    0.3700000000E+04    0.1150324341E-01    0.5160579908E-02    0.6943271989E+00    0.2338165667E-01    0.7514786746E-01
    0.3900000000E+04    0.1186272574E-01    0.5323659706E-02    0.6944140091E+00    0.2424449589E-01    0.7832663597E-01
    0.4100000000E+04    0.1220461312E-01    0.5478936432E-02    0.6944923793E+00    0.2507884339E-01    0.8143990241E-01
    0.4300000000E+04    0.1252980652E-01    0.5626806119E-02    0.6945634841E+00    0.2588596482E-01    0.8449024021E-01
    0.4500000000E+04    0.1283915156E-01    0.5767640544E-02    0.6946282895E+00    0.2666705252E-01    0.8748008210E-01
    0.4700000000E+04    0.1313344245E-01    0.5901788990E-02    0.6946875978E+00    0.2742323076E-01    0.9041172973E-01
    0.4900000000E+04    0.1341342577E-01    0.6029579860E-02    0.6947420803E+00    0.2815556050E-01    0.9328736248E-01
    0.1000000000E+04    0.4317746022E-02    0.1927259960E-02    0.6897948466E+00    0.8100942687E-02    0.2413483609E-01
    0.3000000000E+04    0.1009202613E-01    0.4521994206E-02    0.6939326212E+00    0.2011714826E-01    0.6346551218E-01
    0.5000000000E+04    0.1354827320E-01    0.6091188487E-02    0.6947676924E+00    0.2851309748E-01    0.9470482291E-01
    0.7000000000E+04    0.1564413626E-01    0.7055655780E-02    0.6951266533E+00    0.3462781479E-01    0.1205617913E+00
    0.9000000000E+04    0.1689791763E-01    0.7643751288E-02    0.6953264459E+00    0.3921533774E-01    0.1426150004E+00
    0.1100000000E+05    0.1760953617E-01    0.7988023264E-02    0.6954537630E+00    0.4273180663E-01    0.1618512892E+00
    0.1300000000E+05    0.1796191605E-01    0.8169595287E-02    0.6955420058E+00    0.4546911776E-01    0.1789225168E+00
    0.1500000000E+05    0.1807136123E-01    0.8240244561E-02    0.6956067805E+00    0.4762269572E-01    0.1942788412E+00
    0.1700000000E+05    0.1801432480E-01    0.8234151458E-02    0.6956563570E+00    0.4932831644E-01    0.2082427387E+00
    0.1900000000E+05    0.1784243885E-01    0.8174507114E-02    0.6956955273E+00    0.5068327451E-01    0.2210524410E+00
    0.2100000000E+05    0.1759134701E-01    0.8077403475E-02    0.6957272596E+00    0.5175913533E-01    0.2328886179E+00
    0.2300000000E+05    0.1728609824E-01    0.7954213475E-02    0.6957534910E+00    0.5260972823E-01    0.2438914158E+00
    0.2500000000E+05    0.1694455014E-01    0.7813096060E-02    0.6957755395E+00    0.5327633017E-01    0.2541717043E+00
    0.2700000000E+05    0.1657957774E-01    0.7659975153E-02    0.6957943328E+00    0.5379112786E-01    0.2638187164E+00
    0.2900000000E+05    0.1620054234E-01    0.7499192309E-02    0.6958105432E+00    0.5417959088E-01    0.2729053723E+00
    0.3100000000E+05    0.1581428950E-01    0.7333951285E-02    0.6958246697E+00    0.5446213560E-01    0.2814920716E+00
    0.3300000000E+05    0.1542583994E-01    0.7166626679E-02    0.6958370904E+00    0.5465531605E-01    0.2896294499E+00
    0.3500000000E+05    0.1503887575E-01    0.6998981808E-02    0.6958480972E+00    0.5477269175E-01    0.2973604174E+00
    0.3700000000E+05    0.1465608780E-01    0.6832324834E-02    0.6958579188E+00    0.5482547053E-01    0.3047216929E+00
    0.3900000000E+05    0.1427942702E-01    0.6667622133E-02    0.6958667373E+00    0.5482299196E-01    0.3117449733E+00
    0.4100000000E+05    0.1391028849E-01    0.6505581595E-02    0.6958746991E+00    0.5477309566E-01    0.3184578382E+00
    0.4300000000E+05    0.1354964749E-01    0.6346714479E-02    0.6958819234E+00    0.5468240551E-01    0.3248844577E+00
    0.4500000000E+05    0.1319816119E-01    0.6191381790E-02    0.6958885085E+00    0.5455655139E-01    0.3310461533E+00
    0.4700000000E+05    0.1285624507E-01    0.6039829327E-02    0.6958945356E+00    0.5440034395E-01    0.3369618460E+00
    0.4900000000E+05    0.1252413093E-01    0.5892214391E-02    0.6959000730E+00    0.5421791380E-01    0.3426484181E+00
    0.1000000000E+05    0.1730807064E-01    0.7840417517E-02    0.6953964510E+00    0.4108636093E-01    0.1525386204E+00
    0.3000000000E+05    0.1600796804E-01    0.7416964136E-02    0.6958178409E+00    0.5433298934E-01    0.2772578498E+00
    0.5000000000E+05    0.1236178292E-01    0.5819913591E-02    0.6959026764E+00    0.5411799800E-01    0.3454105761E+00
    0.7000000000E+05    0.9609292325E-02    0.4580846543E-02    0.6959391877E+00    0.5139066563E-01    0.3916041336E+00
    0.9000000000E+05    0.7631171073E-02    0.3675369710E-02    0.6959595403E+00    0.4816703880E-01    0.4256711843E+00
    0.1100000000E+06    0.6188854305E-02    0.3006826090E-02    0.6959725296E+00    0.4500784616E-01    0.4520383929E+00
    0.1300000000E+06    0.5112508506E-02    0.2502818071E-02    0.6959815454E+00    0.4208104851E-01    0.4731261739E+00
    0.1500000000E+06    0.4290748725E-02    0.2114698169E-02    0.6959881724E+00    0.3942513517E-01    0.4904073121E+00
    0.1700000000E+06    0.3650338229E-02    0.1809961826E-02    0.6959932511E+00    0.3703282491E-01    0.5048418039E+00
    0.1900000000E+06    0.3142141722E-02    0.1566534336E-02    0.6959972685E+00    0.3488138612E-01    0.5170868038E+00
    0.2100000000E+06    0.2732407757E-02    0.1369101980E-02    0.6960005268E+00    0.3294433656E-01    0.5276092343E+00
    0.2300000000E+06    0.2397412740E-02    0.1206810717E-02    0.6960032232E+00    0.3119598179E-01    0.5367508395E+00
    0.2500000000E+06    0.2120122578E-02    0.1071810436E-02    0.6960054919E+00    0.2961303822E-01    0.5447679158E+00
    0.2700000000E+06    0.1888067252E-02    0.9583173966E-03    0.6960074275E+00    0.2817504274E-01    0.5518566592E+00
    0.2900000000E+06    0.1691956792E-02    0.8619979134E-03    0.6960090986E+00    0.2686426681E-01    0.5581699204E+00
    0.3100000000E+06    0.1524760086E-02    0.7795548331E-03    0.6960105562E+00    0.2566544687E-01    0.5638286119E+00
    0.3300000000E+06    0.1381079043E-02    0.7084446199E-03    0.6960118389E+00    0.2456546694E-01    0.5689296727E+00
    0.3500000000E+06    0.1256715242E-02    0.6466802345E-03    0.6960129765E+00    0.2355305058E-01    0.5735517511E+00
    0.3700000000E+06    0.1148364584E-02    0.5926914565E-03    0.6960139924E+00    0.2261848419E-01    0.5777593378E+00
    0.3900000000E+06    0.1053398634E-02    0.5452243576E-03    0.6960149052E+00    0.2175337749E-01    0.5816058230E+00
    0.4100000000E+06    0.9697057399E-03    0.5032679057E-03    0.6960157298E+00    0.2095045997E-01    0.5851357913E+00
    0.4300000000E+06    0.8955739750E-03    0.4659996657E-03    0.6960164787E+00    0.2020340985E-01    0.5883867689E+00
    0.4500000000E+06    0.8296038360E-03    0.4327451323E-03    0.6960171617E+00    0.1950671077E-01    0.5913905694E+00
    0.4700000000E+06    0.7706423556E-03    0.4029469267E-03    0.6960177872E+00    0.1885553213E-01    0.5941743428E+00
    0.4900000000E+06    0.7177328492E-03    0.3761412180E-03    0.6960183623E+00    0.1824562902E-01    0.5967614007E+00
    0.1000000000E+06    0.6855289447E-02    0.3316654445E-02    0.6959666801E+00    0.4656420515E-01    0.4396361106E+00
    0.3000000000E+06    0.1605114045E-02    0.8192158104E-03    0.6960098515E+00    0.2625172869E-01    0.5610745424E+00
    0.5000000000E+06    0.6932925792E-03    0.3637366105E-03    0.6960186327E+00    0.1795496848E-01    0.5979875609E+00
    0.7000000000E+06    0.3838486334E-03    0.2051792786E-03    0.6960224353E+00    0.1359985119E-01    0.6158730777E+00
    0.9000000000E+06    0.2431817675E-03    0.1318285599E-03    0.6960245638E+00    0.1093067602E-01    0.6264243185E+00
    0.1100000000E+07    0.1676878948E-03    0.9193032380E-04    0.6960259261E+00    0.9130648414E-02    0.6333824730E+00
    0.1300000000E+07    0.1225651749E-03    0.6782193412E-04    0.6960268735E+00    0.7835928672E-02    0.6383145158E+00
    0.1500000000E+07    0.9347502075E-04    0.5213635828E-04    0.6960275707E+00    0.6860493157E-02    0.6419921796E+00
    0.1700000000E+07    0.7363727752E-04    0.4135476887E-04    0.6960281053E+00    0.6099495275E-02    0.6448395679E+00
    0.1900000000E+07    0.5950937416E-04    0.3362282245E-04    0.6960285281E+00    0.5489395926E-02    0.6471090447E+00
    0.2100000000E+07    0.4909442744E-04    0.2788745399E-04    0.6960288708E+00    0.4989466786E-02    0.6489601551E+00
    0.2300000000E+07    0.4119752346E-04    0.2351435491E-04    0.6960291542E+00    0.4572407083E-02    0.6504986944E+00
    0.2500000000E+07    0.3506823403E-04    0.2010280449E-04    0.6960293923E+00    0.4219236476E-02    0.6517975785E+00
    0.2700000000E+07    0.3021607922E-04    0.1738948222E-04    0.6960295951E+00    0.3916352479E-02    0.6529086924E+00
    0.2900000000E+07    0.2630954087E-04    0.1519553184E-04    0.6960297698E+00    0.3653753370E-02    0.6538699601E+00
    0.3100000000E+07    0.2311804016E-04    0.1339598994E-04    0.6960299218E+00    0.3423921647E-02    0.6547097431E+00
    0.3300000000E+07    0.2047719490E-04    0.1190139373E-04    0.6960300553E+00    0.3221098448E-02    0.6554496742E+00
    0.3500000000E+07    0.1826726483E-04    0.1064632049E-04    0.6960301732E+00    0.3040798097E-02    0.6561065412E+00
    0.3700000000E+07    0.1639936015E-04    0.9582024873E-05    0.6960302783E+00    0.2879474955E-02    0.6566935704E+00
    0.3900000000E+07    0.1480637539E-04    0.8671580503E-05    0.6960303723E+00    0.2734289613E-02    0.6572213232E+00
    0.4100000000E+07    0.1343688525E-04    0.7886597177E-05    0.6960304570E+00    0.2602941530E-02    0.6576983352E+00
    0.4300000000E+07    0.1225094615E-04    0.7204955366E-05    0.6960305335E+00    0.2483547087E-02    0.6581315790E+00
    0.4500000000E+07    0.1121715275E-04    0.6609212886E-05    0.6960306031E+00    0.2374549299E-02    0.6585268068E+00
    0.4700000000E+07    0.1031053853E-04    0.6085464994E-05    0.6960306665E+00    0.2274650009E-02    0.6588888053E+00
    0.4900000000E+07    0.9511054613E-05    0.5622516142E-05    0.6960307245E+00    0.2182758291E-02    0.6592215909E+00
    0.1000000000E+07    0.2002096057E-03    0.1091757122E-03    0.6960253122E+00    0.9950751114E-02    0.6302273018E+00
    0.3000000000E+07    0.2463593581E-04    0.1425272382E-04    0.6960298484E+00    0.3535136133E-02    0.6543035531E+00
    0.5000000000E+07    0.9146284571E-05    0.5410929957E-05    0.6960307517E+00    0.2139521053E-02    0.6593781106E+00
    0.7000000000E+07    0.4783867755E-05    0.2858520594E-05    0.6960311242E+00    0.1531142741E-02    0.6615764341E+00
    0.9000000000E+07    0.2967268437E-05    0.1778938954E-05    0.6960313187E+00    0.1190954575E-02    0.6628028656E+00
    0.1100000000E+08    0.2039396240E-05    0.1221486737E-05    0.6960314324E+00    0.9738304640E-03    0.6635848769E+00
    0.1300000000E+08    0.1501383932E-05    0.8956953429E-06    0.6960315031E+00    0.8233034847E-03    0.6641268173E+00
    0.1500000000E+08    0.1161141393E-05    0.6884647598E-06    0.6960315482E+00    0.7128502254E-03    0.6645244433E+00
    0.1700000000E+08    0.9319138734E-06    0.5482588393E-06    0.6960315770E+00    0.6283721040E-03    0.6648285802E+00
    0.1900000000E+08    0.7698449597E-06    0.4488336180E-06    0.6960315949E+00    0.5616852065E-03    0.6650687037E+00
    0.2100000000E+08    0.6508155016E-06    0.3756670779E-06    0.6960316053E+00    0.5077142600E-03    0.6652630820E+00
    0.2300000000E+08    0.5606627827E-06    0.3201871986E-06    0.6960316101E+00    0.4631452523E-03    0.6654236389E+00
    0.2500000000E+08    0.4906222506E-06    0.2770653240E-06    0.6960316109E+00    0.4257227579E-03    0.6655584874E+00
    0.2700000000E+08    0.4350314036E-06    0.2428453866E-06    0.6960316087E+00    0.3938587170E-03    0.6656733390E+00
