  Pressure (Pa) 22mC5-500 (mol/kg) 23mC5-500 (mol/kg) 24mC5-500 (mol/kg) 2mC6-500 (mol/kg) 3mC6-500 (mol/kg)
    0.1000000000E+01    0.1369693466E-04    0.1987885539E-05    0.9949791533E-01    0.5637597725E-04    0.5210598256E-05
    0.3000000000E+01    0.3394961109E-04    0.4932417059E-05    0.2321046294E+00    0.1440388455E-03    0.1562885264E-04
    0.5000000000E+01    0.4934093520E-04    0.7177255125E-05    0.3164605533E+00    0.2157844531E-03    0.2604320970E-04
    0.7000000000E+01    0.6233548908E-04    0.9078730975E-05    0.3748495072E+00    0.2804561748E-03    0.3645368551E-04
    0.9000000000E+01    0.7401719604E-04    0.1079308286E-04    0.4176635128E+00    0.3416902473E-03    0.4686028932E-04
    0.1100000000E+02    0.8492589929E-04    0.1239786936E-04    0.4504017844E+00    0.4011660432E-03    0.5726302744E-04
    0.1300000000E+02    0.9535508471E-04    0.1393510710E-04    0.4762471104E+00    0.4597229718E-03    0.6766190472E-04
    0.1500000000E+02    0.1054750254E-03    0.1542908142E-04    0.4971693657E+00    0.5178043142E-03    0.7805692525E-04
    0.1700000000E+02    0.1153895749E-03    0.1689454471E-04    0.5144530540E+00    0.5756530576E-03    0.8844809267E-04
    0.1900000000E+02    0.1251646219E-03    0.1834081575E-04    0.5289715398E+00    0.6334054155E-03    0.9883541031E-04
    0.2100000000E+02    0.1348433110E-03    0.1977396768E-04    0.5413393629E+00    0.6911383315E-03    0.1092188813E-03
    0.2300000000E+02    0.1444546257E-03    0.2119805916E-04    0.5520015085E+00    0.7488948260E-03    0.1195985088E-03
    0.2500000000E+02    0.1540184459E-03    0.2261585807E-04    0.5612881128E+00    0.8066980667E-03    0.1299742956E-03
    0.2700000000E+02    0.1635486385E-03    0.2402928274E-04    0.5694492716E+00    0.8645594359E-03    0.1403462447E-03
    0.2900000000E+02    0.1730550073E-03    0.2543967958E-04    0.5766779120E+00    0.9224832770E-03    0.1507143588E-03
    0.3100000000E+02    0.1825445558E-03    0.2684800240E-04    0.5831252450E+00    0.9804697448E-03    0.1610786408E-03
    0.3300000000E+02    0.1920223252E-03    0.2825493109E-04    0.5889114634E+00    0.1038516544E-02    0.1714390935E-03
    0.3500000000E+02    0.2014919609E-03    0.2966095163E-04    0.5941333075E+00    0.1096620003E-02    0.1817957195E-03
    0.3700000000E+02    0.2109561036E-03    0.3106641113E-04    0.5988695193E+00    0.1154775736E-02    0.1921485216E-03
    0.3900000000E+02    0.2204166630E-03    0.3247155620E-04    0.6031848428E+00    0.1212979056E-02    0.2024975026E-03
    0.4100000000E+02    0.2298750118E-03    0.3387656016E-04    0.6071330020E+00    0.1271225231E-02    0.2128426650E-03
    0.4300000000E+02    0.2393321259E-03    0.3528154246E-04    0.6107589498E+00    0.1329509631E-02    0.2231840117E-03
    0.4500000000E+02    0.2487886857E-03    0.3668658279E-04    0.6141005884E+00    0.1387827820E-02    0.2335215452E-03
    0.4700000000E+02    0.2582451505E-03    0.3809173142E-04    0.6171900990E+00    0.1446175604E-02    0.2438552683E-03
    0.4900000000E+02    0.2677018146E-03    0.3949701677E-04    0.6200549823E+00    0.1504549052E-02    0.2541851836E-03
    0.1000000000E+02    0.7954596971E-04    0.1160598962E-04    0.4350558751E+00    0.3715827587E-03    0.5206214126E-04
    0.3000000000E+02    0.1778015307E-03    0.2614405241E-04    0.5799911039E+00    0.9514687836E-03    0.1558969787E-03
    0.5000000000E+02    0.2724302783E-03    0.4019971505E-04    0.6214107086E+00    0.1533744244E-02    0.2593487142E-03
    0.7000000000E+02    0.3670139107E-03    0.5425912431E-04    0.6410349406E+00    0.2118242497E-02    0.3624200631E-03
    0.9000000000E+02    0.4615343851E-03    0.6831241010E-04    0.6524844185E+00    0.2702524054E-02    0.4651136530E-03
    0.1100000000E+03    0.5558498458E-03    0.8233663777E-04    0.6599868600E+00    0.3285452349E-02    0.5674320751E-03
    0.1300000000E+03    0.6498572891E-03    0.9631592418E-04    0.6652833253E+00    0.3866465831E-02    0.6693778921E-03
    0.1500000000E+03    0.7434888794E-03    0.1102400047E-03    0.6692221216E+00    0.4445264327E-02    0.7709536410E-03
    0.1700000000E+03    0.8366999257E-03    0.1241021906E-03    0.6722660077E+00    0.5021677864E-02    0.8721618340E-03
    0.1900000000E+03    0.9294605515E-03    0.1378980447E-03    0.6746888855E+00    0.5595606775E-02    0.9730049593E-03
    0.2100000000E+03    0.1021750532E-02    0.1516245811E-03    0.6766632247E+00    0.6166991934E-02    0.1073485481E-02
    0.2300000000E+03    0.1113556098E-02    0.1652797780E-03    0.6783030387E+00    0.6735798870E-02    0.1173605841E-02
    0.2500000000E+03    0.1204867920E-02    0.1788622720E-03    0.6796867166E+00    0.7302008770E-02    0.1273368458E-02
    0.2700000000E+03    0.1295679792E-02    0.1923711616E-03    0.6808699290E+00    0.7865613130E-02    0.1372775726E-02
    0.2900000000E+03    0.1385987761E-02    0.2058058767E-03    0.6818933027E+00    0.8426610430E-02    0.1471830021E-02
    0.3100000000E+03    0.1475789525E-02    0.2191660894E-03    0.6827871806E+00    0.8985004009E-02    0.1570533692E-02
    0.3300000000E+03    0.1565084014E-02    0.2324516524E-03    0.6835746823E+00    0.9540800643E-02    0.1668889070E-02
    0.3500000000E+03    0.1653871096E-02    0.2456625544E-03    0.6842737326E+00    0.1009400959E-01    0.1766898463E-02
    0.3700000000E+03    0.1742151353E-02    0.2587988886E-03    0.6848984431E+00    0.1064464191E-01    0.1864564158E-02
    0.3900000000E+03    0.1829925921E-02    0.2718608288E-03    0.6854600749E+00    0.1119271002E-01    0.1961888421E-02
    0.4100000000E+03    0.1917196373E-02    0.2848486116E-03    0.6859677241E+00    0.1173822729E-01    0.2058873497E-02
    0.4300000000E+03    0.2003964624E-02    0.2977625231E-03    0.6864288178E+00    0.1228120786E-01    0.2155521611E-02
    0.4500000000E+03    0.2090232858E-02    0.3106028886E-03    0.6868494805E+00    0.1282166639E-01    0.2251834967E-02
    0.4700000000E+03    0.2176003476E-02    0.3233700644E-03    0.6872348072E+00    0.1335961796E-01    0.2347815750E-02
    0.4900000000E+03    0.2261279052E-02    0.3360644315E-03    0.6875890716E+00    0.1389507794E-01    0.2443466125E-02
    0.1000000000E+03    0.5087251613E-03    0.7532930913E-04    0.6565894100E+00    0.2994200932E-02    0.5163195992E-03
    0.3000000000E+03    0.1430952010E-02    0.2124953087E-03    0.6823548420E+00    0.8706132329E-02    0.1521225538E-02
    0.5000000000E+03    0.2303732042E-02    0.3423844364E-03    0.6877557062E+00    0.1416187845E-01    0.2491168080E-02
    0.7000000000E+03    0.3127513548E-02    0.4650669870E-03    0.6900974290E+00    0.1937094172E-01    0.3428374949E-02
    0.9000000000E+03    0.3905270028E-02    0.5809806836E-03    0.6914056373E+00    0.2434888975E-01    0.4334881062E-02
    0.1100000000E+04    0.4640096843E-02    0.6905796151E-03    0.6922409064E+00    0.2911068022E-01    0.5212549295E-02
    0.1300000000E+04    0.5334923656E-02    0.7942930999E-03    0.6928204673E+00    0.3367016318E-01    0.6063088555E-02
    0.1500000000E+04    0.5992464704E-02    0.8925187362E-03    0.6932461719E+00    0.3804007912E-01    0.6888069598E-02
    0.1700000000E+04    0.6615218959E-02    0.9856225521E-03    0.6935721173E+00    0.4223213817E-01    0.7688938920E-02
    0.1900000000E+04    0.7205483342E-02    0.1073940993E-02    0.6938296987E+00    0.4625711144E-01    0.8467030999E-02
    0.2100000000E+04    0.7765369116E-02    0.1157783342E-02    0.6940383871E+00    0.5012491881E-01    0.9223579099E-02
    0.2300000000E+04    0.8296818337E-02    0.1237434140E-02    0.6942109000E+00    0.5384470929E-01    0.9959724845E-02
    0.2500000000E+04    0.8801619324E-02    0.1313155448E-02    0.6943558959E+00    0.5742493349E-01    0.1067652672E-01
    0.2700000000E+04    0.9281420822E-02    0.1385188920E-02    0.6944794739E+00    0.6087340844E-01    0.1137496762E-01
    0.2900000000E+04    0.9737744830E-02    0.1453757684E-02    0.6945860547E+00    0.6419737566E-01    0.1205596161E-01
    0.3100000000E+04    0.1017199815E-01    0.1519068021E-02    0.6946789203E+00    0.6740355297E-01    0.1272035994E-01
    0.3300000000E+04    0.1058548277E-01    0.1581310890E-02    0.6947605590E+00    0.7049818096E-01    0.1336895646E-01
    0.3500000000E+04    0.1097940517E-01    0.1640663282E-02    0.6948328913E+00    0.7348706459E-01    0.1400249247E-01
    0.3700000000E+04    0.1135488475E-01    0.1697289451E-02    0.6948974232E+00    0.7637561057E-01    0.1462166105E-01
    0.3900000000E+04    0.1171296128E-01    0.1751342009E-02    0.6949553525E+00    0.7916886091E-01    0.1522711102E-01
    0.4100000000E+04    0.1205460178E-01    0.1802962919E-02    0.6950076435E+00    0.8187152325E-01    0.1581945051E-01
    0.4300000000E+04    0.1238070656E-01    0.1852284387E-02    0.6950550816E+00    0.8448799810E-01    0.1639925009E-01
    0.4500000000E+04    0.1269211475E-01    0.1899429669E-02    0.6950983126E+00    0.8702240356E-01    0.1696704577E-01
    0.4700000000E+04    0.1298960932E-01    0.1944513798E-02    0.6951378726E+00    0.8947859762E-01    0.1752334157E-01
    0.4900000000E+04    0.1327392158E-01    0.1987644244E-02    0.6951742105E+00    0.9186019846E-01    0.1806861197E-01
    0.1000000000E+04    0.4277861666E-02    0.6365419424E-03    0.6918647642E+00    0.2675591235E-01    0.4777209693E-02
    0.3000000000E+04    0.9957546610E-02    0.1486807879E-02    0.6946340308E+00    0.6581478734E-01    0.1239018433E-01
    0.5000000000E+04    0.1341134976E-01    0.2008508502E-02    0.6951912917E+00    0.9302409606E-01    0.1833725336E-01
    0.7000000000E+04    0.1561219652E-01    0.2344457483E-02    0.6954306080E+00    0.1131095211E+00    0.2322725682E-01
    0.9000000000E+04    0.1705349696E-01    0.2567274426E-02    0.6955637313E+00    0.1285692598E+00    0.2739454041E-01
    0.1100000000E+05    0.1800870106E-01    0.2717322737E-02    0.6956485274E+00    0.1408495533E+00    0.3103977898E-01
    0.1300000000E+05    0.1863981870E-01    0.2818590596E-02    0.6957072786E+00    0.1508467046E+00    0.3429170744E-01
    0.1500000000E+05    0.1904793262E-01    0.2886094055E-02    0.6957503920E+00    0.1591464595E+00    0.3723729902E-01
    0.1700000000E+05    0.1929876368E-01    0.2929629877E-02    0.6957833810E+00    0.1661482302E+00    0.3993779926E-01
    0.1900000000E+05    0.1943649680E-01    0.2955808573E-02    0.6958094392E+00    0.1721340229E+00    0.4243782496E-01
    0.2100000000E+05    0.1949167155E-01    0.2969216755E-02    0.6958305447E+00    0.1773088202E+00    0.4477081129E-01
    0.2300000000E+05    0.1948589062E-01    0.2973112039E-02    0.6958479879E+00    0.1818253324E+00    0.4696242070E-01
    0.2500000000E+05    0.1943473691E-01    0.2969854403E-02    0.6958626466E+00    0.1857997568E+00    0.4903275760E-01
    0.2700000000E+05    0.1934963966E-01    0.2961182688E-02    0.6958751390E+00    0.1893221419E+00    0.5099785401E-01
    0.2900000000E+05    0.1923910162E-01    0.2948396818E-02    0.6958859126E+00    0.1924634011E+00    0.5287069412E-01
    0.3100000000E+05    0.1910952585E-01    0.2932480832E-02    0.6958952997E+00    0.1952801741E+00    0.5466193815E-01
    0.3300000000E+05    0.1896578462E-01    0.2914187726E-02    0.6959035519E+00    0.1978182734E+00    0.5638044492E-01
    0.3500000000E+05    0.1881161834E-01    0.2894099085E-02    0.6959108637E+00    0.2001151735E+00    0.5803365614E-01
    0.3700000000E+05    0.1864991990E-01    0.2872667700E-02    0.6959173872E+00    0.2022018401E+00    0.5962788399E-01
    0.3900000000E+05    0.1848294055E-01    0.2850248483E-02    0.6959232436E+00    0.2041040966E+00    0.6116852959E-01
    0.4100000000E+05    0.1831244085E-01    0.2827121208E-02    0.6959285304E+00    0.2058436577E+00    0.6266025123E-01
    0.4300000000E+05    0.1813980281E-01    0.2803507441E-02    0.6959333268E+00    0.2074389223E+00    0.6410709556E-01
    0.4500000000E+05    0.1796611400E-01    0.2779583280E-02    0.6959376982E+00    0.2089055890E+00    0.6551260118E-01
    0.4700000000E+05    0.1779223143E-01    0.2755489050E-02    0.6959416988E+00    0.2102571379E+00    0.6687988108E-01
    0.4900000000E+05    0.1761883035E-01    0.2731336743E-02    0.6959453739E+00    0.2115052130E+00    0.6821168912E-01
    0.1000000000E+05    0.1757988608E-01    0.2649623306E-02    0.6956103603E+00    0.1350415162E+00    0.2927313225E-01
    0.3000000000E+05    0.1917635840E-01    0.2940778410E-02    0.6958907622E+00    0.1939092643E+00    0.5377592481E-01
    0.5000000000E+05    0.1753248116E-01    0.2719267505E-02    0.6959471015E+00    0.2120936608E+00    0.6886506704E-01
    0.7000000000E+05    0.1591053189E-01    0.2488738810E-02    0.6959713187E+00    0.2203031942E+00    0.8054447638E-01
    0.9000000000E+05    0.1453770361E-01    0.2289579158E-02    0.6959848050E+00    0.2244962479E+00    0.9036265316E-01
    0.1100000000E+06    0.1339030572E-01    0.2120990107E-02    0.6959934050E+00    0.2266763858E+00    0.9897161388E-01
    0.1300000000E+06    0.1242259326E-01    0.1977465219E-02    0.6959993699E+00    0.2277136969E+00    0.1067149868E+00
    0.1500000000E+06    0.1159595968E-01    0.1853944833E-02    0.6960037517E+00    0.2280481320E+00    0.1137992906E+00
    0.1700000000E+06    0.1088101364E-01    0.1746443158E-02    0.6960071077E+00    0.2279259558E+00    0.1203598704E+00
    0.1900000000E+06    0.1025571887E-01    0.1651912533E-02    0.6960097610E+00    0.2274954348E+00    0.1264910505E+00
    0.2100000000E+06    0.9703437450E-02    0.1568020957E-02    0.6960119120E+00    0.2268508552E+00    0.1322616563E+00
    0.2300000000E+06    0.9211437333E-02    0.1492965952E-02    0.6960136912E+00    0.2260547785E+00    0.1377237288E+00
    0.2500000000E+06    0.8769829344E-02    0.1425336331E-02    0.6960151876E+00    0.2251501429E+00    0.1429177518E+00
    0.2700000000E+06    0.8370819804E-02    0.1364012574E-02    0.6960164638E+00    0.2241672375E+00    0.1478759592E+00
    0.2900000000E+06    0.8008182303E-02    0.1308095241E-02    0.6960175653E+00    0.2231279144E+00    0.1526245160E+00
    0.3100000000E+06    0.7676879943E-02    0.1256853134E-02    0.6960185257E+00    0.2220482351E+00    0.1571850114E+00
    0.3300000000E+06    0.7372791376E-02    0.1209685342E-02    0.6960193706E+00    0.2209401897E+00    0.1615755095E+00
    0.3500000000E+06    0.7092509244E-02    0.1166093095E-02    0.6960201197E+00    0.2198128449E+00    0.1658113091E+00
    0.3700000000E+06    0.6833189784E-02    0.1125658628E-02    0.6960207885E+00    0.2186731308E+00    0.1699055048E+00
    0.3900000000E+06    0.6592439113E-02    0.1088029104E-02    0.6960213892E+00    0.2175263906E+00    0.1738694101E+00
    0.4100000000E+06    0.6368226169E-02    0.1052904249E-02    0.6960219319E+00    0.2163767731E+00    0.1777128804E+00
    0.4300000000E+06    0.6158815280E-02    0.1020026729E-02    0.6960224245E+00    0.2152275168E+00    0.1814445655E+00
    0.4500000000E+06    0.5962713374E-02    0.9891745891E-03    0.6960228738E+00    0.2140811592E+00    0.1850721072E+00
    0.4700000000E+06    0.5778628229E-02    0.9601552492E-03    0.6960232851E+00    0.2129396927E+00    0.1886022984E+00
    0.4900000000E+06    0.5605435150E-02    0.9328007000E-03    0.6960236632E+00    0.2118046821E+00    0.1920412099E+00
    0.1000000000E+06    0.1393875795E-01    0.2201798110E-02    0.6959895329E+00    0.2257689551E+00    0.9479240117E-01
    0.3000000000E+06    0.7838890618E-02    0.1281930026E-02    0.6960180614E+00    0.2225922901E+00    0.1549270698E+00
    0.5000000000E+06    0.5522610767E-02    0.9197009666E-03    0.6960238410E+00    0.2112399925E+00    0.1937281614E+00
    0.7000000000E+06    0.4253303924E-02    0.7173541735E-03    0.6960263394E+00    0.2004678449E+00    0.2237517287E+00
    0.9000000000E+06    0.3440172173E-02    0.5859557497E-03    0.6960277369E+00    0.1907896582E+00    0.2485626455E+00
    0.1100000000E+07    0.2871515435E-02    0.4930798402E-03    0.6960286314E+00    0.1821191453E+00    0.2698003971E+00
    0.1300000000E+07    0.2450649992E-02    0.4237338310E-03    0.6960292538E+00    0.1743100507E+00    0.2883885089E+00
    0.1500000000E+07    0.2126514068E-02    0.3699218098E-03    0.6960297123E+00    0.1672310382E+00    0.3049115116E+00
    0.1700000000E+07    0.1869370076E-02    0.3269487099E-03    0.6960300643E+00    0.1607742832E+00    0.3197687048E+00
    0.1900000000E+07    0.1660631842E-02    0.2918591210E-03    0.6960303431E+00    0.1548526067E+00    0.3332479541E+00
    0.2100000000E+07    0.1488043964E-02    0.2626919509E-03    0.6960305697E+00    0.1493952525E+00    0.3455652673E+00
    0.2300000000E+07    0.1343178394E-02    0.2380908570E-03    0.6960307573E+00    0.1443442519E+00    0.3568878163E+00
    0.2500000000E+07    0.1220039115E-02    0.2170858650E-03    0.6960309154E+00    0.1396516032E+00    0.3673481884E+00
    0.2700000000E+07    0.1114239312E-02    0.1989639205E-03    0.6960310505E+00    0.1352771401E+00    0.3770536558E+00
    0.2900000000E+07    0.1022493251E-02    0.1831885707E-03    0.6960311671E+00    0.1311869231E+00    0.3860924513E+00
    0.3100000000E+07    0.9422902066E-03    0.1693481974E-03    0.6960312690E+00    0.1273520179E+00    0.3945381600E+00
    0.3300000000E+07    0.8716783032E-03    0.1571215584E-03    0.6960313586E+00    0.1237475573E+00    0.4024528801E+00
    0.3500000000E+07    0.8091171552E-03    0.1462542066E-03    0.6960314382E+00    0.1203520134E+00    0.4098895527E+00
    0.3700000000E+07    0.7533749479E-03    0.1365419619E-03    0.6960315093E+00    0.1171466257E+00    0.4168937150E+00
    0.3900000000E+07    0.7034550153E-03    0.1278190790E-03    0.6960315732E+00    0.1141149475E+00    0.4235048423E+00
    0.4100000000E+07    0.6585424683E-03    0.1199496193E-03    0.6960316310E+00    0.1112424816E+00    0.4297573934E+00
    0.4300000000E+07    0.6179647451E-03    0.1128210530E-03    0.6960316834E+00    0.1085163859E+00    0.4356816340E+00
    0.4500000000E+07    0.5811620122E-03    0.1063394451E-03    0.6960317313E+00    0.1059252326E+00    0.4413042960E+00
    0.4700000000E+07    0.5476646559E-03    0.1004257842E-03    0.6960317751E+00    0.1034588098E+00    0.4466491085E+00
    0.4900000000E+07    0.5170759538E-03    0.9501314824E-04    0.6960318154E+00    0.1011079568E+00    0.4517372321E+00
    0.1000000000E+07    0.3132853485E-02    0.5358727471E-03    0.6960282283E+00    0.1863376474E+00    0.2595597789E+00
    0.3000000000E+07    0.9810819515E-03    0.1760483897E-03    0.6960312197E+00    0.1292391967E+00    0.3903853218E+00
    0.5000000000E+07    0.5027649217E-03    0.9247655283E-04    0.6960318343E+00    0.9997325945E-01    0.4541910350E+00
    0.7000000000E+07    0.3090025759E-03    0.5781683120E-04    0.6960321005E+00    0.8172008652E-01    0.4934969318E+00
    0.9000000000E+07    0.2099419103E-03    0.3980159395E-04    0.6960322488E+00    0.6915671490E-01    0.5203967803E+00
    0.1100000000E+08    0.1521779638E-03    0.2916081689E-04    0.6960323428E+00    0.5995598844E-01    0.5400323697E+00
    0.1300000000E+08    0.1154580959E-03    0.2232504165E-04    0.6960324075E+00    0.5291853535E-01    0.5550194586E+00
    0.1500000000E+08    0.9063280289E-04    0.1766214071E-04    0.6960324544E+00    0.4735834434E-01    0.5668430497E+00
    0.1700000000E+08    0.7305202724E-04    0.1433427964E-04    0.6960324898E+00    0.4285308869E-01    0.5764129404E+00
    0.1900000000E+08    0.6014116664E-04    0.1187358800E-04    0.6960325172E+00    0.3912798212E-01    0.5843190973E+00
    0.2100000000E+08    0.5037824487E-04    0.1000140780E-04    0.6960325390E+00    0.3599630094E-01    0.5909614252E+00
    0.2300000000E+08    0.4281559560E-04    0.8543074263E-05    0.6960325566E+00    0.3332662609E-01    0.5966208514E+00
    0.2500000000E+08    0.3683766625E-04    0.7384454169E-05    0.6960325710E+00    0.3102373414E-01    0.6015006265E+00
    0.2700000000E+08    0.3203032043E-04    0.6448341475E-05    0.6960325829E+00    0.2901691671E-01    0.6057514937E+00
