  Pressure (Pa) 22mC5-500 (mol/kg) 23mC5-500 (mol/kg) 24mC5-500 (mol/kg) 2mC6-500 (mol/kg) 3mC6-500 (mol/kg)
    0.1000000000E+01    0.1485819708E-04    0.2155824806E-05    0.3666025408E-01    0.4240628967E-04    0.3126304387E-04
    0.3000000000E+01    0.4108121159E-04    0.5962257830E-05    0.9948816959E-01    0.1183605913E-03    0.9376811247E-04
    0.5000000000E+01    0.6373729408E-04    0.9253375808E-05    0.1513729667E+00    0.1854629165E-03    0.1562452048E-03
    0.7000000000E+01    0.8375483346E-04    0.1216381186E-04    0.1949454181E+00    0.2461980019E-03    0.2186943700E-03
    0.9000000000E+01    0.1017754038E-03    0.1478652860E-04    0.2320555189E+00    0.3022539640E-03    0.2811156496E-03
    0.1100000000E+02    0.1182551187E-03    0.1718755839E-04    0.2640421428E+00    0.3548092201E-03    0.3435090798E-03
    0.1300000000E+02    0.1335261236E-03    0.1941494288E-04    0.2918981603E+00    0.4047054312E-03    0.4058746934E-03
    0.1500000000E+02    0.1478353251E-03    0.2150436116E-04    0.3163754327E+00    0.4525556158E-03    0.4682125209E-03
    0.1700000000E+02    0.1613695767E-03    0.2348278816E-04    0.3380537594E+00    0.4988138703E-03    0.5305225906E-03
    0.1900000000E+02    0.1742725160E-03    0.2537093923E-04    0.3573874376E+00    0.5438215560E-03    0.5928049297E-03
    0.2100000000E+02    0.1866560962E-03    0.2718494358E-04    0.3747374789E+00    0.5878386203E-03    0.6550595645E-03
    0.2300000000E+02    0.1986086543E-03    0.2893751453E-04    0.3903943857E+00    0.6310652796E-03    0.7172865203E-03
    0.2500000000E+02    0.2102006629E-03    0.3063878343E-04    0.4045945653E+00    0.6736573069E-03    0.7794858219E-03
    0.2700000000E+02    0.2214889017E-03    0.3229690404E-04    0.4175323626E+00    0.7157369887E-03    0.8416574935E-03
    0.2900000000E+02    0.2325195293E-03    0.3391849732E-04    0.4293690169E+00    0.7574010922E-03    0.9038015590E-03
    0.3100000000E+02    0.2433303754E-03    0.3550898326E-04    0.4402394244E+00    0.7987267384E-03    0.9659180421E-03
    0.3300000000E+02    0.2539526744E-03    0.3707283156E-04    0.4502573074E+00    0.8397757817E-03    0.1028006966E-02
    0.3500000000E+02    0.2644123902E-03    0.3861375319E-04    0.4595192119E+00    0.8805981131E-03    0.1090068354E-02
    0.3700000000E+02    0.2747312404E-03    0.4013484831E-04    0.4681076334E+00    0.9212341762E-03    0.1152102228E-02
    0.3900000000E+02    0.2849274948E-03    0.4163872160E-04    0.4760934831E+00    0.9617169011E-03    0.1214108612E-02
    0.4100000000E+02    0.2950166041E-03    0.4312757295E-04    0.4835380525E+00    0.1002073205E-02    0.1276087529E-02
    0.4300000000E+02    0.3050116993E-03    0.4460326943E-04    0.4904945915E+00    0.1042325161E-02    0.1338039000E-02
    0.4500000000E+02    0.3149239901E-03    0.4606740278E-04    0.4970095857E+00    0.1082490925E-02    0.1399963047E-02
    0.4700000000E+02    0.3247630869E-03    0.4752133565E-04    0.5031237970E+00    0.1122585462E-02    0.1461859694E-02
    0.4900000000E+02    0.3345372607E-03    0.4896623917E-04    0.5088731190E+00    0.1162621132E-02    0.1523728963E-02
    0.1000000000E+02    0.1101847404E-03    0.1601140813E-04    0.2486205521E+00    0.3289101863E-03    0.3123158437E-03
    0.3000000000E+02    0.2379503355E-03    0.3471732957E-04    0.4349174493E+00    0.7781020419E-03    0.9348632469E-03
    0.5000000000E+02    0.3394022732E-03    0.4968562614E-04    0.5116210081E+00    0.1182620158E-02    0.1554653337E-02
    0.7000000000E+02    0.4345947022E-03    0.6378265718E-04    0.5534692918E+00    0.1581209220E-02    0.2171708832E-02
    0.9000000000E+02    0.5275690743E-03    0.7757702892E-04    0.5798256249E+00    0.1978869470E-02    0.2786051547E-02
    0.1100000000E+03    0.6194727969E-03    0.9122681227E-04    0.5979504819E+00    0.2376097748E-02    0.3397702905E-02
    0.1300000000E+03    0.7106849996E-03    0.1047825739E-03    0.6111799830E+00    0.2772639850E-02    0.4006684037E-02
    0.1500000000E+03    0.8013355586E-03    0.1182606128E-03    0.6212618464E+00    0.3168165530E-02    0.4613015827E-02
    0.1700000000E+03    0.8914640207E-03    0.1316651163E-03    0.6292002325E+00    0.3562396131E-02    0.5216718917E-02
    0.1900000000E+03    0.9810756491E-03    0.1449958571E-03    0.6356131818E+00    0.3955117566E-02    0.5817813725E-02
    0.2100000000E+03    0.1070163048E-02    0.1582511046E-03    0.6409019398E+00    0.4346170002E-02    0.6416320447E-02
    0.2300000000E+03    0.1158714947E-02    0.1714287735E-03    0.6453383577E+00    0.4735435218E-02    0.7012259060E-02
    0.2500000000E+03    0.1246719809E-02    0.1845268743E-03    0.6491131636E+00    0.5122826099E-02    0.7605649328E-02
    0.2700000000E+03    0.1334167261E-02    0.1975436756E-03    0.6523641238E+00    0.5508278701E-02    0.8196510808E-02
    0.2900000000E+03    0.1421048561E-02    0.2104777444E-03    0.6551932336E+00    0.5891746426E-02    0.8784862846E-02
    0.3100000000E+03    0.1507356661E-02    0.2233279366E-03    0.6576776206E+00    0.6273195773E-02    0.9370724586E-02
    0.3300000000E+03    0.1593086096E-02    0.2360933685E-03    0.6598766883E+00    0.6652603223E-02    0.9954114972E-02
    0.3500000000E+03    0.1678232812E-02    0.2487733833E-03    0.6618369316E+00    0.7029952940E-02    0.1053505275E-01
    0.3700000000E+03    0.1762793981E-02    0.2613675192E-03    0.6635952623E+00    0.7405235061E-02    0.1111355647E-01
    0.3900000000E+03    0.1846767829E-02    0.2738754797E-03    0.6651813572E+00    0.7778444399E-02    0.1168964448E-01
    0.4100000000E+03    0.1930153485E-02    0.2862971081E-03    0.6666193487E+00    0.8149579464E-02    0.1226333495E-01
    0.4300000000E+03    0.2012950839E-02    0.2986323661E-03    0.6679290610E+00    0.8518641704E-02    0.1283464587E-01
    0.4500000000E+03    0.2095160430E-02    0.3108813151E-03    0.6691269312E+00    0.8885634924E-02    0.1340359502E-01
    0.4700000000E+03    0.2176783350E-02    0.3230441005E-03    0.6702267029E+00    0.9250564819E-02    0.1397020001E-01
    0.4900000000E+03    0.2257821155E-02    0.3351209391E-03    0.6712399561E+00    0.9613438616E-02    0.1453447828E-01
    0.1000000000E+03    0.5736220504E-03    0.8441558512E-04    0.5896554784E+00    0.2177548515E-02    0.3092212318E-02
    0.3000000000E+03    0.1464274638E-02    0.2169133861E-03    0.6564744546E+00    0.6082725070E-02    0.9078103814E-02
    0.5000000000E+03    0.2298121237E-02    0.3411272128E-03    0.6717172682E+00    0.9794107082E-02    0.1481575029E-01
    0.7000000000E+03    0.3074040752E-02    0.4568321785E-03    0.6784735476E+00    0.1330205578E-01    0.2032316077E-01
    0.9000000000E+03    0.3795047482E-02    0.5644649162E-03    0.6822880868E+00    0.1661778691E-01    0.2561658987E-01
    0.1100000000E+04    0.4465005363E-02    0.6645901489E-03    0.6847389826E+00    0.1975446235E-01    0.3071074853E-01
    0.1300000000E+04    0.5087770654E-02    0.7577719068E-03    0.6864467280E+00    0.2272478155E-01    0.3561898442E-01
    0.1500000000E+04    0.5666972749E-02    0.8445410941E-03    0.6877049123E+00    0.2554052718E-01    0.4035343752E-01
    0.1700000000E+04    0.6205960769E-02    0.9253876543E-03    0.6886704584E+00    0.2821250935E-01    0.4492517479E-01
    0.1900000000E+04    0.6707801878E-02    0.1000760340E-02    0.6894348598E+00    0.3075061321E-01    0.4934430716E-01
    0.2100000000E+04    0.7175297028E-02    0.1071069029E-02    0.6900550644E+00    0.3316387391E-01    0.5362009156E-01
    0.2300000000E+04    0.7611002146E-02    0.1136687823E-02    0.6905683737E+00    0.3546055530E-01    0.5776102003E-01
    0.2500000000E+04    0.8017250194E-02    0.1197958276E-02    0.6910002428E+00    0.3764822484E-01    0.6177489799E-01
    0.2700000000E+04    0.8396172298E-02    0.1255192480E-02    0.6913686379E+00    0.3973382209E-01    0.6566891294E-01
    0.2900000000E+04    0.8749717284E-02    0.1308675914E-02    0.6916866014E+00    0.4172372048E-01    0.6944969514E-01
    0.3100000000E+04    0.9079669416E-02    0.1358670033E-02    0.6919638311E+00    0.4362378247E-01    0.7312337119E-01
    0.3300000000E+04    0.9387664372E-02    0.1405414600E-02    0.6922076876E+00    0.4543940884E-01    0.7669561160E-01
    0.3500000000E+04    0.9675203570E-02    0.1449129773E-02    0.6924238583E+00    0.4717558256E-01    0.8017167295E-01
    0.3700000000E+04    0.9943666975E-02    0.1490017972E-02    0.6926168079E+00    0.4883690790E-01    0.8355643552E-01
    0.3900000000E+04    0.1019432456E-01    0.1528265552E-02    0.6927900894E+00    0.5042764530E-01    0.8685443682E-01
    0.4100000000E+04    0.1042834654E-01    0.1564044296E-02    0.6929465662E+00    0.5195174259E-01    0.9006990162E-01
    0.4300000000E+04    0.1064681256E-01    0.1597512750E-02    0.6930885715E+00    0.5341286285E-01    0.9320676885E-01
    0.4500000000E+04    0.1085071987E-01    0.1628817421E-02    0.6932180255E+00    0.5481440942E-01    0.9626871572E-01
    0.4700000000E+04    0.1104099073E-01    0.1658093850E-02    0.6933365229E+00    0.5615954833E-01    0.9925917948E-01
    0.4900000000E+04    0.1121847899E-01    0.1685467580E-02    0.6934453993E+00    0.5745122846E-01    0.1021813770E+00
    0.1000000000E+04    0.4136162466E-02    0.6154301293E-03    0.6836337857E+00    0.1820769344E-01    0.2818771376E-01
    0.3000000000E+04    0.8917536920E-02    0.1334093669E-02    0.6918298022E+00    0.4268463319E-01    0.7129955686E-01
    0.5000000000E+04    0.1130267924E-01    0.1698477644E-02    0.6934965889E+00    0.5807788814E-01    0.1036178253E+00
    0.7000000000E+04    0.1247968585E-01    0.1882945680E-02    0.6942145044E+00    0.6838239264E-01    0.1294027834E+00
    0.9000000000E+04    0.1299954609E-01    0.1968703020E-02    0.6946144937E+00    0.7556772967E-01    0.1508594510E+00
    0.1100000000E+05    0.1314376229E-01    0.1997446349E-02    0.6948695512E+00    0.8071300948E-01    0.1692552298E+00
    0.1300000000E+05    0.1306678525E-01    0.1992184826E-02    0.6950464124E+00    0.8445760607E-01    0.1853772411E+00
    0.1500000000E+05    0.1285796299E-01    0.1966315938E-02    0.6951762841E+00    0.8720378838E-01    0.1997443685E+00
    0.1700000000E+05    0.1257107581E-01    0.1927963912E-02    0.6952757130E+00    0.8921693935E-01    0.2127152609E+00
    0.1900000000E+05    0.1223946789E-01    0.1882208948E-02    0.6953542907E+00    0.9067897781E-01    0.2245475479E+00
    0.2100000000E+05    0.1188425866E-01    0.1832300917E-02    0.6954179609E+00    0.9171860686E-01    0.2354322908E+00
    0.2300000000E+05    0.1151901300E-01    0.1780352114E-02    0.6954706035E+00    0.9242931416E-01    0.2455150334E+00
    0.2500000000E+05    0.1115250256E-01    0.1727748463E-02    0.6955148588E+00    0.9288053964E-01    0.2549092046E+00
    0.2700000000E+05    0.1079039235E-01    0.1675401748E-02    0.6955525863E+00    0.9312485423E-01    0.2637049557E+00
    0.2900000000E+05    0.1043629953E-01    0.1623908695E-02    0.6955851332E+00    0.9320271755E-01    0.2719751679E+00
    0.3100000000E+05    0.1009247376E-01    0.1573653697E-02    0.6956134996E+00    0.9314571578E-01    0.2797796437E+00
    0.3300000000E+05    0.9760243046E-02    0.1524876521E-02    0.6956384439E+00    0.9297881730E-01    0.2871681012E+00
    0.3500000000E+05    0.9440310876E-02    0.1477717686E-02    0.6956605510E+00    0.9272197660E-01    0.2941823570E+00
    0.3700000000E+05    0.9132957010E-02    0.1432249349E-02    0.6956802800E+00    0.9239129599E-01    0.3008579474E+00
    0.3900000000E+05    0.8838174776E-02    0.1388496573E-02    0.6956979956E+00    0.9199988081E-01    0.3072253518E+00
    0.4100000000E+05    0.8555765821E-02    0.1346452131E-02    0.6957139918E+00    0.9155847846E-01    0.3133109314E+00
    0.4300000000E+05    0.8285405965E-02    0.1306086889E-02    0.6957285077E+00    0.9107596227E-01    0.3191376565E+00
    0.4500000000E+05    0.8026691203E-02    0.1267357146E-02    0.6957417402E+00    0.9055970230E-01    0.3247256804E+00
    0.4700000000E+05    0.7779169899E-02    0.1230209831E-02    0.6957538527E+00    0.9001585271E-01    0.3300927937E+00
    0.4900000000E+05    0.7542365322E-02    0.1194586196E-02    0.6957649819E+00    0.8944957674E-01    0.3352547911E+00
    0.1000000000E+05    0.1310693100E-01    0.1988464785E-02    0.6947547199E+00    0.7834819253E-01    0.1603826978E+00
    0.3000000000E+05    0.1026300272E-01    0.1598608682E-02    0.6955997868E+00    0.9318938055E-01    0.2759323079E+00
    0.5000000000E+05    0.7427829936E-02    0.1177326511E-02    0.6957702145E+00    0.8915941591E-01    0.3377633354E+00
    0.7000000000E+05    0.5586602383E-02    0.8971960871E-03    0.6958436247E+00    0.8293527356E-01    0.3799145475E+00
    0.9000000000E+05    0.4354883262E-02    0.7068270611E-03    0.6958845716E+00    0.7682423370E-01    0.4114088972E+00
    0.1100000000E+06    0.3493132581E-02    0.5720180279E-03    0.6959107181E+00    0.7128331145E-01    0.4361628934E+00
    0.1300000000E+06    0.2866465709E-02    0.4730086028E-03    0.6959288745E+00    0.6636391483E-01    0.4562739874E+00
    0.1500000000E+06    0.2396079711E-02    0.3980622099E-03    0.6959422259E+00    0.6201497205E-01    0.4730066542E+00
    0.1700000000E+06    0.2033681500E-02    0.3398964294E-03    0.6959524617E+00    0.5816396924E-01    0.4871839219E+00
    0.1900000000E+06    0.1748358710E-02    0.2938026443E-03    0.6959605615E+00    0.5474056576E-01    0.4993712398E+00
    0.2100000000E+06    0.1519568928E-02    0.2566250579E-03    0.6959671330E+00    0.5168296545E-01    0.5099731182E+00
    0.2300000000E+06    0.1333217220E-02    0.2261822798E-03    0.6959725728E+00    0.4893876798E-01    0.5192882116E+00
    0.2500000000E+06    0.1179363588E-02    0.2009258372E-03    0.6959771513E+00    0.4646410639E-01    0.5275427006E+00
    0.2700000000E+06    0.1050830033E-02    0.1797309193E-03    0.6959810588E+00    0.4422237296E-01    0.5349115186E+00
    0.2900000000E+06    0.9423248846E-03    0.1617638567E-03    0.6959844333E+00    0.4218297537E-01    0.5415323837E+00
    0.3100000000E+06    0.8498756201E-03    0.1463957235E-03    0.6959873774E+00    0.4032025582E-01    0.5475153756E+00
    0.3300000000E+06    0.7704516845E-03    0.1331445453E-03    0.6959899689E+00    0.3861259432E-01    0.5529496518E+00
    0.3500000000E+06    0.7017077494E-03    0.1216357507E-03    0.6959922678E+00    0.3704167947E-01    0.5579082658E+00
    0.3700000000E+06    0.6418052797E-03    0.1115745507E-03    0.6959943212E+00    0.3559192020E-01    0.5624516950E+00
    0.3900000000E+06    0.5892861929E-03    0.1027262932E-03    0.6959961668E+00    0.3424997209E-01    0.5666304678E+00
    0.4100000000E+06    0.5429818888E-03    0.9490225839E-04    0.6959978346E+00    0.3300435539E-01    0.5704871510E+00
    0.4300000000E+06    0.5019467437E-03    0.8794923292E-04    0.6959993494E+00    0.3184514604E-01    0.5740578745E+00
    0.4500000000E+06    0.4654088129E-03    0.8174175353E-04    0.6960007313E+00    0.3076372463E-01    0.5773735147E+00
    0.4700000000E+06    0.4327328241E-03    0.7617626414E-04    0.6960019973E+00    0.2975257149E-01    0.5804606239E+00
    0.4900000000E+06    0.4033920734E-03    0.7116666397E-04    0.6960031613E+00    0.2880509859E-01    0.5833421675E+00
    0.1000000000E+06    0.3887934469E-02    0.6339594313E-03    0.6958989419E+00    0.7397517838E-01    0.4244708233E+00
    0.3000000000E+06    0.8943012815E-03    0.1537879576E-03    0.6959859538E+00    0.4123096743E-01    0.5445976151E+00
    0.5000000000E+06    0.3898320900E-03    0.6884732868E-04    0.6960037089E+00    0.2835340359E-01    0.5847121959E+00
    0.7000000000E+06    0.2176224907E-03    0.3911482492E-04    0.6960114150E+00    0.2156838163E-01    0.6050247760E+00
    0.9000000000E+06    0.1388381666E-03    0.2527643610E-04    0.6960157371E+00    0.1738843062E-01    0.6173143457E+00
    0.1100000000E+07    0.9633296209E-04    0.1771195277E-04    0.6960185085E+00    0.1455753935E-01    0.6255524354E+00
    0.1300000000E+07    0.7081794103E-04    0.1312294527E-04    0.6960204390E+00    0.1251449171E-01    0.6314588444E+00
    0.1500000000E+07    0.5430894383E-04    0.1012743843E-04    0.6960218620E+00    0.1097115997E-01    0.6359003564E+00
    0.1700000000E+07    0.4301537015E-04    0.8062761463E-05    0.6960229549E+00    0.9764517839E-02    0.6393614652E+00
    0.1900000000E+07    0.3494986176E-04    0.6578543704E-05    0.6960238207E+00    0.8795431820E-02    0.6421342478E+00
    0.2100000000E+07    0.2898887846E-04    0.5475250145E-05    0.6960245236E+00    0.8000171481E-02    0.6444052686E+00
    0.2300000000E+07    0.2445838463E-04    0.4632399106E-05    0.6960251056E+00    0.7335909714E-02    0.6462992777E+00
    0.2500000000E+07    0.2093412026E-04    0.3973715446E-05    0.6960255954E+00    0.6772806910E-02    0.6479028520E+00
    0.2700000000E+07    0.1813823290E-04    0.3448983701E-05    0.6960260132E+00    0.6289437625E-02    0.6492779565E+00
    0.2900000000E+07    0.1588258107E-04    0.3024038983E-05    0.6960263738E+00    0.5870021853E-02    0.6504701083E+00
    0.3100000000E+07    0.1403609246E-04    0.2674975152E-05    0.6960266880E+00    0.5502681645E-02    0.6515134930E+00
    0.3300000000E+07    0.1250518262E-04    0.2384654221E-05    0.6960269642E+00    0.5178305937E-02    0.6524342836E+00
    0.3500000000E+07    0.1122158639E-04    0.2140527828E-05    0.6960272088E+00    0.4889789726E-02    0.6532528573E+00
    0.3700000000E+07    0.1013456011E-04    0.1933235653E-05    0.6960274269E+00    0.4631511098E-02    0.6539853153E+00
    0.3900000000E+07    0.9205748439E-05    0.1755679336E-05    0.6960276225E+00    0.4398963695E-02    0.6546445478E+00
    0.4100000000E+07    0.8405723760E-05    0.1602395974E-05    0.6960277988E+00    0.4188493265E-02    0.6552409967E+00
    0.4300000000E+07    0.7711603083E-05    0.1469125278E-05    0.6960279586E+00    0.3997105476E-02    0.6557832097E+00
    0.4500000000E+07    0.7105375475E-05    0.1352504850E-05    0.6960281039E+00    0.3822323481E-02    0.6562782515E+00
    0.4700000000E+07    0.6572707777E-05    0.1249851952E-05    0.6960282367E+00    0.3662080827E-02    0.6567320117E+00
    0.4900000000E+07    0.6102078470E-05    0.1159004810E-05    0.6960283583E+00    0.3514639894E-02    0.6571494393E+00
    0.1000000000E+07    0.1146679306E-03    0.2098561447E-04    0.6960172590E+00    0.1584862143E-01    0.6218033518E+00
    0.3000000000E+07    0.1491474953E-04    0.2841221409E-05    0.6960265361E+00    0.5680466257E-02    0.6510086031E+00
    0.5000000000E+07    0.5887036199E-05    0.1117445843E-05    0.6960284154E+00    0.3445251210E-02    0.6573458631E+00
    0.7000000000E+07    0.3292591175E-05    0.6134078913E-06    0.6960292043E+00    0.2467929977E-02    0.6601109352E+00
    0.9000000000E+07    0.2189051745E-05    0.3975308596E-06    0.6960296249E+00    0.1920637111E-02    0.6616585253E+00
    0.1100000000E+08    0.1612475402E-05    0.2846034010E-06    0.6960298773E+00    0.1571024200E-02    0.6626470812E+00
    0.1300000000E+08    0.1270049309E-05    0.2177030486E-06    0.6960300392E+00    0.1328505427E-02    0.6633329184E+00
    0.1500000000E+08    0.1048010676E-05    0.1745426889E-06    0.6960301471E+00    0.1150477181E-02    0.6638364937E+00
    0.1700000000E+08    0.8945054032E-06    0.1449108893E-06    0.6960302204E+00    0.1014273461E-02    0.6642218676E+00
    0.1900000000E+08    0.7830693633E-06    0.1235786968E-06    0.6960302702E+00    0.9067286123E-03    0.6645262426E+00
    0.2100000000E+08    0.6990042004E-06    0.1076362579E-06    0.6960303036E+00    0.8196738438E-03    0.6647726998E+00
    0.2300000000E+08    0.6335906582E-06    0.9535597188E-07    0.6960303250E+00    0.7477730479E-03    0.6649763161E+00
    0.2500000000E+08    0.5813758808E-06    0.8565751571E-07    0.6960303375E+00    0.6873934446E-03    0.6651473565E+00
    0.2700000000E+08    0.5387987332E-06    0.7783594673E-07    0.6960303432E+00    0.6359764854E-03    0.6652930509E+00
