  Pressure (Pa) 22mC5-500 (mol/kg) 23mC5-500 (mol/kg) 24mC5-500 (mol/kg) 2mC6-500 (mol/kg) 3mC6-500 (mol/kg)
    0.1000000000E+01    0.1857267754E-04    0.2155816953E-05    0.3665985620E-01    0.4846421100E-04    0.2084213568E-04
    0.3000000000E+01    0.5135120628E-04    0.5962223208E-05    0.9948531581E-01    0.1352689142E-03    0.6251303248E-04
    0.5000000000E+01    0.7967138748E-04    0.9253352126E-05    0.1513665275E+00    0.2119581763E-03    0.1041661286E-03
    0.7000000000E+01    0.1046940027E-03    0.1216387097E-04    0.1949350006E+00    0.2813723665E-03    0.1458014557E-03
    0.9000000000E+01    0.1272211616E-03    0.1478675872E-04    0.2320411093E+00    0.3454410617E-03    0.1874190406E-03
    0.1100000000E+02    0.1478230702E-03    0.1718805506E-04    0.2640239174E+00    0.4055111449E-03    0.2290189063E-03
    0.1300000000E+02    0.1669149345E-03    0.1941580438E-04    0.2918763850E+00    0.4625445455E-03    0.2706010739E-03
    0.1500000000E+02    0.1848053911E-03    0.2150568613E-04    0.3163504073E+00    0.5172418442E-03    0.3121655625E-03
    0.1700000000E+02    0.2017280005E-03    0.2348467443E-04    0.3380257887E+00    0.5701219779E-03    0.3537123902E-03
    0.1900000000E+02    0.2178622982E-03    0.2537348329E-04    0.3573568153E+00    0.6215750365E-03    0.3952415741E-03
    0.2100000000E+02    0.2333482129E-03    0.2718824040E-04    0.3747044798E+00    0.6718980644E-03    0.4367531306E-03
    0.2300000000E+02    0.2482961524E-03    0.2894165754E-04    0.3903592627E+00    0.7213198439E-03    0.4782470757E-03
    0.2500000000E+02    0.2627941948E-03    0.3064386457E-04    0.4045575487E+00    0.7700183686E-03    0.5197234249E-03
    0.2700000000E+02    0.2769133033E-03    0.3230301392E-04    0.4174936605E+00    0.8181333648E-03    0.5611821935E-03
    0.2900000000E+02    0.2907111654E-03    0.3392572530E-04    0.4293288169E+00    0.8657753981E-03    0.6026233963E-03
    0.3100000000E+02    0.3042350588E-03    0.3551741760E-04    0.4401978949E+00    0.9130325841E-03    0.6440470481E-03
    0.3300000000E+02    0.3175240179E-03    0.3708255954E-04    0.4502145993E+00    0.9599755939E-03    0.6854531635E-03
    0.3500000000E+02    0.3306104901E-03    0.3862486121E-04    0.4594754606E+00    0.1006661429E-02    0.7268417569E-03
    0.3700000000E+02    0.3435216155E-03    0.4014742199E-04    0.4680629600E+00    0.1053136295E-02    0.7682128426E-03
    0.3900000000E+02    0.3562802255E-03    0.4165284588E-04    0.4760479963E+00    0.1099437815E-02    0.8095664347E-03
    0.4100000000E+02    0.3689056282E-03    0.4314333214E-04    0.4834918498E+00    0.1145596738E-02    0.8509025474E-03
    0.4300000000E+02    0.3814142324E-03    0.4462074731E-04    0.4904477604E+00    0.1191638282E-02    0.8922211947E-03
    0.4500000000E+02    0.3938200461E-03    0.4608668261E-04    0.4969622045E+00    0.1237583188E-02    0.9335223905E-03
    0.4700000000E+02    0.4061350782E-03    0.4754250027E-04    0.5030759364E+00    0.1283448551E-02    0.9748061488E-03
    0.4900000000E+02    0.4183696642E-03    0.4898937100E-04    0.5088248424E+00    0.1329248489E-02    0.1016072483E-02
    0.1000000000E+02    0.1377338603E-03    0.1601175933E-04    0.2486042052E+00    0.3759085048E-03    0.2082211870E-03
    0.3000000000E+02    0.2975047469E-03    0.3472514976E-04    0.4348765647E+00    0.8894473205E-03    0.6233374152E-03
    0.5000000000E+02    0.4244596285E-03    0.4970977237E-04    0.5115725453E+00    0.1352127655E-02    0.1036699121E-02
    0.7000000000E+02    0.5436606462E-03    0.6383134544E-04    0.5534192213E+00    0.1808216709E-02    0.1448320480E-02
    0.9000000000E+02    0.6601574223E-03    0.7765822345E-04    0.5797760953E+00    0.2263424768E-02    0.1858215082E-02
    0.1100000000E+03    0.7753829371E-03    0.9134833044E-04    0.5979022890E+00    0.2718317081E-02    0.2266396266E-02
    0.1300000000E+03    0.8898100836E-03    0.1049521157E-03    0.6111333934E+00    0.3172600941E-02    0.2672877190E-02
    0.1500000000E+03    0.1003600275E-02    0.1184857706E-03    0.6212169067E+00    0.3625896819E-02    0.3077670858E-02
    0.1700000000E+03    0.1116802046E-02    0.1319533786E-03    0.6291568951E+00    0.4077884164E-02    0.3480790129E-02
    0.1900000000E+03    0.1229421098E-02    0.1453546107E-03    0.6355713614E+00    0.4528316240E-02    0.3882247721E-02
    0.2100000000E+03    0.1341447319E-02    0.1586876361E-03    0.6408615384E+00    0.4977008327E-02    0.4282056218E-02
    0.2300000000E+03    0.1452865763E-02    0.1719502701E-03    0.6452992764E+00    0.5423823278E-02    0.4680228068E-02
    0.2500000000E+03    0.1563661166E-02    0.1851404254E-03    0.6490753079E+00    0.5868659513E-02    0.5076775593E-02
    0.2700000000E+03    0.1673819723E-02    0.1982562737E-03    0.6523274058E+00    0.6311441958E-02    0.5471710981E-02
    0.2900000000E+03    0.1783329683E-02    0.2112962865E-03    0.6551575728E+00    0.6752115383E-02    0.5865046297E-02
    0.3100000000E+03    0.1892181420E-02    0.2242592250E-03    0.6576429436E+00    0.7190639550E-02    0.6256793481E-02
    0.3300000000E+03    0.2000367297E-02    0.2371441123E-03    0.6598429287E+00    0.7626985653E-02    0.6646964349E-02
    0.3500000000E+03    0.2107881451E-02    0.2499501996E-03    0.6618040289E+00    0.8061133690E-02    0.7035570595E-02
    0.3700000000E+03    0.2214719564E-02    0.2626769342E-03    0.6635631617E+00    0.8493070508E-02    0.7422623794E-02
    0.3900000000E+03    0.2320878645E-02    0.2753239298E-03    0.6651500092E+00    0.8922788324E-02    0.7808135404E-02
    0.4100000000E+03    0.2426356839E-02    0.2878909413E-03    0.6665887079E+00    0.9350283603E-02    0.8192116763E-02
    0.4300000000E+03    0.2531153256E-02    0.3003778430E-03    0.6678990863E+00    0.9775556194E-02    0.8574579098E-02
    0.4500000000E+03    0.2635267827E-02    0.3127846100E-03    0.6690975850E+00    0.1019860866E-01    0.8955533520E-02
    0.4700000000E+03    0.2738701181E-02    0.3251113028E-03    0.6701979507E+00    0.1061944574E-01    0.9334991027E-02
    0.4900000000E+03    0.2841454539E-02    0.3373580541E-03    0.6712117663E+00    0.1103807397E-01    0.9712962508E-02
    0.1000000000E+03    0.7178882586E-03    0.8451597199E-04    0.5896065614E+00    0.2490923002E-02    0.2062519025E-02
    0.3000000000E+03    0.1837838351E-02    0.2177874568E-03    0.6564392945E+00    0.6971648158E-02    0.6061117664E-02
    0.5000000000E+03    0.2892576742E-02    0.3434515103E-03    0.6716893486E+00    0.1124656220E-01    0.9901394361E-02
    0.7000000000E+03    0.3879947059E-02    0.4611957628E-03    0.6784498685E+00    0.1530283956E-01    0.1359459271E-01
    0.9000000000E+03    0.4803056315E-02    0.5713802520E-03    0.6822672338E+00    0.1915170802E-01    0.1715087988E-01
    0.1100000000E+04    0.5666155994E-02    0.6745026405E-03    0.6847201729E+00    0.2280681233E-01    0.2057947412E-01
    0.1300000000E+04    0.6473559303E-02    0.7710681479E-03    0.6864294788E+00    0.2628143547E-01    0.2388875412E-01
    0.1500000000E+04    0.7229357594E-02    0.8615560080E-03    0.6876889024E+00    0.2958795704E-01    0.2708635344E-01
    0.1700000000E+04    0.7937345421E-02    0.9464106881E-03    0.6886554622E+00    0.3273777038E-01    0.3017924245E-01
    0.1900000000E+04    0.8601011461E-02    0.1026040852E-02    0.6894207117E+00    0.3574132079E-01    0.3317379959E-01
    0.2100000000E+04    0.9223552209E-02    0.1100820981E-02    0.6900416390E+00    0.3860817727E-01    0.3607587368E-01
    0.2300000000E+04    0.9807893346E-02    0.1171093888E-02    0.6905555733E+00    0.4134711060E-01    0.3889083838E-01
    0.2500000000E+04    0.1035671290E-01    0.1237173427E-02    0.6909879897E+00    0.4396616868E-01    0.4162364012E-01
    0.2700000000E+04    0.1087246385E-01    0.1299347147E-02    0.6913568689E+00    0.4647274600E-01    0.4427884028E-01
    0.2900000000E+04    0.1135739526E-01    0.1357878754E-02    0.6916752647E+00    0.4887364658E-01    0.4686065246E-01
    0.3100000000E+04    0.1181357163E-01    0.1413010378E-02    0.6919528832E+00    0.5117514045E-01    0.4937297544E-01
    0.3300000000E+04    0.1224289033E-01    0.1464964609E-02    0.6921970919E+00    0.5338301418E-01    0.5181942249E-01
    0.3500000000E+04    0.1264709739E-01    0.1513946344E-02    0.6924135835E+00    0.5550261603E-01    0.5420334744E-01
    0.3700000000E+04    0.1302780160E-01    0.1560144429E-02    0.6926068269E+00    0.5753889624E-01    0.5652786788E-01
    0.3900000000E+04    0.1338648722E-01    0.1603733146E-02    0.6927803789E+00    0.5949644312E-01    0.5879588596E-01
    0.4100000000E+04    0.1372452530E-01    0.1644873536E-02    0.6929371057E+00    0.6137951528E-01    0.6101010700E-01
    0.4300000000E+04    0.1404318388E-01    0.1683714587E-02    0.6930793429E+00    0.6319207061E-01    0.6317305614E-01
    0.4500000000E+04    0.1434363715E-01    0.1720394305E-02    0.6932090127E+00    0.6493779216E-01    0.6528709341E-01
    0.4700000000E+04    0.1462697363E-01    0.1755040675E-02    0.6933277118E+00    0.6662011156E-01    0.6735442720E-01
    0.4900000000E+04    0.1489420361E-01    0.1787772517E-02    0.6934367771E+00    0.6824222999E-01    0.6937712653E-01
    0.1000000000E+04    0.5241834270E-02    0.6237922226E-03    0.6836140289E+00    0.2100263192E-01    0.1888059644E-01
    0.3000000000E+04    0.1158895552E-01    0.1385855217E-02    0.6918186649E+00    0.5003644691E-01    0.4812526790E-01
    0.5000000000E+04    0.1502207463E-01    0.1803455312E-02    0.6934880566E+00    0.6903165590E-01    0.7037234945E-01
    0.7000000000E+04    0.1692955610E-01    0.2039635720E-02    0.6942073366E+00    0.8228988893E-01    0.8834638936E-01
    0.9000000000E+04    0.1797194641E-01    0.2172239203E-02    0.6946081959E+00    0.9196583239E-01    0.1034727852E+00
    0.1100000000E+05    0.1849558586E-01    0.2242245765E-02    0.6948638689E+00    0.9925620022E-01    0.1165774416E+00
    0.1300000000E+05    0.1869577209E-01    0.2272867541E-02    0.6950411948E+00    0.1048787540E+00    0.1281763628E+00
    0.1500000000E+05    0.1868887714E-01    0.2278004465E-02    0.6951714332E+00    0.1092902150E+00    0.1386111893E+00
    0.1700000000E+05    0.1854727379E-01    0.2266348113E-02    0.6952711610E+00    0.1127951514E+00    0.1481187807E+00
    0.1900000000E+05    0.1831751183E-01    0.2243522452E-02    0.6953499884E+00    0.1156045485E+00    0.1568696207E+00
    0.2100000000E+05    0.1803034066E-01    0.2213267258E-02    0.6954138712E+00    0.1178692416E+00    0.1649902876E+00
    0.2300000000E+05    0.1770650426E-01    0.2178124243E-02    0.6954666977E+00    0.1196999580E+00    0.1725772503E+00
    0.2500000000E+05    0.1736022712E-01    0.2139850991E-02    0.6955111141E+00    0.1211798364E+00    0.1797056876E+00
    0.2700000000E+05    0.1700138254E-01    0.2099679225E-02    0.6955489843E+00    0.1223725241E+00    0.1864353227E+00
    0.2900000000E+05    0.1663688029E-01    0.2058480653E-02    0.6955816586E+00    0.1233275764E+00    0.1928144004E+00
    0.3100000000E+05    0.1627157700E-01    0.2016876146E-02    0.6956101400E+00    0.1240841510E+00    0.1988824684E+00
    0.3300000000E+05    0.1590888620E-01    0.1975309171E-02    0.6956351884E+00    0.1246735959E+00    0.2046723678E+00
    0.3500000000E+05    0.1555119484E-01    0.1934096135E-02    0.6956573906E+00    0.1251212996E+00    0.2102116856E+00
    0.3700000000E+05    0.1520015233E-01    0.1893461469E-02    0.6956772068E+00    0.1254480382E+00    0.2155238354E+00
    0.3900000000E+05    0.1485687411E-01    0.1853562439E-02    0.6956950028E+00    0.1256709713E+00    0.2206288726E+00
    0.4100000000E+05    0.1452208665E-01    0.1814506923E-02    0.6957110733E+00    0.1258043911E+00    0.2255441206E+00
    0.4300000000E+05    0.1419623206E-01    0.1776366290E-02    0.6957256584E+00    0.1258602922E+00    0.2302846557E+00
    0.4500000000E+05    0.1387954417E-01    0.1739184826E-02    0.6957389553E+00    0.1258488102E+00    0.2348636900E+00
    0.4700000000E+05    0.1357210437E-01    0.1702986695E-02    0.6957511281E+00    0.1257785637E+00    0.2392928741E+00
    0.4900000000E+05    0.1327388288E-01    0.1667781120E-02    0.6957623138E+00    0.1256569238E+00    0.2435825413E+00
    0.1000000000E+05    0.1828396737E-01    0.2213329220E-02    0.6947487535E+00    0.9585643279E-01    0.1102403563E+00
    0.3000000000E+05    0.1645408724E-01    0.2037697947E-02    0.6955963712E+00    0.1237285557E+00    0.1958851200E+00
    0.5000000000E+05    0.1312819701E-01    0.1650550311E-02    0.6957675735E+00    0.1255788471E+00    0.2456779744E+00
    0.7000000000E+05    0.1065003920E-01    0.1354416957E-02    0.6958413955E+00    0.1224690883E+00    0.2820568584E+00
    0.9000000000E+05    0.8829249453E-02    0.1133350057E-02    0.6958826085E+00    0.1180078640E+00    0.3109166529E+00
    0.1100000000E+06    0.7457159676E-02    0.9647751445E-03    0.6959089453E+00    0.1132463362E+00    0.3348241829E+00
    0.1300000000E+06    0.6395443802E-02    0.8330771246E-03    0.6959272468E+00    0.1085583196E+00    0.3551739889E+00
    0.1500000000E+06    0.5554768158E-02    0.7279501393E-03    0.6959407136E+00    0.1040845750E+00    0.3728252547E+00
    0.1700000000E+06    0.4876062472E-02    0.6424787511E-03    0.6959510442E+00    0.9987348035E-01    0.3883520422E+00
    0.1900000000E+06    0.4319060395E-02    0.5718955793E-03    0.6959592239E+00    0.9593392852E-01    0.4021602206E+00
    0.2100000000E+06    0.3855506816E-02    0.5128243915E-03    0.6959658638E+00    0.9225753610E-01    0.4145489396E+00
    0.2300000000E+06    0.3465056133E-02    0.4628149416E-03    0.6959713632E+00    0.8882866009E-01    0.4257458355E+00
    0.2500000000E+06    0.3132722525E-02    0.4200500585E-03    0.6959759941E+00    0.8562911222E-01    0.4359285524E+00
    0.2700000000E+06    0.2847247022E-02    0.3831561267E-03    0.6959799483E+00    0.8264041287E-01    0.4452385856E+00
    0.2900000000E+06    0.2600022136E-02    0.3510772099E-03    0.6959833648E+00    0.7984484967E-01    0.4537905628E+00
    0.3100000000E+06    0.2384365523E-02    0.3229894035E-03    0.6959863469E+00    0.7722593820E-01    0.4616786803E+00
    0.3300000000E+06    0.2195018096E-02    0.2982412715E-03    0.6959889730E+00    0.7476857947E-01    0.4689812946E+00
    0.3500000000E+06    0.2027790081E-02    0.2763115962E-03    0.6959913037E+00    0.7245906503E-01    0.4757642784E+00
    0.3700000000E+06    0.1879306802E-02    0.2567788734E-03    0.6959933864E+00    0.7028500778E-01    0.4820835235E+00
    0.3900000000E+06    0.1746823043E-02    0.2392989288E-03    0.6959952591E+00    0.6823524043E-01    0.4879868423E+00
    0.4100000000E+06    0.1628085457E-02    0.2235882541E-03    0.6959969521E+00    0.6629970316E-01    0.4935154344E+00
    0.4300000000E+06    0.1521229194E-02    0.2094114353E-03    0.6959984904E+00    0.6446933205E-01    0.4987050345E+00
    0.4500000000E+06    0.1424699277E-02    0.1965715531E-03    0.6959998943E+00    0.6273595375E-01    0.5035868203E+00
    0.4700000000E+06    0.1337190112E-02    0.1849027719E-03    0.6960011809E+00    0.6109218892E-01    0.5081881404E+00
    0.4900000000E+06    0.1257598478E-02    0.1742645588E-03    0.6960023644E+00    0.5953136512E-01    0.5125331025E+00
    0.1000000000E+06    0.8097188361E-02    0.1043628591E-02    0.6958970810E+00    0.1156330557E+00    0.3233852541E+00
    0.3000000000E+06    0.2488605116E-02    0.3365786114E-03    0.6959849047E+00    0.7851428919E-01    0.4578123797E+00
    0.5000000000E+06    0.1220473070E-02    0.1692937772E-03    0.6960029214E+00    0.5878014498E-01    0.5146162169E+00
    0.7000000000E+06    0.7265297170E-03    0.1025401530E-03    0.6960107722E+00    0.4691116015E-01    0.5469083162E+00
    0.9000000000E+06    0.4823798840E-03    0.6898325754E-04    0.6960151911E+00    0.3900681454E-01    0.5678646606E+00
    0.1100000000E+07    0.3437462659E-03    0.4967931814E-04    0.6960180338E+00    0.3336902444E-01    0.5825916304E+00
    0.1300000000E+07    0.2574495887E-03    0.3753490945E-04    0.6960200203E+00    0.2914673202E-01    0.5935156596E+00
    0.1500000000E+07    0.2000814437E-03    0.2938903440E-04    0.6960214889E+00    0.2586714621E-01    0.6019440158E+00
    0.1700000000E+07    0.1600089859E-03    0.2365486995E-04    0.6960226202E+00    0.2324677043E-01    0.6086451181E+00
    0.1900000000E+07    0.1309138257E-03    0.1946309007E-04    0.6960235191E+00    0.2110533848E-01    0.6141008105E+00
    0.2100000000E+07    0.1091217327E-03    0.1630437225E-04    0.6960242510E+00    0.1932276984E-01    0.6186287714E+00
    0.2300000000E+07    0.9237711292E-04    0.1386396640E-04    0.6960248588E+00    0.1781599789E-01    0.6224470246E+00
    0.2500000000E+07    0.7923276801E-04    0.1193872285E-04    0.6960253718E+00    0.1652573496E-01    0.6257102096E+00
    0.2700000000E+07    0.6872546037E-04    0.1039269622E-04    0.6960258107E+00    0.1540853571E-01    0.6285310707E+00
    0.2900000000E+07    0.6019387487E-04    0.9132090905E-05    0.6960261905E+00    0.1443183935E-01    0.6309937524E+00
    0.3100000000E+07    0.5317175681E-04    0.8090475730E-05    0.6960265225E+00    0.1357076360E-01    0.6331623302E+00
    0.3300000000E+07    0.4732271929E-04    0.7219720460E-05    0.6960268152E+00    0.1280596838E-01    0.6350864591E+00
    0.3500000000E+07    0.4239912921E-04    0.6484254357E-05    0.6960270751E+00    0.1212219495E-01    0.6368052146E+00
    0.3700000000E+07    0.3821541722E-04    0.5857323572E-05    0.6960273076E+00    0.1150724389E-01    0.6383497678E+00
    0.3900000000E+07    0.3463030438E-04    0.5318489232E-05    0.6960275168E+00    0.1095124533E-01    0.6397452884E+00
    0.4100000000E+07    0.3153469602E-04    0.4851917122E-05    0.6960277059E+00    0.1044612860E-01    0.6410123222E+00
    0.4300000000E+07    0.2884326780E-04    0.4445184917E-05    0.6960278778E+00    0.9985230366E-02    0.6421678061E+00
    0.4500000000E+07    0.2648851062E-04    0.4088435276E-05    0.6960280347E+00    0.9563000850E-02    0.6432258276E+00
    0.4700000000E+07    0.2441644629E-04    0.3773764674E-05    0.6960281784E+00    0.9174780693E-02    0.6441981989E+00
    0.4900000000E+07    0.2258349874E-04    0.3494775785E-05    0.6960283106E+00    0.8816629377E-02    0.6450948990E+00
    0.1000000000E+07    0.4042560230E-03    0.5813225158E-04    0.6960167511E+00    0.3597005871E-01    0.5758182267E+00
    0.3000000000E+07    0.5651763039E-04    0.8587267137E-05    0.6960263619E+00    0.1398816783E-01    0.6321114148E+00
    0.5000000000E+07    0.2174533792E-04    0.3366991100E-05    0.6960283727E+00    0.8647761233E-02    0.6455175753E+00
    0.7000000000E+07    0.1161581417E-04    0.1809854777E-05    0.6960292454E+00    0.6247629323E-02    0.6515174389E+00
    0.9000000000E+07    0.7323698599E-05    0.1140383093E-05    0.6960297286E+00    0.4885609430E-02    0.6549165143E+00
    0.1100000000E+08    0.5106122705E-05    0.7911006085E-06    0.6960300315E+00    0.4008663662E-02    0.6571032461E+00
    0.1300000000E+08    0.3809078021E-05    0.5854369061E-06    0.6960302363E+00    0.3397156137E-02    0.6586274343E+00
    0.1500000000E+08    0.2982899424E-05    0.4538427994E-06    0.6960303816E+00    0.2946583885E-02    0.6597502368E+00
    0.1700000000E+08    0.2422764889E-05    0.3643678966E-06    0.6960304883E+00    0.2600901196E-02    0.6606115662E+00
    0.1900000000E+08    0.2024450122E-05    0.3006414907E-06    0.6960305684E+00    0.2327360891E-02    0.6612931144E+00
    0.2100000000E+08    0.1730329528E-05    0.2535604526E-06    0.6960306297E+00    0.2105552244E-02    0.6618457735E+00
    0.2300000000E+08    0.1506412488E-05    0.2177296512E-06    0.6960306769E+00    0.1922094295E-02    0.6623028953E+00
    0.2500000000E+08    0.1331581114E-05    0.1897837418E-06    0.6960307135E+00    0.1767850712E-02    0.6626872464E+00
    0.2700000000E+08    0.1192143751E-05    0.1675334737E-06    0.6960307419E+00    0.1636371193E-02    0.6630148969E+00
