  Pressure (Pa) 22mC5-500 (mol/kg) 23mC5-500 (mol/kg) 24mC5-500 (mol/kg) 2mC6-500 (mol/kg) 3mC6-500 (mol/kg)
    0.1000000000E+01    0.1780840347E-04    0.9303203682E-05    0.6965278341E-01    0.1750749311E-04    0.5210790020E-05
    0.3000000000E+01    0.4629162069E-04    0.2419845335E-04    0.1740978552E+00    0.4641784942E-04    0.1563056896E-04
    0.5000000000E+01    0.6892295232E-04    0.3605589403E-04    0.2486777614E+00    0.7054200597E-04    0.2604796148E-04
    0.7000000000E+01    0.8809909914E-04    0.4612489610E-04    0.3046007321E+00    0.9201238585E-04    0.3646297846E-04
    0.9000000000E+01    0.1051022987E-03    0.5507263307E-04    0.3480899329E+00    0.1119252834E-03    0.4687562657E-04
    0.1100000000E+02    0.1206726951E-03    0.6328345328E-04    0.3828776600E+00    0.1308863890E-03    0.5728591035E-04
    0.1300000000E+02    0.1352629930E-03    0.7099194884E-04    0.4113382344E+00    0.1492489912E-03    0.6769383311E-04
    0.1500000000E+02    0.1491630124E-03    0.7834797436E-04    0.4350541326E+00    0.1672279923E-03    0.7809939745E-04
    0.1700000000E+02    0.1625652607E-03    0.8545083813E-04    0.4551206933E+00    0.1849585041E-03    0.8850260552E-04
    0.1900000000E+02    0.1756015470E-03    0.9236837210E-04    0.4723201728E+00    0.2025277210E-03    0.9890345916E-04
    0.2100000000E+02    0.1883644410E-03    0.9914809408E-04    0.4872261496E+00    0.2199930819E-03    0.1093019600E-03
    0.2300000000E+02    0.2009203664E-03    0.1058240102E-03    0.5002687601E+00    0.2373930266E-03    0.1196981096E-03
    0.2500000000E+02    0.2133178699E-03    0.1124209049E-03    0.5117769021E+00    0.2547535778E-03    0.1300919093E-03
    0.2700000000E+02    0.2255929984E-03    0.1189571269E-03    0.5220063658E+00    0.2720924815E-03    0.1404833605E-03
    0.2900000000E+02    0.2377728871E-03    0.1254464459E-03    0.5311590778E+00    0.2894218759E-03    0.1508724644E-03
    0.3100000000E+02    0.2498782079E-03    0.1318993171E-03    0.5393965709E+00    0.3067500470E-03    0.1612592222E-03
    0.3300000000E+02    0.2619248739E-03    0.1383237604E-03    0.5468496038E+00    0.3240826052E-03    0.1716436351E-03
    0.3500000000E+02    0.2739252461E-03    0.1447259822E-03    0.5536251569E+00    0.3414232850E-03    0.1820257044E-03
    0.3700000000E+02    0.2858890028E-03    0.1511108223E-03    0.5598116025E+00    0.3587744981E-03    0.1924054310E-03
    0.3900000000E+02    0.2978237735E-03    0.1574820792E-03    0.5654825823E+00    0.3761377186E-03    0.2027828162E-03
    0.4100000000E+02    0.3097356086E-03    0.1638427510E-03    0.5706999537E+00    0.3935137554E-03    0.2131578610E-03
    0.4300000000E+02    0.3216293294E-03    0.1701952142E-03    0.5755160568E+00    0.4109029454E-03    0.2235305665E-03
    0.4500000000E+02    0.3335087942E-03    0.1765413599E-03    0.5799754769E+00    0.4283052927E-03    0.2339009339E-03
    0.4700000000E+02    0.3453771007E-03    0.1828826966E-03    0.5841164296E+00    0.4457205687E-03    0.2442689642E-03
    0.4900000000E+02    0.3572367417E-03    0.1892204299E-03    0.5879718587E+00    0.4631483845E-03    0.2546346584E-03
    0.1000000000E+02    0.1130334227E-03    0.5925295518E-04    0.3663996395E+00    0.1214985252E-03    0.5208106377E-04
    0.3000000000E+02    0.2438337785E-03    0.1286768875E-03    0.5353834255E+00    0.2980857118E-03    0.1560661365E-03
    0.5000000000E+02    0.3631639568E-03    0.1923882546E-03    0.5898015755E+00    0.4718668428E-03    0.2598166298E-03
    0.7000000000E+02    0.4815729716E-03    0.2557061577E-03    0.6166703555E+00    0.6467519744E-03    0.3633336734E-03
    0.9000000000E+02    0.6000028061E-03    0.3190703277E-03    0.6326856236E+00    0.8222376118E-03    0.4666183071E-03
    0.1100000000E+03    0.7184903128E-03    0.3824805116E-03    0.6433191889E+00    0.9979169998E-03    0.5696715482E-03
    0.1300000000E+03    0.8369546860E-03    0.4458858089E-03    0.6508937656E+00    0.1173547802E-02    0.6724944025E-03
    0.1500000000E+03    0.9553142765E-03    0.5092392222E-03    0.6565634955E+00    0.1348984556E-02    0.7750878674E-03
    0.1700000000E+03    0.1073503711E-02    0.5725042485E-03    0.6609667535E+00    0.1524136530E-02    0.8774529330E-03
    0.1900000000E+03    0.1191473184E-02    0.6356535198E-03    0.6644853110E+00    0.1698944929E-02    0.9795905829E-03
    0.2100000000E+03    0.1309185065E-02    0.6986665713E-03    0.6673614974E+00    0.1873370403E-02    0.1081501794E-02
    0.2300000000E+03    0.1426610806E-02    0.7615279924E-03    0.6697565393E+00    0.2047385924E-02    0.1183187539E-02
    0.2500000000E+03    0.1543728581E-02    0.8242260695E-03    0.6717818709E+00    0.2220972559E-02    0.1284648782E-02
    0.2700000000E+03    0.1660521570E-02    0.8867518176E-03    0.6735169792E+00    0.2394116862E-02    0.1385886482E-02
    0.2900000000E+03    0.1776976718E-02    0.9490982909E-03    0.6750200873E+00    0.2566809202E-02    0.1486901593E-02
    0.3100000000E+03    0.1893083836E-02    0.1011260089E-02    0.6763348193E+00    0.2739042674E-02    0.1587695063E-02
    0.3300000000E+03    0.2008834946E-02    0.1073232996E-02    0.6774945067E+00    0.2910812355E-02    0.1688267835E-02
    0.3500000000E+03    0.2124223794E-02    0.1135013720E-02    0.6785250544E+00    0.3082114789E-02    0.1788620845E-02
    0.3700000000E+03    0.2239245489E-02    0.1196599692E-02    0.6794469006E+00    0.3252947630E-02    0.1888755024E-02
    0.3900000000E+03    0.2353896222E-02    0.1257988921E-02    0.6802763862E+00    0.3423309377E-02    0.1988671298E-02
    0.4100000000E+03    0.2468173057E-02    0.1319179878E-02    0.6810267330E+00    0.3593199182E-02    0.2088370586E-02
    0.4300000000E+03    0.2582073768E-02    0.1380171407E-02    0.6817087537E+00    0.3762616711E-02    0.2187853805E-02
    0.4500000000E+03    0.2695596707E-02    0.1440962661E-02    0.6823313767E+00    0.3931562035E-02    0.2287121862E-02
    0.4700000000E+03    0.2808740707E-02    0.1501553043E-02    0.6829020399E+00    0.4100035548E-02    0.2386175662E-02
    0.4900000000E+03    0.2921504996E-02    0.1561942166E-02    0.6834269887E+00    0.4268037901E-02    0.2485016105E-02
    0.1000000000E+03    0.6592438985E-03    0.3507727326E-03    0.6384899983E+00    0.9100711833E-03    0.5181737886E-03
    0.3000000000E+03    0.1835074324E-02    0.9802025619E-03    0.6756987149E+00    0.2652983644E-02    0.1537325974E-02
    0.5000000000E+03    0.2977744599E-02    0.1592061181E-02    0.6836740036E+00    0.4351862656E-02    0.2534356596E-02
    0.7000000000E+03    0.4082624613E-02    0.2183891255E-02    0.6871518762E+00    0.6003910468E-02    0.3510180948E-02
    0.9000000000E+03    0.5150163873E-02    0.2755942660E-02    0.6891002433E+00    0.7610477519E-02    0.4465662339E-02
    0.1100000000E+04    0.6181624840E-02    0.3308887864E-02    0.6903463626E+00    0.9173318264E-02    0.5401615871E-02
    0.1300000000E+04    0.7178445961E-02    0.3843488956E-02    0.6912120053E+00    0.1069420793E-01    0.6318811821E-02
    0.1500000000E+04    0.8142079646E-02    0.4360513827E-02    0.6918483931E+00    0.1217486364E-01    0.7217978725E-02
    0.1700000000E+04    0.9073939751E-02    0.4860709236E-02    0.6923359771E+00    0.1361692471E-01    0.8099806216E-02
    0.1900000000E+04    0.9975383005E-02    0.5344791393E-02    0.6927215038E+00    0.1502194894E-01    0.8964947621E-02
    0.2100000000E+04    0.1084770301E-01    0.5813442989E-02    0.6930339925E+00    0.1639141427E-01    0.9814022358E-02
    0.2300000000E+04    0.1169212944E-01    0.6267312883E-02    0.6932924117E+00    0.1772672221E-01    0.1064761814E-01
    0.2500000000E+04    0.1250982956E-01    0.6707016962E-02    0.6935096839E+00    0.1902920189E-01    0.1146629302E-01
    0.2700000000E+04    0.1330191073E-01    0.7133139502E-02    0.6936949168E+00    0.2030011426E-01    0.1227057726E-01
    0.2900000000E+04    0.1406942336E-01    0.7546234743E-02    0.6938547144E+00    0.2154065615E-01    0.1306097505E-01
    0.3100000000E+04    0.1481336396E-01    0.7946828515E-02    0.6939939821E+00    0.2275196413E-01    0.1383796616E-01
    0.3300000000E+04    0.1553467820E-01    0.8335419855E-02    0.6941164397E+00    0.2393511817E-01    0.1460200739E-01
    0.3500000000E+04    0.1623426384E-01    0.8712482564E-02    0.6942249594E+00    0.2509114510E-01    0.1535353397E-01
    0.3700000000E+04    0.1691297357E-01    0.9078466686E-02    0.6943217944E+00    0.2622102177E-01    0.1609296082E-01
    0.3900000000E+04    0.1757161763E-01    0.9433799915E-02    0.6944087366E+00    0.2732567805E-01    0.1682068377E-01
    0.4100000000E+04    0.1821096634E-01    0.9778888909E-02    0.6944872294E+00    0.2840599962E-01    0.1753708065E-01
    0.4300000000E+04    0.1883175243E-01    0.1011412053E-01    0.6945584484E+00    0.2946283056E-01    0.1824251231E-01
    0.4500000000E+04    0.1943467323E-01    0.1043986299E-01    0.6946233607E+00    0.3049697574E-01    0.1893732360E-01
    0.4700000000E+04    0.2002039275E-01    0.1075646695E-01    0.6946827691E+00    0.3150920310E-01    0.1962184425E-01
    0.4900000000E+04    0.2058954358E-01    0.1106426652E-01    0.6947373457E+00    0.3250024574E-01    0.2029638973E-01
    0.1000000000E+04    0.5670315599E-02    0.3034756574E-02    0.6897849957E+00    0.8397251807E-02    0.4936030932E-02
    0.3000000000E+04    0.1444427990E-01    0.7748062513E-02    0.6939266588E+00    0.2214989559E-01    0.1345111737E-01
    0.5000000000E+04    0.2086809527E-01    0.1121496478E-01    0.6947630028E+00    0.3298804284E-01    0.2063001664E-01
    0.7000000000E+04    0.2570175509E-01    0.1383670043E-01    0.6951226556E+00    0.4178636326E-01    0.2684583578E-01
    0.9000000000E+04    0.2941647144E-01    0.1586233875E-01    0.6953229000E+00    0.4909786505E-01    0.3233955335E-01
    0.1100000000E+05    0.3231815173E-01    0.1745379888E-01    0.6954505422E+00    0.5528955464E-01    0.3727445427E-01
    0.1300000000E+05    0.3461333650E-01    0.1872056472E-01    0.6955390336E+00    0.6061487382E-01    0.4176555352E-01
    0.1500000000E+05    0.3644609794E-01    0.1973912286E-01    0.6956040065E+00    0.6525469265E-01    0.4589650189E-01
    0.1700000000E+05    0.3791972665E-01    0.2056439541E-01    0.6956537460E+00    0.6934170934E-01    0.4972979761E-01
    0.1900000000E+05    0.3911002486E-01    0.2123675327E-01    0.6956930534E+00    0.7297560296E-01    0.5331321752E-01
    0.2100000000E+05    0.4007375200E-01    0.2178647567E-01    0.6957249033E+00    0.7623278848E-01    0.5668401336E-01
    0.2300000000E+05    0.4085415885E-01    0.2223667468E-01    0.6957512369E+00    0.7917289452E-01    0.5987173455E-01
    0.2500000000E+05    0.4148471254E-01    0.2260526549E-01    0.6957733753E+00    0.8184318233E-01    0.6290017779E-01
    0.2700000000E+05    0.4199166372E-01    0.2290632537E-01    0.6957922487E+00    0.8428163226E-01    0.6578876531E-01
    0.2900000000E+05    0.4239585290E-01    0.2315105087E-01    0.6958085310E+00    0.8651914516E-01    0.6855353937E-01
    0.3100000000E+05    0.4271400540E-01    0.2334844455E-01    0.6958227224E+00    0.8858114201E-01    0.7120789307E-01
    0.3300000000E+05    0.4295967526E-01    0.2350581605E-01    0.6958352023E+00    0.9048874588E-01    0.7376311633E-01
    0.3500000000E+05    0.4314394358E-01    0.2362915317E-01    0.6958462632E+00    0.9225966850E-01    0.7622880980E-01
    0.3700000000E+05    0.4327594234E-01    0.2372340052E-01    0.6958561346E+00    0.9390888448E-01    0.7861320290E-01
    0.3900000000E+05    0.4336325222E-01    0.2379267123E-01    0.6958649991E+00    0.9544915039E-01    0.8092340121E-01
    0.4100000000E+05    0.4341220810E-01    0.2384040984E-01    0.6958730036E+00    0.9689140902E-01    0.8316558108E-01
    0.4300000000E+05    0.4342813616E-01    0.2386951875E-01    0.6958802678E+00    0.9824510758E-01    0.8534514421E-01
    0.4500000000E+05    0.4341553963E-01    0.2388245743E-01    0.6958868900E+00    0.9951845042E-01    0.8746684174E-01
    0.4700000000E+05    0.4337824567E-01    0.2388132096E-01    0.6958929520E+00    0.1007186017E+00    0.8953487458E-01
    0.4900000000E+05    0.4331952235E-01    0.2386790259E-01    0.6958985222E+00    0.1018518494E+00    0.9155297530E-01
    0.1000000000E+05    0.3095423341E-01    0.1670454854E-01    0.6953930795E+00    0.5231577106E-01    0.3486877682E-01
    0.3000000000E+05    0.4256477146E-01    0.2325517253E-01    0.6958158620E+00    0.8757067376E-01    0.6989376924E-01
    0.5000000000E+05    0.4328301660E-01    0.2385707817E-01    0.6959011413E+00    0.1023951431E+00    0.9254435629E-01
    0.7000000000E+05    0.4193274754E-01    0.2327487151E-01    0.6959378936E+00    0.1108036129E+00    0.1103992032E+00
    0.9000000000E+05    0.4008387220E-01    0.2237889565E-01    0.6959584042E+00    0.1161919245E+00    0.1255779380E+00
    0.1100000000E+06    0.3816410459E-01    0.2141476916E-01    0.6959715077E+00    0.1198574501E+00    0.1389872149E+00
    0.1300000000E+06    0.3631064197E-01    0.2046569591E-01    0.6959806114E+00    0.1224241177E+00    0.1511074559E+00
    0.1500000000E+06    0.3456744138E-01    0.1956128181E-01    0.6959873090E+00    0.1242374180E+00    0.1622287689E+00
    0.1700000000E+06    0.3294457981E-01    0.1871089730E-01    0.6959924460E+00    0.1255077822E+00    0.1725424629E+00
    0.1900000000E+06    0.3143918219E-01    0.1791571269E-01    0.6959965128E+00    0.1263724600E+00    0.1821829228E+00
    0.2100000000E+06    0.3004357507E-01    0.1717352743E-01    0.6959998138E+00    0.1269256862E+00    0.1912491270E+00
    0.2300000000E+06    0.2874865319E-01    0.1648084585E-01    0.6960025474E+00    0.1272347874E+00    0.1998167039E+00
    0.2500000000E+06    0.2754529608E-01    0.1583380400E-01    0.6960048492E+00    0.1273494096E+00    0.2079451538E+00
    0.2700000000E+06    0.2642494416E-01    0.1522858594E-01    0.6960068144E+00    0.1273071107E+00    0.2156824137E+00
    0.2900000000E+06    0.2537980071E-01    0.1466160322E-01    0.6960085123E+00    0.1271369098E+00    0.2230678701E+00
    0.3100000000E+06    0.2440286607E-01    0.1412956171E-01    0.6960099942E+00    0.1268616274E+00    0.2301344209E+00
    0.3300000000E+06    0.2348789908E-01    0.1362947472E-01    0.6960112991E+00    0.1264994787E+00    0.2369099320E+00
    0.3500000000E+06    0.2262934991E-01    0.1315865114E-01    0.6960124572E+00    0.1260651890E+00    0.2434182918E+00
    0.3700000000E+06    0.2182228545E-01    0.1271467288E-01    0.6960134920E+00    0.1255707933E+00    0.2496801927E+00
    0.3900000000E+06    0.2106231650E-01    0.1229536877E-01    0.6960144225E+00    0.1250262216E+00    0.2557137229E+00
    0.4100000000E+06    0.2034553101E-01    0.1189878836E-01    0.6960152636E+00    0.1244397347E+00    0.2615348210E+00
    0.4300000000E+06    0.1966843449E-01    0.1152317732E-01    0.6960160279E+00    0.1238182546E+00    0.2671576311E+00
    0.4500000000E+06    0.1902789783E-01    0.1116695507E-01    0.6960167254E+00    0.1231676188E+00    0.2725947848E+00
    0.4700000000E+06    0.1842111191E-01    0.1082869477E-01    0.6960173646E+00    0.1224927771E+00    0.2778576268E+00
    0.4900000000E+06    0.1784554834E-01    0.1050710568E-01    0.6960179526E+00    0.1217979477E+00    0.2829563982E+00
    0.1000000000E+06    0.3912089947E-01    0.2189823106E-01    0.6959656052E+00    0.1181918524E+00    0.1324676164E+00
    0.3000000000E+06    0.2488321442E-01    0.1439140863E-01    0.6960092775E+00    0.1270111723E+00    0.2266391630E+00
    0.5000000000E+06    0.1756875314E-01    0.1035219284E-01    0.6960182293E+00    0.1214441868E+00    0.2854471935E+00
    0.7000000000E+06    0.1322126087E-01    0.7896151102E-02    0.6960221299E+00    0.1139659839E+00    0.3285161365E+00
    0.9000000000E+06    0.1037140072E-01    0.6260613001E-02    0.6960243260E+00    0.1065672681E+00    0.3620959521E+00
    0.1100000000E+07    0.8381141141E-02    0.5104409298E-02    0.6960257396E+00    0.9972660534E-01    0.3892563033E+00
    0.1300000000E+07    0.6927470919E-02    0.4251464935E-02    0.6960267282E+00    0.9353564875E-01    0.4117849901E+00
    0.1500000000E+07    0.5829245467E-02    0.3601601166E-02    0.6960274598E+00    0.8796899596E-01    0.4308269931E+00
    0.1700000000E+07    0.4977209862E-02    0.3093690603E-02    0.6960280240E+00    0.8296691427E-01    0.4471623036E+00
    0.1900000000E+07    0.4301760512E-02    0.2688409528E-02    0.6960284727E+00    0.7846364295E-01    0.4613461656E+00
    0.2100000000E+07    0.3756609892E-02    0.2359386799E-02    0.6960288386E+00    0.7439723202E-01    0.4737872234E+00
    0.2300000000E+07    0.3309888335E-02    0.2088331215E-02    0.6960291428E+00    0.7071256541E-01    0.4847942565E+00
    0.2500000000E+07    0.2939012371E-02    0.1862195825E-02    0.6960294000E+00    0.6736178950E-01    0.4946056588E+00
    0.2700000000E+07    0.2627585014E-02    0.1671451413E-02    0.6960296204E+00    0.6430378730E-01    0.5034088255E+00
    0.2900000000E+07    0.2363450055E-02    0.1508995048E-02    0.6960298114E+00    0.6150335869E-01    0.5113533416E+00
    0.3100000000E+07    0.2137430353E-02    0.1369437817E-02    0.6960299786E+00    0.5893037198E-01    0.5185602086E+00
    0.3300000000E+07    0.1942486532E-02    0.1248627127E-02    0.6960301263E+00    0.5655898698E-01    0.5251284538E+00
    0.3500000000E+07    0.1773142210E-02    0.1143318607E-02    0.6960302578E+00    0.5436697984E-01    0.5311399615E+00
    0.3700000000E+07    0.1625082866E-02    0.1050946003E-02    0.6960303755E+00    0.5233517095E-01    0.5366630682E+00
    0.3900000000E+07    0.1494870535E-02    0.9694567785E-03    0.6960304817E+00    0.5044694622E-01    0.5417552801E+00
    0.4100000000E+07    0.1379737439E-02    0.8971926819E-03    0.6960305779E+00    0.4868785866E-01    0.5464653543E+00
    0.4300000000E+07    0.1277434418E-02    0.8328016905E-03    0.6960306655E+00    0.4704529759E-01    0.5508349149E+00
    0.4500000000E+07    0.1186118065E-02    0.7751721900E-03    0.6960307456E+00    0.4550821362E-01    0.5548997198E+00
    0.4700000000E+07    0.1104265631E-02    0.7233831734E-03    0.6960308192E+00    0.4406688988E-01    0.5586906655E+00
    0.4900000000E+07    0.1030610118E-02    0.6766661285E-03    0.6960308870E+00    0.4271275090E-01    0.5622345907E+00
    0.1000000000E+07    0.9293588813E-02    0.5636033359E-02    0.6960251017E+00    0.1030670487E+00    0.3763469598E+00
    0.3000000000E+07    0.2246158099E-02    0.1436638131E-02    0.6960298977E+00    0.6019014226E-01    0.5150423407E+00
    0.5000000000E+07    0.9965176503E-03    0.6550037411E-03    0.6960309189E+00    0.4206596808E-01    0.5639213602E+00
    0.7000000000E+07    0.5603388615E-03    0.3752154642E-03    0.6960313725E+00    0.3225772554E-01    0.5890616325E+00
    0.9000000000E+07    0.3584560876E-03    0.2434408091E-03    0.6960316307E+00    0.2613089054E-01    0.6043843612E+00
    0.1100000000E+08    0.2487838974E-03    0.1708896671E-03    0.6960317979E+00    0.2194606507E-01    0.6146988731E+00
    0.1300000000E+08    0.1826623568E-03    0.1266693589E-03    0.6960319151E+00    0.1890851787E-01    0.6221137446E+00
    0.1500000000E+08    0.1397586068E-03    0.9771159977E-04    0.6960320017E+00    0.1660443975E-01    0.6276997226E+00
    0.1700000000E+08    0.1103552342E-03    0.7770750386E-04    0.6960320683E+00    0.1479739548E-01    0.6320583203E+00
    0.1900000000E+08    0.8933275450E-04    0.6330468692E-04    0.6960321210E+00    0.1334257827E-01    0.6355534571E+00
    0.2100000000E+08    0.7378624220E-04    0.5258665763E-04    0.6960321637E+00    0.1214638261E-01    0.6384182045E+00
    0.2300000000E+08    0.6196800031E-04    0.4439273386E-04    0.6960321988E+00    0.1114563124E-01    0.6408087296E+00
    0.2500000000E+08    0.5277550228E-04    0.3798633698E-04    0.6960322283E+00    0.1029615028E-01    0.6428335870E+00
    0.2700000000E+08    0.4548540281E-04    0.3288159608E-04    0.6960322532E+00    0.9566129365E-02    0.6445705729E+00
