  Pressure (Pa) 22mC5-500 (mol/kg) 23mC5-500 (mol/kg) 24mC5-500 (mol/kg) 2mC6-500 (mol/kg) 3mC6-500 (mol/kg)
    0.1000000000E+01    0.1414936678E-04    0.2466854953E-05    0.2321358759E+00    0.9605141404E-05    0.5210842733E-05
    0.3000000000E+01    0.3086520158E-04    0.5400879311E-05    0.4177447734E+00    0.2279766322E-04    0.1563111425E-04
    0.5000000000E+01    0.4401158019E-04    0.7725735873E-05    0.4972661397E+00    0.3456874618E-04    0.2604955560E-04
    0.7000000000E+01    0.5630621841E-04    0.9908368691E-05    0.5414388285E+00    0.4616940766E-04    0.3646618370E-04
    0.9000000000E+01    0.6834377295E-04    0.1204959022E-04    0.5695468129E+00    0.5779087770E-04    0.4688100421E-04
    0.1100000000E+02    0.8030398993E-04    0.1417935750E-04    0.5890054385E+00    0.6946306754E-04    0.5729401993E-04
    0.1300000000E+02    0.9225029328E-04    0.1630798658E-04    0.6032747715E+00    0.8118389801E-04    0.6770523262E-04
    0.1500000000E+02    0.1042063974E-03    0.1843918094E-04    0.6141864650E+00    0.9294538228E-04    0.7811464353E-04
    0.1700000000E+02    0.1161807697E-03    0.2057415095E-04    0.6228008908E+00    0.1047395882E-03    0.8852225369E-04
    0.1900000000E+02    0.1281756230E-03    0.2271311049E-04    0.6297744439E+00    0.1165598742E-03    0.9892806400E-04
    0.2100000000E+02    0.1401905506E-03    0.2485587324E-04    0.6355351951E+00    0.1284009403E-03    0.1093320753E-03
    0.2300000000E+02    0.1522240910E-03    0.2700210449E-04    0.6403742263E+00    0.1402586098E-03    0.1197342882E-03
    0.2500000000E+02    0.1642744263E-03    0.2915143055E-04    0.6444963694E+00    0.1521295896E-03    0.1301347036E-03
    0.2700000000E+02    0.1763396966E-03    0.3130348598E-04    0.6480499489E+00    0.1640112677E-03    0.1405333220E-03
    0.2900000000E+02    0.1884181376E-03    0.3345793270E-04    0.6511450111E+00    0.1759015556E-03    0.1509301442E-03
    0.3100000000E+02    0.2005081335E-03    0.3561446616E-04    0.6538649236E+00    0.1877987681E-03    0.1613251709E-03
    0.3300000000E+02    0.2126082317E-03    0.3777281567E-04    0.6562739980E+00    0.1997015335E-03    0.1717184026E-03
    0.3500000000E+02    0.2247171377E-03    0.3993274213E-04    0.6584226408E+00    0.2116087255E-03    0.1821098400E-03
    0.3700000000E+02    0.2368337036E-03    0.4209403493E-04    0.6603509182E+00    0.2235194113E-03    0.1924994838E-03
    0.3900000000E+02    0.2489569124E-03    0.4425650856E-04    0.6620910787E+00    0.2354328128E-03    0.2028873345E-03
    0.4100000000E+02    0.2610858635E-03    0.4641999950E-04    0.6636693711E+00    0.2473482758E-03    0.2132733928E-03
    0.4300000000E+02    0.2732197580E-03    0.4858436329E-04    0.6651073774E+00    0.2592652467E-03    0.2236576593E-03
    0.4500000000E+02    0.2853578864E-03    0.5074947204E-04    0.6664230065E+00    0.2711832540E-03    0.2340401346E-03
    0.4700000000E+02    0.2974996167E-03    0.5291521222E-04    0.6676312430E+00    0.2831018936E-03    0.2444208194E-03
    0.4900000000E+02    0.3096443848E-03    0.5508148277E-04    0.6687447211E+00    0.2950208175E-03    0.2547997142E-03
    0.1000000000E+02    0.7432817227E-04    0.1311502446E-04    0.5800869708E+00    0.6362048783E-04    0.5208773754E-04
    0.3000000000E+02    0.1944617858E-03    0.3453595628E-04    0.6525474647E+00    0.1818493885E-03    0.1561278820E-03
    0.5000000000E+02    0.3157177483E-03    0.5616478836E-04    0.6692693425E+00    0.3009802903E-03    0.2599884905E-03
    0.7000000000E+02    0.4372463878E-03    0.7784127874E-04    0.6767016447E+00    0.4201291887E-03    0.3636701924E-03
    0.9000000000E+02    0.5587314087E-03    0.9950920113E-04    0.6809027044E+00    0.5391204470E-03    0.4671735894E-03
    0.1100000000E+03    0.6800443572E-03    0.1211460568E-03    0.6836034997E+00    0.6578973025E-03    0.5704992757E-03
    0.1300000000E+03    0.8011230174E-03    0.1427410440E-03    0.6854859455E+00    0.7764362189E-03    0.6736478413E-03
    0.1500000000E+03    0.9219335276E-03    0.1642883220E-03    0.6868730608E+00    0.8947259612E-03    0.7766198726E-03
    0.1700000000E+03    0.1042455950E-02    0.1857844709E-03    0.6879376272E+00    0.1012760721E-02    0.8794159532E-03
    0.1900000000E+03    0.1162677896E-02    0.2072273766E-03    0.6887804357E+00    0.1130537391E-02    0.9820366636E-03
    0.2100000000E+03    0.1282591390E-02    0.2286156853E-03    0.6894642444E+00    0.1248054334E-02    0.1084482581E-02
    0.2300000000E+03    0.1402191186E-02    0.2499485120E-03    0.6900301712E+00    0.1365310764E-02    0.1186754282E-02
    0.2500000000E+03    0.1521473813E-02    0.2712252752E-03    0.6905062815E+00    0.1482306424E-02    0.1288852337E-02
    0.2700000000E+03    0.1640436991E-02    0.2924455973E-03    0.6909123862E+00    0.1599041389E-02    0.1390777317E-02
    0.2900000000E+03    0.1759079272E-02    0.3136092420E-03    0.6912628691E+00    0.1715515959E-02    0.1492529788E-02
    0.3100000000E+03    0.1877399800E-02    0.3347160740E-03    0.6915684257E+00    0.1831730585E-02    0.1594110316E-02
    0.3300000000E+03    0.1995398153E-02    0.3557660311E-03    0.6918371746E+00    0.1947685826E-02    0.1695519461E-02
    0.3500000000E+03    0.2113074230E-02    0.3767591059E-03    0.6920753894E+00    0.2063382315E-02    0.1796757784E-02
    0.3700000000E+03    0.2230428176E-02    0.3976953323E-03    0.6922879944E+00    0.2178820739E-02    0.1897825841E-02
    0.3900000000E+03    0.2347460322E-02    0.4185747756E-03    0.6924789092E+00    0.2294001829E-02    0.1998724186E-02
    0.4100000000E+03    0.2464171146E-02    0.4393975260E-03    0.6926512922E+00    0.2408926340E-02    0.2099453371E-02
    0.4300000000E+03    0.2580561238E-02    0.4601636925E-03    0.6928077170E+00    0.2523595055E-02    0.2200013946E-02
    0.4500000000E+03    0.2696631283E-02    0.4808733998E-03    0.6929503018E+00    0.2638008769E-02    0.2300406456E-02
    0.4700000000E+03    0.2812382036E-02    0.5015267845E-03    0.6930808057E+00    0.2752168290E-02    0.2400631447E-02
    0.4900000000E+03    0.2927814312E-02    0.5221239932E-03    0.6932007018E+00    0.2866074438E-02    0.2500689460E-02
    0.1000000000E+03    0.6194142094E-03    0.1103323504E-03    0.6823854806E+00    0.5985375668E-03    0.5188586094E-03
    0.3000000000E+03    0.1818279790E-02    0.3241697649E-03    0.6914207054E+00    0.1773655732E-02    0.1543341510E-02
    0.5000000000E+03    0.2985411289E-02    0.5324015794E-03    0.6932570681E+00    0.2922932753E-02    0.2550656019E-02
    0.7000000000E+03    0.4120859172E-02    0.7350447499E-03    0.6940472258E+00    0.4047000287E-02    0.3541351578E-02
    0.9000000000E+03    0.5225591925E-02    0.9322711917E-03    0.6944870523E+00    0.5146684001E-02    0.4515953459E-02
    0.1100000000E+04    0.6300657079E-02    0.1124265525E-02    0.6947672719E+00    0.6222794594E-02    0.5474964123E-02
    0.1300000000E+04    0.7347088133E-02    0.1311209541E-02    0.6949614274E+00    0.7276111828E-02    0.6418864474E-02
    0.1500000000E+04    0.8365884214E-02    0.1493278856E-02    0.6951038938E+00    0.8307382769E-02    0.7348115018E-02
    0.1700000000E+04    0.9358005004E-02    0.1670642096E-02    0.6952128900E+00    0.9317322541E-02    0.8263156946E-02
    0.1900000000E+04    0.1032437010E-01    0.1843460825E-02    0.6952989726E+00    0.1030661567E-01    0.9164413154E-02
    0.2100000000E+04    0.1126585993E-01    0.2011889717E-02    0.6953686810E+00    0.1127591755E-01    0.1005228919E-01
    0.2300000000E+04    0.1218331718E-01    0.2176076819E-02    0.6954262820E+00    0.1222585593E-01    0.1092717416E-01
    0.2500000000E+04    0.1307754850E-01    0.2336163850E-02    0.6954746785E+00    0.1315703229E-01    0.1178944155E-01
    0.2700000000E+04    0.1394932618E-01    0.2492286502E-02    0.6955159140E+00    0.1407002322E-01    0.1263945001E-01
    0.2900000000E+04    0.1479938985E-01    0.2644574736E-02    0.6955514686E+00    0.1496538166E-01    0.1347754411E-01
    0.3100000000E+04    0.1562844809E-01    0.2793153066E-02    0.6955824410E+00    0.1584363809E-01    0.1430405504E-01
    0.3300000000E+04    0.1643717997E-01    0.2938140834E-02    0.6956096635E+00    0.1670530170E-01    0.1511930124E-01
    0.3500000000E+04    0.1722623655E-01    0.3079652463E-02    0.6956337785E+00    0.1755086139E-01    0.1592358901E-01
    0.3700000000E+04    0.1799624222E-01    0.3217797706E-02    0.6956552894E+00    0.1838078681E-01    0.1671721315E-01
    0.3900000000E+04    0.1874779609E-01    0.3352681875E-02    0.6956745965E+00    0.1919552929E-01    0.1750045744E-01
    0.4100000000E+04    0.1948147315E-01    0.3484406059E-02    0.6956920222E+00    0.1999552271E-01    0.1827359517E-01
    0.4300000000E+04    0.2019782553E-01    0.3613067329E-02    0.6957078286E+00    0.2078118436E-01    0.1903688966E-01
    0.4500000000E+04    0.2089738354E-01    0.3738758935E-02    0.6957222316E+00    0.2155291572E-01    0.1979059469E-01
    0.4700000000E+04    0.2158065674E-01    0.3861570487E-02    0.6957354102E+00    0.2231110320E-01    0.2053495495E-01
    0.4900000000E+04    0.2224813494E-01    0.3981588126E-02    0.6957475142E+00    0.2305611884E-01    0.2127020643E-01
    0.1000000000E+04    0.5766767668E-02    0.1028910884E-02    0.6946411405E+00    0.5687636436E-02    0.4997377145E-02
    0.3000000000E+04    0.1521650153E-01    0.2719320062E-02    0.6955674704E+00    0.1540661532E-01    0.1389222728E-01
    0.5000000000E+04    0.2257609881E-01    0.4040575241E-02    0.6957532035E+00    0.2342379972E-01    0.2163448785E-01
    0.7000000000E+04    0.2841158489E-01    0.5092188292E-02    0.6958328848E+00    0.3016642912E-01    0.2849327954E-01
    0.9000000000E+04    0.3310587391E-01    0.5941545033E-02    0.6958771836E+00    0.3592835697E-01    0.3465695731E-01
    0.1100000000E+05    0.3692651208E-01    0.6635778773E-02    0.6959053898E+00    0.4091844743E-01    0.4026164577E-01
    0.1300000000E+05    0.4006565163E-01    0.7208778107E-02    0.6959249268E+00    0.4528932506E-01    0.4540841196E-01
    0.1500000000E+05    0.4266457592E-01    0.7685488578E-02    0.6959392602E+00    0.4915518507E-01    0.5017403981E-01
    0.1700000000E+05    0.4482929203E-01    0.8084649085E-02    0.6959502253E+00    0.5260323077E-01    0.5461803391E-01
    0.1900000000E+05    0.4664075486E-01    0.8420587210E-02    0.6959588852E+00    0.5570124928E-01    0.5878731285E-01
    0.2100000000E+05    0.4816175386E-01    0.8704429230E-02    0.6959658980E+00    0.5850276646E-01    0.6271943853E-01
    0.2300000000E+05    0.4944166250E-01    0.8944935116E-02    0.6959716931E+00    0.6105063842E-01    0.6644489044E-01
    0.2500000000E+05    0.5051978290E-01    0.9149086936E-02    0.6959765624E+00    0.6337960663E-01    0.6998870055E-01
    0.2700000000E+05    0.5142774551E-01    0.9322511266E-02    0.6959807116E+00    0.6551815005E-01    0.7337165032E-01
    0.2900000000E+05    0.5219125966E-01    0.9469787564E-02    0.6959842895E+00    0.6748985015E-01    0.7661116154E-01
    0.3100000000E+05    0.5283141014E-01    0.9594676705E-02    0.6959874066E+00    0.6931441243E-01    0.7972196935E-01
    0.3300000000E+05    0.5336563057E-01    0.9700292674E-02    0.6959901465E+00    0.7100844125E-01    0.8271663742E-01
    0.3500000000E+05    0.5380844335E-01    0.9789233183E-02    0.6959925739E+00    0.7258603502E-01    0.8560595735E-01
    0.3700000000E+05    0.5417202866E-01    0.9863680162E-02    0.6959947395E+00    0.7405924865E-01    0.8839926156E-01
    0.3900000000E+05    0.5446666645E-01    0.9925477901E-02    0.6959966834E+00    0.7543845654E-01    0.9110467118E-01
    0.4100000000E+05    0.5470108322E-01    0.9976194385E-02    0.6959984380E+00    0.7673264045E-01    0.9372929417E-01
    0.4300000000E+05    0.5488272650E-01    0.1001716988E-01    0.6960000298E+00    0.7794961966E-01    0.9627938506E-01
    0.4500000000E+05    0.5501798384E-01    0.1004955573E-01    0.6960014804E+00    0.7909623664E-01    0.9876047485E-01
    0.4700000000E+05    0.5511235894E-01    0.1007434558E-01    0.6960028079E+00    0.8017850795E-01    0.1011774774E+00
    0.4900000000E+05    0.5517061428E-01    0.1009240071E-01    0.6960040272E+00    0.8120174775E-01    0.1035347774E+00
    0.1000000000E+05    0.3511196550E-01    0.6305683917E-02    0.6958926952E+00    0.3850927276E-01    0.3752218628E-01
    0.3000000000E+05    0.5252558982E-01    0.9534822444E-02    0.6959858999E+00    0.6841942079E-01    0.7818182241E-01
    0.5000000000E+05    0.5518751172E-01    0.1009914087E-01    0.6960046004E+00    0.8169272489E-01    0.1046922826E+00
    0.7000000000E+05    0.5439167549E-01    0.1001897350E-01    0.6960126321E+00    0.8931839325E-01    0.1254771113E+00
    0.9000000000E+05    0.5252907551E-01    0.9729941333E-02    0.6960171019E+00    0.9421777440E-01    0.1430516247E+00
    0.1100000000E+06    0.5033921535E-01    0.9369848346E-02    0.6960199507E+00    0.9754455303E-01    0.1585071708E+00
    0.1300000000E+06    0.4809619437E-01    0.8991326167E-02    0.6960219256E+00    0.9986216456E-01    0.1724224396E+00
    0.1500000000E+06    0.4591036587E-01    0.8616513261E-02    0.6960233757E+00    0.1014852829E+00    0.1851457360E+00
    0.1700000000E+06    0.4382618036E-01    0.8255009773E-02    0.6960244859E+00    0.1026066536E+00    0.1969058428E+00
    0.1900000000E+06    0.4185926569E-01    0.7910778820E-02    0.6960253632E+00    0.1033525382E+00    0.2078629250E+00
    0.2100000000E+06    0.4001206086E-01    0.7585105031E-02    0.6960260742E+00    0.1038099501E+00    0.2181346648E+00
    0.2300000000E+06    0.3828091995E-01    0.7277966179E-02    0.6960266621E+00    0.1040412668E+00    0.2278108574E+00
    0.2500000000E+06    0.3665951050E-01    0.6988706009E-02    0.6960271563E+00    0.1040926289E+00    0.2369621190E+00
    0.2700000000E+06    0.3514049145E-01    0.6716377457E-02    0.6960275777E+00    0.1039990431E+00    0.2456453635E+00
    0.2900000000E+06    0.3371635111E-01    0.6459921892E-02    0.6960279413E+00    0.1037876280E+00    0.2539074013E+00
    0.3100000000E+06    0.3237981966E-01    0.6218263386E-02    0.6960282582E+00    0.1034797590E+00    0.2617873923E+00
    0.3300000000E+06    0.3112406070E-01    0.5990357581E-02    0.6960285369E+00    0.1030925312E+00    0.2693185696E+00
    0.3500000000E+06    0.2994274670E-01    0.5775215783E-02    0.6960287840E+00    0.1026397864E+00    0.2765294849E+00
    0.3700000000E+06    0.2883007341E-01    0.5571915381E-02    0.6960290045E+00    0.1021328507E+00    0.2834449286E+00
    0.3900000000E+06    0.2778074325E-01    0.5379602724E-02    0.6960292025E+00    0.1015810760E+00    0.2900866232E+00
    0.4100000000E+06    0.2678993353E-01    0.5197491911E-02    0.6960293813E+00    0.1009922446E+00    0.2964737567E+00
    0.4300000000E+06    0.2585325866E-01    0.5024861443E-02    0.6960295435E+00    0.1003728762E+00    0.3026233982E+00
    0.4500000000E+06    0.2496673100E-01    0.4861049881E-02    0.6960296915E+00    0.9972846505E-01    0.3085508269E+00
    0.4700000000E+06    0.2412672284E-01    0.4705451136E-02    0.6960298269E+00    0.9906366445E-01    0.3142697963E+00
    0.4900000000E+06    0.2332993089E-01    0.4557509759E-02    0.6960299514E+00    0.9838243301E-01    0.3197927481E+00
    0.1000000000E+06    0.5145217565E-01    0.9554424909E-02    0.6960186683E+00    0.9603435540E-01    0.1510007011E+00
    0.3000000000E+06    0.3303757299E-01    0.6337309388E-02    0.6960281050E+00    0.1036445952E+00    0.2578929532E+00
    0.5000000000E+06    0.2294678934E-01    0.4486249737E-02    0.6960300099E+00    0.9803673194E-01    0.3224842905E+00
    0.7000000000E+06    0.1694829730E-01    0.3359821876E-02    0.6960308311E+00    0.9086114195E-01    0.3683038202E+00
    0.9000000000E+06    0.1306206416E-01    0.2618164999E-02    0.6960312894E+00    0.8395191632E-01    0.4029907904E+00
    0.1100000000E+07    0.1038820812E-01    0.2101482850E-02    0.6960315821E+00    0.7770686208E-01    0.4303143359E+00
    0.1300000000E+07    0.8464993527E-02    0.1726044663E-02    0.6960317853E+00    0.7216670493E-01    0.4524518014E+00
    0.1500000000E+07    0.7033351067E-02    0.1444143139E-02    0.6960319347E+00    0.6727322299E-01    0.4707767781E+00
    0.1700000000E+07    0.5937912454E-02    0.1226816832E-02    0.6960320492E+00    0.6294574183E-01    0.4862079850E+00
    0.1900000000E+07    0.5080559504E-02    0.1055590445E-02    0.6960321398E+00    0.5910540184E-01    0.4993867606E+00
    0.2100000000E+07    0.4396705837E-02    0.9181972582E-03    0.6960322132E+00    0.5568231838E-01    0.5107759374E+00
    0.2300000000E+07    0.3842361072E-02    0.8062191511E-03    0.6960322739E+00    0.5261682954E-01    0.5207186209E+00
    0.2500000000E+07    0.3386691010E-02    0.7137160440E-03    0.6960323250E+00    0.4985875041E-01    0.5294749054E+00
    0.2700000000E+07    0.3007546967E-02    0.6363953778E-03    0.6960323685E+00    0.4736607002E-01    0.5372457317E+00
    0.2900000000E+07    0.2688678246E-02    0.5710904309E-03    0.6960324060E+00    0.4510361626E-01    0.5441888995E+00
    0.3100000000E+07    0.2417938258E-02    0.5154223768E-03    0.6960324387E+00    0.4304186498E-01    0.5504301127E+00
    0.3300000000E+07    0.2186098015E-02    0.4675754277E-03    0.6960324675E+00    0.4115593532E-01    0.5560707779E+00
    0.3500000000E+07    0.1986042249E-02    0.4261436631E-03    0.6960324929E+00    0.3942476310E-01    0.5611936242E+00
    0.3700000000E+07    0.1812213070E-02    0.3900244936E-03    0.6960325156E+00    0.3783042853E-01    0.5658668266E+00
    0.3900000000E+07    0.1660217548E-02    0.3583431705E-03    0.6960325360E+00    0.3635761158E-01    0.5701470791E+00
    0.4100000000E+07    0.1526546169E-02    0.3303983905E-03    0.6960325544E+00    0.3499315097E-01    0.5740819188E+00
    0.4300000000E+07    0.1408367689E-02    0.3056225048E-03    0.6960325710E+00    0.3372568636E-01    0.5777115064E+00
    0.4500000000E+07    0.1303377567E-02    0.2835520067E-03    0.6960325862E+00    0.3254536705E-01    0.5810700048E+00
    0.4700000000E+07    0.1209684514E-02    0.2638053673E-03    0.6960326001E+00    0.3144361393E-01    0.5841866608E+00
    0.4900000000E+07    0.1125724606E-02    0.2460661952E-03    0.6960326128E+00    0.3041292400E-01    0.5870866586E+00
    0.1000000000E+07    0.1160895188E-01    0.2338083005E-02    0.6960314502E+00    0.8073993826E-01    0.4174120797E+00
    0.3000000000E+07    0.2547926465E-02    0.5421764041E-03    0.6960324229E+00    0.4404930619E-01    0.5473904176E+00
    0.5000000000E+07    0.1086978860E-02    0.2378651030E-03    0.6960326188E+00    0.2992213705E-01    0.5884623410E+00
    0.7000000000E+07    0.5985487522E-03    0.1334923323E-03    0.6960327020E+00    0.2259742522E-01    0.6086156135E+00
    0.9000000000E+07    0.3779429626E-03    0.8551375032E-04    0.6960327473E+00    0.1813233588E-01    0.6205789636E+00
    0.1100000000E+08    0.2599779821E-03    0.5950922686E-04    0.6960327755E+00    0.1513030816E-01    0.6284971654E+00
    0.1300000000E+08    0.1896393986E-03    0.4383241539E-04    0.6960327944E+00    0.1297523427E-01    0.6341229028E+00
    0.1500000000E+08    0.1443718211E-03    0.3364948772E-04    0.6960328077E+00    0.1135383361E-01    0.6383245928E+00
    0.1700000000E+08    0.1135438698E-03    0.2665898155E-04    0.6960328174E+00    0.1009016083E-01    0.6415814537E+00
    0.1900000000E+08    0.9161340620E-04    0.2165082811E-04    0.6960328247E+00    0.9077855302E-02    0.6441795053E+00
    0.2100000000E+08    0.7546179400E-04    0.1793900821E-04    0.6960328303E+00    0.8248866590E-02    0.6462999819E+00
    0.2300000000E+08    0.6322539549E-04    0.1511085044E-04    0.6960328346E+00    0.7557644930E-02    0.6480632740E+00
    0.2500000000E+08    0.5373509717E-04    0.1290593151E-04    0.6960328379E+00    0.6972558962E-02    0.6495524740E+00
    0.2700000000E+08    0.4622746728E-04    0.1115327469E-04    0.6960328405E+00    0.6470960916E-02    0.6508267758E+00
