  Pressure (Pa) 22mC5-500 (mol/kg) 23mC5-500 (mol/kg) 24mC5-500 (mol/kg) 2mC6-500 (mol/kg) 3mC6-500 (mol/kg)
    0.1000000000E+01    0.1712137803E-04    0.9939547672E-06    0.9950100326E-01    0.2255058930E-04    0.3647386955E-04
    0.3000000000E+01    0.4243718335E-04    0.2466217165E-05    0.2321198509E+00    0.5761533543E-04    0.1093991052E-03
    0.5000000000E+01    0.6167449800E-04    0.3588527967E-05    0.3164863748E+00    0.8631084966E-04    0.1822945168E-03
    0.7000000000E+01    0.7791393078E-04    0.4539046173E-05    0.3748827936E+00    0.1121744419E-03    0.2551602196E-03
    0.9000000000E+01    0.9251050942E-04    0.5395898156E-05    0.4177017131E+00    0.1366607865E-03    0.3279962805E-03
    0.1100000000E+02    0.1061391513E-03    0.6197869791E-05    0.4504430717E+00    0.1604417707E-03    0.4008027464E-03
    0.1300000000E+02    0.1191667922E-03    0.6965973919E-05    0.4762902173E+00    0.1838532446E-03    0.4735796537E-03
    0.1500000000E+02    0.1318063248E-03    0.7712356157E-05    0.4972134198E+00    0.2070725724E-03    0.5463270336E-03
    0.1700000000E+02    0.1441875992E-03    0.8444394606E-05    0.5144974543E+00    0.2301969797E-03    0.6190449139E-03
    0.1900000000E+02    0.1563929980E-03    0.9166749897E-05    0.5290158725E+00    0.2532809702E-03    0.6917333205E-03
    0.2100000000E+02    0.1684764666E-03    0.9882459426E-05    0.5413833438E+00    0.2763553328E-03    0.7643922781E-03
    0.2300000000E+02    0.1804742441E-03    0.1059355308E-04    0.5520449435E+00    0.2994372824E-03    0.8370218103E-03
    0.2500000000E+02    0.1924111872E-03    0.1130141519E-04    0.5613308716E+00    0.3225360905E-03    0.9096219403E-03
    0.2700000000E+02    0.2043046346E-03    0.1200700520E-04    0.5694912688E+00    0.3456563133E-03    0.9821926906E-03
    0.2900000000E+02    0.2161668447E-03    0.1271099652E-04    0.5767190943E+00    0.3687996900E-03    0.1054734084E-02
    0.3100000000E+02    0.2280065749E-03    0.1341386623E-04    0.5831655824E+00    0.3919662842E-03    0.1127246141E-02
    0.3300000000E+02    0.2398301289E-03    0.1411595439E-04    0.5889509422E+00    0.4151551794E-03    0.1199728885E-02
    0.3500000000E+02    0.2516420654E-03    0.1481750411E-04    0.5941719258E+00    0.4383649079E-03    0.1272182338E-02
    0.3700000000E+02    0.2634456872E-03    0.1551868904E-04    0.5989072837E+00    0.4615937167E-03    0.1344606520E-02
    0.3900000000E+02    0.2752433829E-03    0.1621963259E-04    0.6032217659E+00    0.4848397326E-03    0.1417001453E-02
    0.4100000000E+02    0.2870368701E-03    0.1692042149E-04    0.6071691003E+00    0.5081010633E-03    0.1489367159E-02
    0.4300000000E+02    0.2988273698E-03    0.1762111555E-04    0.6107942429E+00    0.5313758584E-03    0.1561703658E-02
    0.4500000000E+02    0.3106157340E-03    0.1832175470E-04    0.6141350975E+00    0.5546623450E-03    0.1634010973E-02
    0.4700000000E+02    0.3224025385E-03    0.1902236416E-04    0.6172238465E+00    0.5779588468E-03    0.1706289123E-02
    0.4900000000E+02    0.3341881523E-03    0.1972295820E-04    0.6200879913E+00    0.6012637925E-03    0.1778538131E-02
    0.1000000000E+02    0.9941806251E-04    0.5802152609E-05    0.4350958080E+00    0.1486133738E-03    0.3644032104E-03
    0.3000000000E+02    0.2220890779E-03    0.1306254765E-04    0.5800318663E+00    0.3803801253E-03    0.1090993778E-02
    0.5000000000E+02    0.3400805843E-03    0.2007325164E-04    0.6214433569E+00    0.6129189703E-03    0.1814651713E-02
    0.7000000000E+02    0.4578719353E-03    0.2707746468E-04    0.6410615111E+00    0.8461650347E-03    0.2535398473E-02
    0.9000000000E+02    0.5754420468E-03    0.3407033638E-04    0.6525066268E+00    0.1079144136E-02    0.3253254876E-02
    0.1100000000E+03    0.6926151423E-03    0.4104048860E-04    0.6600058443E+00    0.1311403406E-02    0.3968241455E-02
    0.1300000000E+03    0.8092640434E-03    0.4798007088E-04    0.6652998465E+00    0.1542720028E-02    0.4680378519E-02
    0.1500000000E+03    0.9253055369E-03    0.5488404227E-04    0.6692367056E+00    0.1772975732E-02    0.5389686168E-02
    0.1700000000E+03    0.1040685333E-02    0.6174914946E-04    0.6722790314E+00    0.2002104322E-02    0.6096184303E-02
    0.1900000000E+03    0.1155367647E-02    0.6857326408E-04    0.6747006267E+00    0.2230067706E-02    0.6799892631E-02
    0.2100000000E+03    0.1269328746E-02    0.7535498262E-04    0.6766738942E+00    0.2456843992E-02    0.7500830668E-02
    0.2300000000E+03    0.1382552949E-02    0.8209338258E-04    0.6783127996E+00    0.2682421131E-02    0.8199017740E-02
    0.2500000000E+03    0.1495030107E-02    0.8878786982E-04    0.6796956979E+00    0.2906793317E-02    0.8894472990E-02
    0.2700000000E+03    0.1606753961E-02    0.9543808014E-04    0.6808782344E+00    0.3129958850E-02    0.9587215376E-02
    0.2900000000E+03    0.1717721048E-02    0.1020438140E-03    0.6819010166E+00    0.3351918803E-02    0.1027726368E-01
    0.3100000000E+03    0.1827929955E-02    0.1086049921E-03    0.6827943728E+00    0.3572676176E-02    0.1096463649E-01
    0.3300000000E+03    0.1937380792E-02    0.1151216242E-03    0.6835814109E+00    0.3792235323E-02    0.1164935225E-01
    0.3500000000E+03    0.2046074823E-02    0.1215937876E-03    0.6842800467E+00    0.4010601572E-02    0.1233142919E-01
    0.3700000000E+03    0.2154014187E-02    0.1280216104E-03    0.6849043845E+00    0.4227780958E-02    0.1301088540E-01
    0.3900000000E+03    0.2261201705E-02    0.1344052603E-03    0.6854656796E+00    0.4443780030E-02    0.1368773879E-01
    0.4100000000E+03    0.2367640723E-02    0.1407449355E-03    0.6859730229E+00    0.4658605715E-02    0.1436200709E-01
    0.4300000000E+03    0.2473334997E-02    0.1470408580E-03    0.6864338377E+00    0.4872265218E-02    0.1503370788E-01
    0.4500000000E+03    0.2578288611E-02    0.1532932683E-03    0.6868542450E+00    0.5084765942E-02    0.1570285857E-01
    0.4700000000E+03    0.2682505898E-02    0.1595024217E-03    0.6872393372E+00    0.5296115439E-02    0.1636947641E-01
    0.4900000000E+03    0.2785991395E-02    0.1656685851E-03    0.6875933854E+00    0.5506321357E-02    0.1703357849E-01
    0.1000000000E+03    0.6340873973E-03    0.3755882322E-04    0.6566098919E+00    0.1195381067E-02    0.3611105619E-02
    0.3000000000E+03    0.1772920298E-02    0.1053299737E-03    0.6823622871E+00    0.3462447567E-02    0.1062128336E-01
    0.5000000000E+03    0.2837461184E-02    0.1687356314E-03    0.6877599181E+00    0.5610997884E-02    0.1736469142E-01
    0.7000000000E+03    0.3829637898E-02    0.2278899926E-03    0.6901002011E+00    0.7646389460E-02    0.2385892870E-01
    0.9000000000E+03    0.4754386515E-02    0.2830824089E-03    0.6914076038E+00    0.9576241087E-02    0.3012003521E-01
    0.1100000000E+04    0.5616664626E-02    0.3346028664E-03    0.6922423626E+00    0.1140778246E-01    0.3616266181E-01
    0.1300000000E+04    0.6421107403E-02    0.3827223120E-03    0.6928215738E+00    0.1314767222E-01    0.4200021810E-01
    0.1500000000E+04    0.7171978915E-02    0.4276899565E-03    0.6932470252E+00    0.1480201207E-01    0.4764500166E-01
    0.1700000000E+04    0.7873184046E-02    0.4697340261E-03    0.6935727799E+00    0.1637639141E-01    0.5310831155E-01
    0.1900000000E+04    0.8528295236E-02    0.5090633457E-03    0.6938302131E+00    0.1787593515E-01    0.5840054820E-01
    0.2100000000E+04    0.9140581903E-02    0.5458690652E-03    0.6940387836E+00    0.1930534868E-01    0.6353130147E-01
    0.2300000000E+04    0.9713038825E-02    0.5803263182E-03    0.6942112007E+00    0.2066895864E-01    0.6850942864E-01
    0.2500000000E+04    0.1024841233E-01    0.6125957518E-03    0.6943561176E+00    0.2197074949E-01    0.7334312352E-01
    0.2700000000E+04    0.1074922405E-01    0.6428249102E-03    0.6944796296E+00    0.2321439611E-01    0.7803997789E-01
    0.2900000000E+04    0.1121779226E-01    0.6711494795E-03    0.6945861545E+00    0.2440329286E-01    0.8260703627E-01
    0.3100000000E+04    0.1165625100E-01    0.6976944019E-03    0.6946789724E+00    0.2554057954E-01    0.8705084472E-01
    0.3300000000E+04    0.1206656722E-01    0.7225748734E-03    0.6947605699E+00    0.2662916449E-01    0.9137749463E-01
    0.3500000000E+04    0.1245055608E-01    0.7458972368E-03    0.6948328664E+00    0.2767174537E-01    0.9559266188E-01
    0.3700000000E+04    0.1280989474E-01    0.7677597817E-03    0.6948973670E+00    0.2867082766E-01    0.9970164202E-01
    0.3900000000E+04    0.1314613461E-01    0.7882534618E-03    0.6949552687E+00    0.2962874134E-01    0.1037093820E+00
    0.4100000000E+04    0.1346071247E-01    0.8074625393E-03    0.6950075354E+00    0.3054765582E-01    0.1076205087E+00
    0.4300000000E+04    0.1375496036E-01    0.8254651643E-03    0.6950549518E+00    0.3142959344E-01    0.1114393547E+00
    0.4500000000E+04    0.1403011460E-01    0.8423338961E-03    0.6950981635E+00    0.3227644159E-01    0.1151699817E+00
    0.4700000000E+04    0.1428732381E-01    0.8581361739E-03    0.6951377062E+00    0.3308996371E-01    0.1188162015E+00
    0.4900000000E+04    0.1452765623E-01    0.8729347417E-03    0.6951740284E+00    0.3387180921E-01    0.1223815954E+00
    0.1000000000E+04    0.5193036058E-02    0.3092841920E-03    0.6918664496E+00    0.1050387090E-01    0.3316779291E-01
    0.3000000000E+04    0.1144065865E-01    0.6846369794E-03    0.6946341059E+00    0.2497820052E-01    0.8484395585E-01
    0.5000000000E+04    0.1464180711E-01    0.8799760532E-03    0.6951911025E+00    0.3425133972E-01    0.1241350430E+00
    0.7000000000E+04    0.1624677950E-01    0.9803395598E-03    0.6954303272E+00    0.4050610410E-01    0.1556810025E+00
    0.9000000000E+04    0.1695921390E-01    0.1027151722E-02    0.6955634103E+00    0.4486557457E-01    0.1819802884E+00
    0.1100000000E+05    0.1715116538E-01    0.1042420805E-02    0.6956481868E+00    0.4796432791E-01    0.2045084200E+00
    0.1300000000E+05    0.1703221247E-01    0.1038612469E-02    0.6957069283E+00    0.5018713672E-01    0.2242000766E+00
    0.1500000000E+05    0.1672612792E-01    0.1023135151E-02    0.6957500373E+00    0.5178048051E-01    0.2416808925E+00
    0.1700000000E+05    0.1630865414E-01    0.1000555197E-02    0.6957830247E+00    0.5290932689E-01    0.2573886930E+00
    0.1900000000E+05    0.1582737893E-01    0.9737655268E-03    0.6958090831E+00    0.5368809744E-01    0.2716413021E+00
    0.2100000000E+05    0.1531276327E-01    0.9446360073E-03    0.6958301897E+00    0.5419852807E-01    0.2846766037E+00
    0.2300000000E+05    0.1478453236E-01    0.9143916501E-03    0.6958476347E+00    0.5450046195E-01    0.2966773195E+00
    0.2500000000E+05    0.1425551642E-01    0.8838407358E-03    0.6958622956E+00    0.5463863420E-01    0.3077869392E+00
    0.2700000000E+05    0.1373403009E-01    0.8535167228E-03    0.6958747903E+00    0.5464708331E-01    0.3181203118E+00
    0.2900000000E+05    0.1322538511E-01    0.8237688622E-03    0.6958855664E+00    0.5455210473E-01    0.3277708944E+00
    0.3100000000E+05    0.1273287304E-01    0.7948213617E-03    0.6958949559E+00    0.5437427950E-01    0.3368158416E+00
    0.3300000000E+05    0.1225841575E-01    0.7668127549E-03    0.6959032107E+00    0.5412989921E-01    0.3453196611E+00
    0.3500000000E+05    0.1180300268E-01    0.7398225254E-03    0.6959105249E+00    0.5383198722E-01    0.3533368925E+00
    0.3700000000E+05    0.1136698870E-01    0.7138893602E-03    0.6959170509E+00    0.5349104346E-01    0.3609141069E+00
    0.3900000000E+05    0.1095029910E-01    0.6890238070E-03    0.6959229096E+00    0.5311559639E-01    0.3680914229E+00
    0.4100000000E+05    0.1055257194E-01    0.6652171344E-03    0.6959281987E+00    0.5271261798E-01    0.3749036745E+00
    0.4300000000E+05    0.1017325748E-01    0.6424475791E-03    0.6959329973E+00    0.5228783960E-01    0.3813813221E+00
    0.4500000000E+05    0.9811687897E-02    0.6206847741E-03    0.6959373709E+00    0.5184599544E-01    0.3875511722E+00
    0.4700000000E+05    0.9467126231E-02    0.5998928981E-03    0.6959413735E+00    0.5139101201E-01    0.3934369525E+00
    0.4900000000E+05    0.9138800729E-02    0.5800329170E-03    0.6959450506E+00    0.5092615708E-01    0.3990597757E+00
    0.1000000000E+05    0.1710450978E-01    0.1037794587E-02    0.6956100278E+00    0.4654431855E-01    0.1936481202E+00
    0.3000000000E+05    0.1297696619E-01    0.8091847620E-03    0.6958904172E+00    0.5447244276E-01    0.3323647796E+00
    0.5000000000E+05    0.8980481906E-02    0.5704397126E-03    0.6959467792E+00    0.5069089845E-01    0.4017785556E+00
    0.7000000000E+05    0.6485807742E-02    0.4178006674E-03    0.6959710124E+00    0.4593073911E-01    0.4460374497E+00
    0.9000000000E+05    0.4882768334E-02    0.3181176833E-03    0.6959845100E+00    0.4157469086E-01    0.4772211986E+00
    0.1100000000E+06    0.3801961819E-02    0.2500647484E-03    0.6959931181E+00    0.3781111559E-01    0.5005263404E+00
    0.1300000000E+06    0.3041540152E-02    0.2016924220E-03    0.6959990891E+00    0.3459576071E-01    0.5186590506E+00
    0.1500000000E+06    0.2487221281E-02    0.1661230339E-03    0.6960034753E+00    0.3184348774E-01    0.5331932926E+00
    0.1700000000E+06    0.2071089387E-02    0.1392180881E-03    0.6960068348E+00    0.2947297784E-01    0.5451151289E+00
    0.1900000000E+06    0.1750921115E-02    0.1183785268E-03    0.6960094908E+00    0.2741602035E-01    0.5550768521E+00
    0.2100000000E+06    0.1499411278E-02    0.1019091464E-03    0.6960116437E+00    0.2561759325E-01    0.5635284855E+00
    0.2300000000E+06    0.1298291588E-02    0.8866733346E-04    0.6960134244E+00    0.2403378623E-01    0.5707911427E+00
    0.2500000000E+06    0.1134975647E-02    0.7786066515E-04    0.6960149219E+00    0.2262954444E-01    0.5771003969E+00
    0.2700000000E+06    0.1000567695E-02    0.6892576225E-04    0.6960161990E+00    0.2137674049E-01    0.5826331418E+00
    0.2900000000E+06    0.8886385200E-03    0.6145326873E-04    0.6960173010E+00    0.2025264519E-01    0.5875248772E+00
    0.3100000000E+06    0.7944492767E-03    0.5513997248E-04    0.6960182617E+00    0.1923874718E-01    0.5918811970E+00
    0.3300000000E+06    0.7144455831E-03    0.4975741683E-04    0.6960191067E+00    0.1831984971E-01    0.5957856379E+00
    0.3500000000E+06    0.6459196238E-03    0.4513082487E-04    0.6960198558E+00    0.1748337948E-01    0.5993051708E+00
    0.3700000000E+06    0.5867794702E-03    0.4112464159E-04    0.6960205244E+00    0.1671885573E-01    0.6024941249E+00
    0.3900000000E+06    0.5353884708E-03    0.3763242263E-04    0.6960211249E+00    0.1601747977E-01    0.6053970428E+00
    0.4100000000E+06    0.4904514230E-03    0.3456963854E-04    0.6960216672E+00    0.1537181551E-01    0.6080507948E+00
    0.4300000000E+06    0.4509325913E-03    0.3186847205E-04    0.6960221593E+00    0.1477553873E-01    0.6104861651E+00
    0.4500000000E+06    0.4159957871E-03    0.2947400167E-04    0.6960226080E+00    0.1422323911E-01    0.6127290607E+00
    0.4700000000E+06    0.3849599835E-03    0.2734136505E-04    0.6960230188E+00    0.1371026241E-01    0.6148014415E+00
    0.4900000000E+06    0.3572660275E-03    0.2543362464E-04    0.6960233963E+00    0.1323258402E-01    0.6167220455E+00
    0.1000000000E+06    0.4292450166E-02    0.2810420193E-03    0.6959892423E+00    0.3961963659E-01    0.4896531914E+00
    0.3000000000E+06    0.8395717172E-03    0.5816746519E-04    0.6960177972E+00    0.1973294002E-01    0.5897642996E+00
    0.5000000000E+06    0.3445244901E-03    0.2455430671E-04    0.6960235738E+00    0.1300587059E-01    0.6176305489E+00
    0.7000000000E+06    0.1862162813E-03    0.1352478748E-04    0.6960260637E+00    0.9677619311E-02    0.6307543471E+00
    0.9000000000E+06    0.1163543980E-03    0.8570796922E-05    0.6960274513E+00    0.7697504581E-02    0.6383867696E+00
    0.1100000000E+07    0.7952424044E-04    0.5923701199E-05    0.6960283355E+00    0.6385953896E-02    0.6433769062E+00
    0.1300000000E+07    0.5777232182E-04    0.4343179019E-05    0.6960289476E+00    0.5453908327E-02    0.6468936596E+00
    0.1500000000E+07    0.4386845142E-04    0.3323609744E-05    0.6960293960E+00    0.4757778179E-02    0.6495051896E+00
    0.1700000000E+07    0.3444740099E-04    0.2627293726E-05    0.6960297382E+00    0.4218225443E-02    0.6515208820E+00
    0.1900000000E+07    0.2777124187E-04    0.2130427619E-05    0.6960300076E+00    0.3787865435E-02    0.6531235985E+00
    0.2100000000E+07    0.2286907433E-04    0.1763335453E-05    0.6960302249E+00    0.3436662212E-02    0.6544283458E+00
    0.2300000000E+07    0.1916403843E-04    0.1484347517E-05    0.6960304036E+00    0.3144659604E-02    0.6555110719E+00
    0.2500000000E+07    0.1629594364E-04    0.1267292051E-05    0.6960305530E+00    0.2898082802E-02    0.6564239465E+00
    0.2700000000E+07    0.1403049495E-04    0.1095054029E-05    0.6960306795E+00    0.2687118539E-02    0.6572039892E+00
    0.2900000000E+07    0.1220996900E-04    0.9560556013E-06    0.6960307879E+00    0.2504587360E-02    0.6578781952E+00
    0.3100000000E+07    0.1072504269E-04    0.8422356542E-06    0.6960308817E+00    0.2345116115E-02    0.6584667128E+00
    0.3300000000E+07    0.9498009759E-05    0.7478404748E-06    0.6960309636E+00    0.2204603863E-02    0.6589848835E+00
    0.3500000000E+07    0.8472413386E-05    0.6686734927E-06    0.6960310355E+00    0.2079866624E-02    0.6594445951E+00
    0.3700000000E+07    0.7606437849E-05    0.6016151302E-06    0.6960310991E+00    0.1968394820E-02    0.6598552007E+00
    0.3900000000E+07    0.6868578762E-05    0.5443070274E-06    0.6960311557E+00    0.1868183813E-02    0.6602241607E+00
    0.4100000000E+07    0.6234736448E-05    0.4949393096E-06    0.6960312063E+00    0.1777613071E-02    0.6605574977E+00
    0.4300000000E+07    0.5686221986E-05    0.4521041674E-06    0.6960312518E+00    0.1695358437E-02    0.6608601271E+00
    0.4500000000E+07    0.5208362577E-05    0.4146931246E-06    0.6960312928E+00    0.1620327379E-02    0.6611361003E+00
    0.4700000000E+07    0.4789508891E-05    0.3818236977E-06    0.6960313299E+00    0.1551610504E-02    0.6613887865E+00
    0.4900000000E+07    0.4420317245E-05    0.3527862123E-06    0.6960313636E+00    0.1488444745E-02    0.6616210103E+00
    0.1000000000E+07    0.9532708897E-04    0.7063336959E-05    0.6960279375E+00    0.6981195562E-02    0.6411183251E+00
    0.3000000000E+07    0.1143100889E-04    0.8964015500E-06    0.6960308365E+00    0.2422250534E-02    0.6581821120E+00
    0.5000000000E+07    0.4251922683E-05    0.3395200809E-06    0.6960313793E+00    0.1458737994E-02    0.6617302091E+00
    0.7000000000E+07    0.2240239501E-05    0.1797480234E-06    0.6960315858E+00    0.1041705299E-02    0.6632623478E+00
    0.9000000000E+07    0.1403059286E-05    0.1123046796E-06    0.6960316821E+00    0.8092911955E-03    0.6641158778E+00
    0.1100000000E+08    0.9749528921E-06    0.7749420699E-07    0.6960317297E+00    0.6612439210E-03    0.6646596683E+00
    0.1300000000E+08    0.7261886689E-06    0.5714188077E-07    0.6960317521E+00    0.5587386340E-03    0.6650363234E+00
    0.1500000000E+08    0.5684293530E-06    0.4418452603E-07    0.6960317599E+00    0.4835914109E-03    0.6653125806E+00
    0.1700000000E+08    0.4617984585E-06    0.3540716991E-07    0.6960317588E+00    0.4261557205E-03    0.6655238317E+00
    0.1900000000E+08    0.3861366382E-06    0.2917360892E-07    0.6960317520E+00    0.3808400948E-03    0.6656905889E+00
    0.2100000000E+08    0.3303525207E-06    0.2457869721E-07    0.6960317413E+00    0.3441808248E-03    0.6658255593E+00
    0.2300000000E+08    0.2879288185E-06    0.2108816812E-07    0.6960317281E+00    0.3139181917E-03    0.6659370337E+00
    0.2500000000E+08    0.2548287300E-06    0.1836985983E-07    0.6960317130E+00    0.2885153896E-03    0.6660306516E+00
    0.2700000000E+08    0.2284414431E-06    0.1620828161E-07    0.6960316968E+00    0.2668909823E-03    0.6661103821E+00
