  Pressure (Pa) 22mC5-500 (mol/kg) 23mC5-500 (mol/kg) 24mC5-500 (mol/kg) 2mC6-500 (mol/kg) 3mC6-500 (mol/kg)
    0.1000000000E+01    0.1857314317E-04    0.4311741767E-05    0.3666094328E-01    0.1817450227E-04    0.3647404253E-04
    0.3000000000E+01    0.5135452922E-04    0.1192521615E-04    0.9949305035E-01    0.5072887639E-04    0.1094005511E-03
    0.5000000000E+01    0.7967888162E-04    0.1850844050E-04    0.1513838400E+00    0.7949121605E-04    0.1822983433E-03
    0.7000000000E+01    0.1047061759E-03    0.2433056320E-04    0.1949627862E+00    0.1055259832E-03    0.2551674706E-03
    0.9000000000E+01    0.1272381437E-03    0.2957745521E-04    0.2320792398E+00    0.1295564742E-03    0.3280079753E-03
    0.1100000000E+02    0.1478448274E-03    0.3438115846E-04    0.2640717682E+00    0.1520876593E-03    0.4008198937E-03
    0.1300000000E+02    0.1669413771E-03    0.3883774916E-04    0.2919331148E+00    0.1734802393E-03    0.4736032581E-03
    0.1500000000E+02    0.1848364277E-03    0.4301858606E-04    0.3164151071E+00    0.1939969497E-03    0.5463580980E-03
    0.1700000000E+02    0.2017635631E-03    0.4697762308E-04    0.3380975594E+00    0.2138324268E-03    0.6190844407E-03
    0.1900000000E+02    0.2179023533E-03    0.5075629629E-04    0.3574348075E+00    0.2331329937E-03    0.6917823118E-03
    0.2100000000E+02    0.2333927643E-03    0.5438686983E-04    0.3747879114E+00    0.2520100810E-03    0.7644517359E-03
    0.2300000000E+02    0.2483452403E-03    0.5789477574E-04    0.3904474248E+00    0.2705495177E-03    0.8370927369E-03
    0.2500000000E+02    0.2628478932E-03    0.6130028161E-04    0.4046498051E+00    0.2888180826E-03    0.9097053375E-03
    0.2700000000E+02    0.2769717164E-03    0.6461969926E-04    0.4175894437E+00    0.3068682001E-03    0.9822895602E-03
    0.2900000000E+02    0.2907744240E-03    0.6786627432E-04    0.4294276229E+00    0.3247413550E-03    0.1054845427E-02
    0.3100000000E+02    0.3043033170E-03    0.7105084992E-04    0.4402992771E+00    0.3424706099E-03    0.1127372960E-02
    0.3300000000E+02    0.3175974497E-03    0.7418236811E-04    0.4503181628E+00    0.3600824823E-03    0.1199872179E-02
    0.3500000000E+02    0.3306892868E-03    0.7726825303E-04    0.4595808563E+00    0.3775983609E-03    0.1272343107E-02
    0.3700000000E+02    0.3436059829E-03    0.8031470682E-04    0.4681698798E+00    0.3950355837E-03    0.1344785763E-02
    0.3900000000E+02    0.3563703820E-03    0.8332694032E-04    0.4761561678E+00    0.4124082679E-03    0.1417200169E-02
    0.4100000000E+02    0.3690018027E-03    0.8630935451E-04    0.4836010326E+00    0.4297279520E-03    0.1489586345E-02
    0.4300000000E+02    0.3815166630E-03    0.8926568448E-04    0.4905577422E+00    0.4470040984E-03    0.1561944311E-02
    0.4500000000E+02    0.3939289782E-03    0.9219911444E-04    0.4970727978E+00    0.4642444891E-03    0.1634274088E-02
    0.4700000000E+02    0.4062507638E-03    0.9511237030E-04    0.5031869755E+00    0.4814555386E-03    0.1706575696E-02
    0.4900000000E+02    0.4184923605E-03    0.9800779466E-04    0.5089361809E+00    0.4986425439E-03    0.1778849155E-02
    0.1000000000E+02    0.1377532394E-03    0.3202801364E-04    0.2486472921E+00    0.1409841984E-03    0.3644175057E-03
    0.3000000000E+02    0.2975704847E-03    0.6946571360E-04    0.4349767112E+00    0.3336221777E-03    0.1091112734E-02
    0.5000000000E+02    0.4245859282E-03    0.9944946259E-04    0.5116839841E+00    0.5072284298E-03    0.1814975335E-02
    0.7000000000E+02    0.5438732529E-03    0.1277133524E-03    0.5535281849E+00    0.6784117885E-03    0.2536025969E-02
    0.9000000000E+02    0.6604840300E-03    0.1553945257E-03    0.5798787428E+00    0.8493139642E-03    0.3254284335E-02
    0.1100000000E+03    0.7758509146E-03    0.1828087444E-03    0.5979978715E+00    0.1020145824E-02    0.3969769759E-02
    0.1300000000E+03    0.8904459479E-03    0.2100567027E-03    0.6112221709E+00    0.1190796296E-02    0.4682501318E-02
    0.1500000000E+03    0.1004429582E-02    0.2371705550E-03    0.6212994466E+00    0.1361121768E-02    0.5392497882E-02
    0.1700000000E+03    0.1117849390E-02    0.2641582408E-03    0.6292338230E+00    0.1531000799E-02    0.6099778127E-02
    0.1900000000E+03    0.1230710134E-02    0.2910188807E-03    0.6356432713E+00    0.1700339674E-02    0.6804360549E-02
    0.2100000000E+03    0.1343000795E-02    0.3177485988E-03    0.6409289646E+00    0.1869067977E-02    0.7506263464E-02
    0.2300000000E+03    0.1454705550E-02    0.3443428186E-03    0.6453626887E+00    0.2037133166E-02    0.8205505017E-02
    0.2500000000E+03    0.1565808284E-02    0.3707971646E-03    0.6491351157E+00    0.2204496068E-02    0.8902103181E-02
    0.2700000000E+03    0.1676294366E-02    0.3971077852E-03    0.6523839649E+00    0.2371127474E-02    0.9596075763E-02
    0.2900000000E+03    0.1786151239E-02    0.4232714333E-03    0.6552111926E+00    0.2537005641E-02    0.1028744040E-01
    0.3100000000E+03    0.1895368496E-02    0.4492854467E-03    0.6576938939E+00    0.2702114472E-02    0.1097621458E-01
    0.3300000000E+03    0.2003937736E-02    0.4751476910E-03    0.6598914454E+00    0.2866442175E-02    0.1166241560E-01
    0.3500000000E+03    0.2111852350E-02    0.5008564924E-03    0.6618503193E+00    0.3029980283E-02    0.1234606064E-01
    0.3700000000E+03    0.2219107293E-02    0.5264105734E-03    0.6636074086E+00    0.3192722914E-02    0.1302716669E-01
    0.3900000000E+03    0.2325698862E-02    0.5518089934E-03    0.6651923742E+00    0.3354666219E-02    0.1370575059E-01
    0.4100000000E+03    0.2431624506E-02    0.5770510979E-03    0.6666293349E+00    0.3515807958E-02    0.1438182905E-01
    0.4300000000E+03    0.2536882657E-02    0.6021364745E-03    0.6679381035E+00    0.3676147180E-02    0.1505541859E-01
    0.4500000000E+03    0.2641472582E-02    0.6270649164E-03    0.6691351073E+00    0.3835683967E-02    0.1572653561E-01
    0.4700000000E+03    0.2745394258E-02    0.6518363908E-03    0.6702340813E+00    0.3994419237E-02    0.1639519635E-01
    0.4900000000E+03    0.2848648273E-02    0.6764510128E-03    0.6712465982E+00    0.4152354588E-02    0.1706141690E-01
    0.1000000000E+03    0.7182821785E-03    0.1691262134E-03    0.5897056817E+00    0.9347434932E-03    0.3612372467E-02
    0.3000000000E+03    0.1840840390E-02    0.4362972894E-03    0.6564915480E+00    0.2619657048E-02    0.1063215021E-01
    0.5000000000E+03    0.2900025235E-02    0.6886995751E-03    0.6717235632E+00    0.4231022950E-02    0.1739361710E-01
    0.7000000000E+03    0.3892993727E-02    0.9255459514E-03    0.6784749603E+00    0.5763129096E-02    0.2391333548E-01
    0.9000000000E+03    0.4822304613E-02    0.1147426548E-02    0.6822868515E+00    0.7219439985E-02    0.3020644003E-01
    0.1100000000E+04    0.5691769769E-02    0.1355232255E-02    0.6847361511E+00    0.8604452935E-02    0.3628678971E-01
    0.1300000000E+04    0.6505351463E-02    0.1549889917E-02    0.6864428670E+00    0.9922634694E-02    0.4216709989E-01
    0.1500000000E+04    0.7266862908E-02    0.1732291532E-02    0.6877003564E+00    0.1117820100E-01    0.4785905839E-01
    0.1700000000E+04    0.7979880394E-02    0.1903273674E-02    0.6886654185E+00    0.1237507119E-01    0.5337342758E-01
    0.1900000000E+04    0.8647723616E-02    0.2063612925E-02    0.6894294754E+00    0.1351687073E-01    0.5872013465E-01
    0.2100000000E+04    0.9273460653E-02    0.2214027089E-02    0.6900494316E+00    0.1460694817E-01    0.6390835146E-01
    0.2300000000E+04    0.9859922129E-02    0.2355178517E-02    0.6905625606E+00    0.1564839628E-01    0.6894656541E-01
    0.2500000000E+04    0.1040971844E-01    0.2487678142E-02    0.6909942989E+00    0.1664407341E-01    0.7384264256E-01
    0.2700000000E+04    0.1092525742E-01    0.2612089620E-02    0.6913625997E+00    0.1759662373E-01    0.7860388377E-01
    0.2900000000E+04    0.1140876141E-01    0.2728933305E-02    0.6916804967E+00    0.1850849605E-01    0.8323707498E-01
    0.3100000000E+04    0.1186228316E-01    0.2838689974E-02    0.6919576810E+00    0.1938196090E-01    0.8774853214E-01
    0.3300000000E+04    0.1228772052E-01    0.2941804242E-02    0.6922015083E+00    0.2021912603E-01    0.9214414156E-01
    0.3500000000E+04    0.1268682982E-01    0.3038687698E-02    0.6924176627E+00    0.2102195044E-01    0.9642939616E-01
    0.3700000000E+04    0.1306123808E-01    0.3129721734E-02    0.6926106059E+00    0.2179225705E-01    0.1006094281E+00
    0.3900000000E+04    0.1341245402E-01    0.3215260130E-02    0.6927838890E+00    0.2253174413E-01    0.1046890382E+00
    0.4100000000E+04    0.1374187808E-01    0.3295631380E-02    0.6929403737E+00    0.2324199565E-01    0.1086727225E+00
    0.4300000000E+04    0.1405081149E-01    0.3371140809E-02    0.6930823919E+00    0.2392449058E-01    0.1125646966E+00
    0.4500000000E+04    0.1434046450E-01    0.3442072487E-02    0.6932118628E+00    0.2458061141E-01    0.1163689171E+00
    0.4700000000E+04    0.1461196376E-01    0.3508690962E-02    0.6933303804E+00    0.2521165177E-01    0.1200891015E+00
    0.4900000000E+04    0.1486635912E-01    0.3571242836E-02    0.6934392796E+00    0.2581882339E-01    0.1237287467E+00
    0.1000000000E+04    0.5264268635E-02    0.1253030456E-02    0.6836316599E+00    0.7920574805E-02    0.3327238914E-01
    0.3000000000E+04    0.1163914798E-01    0.2784668919E-02    0.6918236725E+00    0.1894989403E-01    0.8550764279E-01
    0.5000000000E+04    0.1498745145E-01    0.3601066308E-02    0.6934904813E+00    0.2611381628E-01    0.1255194033E+00
    0.7000000000E+04    0.1671691046E-01    0.4032382695E-02    0.6942086891E+00    0.3100194726E-01    0.1578098632E+00
    0.9000000000E+04    0.1752536765E-01    0.4242888960E-02    0.6946089764E+00    0.3444503058E-01    0.1848312484E+00
    0.1100000000E+05    0.1778768223E-01    0.4321220196E-02    0.6948643007E+00    0.3691772918E-01    0.2080433547E+00
    0.1300000000E+05    0.1771796040E-01    0.4318262943E-02    0.6950413956E+00    0.3871047353E-01    0.2283763213E+00
    0.1500000000E+05    0.1744430888E-01    0.4264643902E-02    0.6951714720E+00    0.4001077068E-01    0.2464555766E+00
    0.1700000000E+05    0.1704613607E-01    0.4179475154E-02    0.6952710815E+00    0.4094500653E-01    0.2627204447E+00
    0.1900000000E+05    0.1657399340E-01    0.4075017395E-02    0.6953498196E+00    0.4160141897E-01    0.2774908846E+00
    0.2100000000E+05    0.1606069305E-01    0.3959300109E-02    0.6954136334E+00    0.4204343322E-01    0.2910071027E+00
    0.2300000000E+05    0.1552781098E-01    0.3837658927E-02    0.6954664055E+00    0.4231776512E-01    0.3034541386E+00
    0.2500000000E+05    0.1498962996E-01    0.3713670929E-02    0.6955107784E+00    0.4245954003E-01    0.3149777155E+00
    0.2700000000E+05    0.1445560377E-01    0.3589741396E-02    0.6955486133E+00    0.4249563628E-01    0.3256948001E+00
    0.2900000000E+05    0.1393193751E-01    0.3467481617E-02    0.6955812587E+00    0.4244693321E-01    0.3357008414E+00
    0.3100000000E+05    0.1342262350E-01    0.3347957662E-02    0.6956097160E+00    0.4232986154E-01    0.3450748611E+00
    0.3300000000E+05    0.1293013311E-01    0.3231857356E-02    0.6956347444E+00    0.4215749672E-01    0.3538831134E+00
    0.3500000000E+05    0.1245588631E-01    0.3119604204E-02    0.6956569298E+00    0.4194034567E-01    0.3621817701E+00
    0.3700000000E+05    0.1200057463E-01    0.3011436228E-02    0.6956767318E+00    0.4168692272E-01    0.3700189262E+00
    0.3900000000E+05    0.1156438584E-01    0.2907461161E-02    0.6956945158E+00    0.4140417827E-01    0.3774361234E+00
    0.4100000000E+05    0.1114716166E-01    0.2807695491E-02    0.6957105761E+00    0.4109782218E-01    0.3844695241E+00
    0.4300000000E+05    0.1074850935E-01    0.2712092296E-02    0.6957251524E+00    0.4077257113E-01    0.3911508280E+00
    0.4500000000E+05    0.1036788097E-01    0.2620561212E-02    0.6957384419E+00    0.4043233980E-01    0.3975079983E+00
    0.4700000000E+05    0.1000462993E-01    0.2532982828E-02    0.6957506083E+00    0.4008039046E-01    0.4035658415E+00
    0.4900000000E+05    0.9658051331E-02    0.2449219090E-02    0.6957617886E+00    0.3971945091E-01    0.4093464770E+00
    0.1000000000E+05    0.1770877628E-01    0.4294776180E-02    0.6947493403E+00    0.3578142981E-01    0.1968462676E+00
    0.3000000000E+05    0.1367530273E-01    0.3407327349E-02    0.6955959587E+00    0.4239605803E-01    0.3404624492E+00
    0.5000000000E+05    0.9490785241E-02    0.2408721368E-02    0.6957670457E+00    0.3953633964E-01    0.4121391150E+00
    0.7000000000E+05    0.6845456260E-02    0.1761904002E-02    0.6958408448E+00    0.3579403042E-01    0.4573233182E+00
    0.9000000000E+05    0.5140307564E-02    0.1338106150E-02    0.6958820570E+00    0.3234122181E-01    0.4887524188E+00
    0.1100000000E+06    0.3991106323E-02    0.1048866825E-02    0.6959083998E+00    0.2935304499E-01    0.5119552263E+00
    0.1300000000E+06    0.3184031879E-02    0.8436337199E-03    0.6959267094E+00    0.2680201711E-01    0.5298098286E+00
    0.1500000000E+06    0.2597098942E-02    0.6930711730E-03    0.6959401847E+00    0.2462216610E-01    0.5439814731E+00
    0.1700000000E+06    0.2157598177E-02    0.5794689038E-03    0.6959505235E+00    0.2274866022E-01    0.5555056769E+00
    0.1900000000E+06    0.1820297664E-02    0.4916953406E-03    0.6959587108E+00    0.2112660044E-01    0.5650617868E+00
    0.2100000000E+06    0.1555964901E-02    0.4224936629E-03    0.6959653578E+00    0.1971155151E-01    0.5731145481E+00
    0.2300000000E+06    0.1345067698E-02    0.3669785389E-03    0.6959708637E+00    0.1846802560E-01    0.5799928586E+00
    0.2500000000E+06    0.1174171331E-02    0.3217673533E-03    0.6959755006E+00    0.1736770865E-01    0.5859361137E+00
    0.2700000000E+06    0.1033798005E-02    0.2844595467E-03    0.6959794603E+00    0.1638791150E-01    0.5911227517E+00
    0.2900000000E+06    0.9171109868E-03    0.2533141409E-03    0.6959828818E+00    0.1551033029E-01    0.5956885119E+00
    0.3100000000E+06    0.8190807315E-03    0.2270440314E-03    0.6959858685E+00    0.1472008558E-01    0.5997384942E+00
    0.3300000000E+06    0.7359419279E-03    0.2046812553E-03    0.6959884989E+00    0.1400498602E-01    0.6033553456E+00
    0.3500000000E+06    0.6648313106E-03    0.1854866333E-03    0.6959908334E+00    0.1335496469E-01    0.6066049542E+00
    0.3700000000E+06    0.6035407435E-03    0.1688878695E-03    0.6959929197E+00    0.1276164633E-01    0.6095404925E+00
    0.3900000000E+06    0.5503455609E-03    0.1544363220E-03    0.6959947957E+00    0.1221801311E-01    0.6122053440E+00
    0.4100000000E+06    0.5038830936E-03    0.1417762861E-03    0.6959964918E+00    0.1171814485E-01    0.6146352569E+00
    0.4300000000E+06    0.4630653146E-03    0.1306228173E-03    0.6959980329E+00    0.1125701544E-01    0.6168599526E+00
    0.4500000000E+06    0.4270150893E-03    0.1207454889E-03    0.6959994394E+00    0.1083033229E-01    0.6189043443E+00
    0.4700000000E+06    0.3950190236E-03    0.1119563370E-03    0.6960007284E+00    0.1043440869E-01    0.6207894718E+00
    0.4900000000E+06    0.3664921528E-03    0.1041008032E-03    0.6960019142E+00    0.1006606155E-01    0.6225332252E+00
    0.1000000000E+06    0.4512439414E-02    0.1180480762E-02    0.6958965320E+00    0.3078898248E-01    0.5011634129E+00
    0.3000000000E+06    0.8660237939E-03    0.2396364233E-03    0.6959844241E+00    0.1510510850E-01    0.5977723600E+00
    0.5000000000E+06    0.3533752631E-03    0.1004822498E-03    0.6960024722E+00    0.9891351525E-02    0.6233569586E+00
    0.7000000000E+06    0.1908637318E-03    0.5522765480E-04    0.6960103377E+00    0.7335118591E-02    0.6351753465E+00
    0.9000000000E+06    0.1194574745E-03    0.3499563035E-04    0.6960147634E+00    0.5822173174E-02    0.6419779363E+00
    0.1100000000E+07    0.8189844494E-04    0.2421364642E-04    0.6960176089E+00    0.4823396243E-02    0.6463970047E+00
    0.1300000000E+07    0.5974054675E-04    0.1778598520E-04    0.6960195957E+00    0.4115270497E-02    0.6494976730E+00
    0.1500000000E+07    0.4558239037E-04    0.1364323773E-04    0.6960210631E+00    0.3587287840E-02    0.6517929148E+00
    0.1700000000E+07    0.3598770567E-04    0.1081512920E-04    0.6960221921E+00    0.3178599327E-02    0.6535602284E+00
    0.1900000000E+07    0.2918502008E-04    0.8797279811E-05    0.6960230879E+00    0.2852958451E-02    0.6549628155E+00
    0.2100000000E+07    0.2418594897E-04    0.7306236412E-05    0.6960238163E+00    0.2587437139E-02    0.6561029210E+00
    0.2300000000E+07    0.2040377446E-04    0.6172664819E-05    0.6960244203E+00    0.2366827335E-02    0.6570478549E+00
    0.2500000000E+07    0.1747238175E-04    0.5290298454E-05    0.6960249291E+00    0.2180646190E-02    0.6578437357E+00
    0.2700000000E+07    0.1515372188E-04    0.4589687960E-05    0.6960253637E+00    0.2021434358E-02    0.6585232188E+00
    0.2900000000E+07    0.1328758434E-04    0.4023874838E-05    0.6960257391E+00    0.1883739947E-02    0.6591100746E+00
    0.3100000000E+07    0.1176293447E-04    0.3560175305E-05    0.6960260666E+00    0.1763486226E-02    0.6596220163E+00
    0.3300000000E+07    0.1050084918E-04    0.3175266495E-05    0.6960263547E+00    0.1657564035E-02    0.6600725137E+00
    0.3500000000E+07    0.9443981788E-05    0.2852140047E-05    0.6960266101E+00    0.1563561002E-02    0.6604719915E+00
    0.3700000000E+07    0.8549849668E-05    0.2578153545E-05    0.6960268379E+00    0.1479576826E-02    0.6608286436E+00
    0.3900000000E+07    0.7786437744E-05    0.2343749625E-05    0.6960270424E+00    0.1404094345E-02    0.6611489994E+00
    0.4100000000E+07    0.7129247822E-05    0.2141593390E-05    0.6960272270E+00    0.1335887668E-02    0.6614383258E+00
    0.4300000000E+07    0.6559274754E-05    0.1965978892E-05    0.6960273942E+00    0.1273955527E-02    0.6617009181E+00
    0.4500000000E+07    0.6061591062E-05    0.1812412813E-05    0.6960275464E+00    0.1217472111E-02    0.6619403142E+00
    0.4700000000E+07    0.5624339577E-05    0.1677317319E-05    0.6960276856E+00    0.1165750277E-02    0.6621594547E+00
    0.4900000000E+07    0.5238004985E-05    0.1557814607E-05    0.6960278132E+00    0.1118213634E-02    0.6623608033E+00
    0.1000000000E+07    0.9800699367E-04    0.2885295594E-04    0.6960163252E+00    0.5276352929E-02    0.6443997003E+00
    0.3000000000E+07    0.1248811172E-04    0.3780895490E-05    0.6960259083E+00    0.1821646311E-02    0.6593744847E+00
    0.5000000000E+07    0.5061463817E-05    0.1503162766E-05    0.6960278731E+00    0.1095859541E-02    0.6624554685E+00
    0.7000000000E+07    0.2927659219E-05    0.8406884239E-06    0.6960287019E+00    0.7822021282E-03    0.6637827067E+00
    0.9000000000E+07    0.2012958046E-05    0.5563984685E-06    0.6960291446E+00    0.6075265060E-03    0.6645213483E+00
    0.1100000000E+08    0.1529710886E-05    0.4069523246E-06    0.6960294101E+00    0.4963060459E-03    0.6649917057E+00
    0.1300000000E+08    0.1239025186E-05    0.3178433573E-06    0.6960295800E+00    0.4193206963E-03    0.6653174103E+00
    0.1500000000E+08    0.1047953669E-05    0.2599285046E-06    0.6960296925E+00    0.3628935859E-03    0.6655562644E+00
    0.1700000000E+08    0.9139995979E-06    0.2198485529E-06    0.6960297683E+00    0.3197722936E-03    0.6657389025E+00
    0.1900000000E+08    0.8153849790E-06    0.1907530435E-06    0.6960298191E+00    0.2857543916E-03    0.6658830717E+00
    0.2100000000E+08    0.7399556016E-06    0.1688220337E-06    0.6960298524E+00    0.2582372611E-03    0.6659997624E+00
    0.2300000000E+08    0.6804628015E-06    0.1517819721E-06    0.6960298729E+00    0.2355232833E-03    0.6660961440E+00
    0.2500000000E+08    0.6323473988E-06    0.1382071273E-06    0.6960298839E+00    0.2164581091E-03    0.6661770921E+00
    0.2700000000E+08    0.5926139823E-06    0.1271643007E-06    0.6960298877E+00    0.2002295383E-03    0.6662460379E+00
