  Pressure (Pa) 22mC5-500 (mol/kg) 23mC5-500 (mol/kg) 24mC5-500 (mol/kg) 2mC6-500 (mol/kg) 3mC6-500 (mol/kg)
    0.1000000000E+01    0.1543256488E-04    0.3585427752E-05    0.1741124826E+00    0.1547467095E-04    0.1042153404E-04
    0.3000000000E+01    0.3504696082E-04    0.8161914827E-05    0.3481420667E+00    0.3732234488E-04    0.3126080419E-04
    0.5000000000E+01    0.4975230495E-04    0.1161443900E-04    0.4351281346E+00    0.5577783296E-04    0.5209509923E-04
    0.7000000000E+01    0.6284599454E-04    0.1470217276E-04    0.4873116852E+00    0.7339737503E-04    0.7292445517E-04
    0.9000000000E+01    0.7529048424E-04    0.1764506112E-04    0.5220978157E+00    0.9080520974E-04    0.9374888654E-04
    0.1100000000E+02    0.8744464002E-04    0.2052442233E-04    0.5469438581E+00    0.1081868989E-03    0.1145684013E-03
    0.1300000000E+02    0.9946308439E-04    0.2337494776E-04    0.5655778610E+00    0.1256005541E-03    0.1353830047E-03
    0.1500000000E+02    0.1114188662E-03    0.2621283013E-04    0.5800707337E+00    0.1430619949E-03    0.1561927008E-03
    0.1700000000E+02    0.1233485815E-03    0.2904605740E-04    0.5916649258E+00    0.1605721790E-03    0.1769974930E-03
    0.1900000000E+02    0.1352711796E-03    0.3187867984E-04    0.6011510430E+00    0.1781269770E-03    0.1977973844E-03
    0.2100000000E+02    0.1471965548E-03    0.3471274758E-04    0.6090561338E+00    0.1957208542E-03    0.2185923775E-03
    0.2300000000E+02    0.1591297553E-03    0.3754925356E-04    0.6157450665E+00    0.2133482699E-03    0.2393824752E-03
    0.2500000000E+02    0.1710731602E-03    0.4038861740E-04    0.6214784553E+00    0.2310041747E-03    0.2601676798E-03
    0.2700000000E+02    0.1830276539E-03    0.4323094426E-04    0.6264474136E+00    0.2486841452E-03    0.2809479938E-03
    0.2900000000E+02    0.1949932808E-03    0.4607616771E-04    0.6307952746E+00    0.2663843748E-03    0.3017234196E-03
    0.3100000000E+02    0.2069696209E-03    0.4892413042E-04    0.6346316448E+00    0.2841016124E-03    0.3224939595E-03
    0.3300000000E+02    0.2189560066E-03    0.5177463040E-04    0.6380417729E+00    0.3018330871E-03    0.3432596158E-03
    0.3500000000E+02    0.2309516518E-03    0.5462744768E-04    0.6410929603E+00    0.3195764360E-03    0.3640203908E-03
    0.3700000000E+02    0.2429557273E-03    0.5748235958E-04    0.6438390476E+00    0.3373296394E-03    0.3847762868E-03
    0.3900000000E+02    0.2549674046E-03    0.6033914930E-04    0.6463236201E+00    0.3550909656E-03    0.4055273059E-03
    0.4100000000E+02    0.2669858814E-03    0.6319761057E-04    0.6485823384E+00    0.3728589240E-03    0.4262734505E-03
    0.4300000000E+02    0.2790103950E-03    0.6605754983E-04    0.6506446611E+00    0.3906322269E-03    0.4470147228E-03
    0.4500000000E+02    0.2910402291E-03    0.6891878709E-04    0.6525351372E+00    0.4084097572E-03    0.4677511249E-03
    0.4700000000E+02    0.3030747158E-03    0.7178115590E-04    0.6542743877E+00    0.4261905419E-03    0.4884826591E-03
    0.4900000000E+02    0.3151132357E-03    0.7464450285E-04    0.6558798612E+00    0.4439737305E-03    0.5092093276E-03
    0.1000000000E+02    0.8139143498E-04    0.1908988808E-04    0.5354765644E+00    0.9949415652E-04    0.1041592581E-03
    0.3000000000E+02    0.2009801495E-03    0.4749981862E-04    0.6327715836E+00    0.2752410512E-03    0.3121093001E-03
    0.5000000000E+02    0.3211338273E-03    0.7607649858E-04    0.6566371642E+00    0.4528659894E-03    0.5195708378E-03
    0.7000000000E+02    0.4416404409E-03    0.1047391974E-03    0.6674264935E+00    0.6306971240E-03    0.7265461281E-03
    0.9000000000E+02    0.5621182485E-03    0.1333949157E-03    0.6735756610E+00    0.8082893895E-03    0.9330373444E-03
    0.1100000000E+03    0.6823875688E-03    0.1620009276E-03    0.6775483700E+00    0.9854871150E-03    0.1139046634E-02
    0.1300000000E+03    0.8023557367E-03    0.1905354543E-03    0.6803264304E+00    0.1162223057E-02    0.1344576128E-02
    0.1500000000E+03    0.9219705374E-03    0.2189863197E-03    0.6823783029E+00    0.1338464218E-02    0.1549627940E-02
    0.1700000000E+03    0.1041200570E-02    0.2473462461E-03    0.6839558270E+00    0.1514193130E-02    0.1754204172E-02
    0.1900000000E+03    0.1160026072E-02    0.2756106777E-03    0.6852064574E+00    0.1689400209E-02    0.1958306912E-02
    0.2100000000E+03    0.1278434225E-02    0.3037766754E-03    0.6862222690E+00    0.1864080214E-02    0.2161938235E-02
    0.2300000000E+03    0.1396416585E-02    0.3318423137E-03    0.6870637249E+00    0.2038230455E-02    0.2365100203E-02
    0.2500000000E+03    0.1513967578E-02    0.3598063304E-03    0.6877721704E+00    0.2211849828E-02    0.2567794866E-02
    0.2700000000E+03    0.1631083582E-02    0.3876679129E-03    0.6883768357E+00    0.2384938241E-02    0.2770024260E-02
    0.2900000000E+03    0.1747762344E-02    0.4154265631E-03    0.6888989705E+00    0.2557496285E-02    0.2971790411E-02
    0.3100000000E+03    0.1864002594E-02    0.4430820081E-03    0.6893543936E+00    0.2729525014E-02    0.3173095332E-02
    0.3300000000E+03    0.1979803782E-02    0.4706341398E-03    0.6897551238E+00    0.2901025808E-02    0.3373941021E-02
    0.3500000000E+03    0.2095165897E-02    0.4980829731E-03    0.6901104563E+00    0.3072000278E-02    0.3574329468E-02
    0.3700000000E+03    0.2210089336E-02    0.5254286158E-03    0.6904276928E+00    0.3242450205E-02    0.3774262649E-02
    0.3900000000E+03    0.2324574812E-02    0.5526712472E-03    0.6907126487E+00    0.3412377491E-02    0.3973742529E-02
    0.4100000000E+03    0.2438623280E-02    0.5798111021E-03    0.6909700131E+00    0.3581784129E-02    0.4172771061E-02
    0.4300000000E+03    0.2552235888E-02    0.6068484585E-03    0.6912036089E+00    0.3750672179E-02    0.4371350185E-02
    0.4500000000E+03    0.2665413937E-02    0.6337836289E-03    0.6914165838E+00    0.3919043752E-02    0.4569481832E-02
    0.4700000000E+03    0.2778158846E-02    0.6606169530E-03    0.6916115531E+00    0.4086900994E-02    0.4767167920E-02
    0.4900000000E+03    0.2890472135E-02    0.6873487924E-03    0.6917907079E+00    0.4254246076E-02    0.4964410355E-02
    0.1000000000E+03    0.6222860581E-03    0.1477058052E-03    0.6757548376E+00    0.8969429300E-03    0.1036102097E-02
    0.3000000000E+03    0.1805937332E-02    0.4292671963E-03    0.6891341955E+00    0.2643576734E-02    0.3072500400E-02
    0.5000000000E+03    0.2946467417E-02    0.7006767732E-03    0.6918749443E+00    0.4337727242E-02    0.5062865795E-02
    0.7000000000E+03    0.4044131551E-02    0.9620074658E-03    0.6930565387E+00    0.5981002788E-02    0.7009140632E-02
    0.9000000000E+03    0.5100689005E-02    0.1213674364E-02    0.6937148635E+00    0.7575590811E-02    0.8913155449E-02
    0.1100000000E+04    0.6118002830E-02    0.1456114684E-02    0.6941345255E+00    0.9123618749E-02    0.1077663707E-01
    0.1300000000E+04    0.7097882365E-02    0.1689752390E-02    0.6944254060E+00    0.1062710653E-01    0.1260121593E-01
    0.1500000000E+04    0.8042051172E-02    0.1914991117E-02    0.6946389054E+00    0.1208796350E-01    0.1438843281E-01
    0.1700000000E+04    0.8952141283E-02    0.2132212979E-02    0.6948022812E+00    0.1350799304E-01    0.1613974494E-01
    0.1900000000E+04    0.9829694918E-02    0.2341779042E-02    0.6949313332E+00    0.1488889878E-01    0.1785653170E-01
    0.2100000000E+04    0.1067616859E-01    0.2544030308E-02    0.6950358520E+00    0.1623229090E-01    0.1954009979E-01
    0.2300000000E+04    0.1149293796E-01    0.2739288869E-02    0.6951222276E+00    0.1753969227E-01    0.2119168798E-01
    0.2500000000E+04    0.1228130273E-01    0.2927859061E-02    0.6951948079E+00    0.1881254416E-01    0.2281247157E-01
    0.2700000000E+04    0.1304249148E-01    0.3110028592E-02    0.6952566541E+00    0.2005221158E-01    0.2440356645E-01
    0.2900000000E+04    0.1377766619E-01    0.3286069607E-02    0.6953099843E+00    0.2125998822E-01    0.2596603281E-01
    0.3100000000E+04    0.1448792649E-01    0.3456239682E-02    0.6953564445E+00    0.2243710098E-01    0.2750087866E-01
    0.3300000000E+04    0.1517431367E-01    0.3620782755E-02    0.6953972823E+00    0.2358471428E-01    0.2900906302E-01
    0.3500000000E+04    0.1583781438E-01    0.3779929994E-02    0.6954334603E+00    0.2470393392E-01    0.3049149893E-01
    0.3700000000E+04    0.1647936404E-01    0.3933900599E-02    0.6954657333E+00    0.2579581075E-01    0.3194905616E-01
    0.3900000000E+04    0.1709985006E-01    0.4082902548E-02    0.6954947014E+00    0.2686134400E-01    0.3338256384E-01
    0.4100000000E+04    0.1770011483E-01    0.4227133290E-02    0.6955208477E+00    0.2790148444E-01    0.3479281279E-01
    0.4300000000E+04    0.1828095842E-01    0.4366780391E-02    0.6955445655E+00    0.2891713729E-01    0.3618055777E-01
    0.4500000000E+04    0.1884314120E-01    0.4502022127E-02    0.6955661783E+00    0.2990916486E-01    0.3754651952E-01
    0.4700000000E+04    0.1938738618E-01    0.4633028048E-02    0.6955859545E+00    0.3087838912E-01    0.3889138671E-01
    0.4900000000E+04    0.1991438125E-01    0.4759959486E-02    0.6956041187E+00    0.3182559399E-01    0.4021581771E-01
    0.1000000000E+04    0.5614136440E-02    0.1336020907E-02    0.6939456059E+00    0.8355295924E-02    0.9849858828E-02
    0.3000000000E+04    0.1413584424E-01    0.3371872957E-02    0.6953339874E+00    0.2185230339E-01    0.2673684724E-01
    0.5000000000E+04    0.2017161594E-01    0.4821945565E-02    0.6956126567E+00    0.3229117427E-01    0.4087056751E-01
    0.7000000000E+04    0.2455416250E-01    0.5881423178E-02    0.6957322521E+00    0.4061157392E-01    0.5303213834E-01
    0.9000000000E+04    0.2779220907E-01    0.6669730443E-02    0.6957987565E+00    0.4740180515E-01    0.6372249406E-01
    0.1100000000E+05    0.3021212093E-01    0.7263609905E-02    0.6958411091E+00    0.5304907807E-01    0.7327892633E-01
    0.1300000000E+05    0.3203178966E-01    0.7714387571E-02    0.6958704487E+00    0.5781879869E-01    0.8193768245E-01
    0.1500000000E+05    0.3340155100E-01    0.8057541856E-02    0.6958919765E+00    0.6189909254E-01    0.8986972353E-01
    0.1700000000E+05    0.3442802847E-01    0.8318284272E-02    0.6959084474E+00    0.6542712432E-01    0.9720220750E-01
    0.1900000000E+05    0.3518863363E-01    0.8514956303E-02    0.6959214568E+00    0.6850533968E-01    0.1040319517E+00
    0.2100000000E+05    0.3574070991E-01    0.8661173460E-02    0.6959319929E+00    0.7121186008E-01    0.1104341761E+00
    0.2300000000E+05    0.3612748112E-01    0.8767221467E-02    0.6959407002E+00    0.7360734772E-01    0.1164683600E+00
    0.2500000000E+05    0.3638202749E-01    0.8840990436E-02    0.6959480172E+00    0.7573966445E-01    0.1221822700E+00
    0.2700000000E+05    0.3653000712E-01    0.8888614935E-02    0.6959542525E+00    0.7764711022E-01    0.1276147971E+00
    0.2900000000E+05    0.3659155820E-01    0.8914921879E-02    0.6959596297E+00    0.7936072240E-01    0.1327979965E+00
    0.3100000000E+05    0.3658265368E-01    0.8923749848E-02    0.6959643147E+00    0.8090593933E-01    0.1377585818E+00
    0.3300000000E+05    0.3651608227E-01    0.8918180595E-02    0.6959684331E+00    0.8230382456E-01    0.1425190375E+00
    0.3500000000E+05    0.3640216962E-01    0.8900709445E-02    0.6959720821E+00    0.8357198166E-01    0.1470984598E+00
    0.3700000000E+05    0.3624931585E-01    0.8873372450E-02    0.6959753375E+00    0.8472524727E-01    0.1515132014E+00
    0.3900000000E+05    0.3606440106E-01    0.8837842448E-02    0.6959782600E+00    0.8577622295E-01    0.1557773709E+00
    0.4100000000E+05    0.3585309488E-01    0.8795502476E-02    0.6959808981E+00    0.8673568800E-01    0.1599032257E+00
    0.4300000000E+05    0.3562009514E-01    0.8747502449E-02    0.6959832914E+00    0.8761292328E-01    0.1639014821E+00
    0.4500000000E+05    0.3536931368E-01    0.8694803353E-02    0.6959854727E+00    0.8841596781E-01    0.1677815651E+00
    0.4700000000E+05    0.3510402228E-01    0.8638212001E-02    0.6959874688E+00    0.8915182388E-01    0.1715518087E+00
    0.4900000000E+05    0.3482696823E-01    0.8578408591E-02    0.6959893025E+00    0.8982662240E-01    0.1752196197E+00
    0.1000000000E+05    0.2908886070E-01    0.6987307883E-02    0.6958220469E+00    0.5034950720E-01    0.6862582697E-01
    0.3000000000E+05    0.3659504847E-01    0.8921312632E-02    0.6959620501E+00    0.8015297325E-01    0.1353046224E+00
    0.5000000000E+05    0.3468476842E-01    0.8547485819E-02    0.6959901645E+00    0.9014283631E-01    0.1770172077E+00
    0.7000000000E+05    0.3162509406E-01    0.7861205839E-02    0.6960022459E+00    0.9428339782E-01    0.2088811243E+00
    0.9000000000E+05    0.2863570124E-01    0.7170094407E-02    0.6960089725E+00    0.9585481714E-01    0.2351233996E+00
    0.1100000000E+06    0.2595076750E-01    0.6538935694E-02    0.6960132612E+00    0.9608057044E-01    0.2575818263E+00
    0.1300000000E+06    0.2359183021E-01    0.5977850968E-02    0.6960162353E+00    0.9553344906E-01    0.2772530139E+00
    0.1500000000E+06    0.2152888986E-01    0.5482616724E-02    0.6960184196E+00    0.9452013476E-01    0.2947539770E+00
    0.1700000000E+06    0.1972227044E-01    0.5045568725E-02    0.6960200923E+00    0.9321970873E-01    0.3105014545E+00
    0.1900000000E+06    0.1813432582E-01    0.4658867908E-02    0.6960214147E+00    0.9174310223E-01    0.3247945129E+00
    0.2100000000E+06    0.1673236216E-01    0.4315456207E-02    0.6960224864E+00    0.9016193040E-01    0.3378574572E+00
    0.2300000000E+06    0.1548885490E-01    0.4009256886E-02    0.6960233728E+00    0.8852379052E-01    0.3498642088E+00
    0.2500000000E+06    0.1438087577E-01    0.3735126818E-02    0.6960241182E+00    0.8686095330E-01    0.3609531469E+00
    0.2700000000E+06    0.1338936214E-01    0.3488737350E-02    0.6960247538E+00    0.8519557216E-01    0.3712366533E+00
    0.2900000000E+06    0.1249843285E-01    0.3266446256E-02    0.6960253023E+00    0.8354294161E-01    0.3808075299E+00
    0.3100000000E+06    0.1169480515E-01    0.3065181655E-02    0.6960257805E+00    0.8191360738E-01    0.3897434735E+00
    0.3300000000E+06    0.1096731640E-01    0.2882343238E-02    0.6960262011E+00    0.8031477230E-01    0.3981102932E+00
    0.3500000000E+06    0.1030653766E-01    0.2715720500E-02    0.6960265739E+00    0.7875125545E-01    0.4059642831E+00
    0.3700000000E+06    0.9704463326E-02    0.2563425867E-02    0.6960269067E+00    0.7722615964E-01    0.4133540115E+00
    0.3900000000E+06    0.9154261812E-02    0.2423840215E-02    0.6960272057E+00    0.7574134358E-01    0.4203216954E+00
    0.4100000000E+06    0.8650074908E-02    0.2295568519E-02    0.6960274756E+00    0.7429776069E-01    0.4269042733E+00
    0.4300000000E+06    0.8186855569E-02    0.2177403652E-02    0.6960277207E+00    0.7289570504E-01    0.4331342552E+00
    0.4500000000E+06    0.7760236233E-02    0.2068296752E-02    0.6960279441E+00    0.7153499166E-01    0.4390404051E+00
    0.4700000000E+06    0.7366421359E-02    0.1967332868E-02    0.6960281487E+00    0.7021508978E-01    0.4446482931E+00
    0.4900000000E+06    0.7002099296E-02    0.1873710848E-02    0.6960283366E+00    0.6893522190E-01    0.4499807490E+00
    0.1000000000E+06    0.2725172624E-01    0.6845822774E-02    0.6960113304E+00    0.9609128768E-01    0.2467511713E+00
    0.3000000000E+06    0.1208644872E-01    0.3163358179E-02    0.6960255493E+00    0.8272484690E-01    0.3853505078E+00
    0.5000000000E+06    0.6830077341E-02    0.1829429633E-02    0.6960284250E+00    0.6831000891E-01    0.4525501682E+00
    0.7000000000E+06    0.4395373881E-02    0.1196783572E-02    0.6960296660E+00    0.5763642540E-01    0.4934847586E+00
    0.9000000000E+06    0.3066358349E-02    0.8456670590E-03    0.6960303590E+00    0.4969111928E-01    0.5212167338E+00
    0.1100000000E+07    0.2260895216E-02    0.6301135361E-03    0.6960308017E+00    0.4360716281E-01    0.5412910288E+00
    0.1300000000E+07    0.1735762753E-02    0.4880920246E-03    0.6960311091E+00    0.3881881355E-01    0.5565085508E+00
    0.1500000000E+07    0.1374373599E-02    0.3894778208E-03    0.6960313350E+00    0.3496008798E-01    0.5684465746E+00
    0.1700000000E+07    0.1115066442E-02    0.3181682431E-03    0.6960315082E+00    0.3178802280E-01    0.5780639460E+00
    0.1900000000E+07    0.9227137037E-03    0.2649070937E-03    0.6960316450E+00    0.2913630766E-01    0.5859780606E+00
    0.2100000000E+07    0.7761015489E-03    0.2240608149E-03    0.6960317559E+00    0.2688775340E-01    0.5926047860E+00
    0.2300000000E+07    0.6618006952E-03    0.1920385345E-03    0.6960318475E+00    0.2495760965E-01    0.5982346342E+00
    0.2500000000E+07    0.5709725459E-03    0.1664623046E-03    0.6960319246E+00    0.2328316329E-01    0.6030767505E+00
    0.2700000000E+07    0.4976065212E-03    0.1457059944E-03    0.6960319901E+00    0.2181706138E-01    0.6072855670E+00
    0.2900000000E+07    0.4374995867E-03    0.1286266890E-03    0.6960320467E+00    0.2052290590E-01    0.6109776105E+00
    0.3100000000E+07    0.3876410339E-03    0.1144018488E-03    0.6960320959E+00    0.1937227377E-01    0.6142424679E+00
    0.3300000000E+07    0.3458284439E-03    0.1024271411E-03    0.6960321391E+00    0.1834265492E-01    0.6171501495E+00
    0.3500000000E+07    0.3104206026E-03    0.9225039674E-04    0.6960321773E+00    0.1741599604E-01    0.6197561614E+00
    0.3700000000E+07    0.2801742583E-03    0.8352778674E-04    0.6960322114E+00    0.1657765311E-01    0.6221050776E+00
    0.3900000000E+07    0.2541337088E-03    0.7599406147E-04    0.6960322419E+00    0.1581562513E-01    0.6242331052E+00
    0.4100000000E+07    0.2315545443E-03    0.6944191770E-04    0.6960322694E+00    0.1511998515E-01    0.6261699601E+00
    0.4300000000E+07    0.2118499809E-03    0.6370742649E-04    0.6960322943E+00    0.1448245180E-01    0.6279402590E+00
    0.4500000000E+07    0.1945524493E-03    0.5865956790E-04    0.6960323169E+00    0.1389606267E-01    0.6295645682E+00
    0.4700000000E+07    0.1792856744E-03    0.5419260010E-04    0.6960323376E+00    0.1335492227E-01    0.6310602037E+00
    0.4900000000E+07    0.1657440966E-03    0.5022041768E-04    0.6960323565E+00    0.1285400562E-01    0.6324418486E+00
    0.1000000000E+07    0.2617728173E-02    0.7259108217E-03    0.6960306023E+00    0.4645766969E-01    0.5319964609E+00
    0.3000000000E+07    0.4114424542E-03    0.1211994374E-03    0.6960320721E+00    0.1993117543E-01    0.6126586713E+00
    0.5000000000E+07    0.1595402424E-03    0.4839727051E-04    0.6960323654E+00    0.1261726018E-01    0.6330939141E+00
    0.7000000000E+07    0.8397360926E-04    0.2597694904E-04    0.6960324879E+00    0.9213085370E-02    0.6424058371E+00
    0.9000000000E+07    0.5165316311E-04    0.1621456261E-04    0.6960325533E+00    0.7248337396E-02    0.6477282264E+00
    0.1100000000E+08    0.3493183101E-04    0.1109449413E-04    0.6960325928E+00    0.5970551473E-02    0.6511705349E+00
    0.1300000000E+08    0.2518036258E-04    0.8075407500E-05    0.6960326184E+00    0.5073569495E-02    0.6535784279E+00
    0.1500000000E+08    0.1900396272E-04    0.6145314702E-05    0.6960326357E+00    0.4409502292E-02    0.6553567468E+00
    0.1700000000E+08    0.1484795810E-04    0.4836124674E-05    0.6960326477E+00    0.3898204989E-02    0.6567235617E+00
    0.1900000000E+08    0.1191900247E-04    0.3906937604E-05    0.6960326561E+00    0.3492489897E-02    0.6578067108E+00
    0.2100000000E+08    0.9777958072E-05    0.3223420390E-05    0.6960326621E+00    0.3162772808E-02    0.6586860803E+00
    0.2300000000E+08    0.8165820714E-05    0.2705822380E-05    0.6960326662E+00    0.2889568468E-02    0.6594141531E+00
    0.2500000000E+08    0.6921836318E-05    0.2304353076E-05    0.6960326689E+00    0.2659522328E-02    0.6600268262E+00
    0.2700000000E+08    0.5941960459E-05    0.1986613903E-05    0.6960326706E+00    0.2463176472E-02    0.6605494807E+00
