  Pressure (Pa) 22mC5-500 (mol/kg) 23mC5-500 (mol/kg) 24mC5-500 (mol/kg) 2mC6-500 (mol/kg) 3mC6-500 (mol/kg)
    0.1000000000E+01    0.1650257990E-04    0.2874542922E-05    0.1266321717E+00    0.3276395207E-04    0.1042134272E-04
    0.3000000000E+01    0.3942757998E-04    0.6878049952E-05    0.2785245481E+00    0.8153467709E-04    0.3125904064E-04
    0.5000000000E+01    0.5652764975E-04    0.9877410555E-05    0.3664324184E+00    0.1215223899E-03    0.5209015420E-04
    0.7000000000E+01    0.7116206015E-04    0.1245454188E-04    0.4237536497E+00    0.1583199807E-03    0.7291471815E-04
    0.9000000000E+01    0.8459131326E-04    0.1482684517E-04    0.4640869570E+00    0.1938279498E-03    0.9373274971E-04
    0.1100000000E+02    0.9737555288E-04    0.1709046939E-04    0.4940100742E+00    0.2287996657E-03    0.1145442596E-03
    0.1300000000E+02    0.1097931135E-03    0.1929294207E-04    0.5170929586E+00    0.2635628034E-03    0.1353492555E-03
    0.1500000000E+02    0.1219936585E-03    0.2145967268E-04    0.5354406412E+00    0.2982674864E-03    0.1561477437E-03
    0.1700000000E+02    0.1340624742E-03    0.2360504829E-04    0.5503747400E+00    0.3329835906E-03    0.1769397297E-03
    0.1900000000E+02    0.1460503281E-03    0.2573757092E-04    0.5627668910E+00    0.3677426725E-03    0.1977252184E-03
    0.2100000000E+02    0.1579884519E-03    0.2786242715E-04    0.5732152409E+00    0.4025573473E-03    0.2185042144E-03
    0.2300000000E+02    0.1698965332E-03    0.2998285426E-04    0.5821439120E+00    0.4374307254E-03    0.2392767221E-03
    0.2500000000E+02    0.1817871969E-03    0.3210090342E-04    0.5898620005E+00    0.4723611887E-03    0.2600427457E-03
    0.2700000000E+02    0.1936686223E-03    0.3421788374E-04    0.5966000967E+00    0.5073448726E-03    0.2808022894E-03
    0.2900000000E+02    0.2055461247E-03    0.3633462954E-04    0.6025337215E+00    0.5423769738E-03    0.3015553572E-03
    0.3100000000E+02    0.2174231397E-03    0.3845166595E-04    0.6077988404E+00    0.5774524403E-03    0.3223019533E-03
    0.3300000000E+02    0.2293018509E-03    0.4056931396E-04    0.6125024120E+00    0.6125663281E-03    0.3430420815E-03
    0.3500000000E+02    0.2411835983E-03    0.4268775851E-04    0.6167297319E+00    0.6477139760E-03    0.3637757457E-03
    0.3700000000E+02    0.2530691495E-03    0.4480709330E-04    0.6205496531E+00    0.6828910815E-03    0.3845029500E-03
    0.3900000000E+02    0.2649588815E-03    0.4692735086E-04    0.6240183658E+00    0.7180937218E-03    0.4052236982E-03
    0.4100000000E+02    0.2768529057E-03    0.4904852279E-04    0.6271821809E+00    0.7533183465E-03    0.4259379940E-03
    0.4300000000E+02    0.2887511530E-03    0.5117057370E-04    0.6300796095E+00    0.7885617558E-03    0.4466458415E-03
    0.4500000000E+02    0.3006534336E-03    0.5329345073E-04    0.6327429387E+00    0.8238210720E-03    0.4673472444E-03
    0.4700000000E+02    0.3125594786E-03    0.5541709016E-04    0.6351994405E+00    0.8590937094E-03    0.4880422065E-03
    0.4900000000E+02    0.3244689691E-03    0.5754142204E-04    0.6374723087E+00    0.8943773448E-03    0.5087307316E-03
    0.1000000000E+02    0.9104250533E-04    0.1596855584E-04    0.4800804895E+00    0.2113544151E-03    0.1041393193E-03
    0.3000000000E+02    0.2114845329E-03    0.3739308751E-04    0.6052425780E+00    0.5599096006E-03    0.3119294640E-03
    0.5000000000E+02    0.3304248983E-03    0.5860382487E-04    0.6385461974E+00    0.9120226254E-03    0.5190725816E-03
    0.7000000000E+02    0.4496373723E-03    0.7987083003E-04    0.6539707308E+00    0.1265098259E-02    0.7255725671E-03
    0.9000000000E+02    0.5688231344E-03    0.1011350129E-03    0.6628673530E+00    0.1617834303E-02    0.9314331862E-03
    0.1100000000E+03    0.6877736662E-03    0.1223580180E-03    0.6686565335E+00    0.1969712004E-02    0.1136658156E-02
    0.1300000000E+03    0.8063668694E-03    0.1435178504E-03    0.6727243610E+00    0.2320492443E-02    0.1341251159E-02
    0.1500000000E+03    0.9245293200E-03    0.1646014325E-03    0.6757392515E+00    0.2670053369E-02    0.1545215844E-02
    0.1700000000E+03    0.1042215082E-02    0.1856006461E-03    0.6780632049E+00    0.3018327857E-02    0.1748555831E-02
    0.1900000000E+03    0.1159394478E-02    0.2065102783E-03    0.6799093378E+00    0.3365277902E-02    0.1951274709E-02
    0.2100000000E+03    0.1276047911E-02    0.2273269055E-03    0.6814112890E+00    0.3710881792E-02    0.2153376040E-02
    0.2300000000E+03    0.1392162307E-02    0.2480482554E-03    0.6826571101E+00    0.4055127556E-02    0.2354863354E-02
    0.2500000000E+03    0.1507728960E-02    0.2686728241E-03    0.6837071772E+00    0.4398009320E-02    0.2555740157E-02
    0.2700000000E+03    0.1622742190E-02    0.2891996372E-03    0.6846042716E+00    0.4739525185E-02    0.2756009925E-02
    0.2900000000E+03    0.1737198459E-02    0.3096280946E-03    0.6853795546E+00    0.5079675918E-02    0.2955676106E-02
    0.3100000000E+03    0.1851095785E-02    0.3299578668E-03    0.6860562618E+00    0.5418464125E-02    0.3154742123E-02
    0.3300000000E+03    0.1964433335E-02    0.3501888245E-03    0.6866520720E+00    0.5755893709E-02    0.3353211369E-02
    0.3500000000E+03    0.2077211142E-02    0.3703209877E-03    0.6871806750E+00    0.6091969498E-02    0.3551087214E-02
    0.3700000000E+03    0.2189429897E-02    0.3903544904E-03    0.6876528366E+00    0.6426696994E-02    0.3748372999E-02
    0.3900000000E+03    0.2301090799E-02    0.4102895545E-03    0.6880771395E+00    0.6760082192E-02    0.3945072039E-02
    0.4100000000E+03    0.2412195442E-02    0.4301264697E-03    0.6884605102E+00    0.7092131451E-02    0.4141187625E-02
    0.4300000000E+03    0.2522745732E-02    0.4498655792E-03    0.6888086000E+00    0.7422851400E-02    0.4336723021E-02
    0.4500000000E+03    0.2632743819E-02    0.4695072684E-03    0.6891260656E+00    0.7752248864E-02    0.4531681467E-02
    0.4700000000E+03    0.2742192051E-02    0.4890519561E-03    0.6894167787E+00    0.8080330817E-02    0.4726066175E-02
    0.4900000000E+03    0.2851092930E-02    0.5085000877E-03    0.6896839847E+00    0.8407104334E-02    0.4919880336E-02
    0.1000000000E+03    0.6283369245E-03    0.1117533123E-03    0.6660388749E+00    0.1793899248E-02    0.1034124897E-02
    0.3000000000E+03    0.1794217065E-02    0.3198053285E-03    0.6857290164E+00    0.5249240119E-02    0.3055283922E-02
    0.5000000000E+03    0.2905338929E-02    0.5181880900E-03    0.6898096460E+00    0.8570002662E-02    0.5016574452E-02
    0.7000000000E+03    0.3962209578E-02    0.7070005317E-03    0.6915739614E+00    0.1176104253E-01    0.6921264069E-02
    0.9000000000E+03    0.4967699238E-02    0.8867498512E-03    0.6925582965E+00    0.1482948442E-01    0.8772377901E-02
    0.1100000000E+04    0.5924802868E-02    0.1057963093E-02    0.6931862918E+00    0.1778219326E-01    0.1057272106E-01
    0.1300000000E+04    0.6836382174E-02    0.1221143234E-02    0.6936218120E+00    0.2062558944E-01    0.1232489852E-01
    0.1500000000E+04    0.7705118164E-02    0.1376761282E-02    0.6939415997E+00    0.2336564575E-01    0.1403133291E-01
    0.1700000000E+04    0.8533507782E-02    0.1525255845E-02    0.6941863834E+00    0.2600791449E-01    0.1569428037E-01
    0.1900000000E+04    0.9323872478E-02    0.1667034705E-02    0.6943797863E+00    0.2855755970E-01    0.1731584481E-01
    0.2100000000E+04    0.1007837010E-01    0.1802476931E-02    0.6945364527E+00    0.3101938877E-01    0.1889799068E-01
    0.2300000000E+04    0.1079900731E-01    0.1931935075E-02    0.6946659445E+00    0.3339788189E-01    0.2044255454E-01
    0.2500000000E+04    0.1148765158E-01    0.2055737281E-02    0.6947747696E+00    0.3569721896E-01    0.2195125539E-01
    0.2700000000E+04    0.1214604240E-01    0.2174189250E-02    0.6948675113E+00    0.3792130412E-01    0.2342570412E-01
    0.2900000000E+04    0.1277580154E-01    0.2287576046E-02    0.6949474909E+00    0.4007378796E-01    0.2486741195E-01
    0.3100000000E+04    0.1337844253E-01    0.2396163755E-02    0.6950171739E+00    0.4215808772E-01    0.2627779817E-01
    0.3300000000E+04    0.1395537926E-01    0.2500200990E-02    0.6950784292E+00    0.4417740557E-01    0.2765819713E-01
    0.3500000000E+04    0.1450793379E-01    0.2599920265E-02    0.6951326989E+00    0.4613474524E-01    0.2900986457E-01
    0.3700000000E+04    0.1503734351E-01    0.2695539244E-02    0.6951811141E+00    0.4803292714E-01    0.3033398347E-01
    0.3900000000E+04    0.1554476766E-01    0.2787261882E-02    0.6952245740E+00    0.4987460212E-01    0.3163166927E-01
    0.4100000000E+04    0.1603129320E-01    0.2875279464E-02    0.6952638026E+00    0.5166226401E-01    0.3290397476E-01
    0.4300000000E+04    0.1649794029E-01    0.2959771549E-02    0.6952993894E+00    0.5339826111E-01    0.3415189445E-01
    0.4500000000E+04    0.1694566717E-01    0.3040906837E-02    0.6953318194E+00    0.5508480661E-01    0.3537636865E-01
    0.4700000000E+04    0.1737537471E-01    0.3118843960E-02    0.6953614948E+00    0.5672398820E-01    0.3657828716E-01
    0.4900000000E+04    0.1778791054E-01    0.3193732208E-02    0.6953887526E+00    0.5831777684E-01    0.3775849268E-01
    0.1000000000E+04    0.5452116412E-02    0.9733913282E-03    0.6929035369E+00    0.1631989348E-01    0.9678728529E-02
    0.3000000000E+04    0.1308042120E-01    0.2342453855E-02    0.6949834911E+00    0.4112425588E-01    0.2557643495E-01
    0.5000000000E+04    0.1798799032E-01    0.3230077264E-02    0.6954015654E+00    0.5909823481E-01    0.3834070431E-01
    0.7000000000E+04    0.2125903931E-01    0.3827045659E-02    0.6955810670E+00    0.7272620268E-01    0.4901857705E-01
    0.9000000000E+04    0.2348597539E-01    0.4237830458E-02    0.6956809094E+00    0.8341309186E-01    0.5822139748E-01
    0.1100000000E+05    0.2501638938E-01    0.4523877216E-02    0.6957445046E+00    0.9201362501E-01    0.6633251802E-01
    0.1300000000E+05    0.2606583540E-01    0.4723388761E-02    0.6957885664E+00    0.9907808660E-01    0.7360597413E-01
    0.1500000000E+05    0.2677399386E-01    0.4861188402E-02    0.6958209006E+00    0.1049771304E+00    0.8021768903E-01
    0.1700000000E+05    0.2723466609E-01    0.4953994184E-02    0.6958456420E+00    0.1099697999E+00    0.8629395541E-01
    0.1900000000E+05    0.2751272747E-01    0.5013403964E-02    0.6958651857E+00    0.1142427817E+00    0.9192819296E-01
    0.2100000000E+05    0.2765416864E-01    0.5047665961E-02    0.6958810152E+00    0.1179341540E+00    0.9719127631E-01
    0.2300000000E+05    0.2769228143E-01    0.5062771148E-02    0.6958940982E+00    0.1211483384E+00    0.1021381537E+00
    0.2500000000E+05    0.2765159953E-01    0.5063150237E-02    0.6959050930E+00    0.1239658377E+00    0.1068122323E+00
    0.2700000000E+05    0.2755048246E-01    0.5052131445E-02    0.6959144631E+00    0.1264497675E+00    0.1112483690E+00
    0.2900000000E+05    0.2740285312E-01    0.5032248828E-02    0.6959225443E+00    0.1286503503E+00    0.1154749614E+00
    0.3100000000E+05    0.2721939218E-01    0.5005454615E-02    0.6959295855E+00    0.1306080781E+00    0.1195154428E+00
    0.3300000000E+05    0.2700837543E-01    0.4973268326E-02    0.6959357758E+00    0.1323559838E+00    0.1233893727E+00
    0.3500000000E+05    0.2677627105E-01    0.4936883349E-02    0.6959412606E+00    0.1339213010E+00    0.1271132452E+00
    0.3700000000E+05    0.2652817241E-01    0.4897244301E-02    0.6959461543E+00    0.1353266972E+00    0.1307010991E+00
    0.3900000000E+05    0.2626811604E-01    0.4855104000E-02    0.6959505476E+00    0.1365912031E+00    0.1341649839E+00
    0.4100000000E+05    0.2599931828E-01    0.4811065944E-02    0.6959545136E+00    0.1377309226E+00    0.1375153212E+00
    0.4300000000E+05    0.2572435349E-01    0.4765616363E-02    0.6959581120E+00    0.1387595813E+00    0.1407611875E+00
    0.4500000000E+05    0.2544528953E-01    0.4719148655E-02    0.6959613915E+00    0.1396889552E+00    0.1439105387E+00
    0.4700000000E+05    0.2516379192E-01    0.4671982206E-02    0.6959643929E+00    0.1405292095E+00    0.1469703897E+00
    0.4900000000E+05    0.2488120453E-01    0.4624377004E-02    0.6959671501E+00    0.1412891681E+00    0.1499469589E+00
    0.1000000000E+05    0.2432251402E-01    0.4393659918E-02    0.6957158802E+00    0.8793446492E-01    0.6239526220E-01
    0.3000000000E+05    0.2731503595E-01    0.5019611977E-02    0.6959261819E+00    0.1296573536E+00    0.1175171633E+00
    0.5000000000E+05    0.2473984996E-01    0.4600477743E-02    0.6959684463E+00    0.1416414815E+00    0.1514057681E+00
    0.7000000000E+05    0.2202794557E-01    0.4133901555E-02    0.6959866174E+00    0.1459097268E+00    0.1772864923E+00
    0.9000000000E+05    0.1968044049E-01    0.3721299308E-02    0.6959967385E+00    0.1470465056E+00    0.1986846809E+00
    0.1100000000E+06    0.1770248819E-01    0.3368895260E-02    0.6960031937E+00    0.1466466084E+00    0.2171124135E+00
    0.1300000000E+06    0.1603323203E-01    0.3068444673E-02    0.6960076716E+00    0.1454153866E+00    0.2333801727E+00
    0.1500000000E+06    0.1461285899E-01    0.2810670418E-02    0.6960109613E+00    0.1437118037E+00    0.2479830255E+00
    0.1700000000E+06    0.1339278361E-01    0.2587691817E-02    0.6960134812E+00    0.1417359471E+00    0.2612504661E+00
    0.1900000000E+06    0.1233515089E-01    0.2393218095E-02    0.6960154738E+00    0.1396065307E+00    0.2734154731E+00
    0.2100000000E+06    0.1141062760E-01    0.2222295437E-02    0.6960170892E+00    0.1373971524E+00    0.2846503433E+00
    0.2300000000E+06    0.1059634436E-01    0.2071015091E-02    0.6960184255E+00    0.1351548649E+00    0.2950869776E+00
    0.2500000000E+06    0.9874291843E-02    0.1936269472E-02    0.6960195494E+00    0.1329103724E+00    0.3048291554E+00
    0.2700000000E+06    0.9230130267E-02    0.1815564457E-02    0.6960205081E+00    0.1306839420E+00    0.3139603643E+00
    0.2900000000E+06    0.8652315794E-02    0.1706878473E-02    0.6960213355E+00    0.1284889846E+00    0.3225490115E+00
    0.3100000000E+06    0.8131458020E-02    0.1608557163E-02    0.6960220570E+00    0.1263343047E+00    0.3306520184E+00
    0.3300000000E+06    0.7659843676E-02    0.1519234333E-02    0.6960226918E+00    0.1242255565E+00    0.3383173740E+00
    0.3500000000E+06    0.7231079936E-02    0.1437772148E-02    0.6960232546E+00    0.1221662092E+00    0.3455859957E+00
    0.3700000000E+06    0.6839824367E-02    0.1363215488E-02    0.6960237570E+00    0.1201582024E+00    0.3524931149E+00
    0.3900000000E+06    0.6481578240E-02    0.1294756757E-02    0.6960242084E+00    0.1182023977E+00    0.3590693293E+00
    0.4100000000E+06    0.6152526659E-02    0.1231708495E-02    0.6960246162E+00    0.1162988952E+00    0.3653414144E+00
    0.4300000000E+06    0.5849413649E-02    0.1173481860E-02    0.6960249863E+00    0.1144472579E+00    0.3713329601E+00
    0.4500000000E+06    0.5569443648E-02    0.1119569572E-02    0.6960253239E+00    0.1126466732E+00    0.3770648758E+00
    0.4700000000E+06    0.5310203101E-02    0.1069532280E-02    0.6960256330E+00    0.1108960689E+00    0.3825557957E+00
    0.4900000000E+06    0.5069597565E-02    0.1022987572E-02    0.6960259171E+00    0.1091941982E+00    0.3878224088E+00
    0.1000000000E+06    0.1864881298E-01    0.3538001792E-02    0.6960002872E+00    0.1469828924E+00    0.2082091016E+00
    0.3000000000E+06    0.8385284035E-02    0.1656513594E-02    0.6960217082E+00    0.1274061959E+00    0.3266580359E+00
    0.5000000000E+06    0.4955702946E-02    0.1000918773E-02    0.6960260507E+00    0.1083611161E+00    0.3903763511E+00
    0.7000000000E+06    0.3316239933E-02    0.6803557426E-03    0.6960279279E+00    0.9390946657E-01    0.4326460073E+00
    0.9000000000E+06    0.2388167264E-02    0.4959694891E-03    0.6960289777E+00    0.8278000099E-01    0.4632483977E+00
    0.1100000000E+07    0.1806846034E-02    0.3790282835E-03    0.6960296494E+00    0.7398191766E-01    0.4865915674E+00
    0.1300000000E+07    0.1416879738E-02    0.2997742461E-03    0.6960301164E+00    0.6686133886E-01    0.5050488591E+00
    0.1500000000E+07    0.1141863879E-02    0.2433935880E-03    0.6960304601E+00    0.6098317451E-01    0.5200377842E+00
    0.1700000000E+07    0.9403376161E-03    0.2017648278E-03    0.6960307238E+00    0.5604946245E-01    0.5324662289E+00
    0.1900000000E+07    0.7881016754E-03    0.1701061051E-03    0.6960309326E+00    0.5185002018E-01    0.5429461607E+00
    0.2100000000E+07    0.6702127072E-03    0.1454419406E-03    0.6960311019E+00    0.4823256140E-01    0.5519066713E+00
    0.2300000000E+07    0.5770173593E-03    0.1258371218E-03    0.6960312420E+00    0.4508412229E-01    0.5596582806E+00
    0.2500000000E+07    0.5020445256E-03    0.1099864590E-03    0.6960313599E+00    0.4231916762E-01    0.5664316214E+00
    0.2700000000E+07    0.4408198415E-03    0.9698248979E-04    0.6960314605E+00    0.3987175366E-01    0.5724017773E+00
    0.2900000000E+07    0.3901669575E-03    0.8617773406E-04    0.6960315473E+00    0.3769022755E-01    0.5777041689E+00
    0.3100000000E+07    0.3477791723E-03    0.7709978111E-04    0.6960316229E+00    0.3573355715E-01    0.5824452474E+00
    0.3300000000E+07    0.3119478260E-03    0.6939717682E-04    0.6960316894E+00    0.3396873581E-01    0.5867098870E+00
    0.3500000000E+07    0.2813849937E-03    0.6280393339E-04    0.6960317483E+00    0.3236891226E-01    0.5905666113E+00
    0.3700000000E+07    0.2551047502E-03    0.5711565931E-04    0.6960318008E+00    0.3091201996E-01    0.5940713652E+00
    0.3900000000E+07    0.2323418468E-03    0.5217314404E-04    0.6960318479E+00    0.2957975707E-01    0.5972702840E+00
    0.4100000000E+07    0.2124948833E-03    0.4785084341E-04    0.6960318905E+00    0.2835681658E-01    0.6002017595E+00
    0.4300000000E+07    0.1950858780E-03    0.4404865826E-04    0.6960319290E+00    0.2723029792E-01    0.6028980034E+00
    0.4500000000E+07    0.1797310332E-03    0.4068596944E-04    0.6960319641E+00    0.2618925212E-01    0.6053862457E+00
    0.4700000000E+07    0.1661192838E-03    0.3769724684E-04    0.6960319962E+00    0.2522432625E-01    0.6076896641E+00
    0.4900000000E+07    0.1539963437E-03    0.3502877390E-04    0.6960320257E+00    0.2432748292E-01    0.6098281115E+00
    0.1000000000E+07    0.2066568312E-02    0.4314352529E-03    0.6960293467E+00    0.7813677562E-01    0.4756487664E+00
    0.3000000000E+07    0.3680583045E-03    0.8144722222E-04    0.6960315863E+00    0.3668601160E-01    0.5801391317E+00
    0.5000000000E+07    0.1484262201E-03    0.3380045353E-04    0.6960320395E+00    0.2390238433E-01    0.6108409106E+00
    0.7000000000E+07    0.7963419209E-04    0.1848543893E-04    0.6960322316E+00    0.1770029645E-01    0.6255606202E+00
    0.9000000000E+07    0.4954627653E-04    0.1166734817E-04    0.6960323358E+00    0.1404163673E-01    0.6341972400E+00
    0.1100000000E+08    0.3376405603E-04    0.8042283075E-05    0.6960324000E+00    0.1162977299E-01    0.6398733607E+00
    0.1300000000E+08    0.2447352780E-04    0.5884783763E-05    0.6960324425E+00    0.9920999443E-02    0.6438870432E+00
    0.1500000000E+08    0.1854882673E-04    0.4496170857E-05    0.6960324720E+00    0.8647439042E-02    0.6468745160E+00
    0.1700000000E+08    0.1454143394E-04    0.3549431283E-05    0.6960324932E+00    0.7661870601E-02    0.6491842339E+00
    0.1900000000E+08    0.1170562105E-04    0.2874777111E-05    0.6960325087E+00    0.6876697038E-02    0.6510230188E+00
    0.2100000000E+08    0.9625765152E-05    0.2376877058E-05    0.6960325203E+00    0.6236548276E-02    0.6525213624E+00
    0.2300000000E+08    0.8055379359E-05    0.1998822912E-05    0.6960325289E+00    0.5704715622E-02    0.6537656540E+00
    0.2500000000E+08    0.6840786928E-05    0.1704924796E-05    0.6960325352E+00    0.5255904573E-02    0.6548153538E+00
    0.2700000000E+08    0.5882148322E-05    0.1471871771E-05    0.6960325399E+00    0.4872120580E-02    0.6557127233E+00
