  Pressure (Pa) 22mC5-500 (mol/kg) 23mC5-500 (mol/kg) 24mC5-500 (mol/kg) 2mC6-500 (mol/kg) 3mC6-500 (mol/kg)
    0.1000000000E+01    0.1857348270E-04    0.9701598361E-05    0.3666070926E-01    0.1817489128E-04    0.1042150526E-04
    0.3000000000E+01    0.5135776251E-04    0.2683344345E-04    0.9949135673E-01    0.5073253896E-04    0.3126045142E-04
    0.5000000000E+01    0.7968822181E-04    0.4164892018E-04    0.1513799847E+00    0.7950171176E-04    0.5209399086E-04
    0.7000000000E+01    0.1047250074E-03    0.5475370151E-04    0.1949564953E+00    0.1055470189E-03    0.7292213520E-04
    0.9000000000E+01    0.1272699339E-03    0.6656604021E-04    0.2320704648E+00    0.1295918236E-03    0.9374489349E-04
    0.1100000000E+02    0.1478930813E-03    0.7738305000E-04    0.2640605789E+00    0.1521411224E-03    0.1145622731E-03
    0.1300000000E+02    0.1670096135E-03    0.8742090934E-04    0.2919196400E+00    0.1735556223E-03    0.1353742801E-03
    0.1500000000E+02    0.1849281666E-03    0.9684017589E-04    0.3163995020E+00    0.1940980550E-03    0.1561809200E-03
    0.1700000000E+02    0.2018823190E-03    0.1057622430E-03    0.3380799875E+00    0.2139630476E-03    0.1769821976E-03
    0.1900000000E+02    0.2180516320E-03    0.1142803371E-03    0.3574154305E+00    0.2332969126E-03    0.1977781170E-03
    0.2100000000E+02    0.2335760614E-03    0.1224670474E-03    0.3747668838E+00    0.2522110690E-03    0.2185686824E-03
    0.2300000000E+02    0.2485660411E-03    0.1303795903E-03    0.3904248916E+00    0.2707913346E-03    0.2393538975E-03
    0.2500000000E+02    0.2631096724E-03    0.1380635623E-03    0.4046259002E+00    0.2891044773E-03    0.2601337658E-03
    0.2700000000E+02    0.2772779385E-03    0.1455556598E-03    0.4175642902E+00    0.3072029114E-03    0.2809082907E-03
    0.2900000000E+02    0.2911285441E-03    0.1528856805E-03    0.4294013333E+00    0.3251281123E-03    0.3016774755E-03
    0.3100000000E+02    0.3047087808E-03    0.1600780165E-03    0.4402719540E+00    0.3429131336E-03    0.3224413234E-03
    0.3300000000E+02    0.3180576946E-03    0.1671527829E-03    0.4502898994E+00    0.3605844847E-03    0.3431998373E-03
    0.3500000000E+02    0.3312077417E-03    0.1741266799E-03    0.4595517374E+00    0.3781635465E-03    0.3639530204E-03
    0.3700000000E+02    0.3441860694E-03    0.1810136582E-03    0.4681399824E+00    0.3956676501E-03    0.3847008755E-03
    0.3900000000E+02    0.3570155141E-03    0.1878254384E-03    0.4761255621E+00    0.4131109055E-03    0.4054434057E-03
    0.4100000000E+02    0.3697153877E-03    0.1945719192E-03    0.4835697821E+00    0.4305048449E-03    0.4261806138E-03
    0.4300000000E+02    0.3823021013E-03    0.2012615009E-03    0.4905259049E+00    0.4478589247E-03    0.4469125025E-03
    0.4500000000E+02    0.3947896642E-03    0.2079013447E-03    0.4970404266E+00    0.4651809208E-03    0.4676390748E-03
    0.4700000000E+02    0.4071900856E-03    0.2144975808E-03    0.5031541183E+00    0.4824772423E-03    0.4883603334E-03
    0.4900000000E+02    0.4195137004E-03    0.2210554770E-03    0.5089028817E+00    0.4997531806E-03    0.5090762810E-03
    0.1000000000E+02    0.1377928221E-03    0.7208390405E-04    0.2486372966E+00    0.1410281289E-03    0.1041542552E-03
    0.3000000000E+02    0.2979498465E-03    0.1564977128E-03    0.4349498927E+00    0.3340363536E-03    0.3120600664E-03
    0.5000000000E+02    0.4256495437E-03    0.2243214925E-03    0.5116504792E+00    0.5083849043E-03    0.5194322641E-03
    0.7000000000E+02    0.5459586454E-03    0.2884533139E-03    0.5534921260E+00    0.6806760025E-03    0.7262737643E-03
    0.9000000000E+02    0.6639236747E-03    0.3514491102E-03    0.5798418821E+00    0.8530465983E-03    0.9325872441E-03
    0.1100000000E+03    0.7809728611E-03    0.4140170312E-03    0.5979610171E+00    0.1025703282E-02    0.1138375309E-02
    0.1300000000E+03    0.8975740490E-03    0.4763814421E-03    0.6111857138E+00    0.1198530858E-02    0.1343640526E-02
    0.1500000000E+03    0.1013883605E-02    0.5386125508E-03    0.6212635773E+00    0.1371381670E-02    0.1548385439E-02
    0.1700000000E+03    0.1129945088E-02    0.6007261190E-03    0.6291986294E+00    0.1544130279E-02    0.1752612569E-02
    0.1900000000E+03    0.1245759306E-02    0.6627180963E-03    0.6356087867E+00    0.1716679027E-02    0.1956324418E-02
    0.2100000000E+03    0.1361311338E-02    0.7245777168E-03    0.6408951927E+00    0.1888953595E-02    0.2159523470E-02
    0.2300000000E+03    0.1476581505E-02    0.7862926642E-03    0.6453296169E+00    0.2060897586E-02    0.2362212190E-02
    0.2500000000E+03    0.1591549887E-02    0.8478510988E-03    0.6491027228E+00    0.2232468015E-02    0.2564393029E-02
    0.2700000000E+03    0.1706198092E-02    0.9092423845E-03    0.6523522250E+00    0.2403631906E-02    0.2766068418E-02
    0.2900000000E+03    0.1820509849E-02    0.9704572689E-03    0.6551800783E+00    0.2574363793E-02    0.2967240774E-02
    0.3100000000E+03    0.1934471083E-02    0.1031487839E-02    0.6576633772E+00    0.2744643900E-02    0.3167912497E-02
    0.3300000000E+03    0.2048069767E-02    0.1092327393E-02    0.6598614989E+00    0.2914456800E-02    0.3368085970E-02
    0.3500000000E+03    0.2161295714E-02    0.1152970289E-02    0.6618209166E+00    0.3083790431E-02    0.3567763562E-02
    0.3700000000E+03    0.2274140338E-02    0.1213411798E-02    0.6635785244E+00    0.3252635361E-02    0.3766947626E-02
    0.3900000000E+03    0.2386596445E-02    0.1273647974E-02    0.6651639847E+00    0.3420984231E-02    0.3965640498E-02
    0.4100000000E+03    0.2498658033E-02    0.1333675533E-02    0.6666014174E+00    0.3588831335E-02    0.4163844500E-02
    0.4300000000E+03    0.2610320121E-02    0.1393491761E-02    0.6679106369E+00    0.3756172294E-02    0.4361561938E-02
    0.4500000000E+03    0.2721578609E-02    0.1453094428E-02    0.6691080717E+00    0.3923003804E-02    0.4558795103E-02
    0.4700000000E+03    0.2832430147E-02    0.1512481715E-02    0.6702074581E+00    0.4089323435E-02    0.4755546271E-02
    0.4900000000E+03    0.2942872034E-02    0.1571652157E-02    0.6712203699E+00    0.4255129481E-02    0.4951817705E-02
    0.1000000000E+03    0.7225222335E-03    0.3827669144E-03    0.5896687565E+00    0.9393442484E-03    0.1035546792E-02
    0.3000000000E+03    0.1877535079E-02    0.1000996039E-02    0.6564607359E+00    0.2659561372E-02    0.3067639065E-02
    0.5000000000E+03    0.2997938669E-02    0.1601155689E-02    0.6716975261E+00    0.4337839541E-02    0.5049774224E-02
    0.7000000000E+03    0.4077473374E-02    0.2179684137E-02    0.6784520552E+00    0.5965033703E-02    0.6984260347E-02
    0.9000000000E+03    0.5115671615E-02    0.2736322685E-02    0.6822661730E+00    0.7541556551E-02    0.8873259849E-02
    0.1100000000E+04    0.6113661138E-02    0.3271668411E-02    0.6847171547E+00    0.9069188607E-02    0.1071880122E-01
    0.1300000000E+04    0.7073020308E-02    0.3786556409E-02    0.6864251980E+00    0.1054997422E-01    0.1252278939E-01
    0.1500000000E+04    0.7995442288E-02    0.4281881467E-02    0.6876837690E+00    0.1198596591E-01    0.1428701512E-01
    0.1700000000E+04    0.8882615664E-02    0.4758535267E-02    0.6886497344E+00    0.1337914849E-01    0.1601316356E-01
    0.1900000000E+04    0.9736177383E-02    0.5217381811E-02    0.6894145605E+00    0.1473141494E-01    0.1770282195E-01
    0.2100000000E+04    0.1055769392E-01    0.5659247667E-02    0.6900351819E+00    0.1604456035E-01    0.1935748681E-01
    0.2300000000E+04    0.1134865465E-01    0.6084918599E-02    0.6905488937E+00    0.1732028281E-01    0.2097857034E-01
    0.2500000000E+04    0.1211047095E-01    0.6495139150E-02    0.6909811481E+00    0.1856018706E-01    0.2256740639E-01
    0.2700000000E+04    0.1284447793E-01    0.6890613622E-02    0.6913499103E+00    0.1976578934E-01    0.2412525586E-01
    0.2900000000E+04    0.1355193753E-01    0.7272007740E-02    0.6916682228E+00    0.2093852247E-01    0.2565331175E-01
    0.3100000000E+04    0.1423404220E-01    0.7639950594E-02    0.6919457840E+00    0.2207974104E-01    0.2715270366E-01
    0.3300000000E+04    0.1489191878E-01    0.7995036694E-02    0.6921899553E+00    0.2319072630E-01    0.2862450206E-01
    0.3500000000E+04    0.1552663229E-01    0.8337828008E-02    0.6924064252E+00    0.2427269086E-01    0.3006972213E-01
    0.3700000000E+04    0.1613918978E-01    0.8668855945E-02    0.6925996592E+00    0.2532678306E-01    0.3148932736E-01
    0.3900000000E+04    0.1673054382E-01    0.8988623244E-02    0.6927732115E+00    0.2635409113E-01    0.3288423285E-01
    0.4100000000E+04    0.1730159595E-01    0.9297605761E-02    0.6929299463E+00    0.2735564696E-01    0.3425530833E-01
    0.4300000000E+04    0.1785319987E-01    0.9596254151E-02    0.6930721977E+00    0.2833242966E-01    0.3560338101E-01
    0.4500000000E+04    0.1838616437E-01    0.9884995438E-02    0.6932018867E+00    0.2928536888E-01    0.3692923818E-01
    0.4700000000E+04    0.1890125618E-01    0.1016423448E-01    0.6933206089E+00    0.3021534789E-01    0.3823362962E-01
    0.4900000000E+04    0.1939920254E-01    0.1043435535E-01    0.6934297005E+00    0.3112320636E-01    0.3951726985E-01
    0.1000000000E+04    0.5619598773E-02    0.3006607552E-02    0.6836118761E+00    0.8311357893E-02    0.9801340960E-02
    0.3000000000E+04    0.1389608731E-01    0.7457622632E-02    0.6918115915E+00    0.2151298933E-01    0.2640652246E-01
    0.5000000000E+04    0.1964196324E-01    0.1056611112E-01    0.6934809942E+00    0.3156909154E-01    0.4015152243E-01
    0.7000000000E+04    0.2374727601E-01    0.1280190315E-01    0.6942006186E+00    0.3950028930E-01    0.5189705911E-01
    0.9000000000E+04    0.2674098818E-01    0.1444461186E-01    0.6946018315E+00    0.4592628085E-01    0.6217791636E-01
    0.1100000000E+05    0.2895371382E-01    0.1566930315E-01    0.6948578219E+00    0.5124473520E-01    0.7134548314E-01
    0.1300000000E+05    0.3060146973E-01    0.1659057456E-01    0.6950354259E+00    0.5572275855E-01    0.7964117237E-01
    0.1500000000E+05    0.3183065845E-01    0.1728624590E-01    0.6951659080E+00    0.5954659976E-01    0.8723698844E-01
    0.1700000000E+05    0.3274357212E-01    0.1781080253E-01    0.6952658507E+00    0.6285023979E-01    0.9425925126E-01
    0.1900000000E+05    0.3341354301E-01    0.1820338880E-01    0.6953448689E+00    0.6573263616E-01    0.1008031360E+00
    0.2100000000E+05    0.3389430762E-01    0.1849275363E-01    0.6954089227E+00    0.6826854966E-01    0.1069419421E+00
    0.2300000000E+05    0.3422599433E-01    0.1870041603E-01    0.6954619034E+00    0.7051557854E-01    0.1127332041E+00
    0.2500000000E+05    0.3443906592E-01    0.1884275179E-01    0.6955064598E+00    0.7251886600E-01    0.1182228389E+00
    0.2700000000E+05    0.3455698298E-01    0.1893240475E-01    0.6955444577E+00    0.7431433286E-01    0.1234480327E+00
    0.2900000000E+05    0.3459804412E-01    0.1897926292E-01    0.6955772493E+00    0.7593094858E-01    0.1284392960E+00
    0.3100000000E+05    0.3457668312E-01    0.1899114753E-01    0.6956058389E+00    0.7739235926E-01    0.1332219551E+00
    0.3300000000E+05    0.3450439968E-01    0.1897430791E-01    0.6956309875E+00    0.7871807587E-01    0.1378172546E+00
    0.3500000000E+05    0.3439043813E-01    0.1893378292E-01    0.6956532828E+00    0.7992435575E-01    0.1422431845E+00
    0.3700000000E+05    0.3424228946E-01    0.1887366861E-01    0.6956731859E+00    0.8102486618E-01    0.1465151111E+00
    0.3900000000E+05    0.3406606765E-01    0.1879731912E-01    0.6956910633E+00    0.8203119059E-01    0.1506462625E+00
    0.4100000000E+05    0.3386679511E-01    0.1870749930E-01    0.6957072102E+00    0.8295321947E-01    0.1546481085E+00
    0.4300000000E+05    0.3364862153E-01    0.1860650186E-01    0.6957218671E+00    0.8379945570E-01    0.1585306607E+00
    0.4500000000E+05    0.3341499352E-01    0.1849623834E-01    0.6957352320E+00    0.8457725531E-01    0.1623027107E+00
    0.4700000000E+05    0.3316878704E-01    0.1837831023E-01    0.6957474689E+00    0.8529301929E-01    0.1659720228E+00
    0.4900000000E+05    0.3291241202E-01    0.1825406520E-01    0.6957587155E+00    0.8595234774E-01    0.1695454898E+00
    0.1000000000E+05    0.2792944142E-01    0.1510097447E-01    0.6947425528E+00    0.4870491549E-01    0.6688377928E-01
    0.3000000000E+05    0.3459438786E-01    0.1898915427E-01    0.6955920170E+00    0.7667974977E-01    0.1308552885E+00
    0.5000000000E+05    0.3278105775E-01    0.1818993678E-01    0.6957640044E+00    0.8626241087E-01    0.1712982291E+00
    0.7000000000E+05    0.2997102896E-01    0.1677469829E-01    0.6958382899E+00    0.9043321411E-01    0.2025187184E+00
    0.9000000000E+05    0.2723042973E-01    0.1535134078E-01    0.6958798197E+00    0.9218898559E-01    0.2284414458E+00
    0.1100000000E+06    0.2476197453E-01    0.1404734354E-01    0.6959063915E+00    0.9265239052E-01    0.2507686263E+00
    0.1300000000E+06    0.2258427978E-01    0.1288307666E-01    0.6959248768E+00    0.9235490403E-01    0.2704254031E+00
    0.1500000000E+06    0.2067138068E-01    0.1185072136E-01    0.6959384927E+00    0.9158516317E-01    0.2879869925E+00
    0.1700000000E+06    0.1898880776E-01    0.1093555143E-01    0.6959489476E+00    0.9051442518E-01    0.3038439714E+00
    0.1900000000E+06    0.1750370184E-01    0.1012234075E-01    0.6959572330E+00    0.8925061389E-01    0.3182782696E+00
    0.2100000000E+06    0.1618737936E-01    0.9397272649E-02    0.6959639645E+00    0.8786468954E-01    0.3315026137E+00
    0.2300000000E+06    0.1501556318E-01    0.8748369660E-02    0.6959695443E+00    0.8640474624E-01    0.3436829362E+00
    0.2500000000E+06    0.1396792208E-01    0.8165429941E-02    0.6959742465E+00    0.8490409149E-01    0.3549520275E+00
    0.2700000000E+06    0.1302746404E-01    0.7639815810E-02    0.6959782646E+00    0.8338613570E-01    0.3654183301E+00
    0.2900000000E+06    0.1217996095E-01    0.7164218250E-02    0.6959817387E+00    0.8186748223E-01    0.3751718622E+00
    0.3100000000E+06    0.1141345458E-01    0.6732439873E-02    0.6959847733E+00    0.8035995027E-01    0.3842883603E+00
    0.3300000000E+06    0.1071784856E-01    0.6339208238E-02    0.6959874474E+00    0.7887193783E-01    0.3928322666E+00
    0.3500000000E+06    0.1008457678E-01    0.5980019999E-02    0.6959898222E+00    0.7740936253E-01    0.4008589397E+00
    0.3700000000E+06    0.9506335640E-02    0.5651012482E-02    0.6959919458E+00    0.7597632398E-01    0.4084163279E+00
    0.3900000000E+06    0.8976867819E-02    0.5348858403E-02    0.6959938563E+00    0.7457557829E-01    0.4155462600E+00
    0.4100000000E+06    0.8490787333E-02    0.5070679612E-02    0.6959955846E+00    0.7320888284E-01    0.4222854566E+00
    0.4300000000E+06    0.8043437476E-02    0.4813976314E-02    0.6959971559E+00    0.7187724978E-01    0.4286663353E+00
    0.4500000000E+06    0.7630774937E-02    0.4576568814E-02    0.6959985908E+00    0.7058113451E-01    0.4347176588E+00
    0.4700000000E+06    0.7249274812E-02    0.4356549393E-02    0.6959999065E+00    0.6932057688E-01    0.4404650624E+00
    0.4900000000E+06    0.6895852364E-02    0.4152242386E-02    0.6960011175E+00    0.6809530791E-01    0.4459314884E+00
    0.1000000000E+06    0.2595920261E-01    0.1468204080E-01    0.6958944176E+00    0.9254099221E-01    0.2399854686E+00
    0.3000000000E+06    0.1178725361E-01    0.6943200899E-02    0.6959833055E+00    0.8111173366E-01    0.3798054771E+00
    0.5000000000E+06    0.6728810474E-02    0.4055512548E-02    0.6960016875E+00    0.6749575850E-01    0.4485658578E+00
    0.7000000000E+06    0.4352730985E-02    0.2666538057E-02    0.6960097436E+00    0.5717308173E-01    0.4905514413E+00
    0.9000000000E+06    0.3045885753E-02    0.1889798729E-02    0.6960143000E+00    0.4940336659E-01    0.5189830700E+00
    0.1100000000E+07    0.2250253333E-02    0.1410776952E-02    0.6960172440E+00    0.4341650437E-01    0.5395384138E+00
    0.1300000000E+07    0.1729994520E-02    0.1094230539E-02    0.6960193097E+00    0.3868607337E-01    0.5550985290E+00
    0.1500000000E+07    0.1371228150E-02    0.8739856932E-03    0.6960208428E+00    0.3486399564E-01    0.5672883595E+00
    0.1700000000E+07    0.1113423100E-02    0.7144896755E-03    0.6960220281E+00    0.3171623594E-01    0.5770959036E+00
    0.1900000000E+07    0.9219729976E-03    0.5952318000E-03    0.6960229732E+00    0.2908127036E-01    0.5851570155E+00
    0.2100000000E+07    0.7759238856E-03    0.5036953463E-03    0.6960237454E+00    0.2684463175E-01    0.5918996497E+00
    0.2300000000E+07    0.6619844997E-03    0.4318858493E-03    0.6960243889E+00    0.2492319521E-01    0.5976224779E+00
    0.2500000000E+07    0.5713934579E-03    0.3745008357E-03    0.6960249338E+00    0.2325525902E-01    0.6025403048E+00
    0.2700000000E+07    0.4981853043E-03    0.3279097149E-03    0.6960254015E+00    0.2179412193E-01    0.6068115834E+00
    0.2900000000E+07    0.4381843692E-03    0.2895581552E-03    0.6960258076E+00    0.2050381872E-01    0.6105557586E+00
    0.3100000000E+07    0.3883970740E-03    0.2576063055E-03    0.6960261637E+00    0.1935622145E-01    0.6138645755E+00
    0.3300000000E+07    0.3466320216E-03    0.2307014584E-03    0.6960264786E+00    0.1832902594E-01    0.6168096678E+00
    0.3500000000E+07    0.3112552614E-03    0.2078309096E-03    0.6960267593E+00    0.1740432558E-01    0.6194477814E+00
    0.3700000000E+07    0.2810284290E-03    0.1882242159E-03    0.6960270111E+00    0.1656758272E-01    0.6218244501E+00
    0.3900000000E+07    0.2549991721E-03    0.1712867585E-03    0.6960272383E+00    0.1580687480E-01    0.6239766337E+00
    0.4100000000E+07    0.2324254139E-03    0.1565536465E-03    0.6960274444E+00    0.1511233359E-01    0.6259346445E+00
    0.4300000000E+07    0.2127220190E-03    0.1436571396E-03    0.6960276323E+00    0.1447572225E-01    0.6277235770E+00
    0.4500000000E+07    0.1954225969E-03    0.1323032383E-03    0.6960278043E+00    0.1389011254E-01    0.6293643836E+00
    0.4700000000E+07    0.1801517251E-03    0.1222546055E-03    0.6960279624E+00    0.1334963554E-01    0.6308746956E+00
    0.4900000000E+07    0.1666044663E-03    0.1133179343E-03    0.6960281083E+00    0.1284928710E-01    0.6322694549E+00
    0.1000000000E+07    0.2603076873E-02    0.1623874502E-02    0.6960159141E+00    0.4622507749E-01    0.5300246577E+00
    0.3000000000E+07    0.4121664099E-03    0.2728762051E-03    0.6960259913E+00    0.1991369332E-01    0.6122597087E+00
    0.5000000000E+07    0.1603973258E-03    0.1092158371E-03    0.6960281771E+00    0.1261279535E-01    0.6329275604E+00
    0.7000000000E+07    0.8474651536E-04    0.5874797579E-04    0.6960291570E+00    0.9211328580E-02    0.6423149555E+00
    0.9000000000E+07    0.5235058659E-04    0.3675474100E-04    0.6960297181E+00    0.7247473292E-02    0.6476710345E+00
    0.1100000000E+08    0.3557029609E-04    0.2521151273E-04    0.6960300826E+00    0.5970064262E-02    0.6511312788E+00
    0.1300000000E+08    0.2577232144E-04    0.1840002059E-04    0.6960303385E+00    0.5073268253E-02    0.6535498576E+00
    0.1500000000E+08    0.1955831499E-04    0.1404220648E-04    0.6960305279E+00    0.4409303239E-02    0.6553350618E+00
    0.1700000000E+08    0.1537117587E-04    0.1108399053E-04    0.6960306735E+00    0.3898066695E-02    0.6567065770E+00
    0.1900000000E+08    0.1241592366E-04    0.8982723081E-05    0.6960307885E+00    0.3492389979E-02    0.6577930807E+00
    0.2100000000E+08    0.1025229643E-04    0.7435712455E-05    0.6960308815E+00    0.3162698310E-02    0.6586749305E+00
    0.2300000000E+08    0.8620494709E-05    0.6263202156E-05    0.6960309579E+00    0.2889511474E-02    0.6594048905E+00
    0.2500000000E+08    0.7359186351E-05    0.5352930784E-05    0.6960310217E+00    0.2659477777E-02    0.6600190342E+00
    0.2700000000E+08    0.6363896350E-05    0.4631827281E-05    0.6960310755E+00    0.2463141008E-02    0.6605428581E+00
