  Pressure (Pa) 22mC5-500 (mol/kg) 23mC5-500 (mol/kg) 24mC5-500 (mol/kg) 2mC6-500 (mol/kg) 3mC6-500 (mol/kg)
    0.1000000000E+01    0.1650276497E-04    0.2874574753E-05    0.1266355241E+00    0.5460704862E-05    0.3647451429E-04
    0.3000000000E+01    0.3942764184E-04    0.6878058332E-05    0.2785388953E+00    0.1358906937E-04    0.1094049753E-03
    0.5000000000E+01    0.5652614410E-04    0.9877143792E-05    0.3664546639E+00    0.2025315827E-04    0.1823109102E-03
    0.7000000000E+01    0.7115760626E-04    0.1245375986E-04    0.4237805908E+00    0.2638515570E-04    0.2551924414E-03
    0.9000000000E+01    0.8458266236E-04    0.1482533081E-04    0.4641164903E+00    0.3230185281E-04    0.3280496299E-03
    0.1100000000E+02    0.9736153858E-04    0.1708801985E-04    0.4940408975E+00    0.3812883340E-04    0.4008825142E-03
    0.1300000000E+02    0.1097726159E-03    0.1928936250E-04    0.5171242701E+00    0.4392072118E-04    0.4736911222E-03
    0.1500000000E+02    0.1219655837E-03    0.2145477273E-04    0.5354719457E+00    0.4970254229E-04    0.5464754766E-03
    0.1700000000E+02    0.1340257431E-03    0.2359864013E-04    0.5504057315E+00    0.5548594543E-04    0.6192355973E-03
    0.1900000000E+02    0.1460038706E-03    0.2572946821E-04    0.5627973824E+00    0.6127619141E-04    0.6919715024E-03
    0.2100000000E+02    0.1579312030E-03    0.2785244442E-04    0.5732451209E+00    0.6707538338E-04    0.7646832089E-03
    0.2300000000E+02    0.1698274310E-03    0.2997080657E-04    0.5821731181E+00    0.7288404005E-04    0.8373707330E-03
    0.2500000000E+02    0.1817051819E-03    0.3208660621E-04    0.5898905019E+00    0.7870189188E-04    0.9100340904E-03
    0.2700000000E+02    0.1935726362E-03    0.3420115265E-04    0.5966278835E+00    0.8452829483E-04    0.9826732966E-03
    0.2900000000E+02    0.2054351103E-03    0.3631528041E-04    0.6025607972E+00    0.9036244840E-04    0.1055288367E-02
    0.3100000000E+02    0.2172960407E-03    0.3842951475E-04    0.6078252174E+00    0.9620351063E-04    0.1127879315E-02
    0.3300000000E+02    0.2291576116E-03    0.4054417677E-04    0.6125281079E+00    0.1020506576E-03    0.1200446157E-02
    0.3500000000E+02    0.2410211638E-03    0.4265945153E-04    0.6167547679E+00    0.1079031124E-03    0.1272988907E-02
    0.3700000000E+02    0.2528874652E-03    0.4477543282E-04    0.6205740521E+00    0.1137601581E-03    0.1345507580E-02
    0.3900000000E+02    0.2647568939E-03    0.4689215328E-04    0.6240421518E+00    0.1196211411E-03    0.1418002190E-02
    0.4100000000E+02    0.2766295615E-03    0.4900960462E-04    0.6272053778E+00    0.1254854696E-03    0.1490472751E-02
    0.4300000000E+02    0.2885053997E-03    0.5112775155E-04    0.6301022411E+00    0.1313526106E-03    0.1562919277E-02
    0.4500000000E+02    0.3003842194E-03    0.5324654133E-04    0.6327650283E+00    0.1372220845E-03    0.1635341784E-02
    0.4700000000E+02    0.3122657523E-03    0.5536591036E-04    0.6352210104E+00    0.1430934606E-03    0.1707740284E-02
    0.4900000000E+02    0.3241496802E-03    0.5748578879E-04    0.6374933806E+00    0.1489663518E-03    0.1780114793E-02
    0.1000000000E+02    0.9103131500E-04    0.1596659863E-04    0.4801107935E+00    0.3522215274E-04    0.3644691082E-03
    0.3000000000E+02    0.2113656082E-03    0.3737236034E-04    0.6052693024E+00    0.9328216830E-04    0.1091586855E-02
    0.5000000000E+02    0.3300924344E-03    0.5854589629E-04    0.6385670281E+00    0.1519032554E-03    0.1816293055E-02
    0.7000000000E+02    0.4489864404E-03    0.7975741676E-04    0.6539876482E+00    0.2106530213E-03    0.2538602179E-02
    0.9000000000E+02    0.5677495834E-03    0.1009479657E-03    0.6628815876E+00    0.2693146293E-03    0.3258528237E-02
    0.1100000000E+03    0.6861741895E-03    0.1220793335E-03    0.6686688293E+00    0.3278018385E-03    0.3976085070E-02
    0.1300000000E+03    0.8041390256E-03    0.1431296746E-03    0.6727351930E+00    0.3860750523E-03    0.4691286384E-02
    0.1500000000E+03    0.9215715371E-03    0.1640860617E-03    0.6757489396E+00    0.4441141196E-03    0.5404145770E-02
    0.1700000000E+03    0.1038426656E-02    0.1849405263E-03    0.6780719743E+00    0.5019081094E-03    0.6114676708E-02
    0.1900000000E+03    0.1154675567E-02    0.2056880045E-03    0.6799173528E+00    0.5594509093E-03    0.6822892569E-02
    0.2100000000E+03    0.1270299530E-02    0.2263252207E-03    0.6814186732E+00    0.6167391212E-03    0.7528806617E-02
    0.2300000000E+03    0.1385286321E-02    0.2468500496E-03    0.6826639590E+00    0.6737709685E-03    0.8232432011E-02
    0.2500000000E+03    0.1499628081E-02    0.2672611329E-03    0.6837135656E+00    0.7305456895E-03    0.8933781807E-02
    0.2700000000E+03    0.1613319963E-02    0.2875576409E-03    0.6846102599E+00    0.7870631831E-03    0.9632868960E-02
    0.2900000000E+03    0.1726359263E-02    0.3077391168E-03    0.6853851917E+00    0.8433237907E-03    0.1032970632E-01
    0.3100000000E+03    0.1838744819E-02    0.3278053734E-03    0.6860615880E+00    0.8993281590E-03    0.1102430664E-01
    0.3300000000E+03    0.1950476618E-02    0.3477564223E-03    0.6866571212E+00    0.9550771488E-03    0.1171668258E-01
    0.3500000000E+03    0.2061555500E-02    0.3675924235E-03    0.6871854757E+00    0.1010571773E-02    0.1240684669E-01
    0.3700000000E+03    0.2171982960E-02    0.3873136497E-03    0.6876574129E+00    0.1065813157E-02    0.1309481142E-01
    0.3900000000E+03    0.2281760994E-02    0.4069204603E-03    0.6880815123E+00    0.1120802505E-02    0.1378058915E-01
    0.4100000000E+03    0.2390891984E-02    0.4264132813E-03    0.6884646975E+00    0.1175541080E-02    0.1446419213E-01
    0.4300000000E+03    0.2499378621E-02    0.4457925913E-03    0.6888126176E+00    0.1230030190E-02    0.1514563255E-01
    0.4500000000E+03    0.2607223831E-02    0.4650589098E-03    0.6891299272E+00    0.1284271173E-02    0.1582492248E-01
    0.4700000000E+03    0.2714430731E-02    0.4842127886E-03    0.6894204964E+00    0.1338265391E-02    0.1650207391E-01
    0.4900000000E+03    0.2821002587E-02    0.5032548050E-03    0.6896875692E+00    0.1392014219E-02    0.1717709873E-01
    0.1000000000E+03    0.6270132701E-03    0.1115226876E-03    0.6660520675E+00    0.2985831534E-03    0.3617601947E-02
    0.3000000000E+03    0.1782633783E-02    0.3177866508E-03    0.6857344935E+00    0.8713579552E-03    0.1067728532E-01
    0.5000000000E+03    0.2874051427E-02    0.5127340508E-03    0.6898131676E+00    0.1418797046E-02    0.1751381735E-01
    0.7000000000E+03    0.3902556909E-02    0.6965991850E-03    0.6915765777E+00    0.1941912168E-02    0.2413938251E-01
    0.9000000000E+03    0.4871741165E-02    0.8700137752E-03    0.6925603870E+00    0.2442077968E-02    0.3056527000E-01
    0.1100000000E+04    0.5785262217E-02    0.1033619462E-02    0.6931880372E+00    0.2920611772E-02    0.3680195480E-01
    0.1300000000E+04    0.6646592153E-02    0.1188024745E-02    0.6936233129E+00    0.3378743940E-02    0.4285916974E-01
    0.1500000000E+04    0.7458974204E-02    0.1333797859E-02    0.6939429177E+00    0.3817618409E-02    0.4874597011E-01
    0.1700000000E+04    0.8225423476E-02    0.1471467049E-02    0.6941875595E+00    0.4238298178E-02    0.5447079162E-01
    0.1900000000E+04    0.8948739252E-02    0.1601522785E-02    0.6943808486E+00    0.4641771558E-02    0.6004150254E-01
    0.2100000000E+04    0.9631520269E-02    0.1724420461E-02    0.6945374220E+00    0.5028958249E-02    0.6546545069E-01
    0.2300000000E+04    0.1027618022E-01    0.1840583116E-02    0.6946668360E+00    0.5400714973E-02    0.7074950583E-01
    0.2500000000E+04    0.1088496255E-01    0.1950404027E-02    0.6947755951E+00    0.5757840643E-02    0.7590009805E-01
    0.2700000000E+04    0.1145995418E-01    0.2054249114E-02    0.6948682802E+00    0.6101081053E-02    0.8092325243E-01
    0.2900000000E+04    0.1200309814E-01    0.2152459146E-02    0.6949482105E+00    0.6431133151E-02    0.8582462060E-01
    0.3100000000E+04    0.1251620515E-01    0.2245351761E-02    0.6950178503E+00    0.6748648907E-02    0.9060950932E-01
    0.3300000000E+04    0.1300096410E-01    0.2333223305E-02    0.6950790673E+00    0.7054238840E-02    0.9528290650E-01
    0.3500000000E+04    0.1345895172E-01    0.2416350508E-02    0.6951333029E+00    0.7348475210E-02    0.9984950495E-01
    0.3700000000E+04    0.1389164124E-01    0.2494992012E-02    0.6951816874E+00    0.7631894937E-02    0.1043137240E+00
    0.3900000000E+04    0.1430041044E-01    0.2569389762E-02    0.6952251197E+00    0.7905002254E-02    0.1086797292E+00
    0.4100000000E+04    0.1468654888E-01    0.2639770277E-02    0.6952643232E+00    0.8168271128E-02    0.1129514505E+00
    0.4300000000E+04    0.1505126453E-01    0.2706345808E-02    0.6952998871E+00    0.8422147474E-02    0.1171325988E+00
    0.4500000000E+04    0.1539568986E-01    0.2769315397E-02    0.6953322961E+00    0.8667051178E-02    0.1212266811E+00
    0.4700000000E+04    0.1572088739E-01    0.2828865845E-02    0.6953619523E+00    0.8903377949E-02    0.1252370143E+00
    0.4900000000E+04    0.1602785473E-01    0.2885172600E-02    0.6953891923E+00    0.9131501017E-02    0.1291667383E+00
    0.1000000000E+04    0.5335237369E-02    0.9530037795E-03    0.6929054387E+00    0.2683969897E-02    0.3370663783E-01
    0.3000000000E+04    0.1226329797E-01    0.2199551131E-02    0.6949841883E+00    0.6591418982E-02    0.8823130596E-01
    0.5000000000E+04    0.1617479725E-01    0.2912161517E-02    0.6954019967E+00    0.9242597037E-02    0.1311023076E+00
    0.7000000000E+04    0.1835635529E-01    0.3316818762E-02    0.6955813785E+00    0.1110969489E-01    0.1662273041E+00
    0.9000000000E+04    0.1949594320E-01    0.3534742010E-02    0.6956811519E+00    0.1245721220E-01    0.1958767598E+00
    0.1100000000E+05    0.1998637363E-01    0.3635405300E-02    0.6957447019E+00    0.1344434390E-01    0.2214663872E+00
    0.1300000000E+05    0.2006354199E-01    0.3660711502E-02    0.6957887315E+00    0.1417247175E-01    0.2439298232E+00
    0.1500000000E+05    0.1987476838E-01    0.3636959393E-02    0.6958210415E+00    0.1470915975E-01    0.2639115789E+00
    0.1700000000E+05    0.1951490958E-01    0.3581177528E-02    0.6958457639E+00    0.1510114009E-01    0.2818738143E+00
    0.1900000000E+05    0.1904650593E-01    0.3504664679E-02    0.6958652924E+00    0.1538174865E-01    0.2981587385E+00
    0.2100000000E+05    0.1851153853E-01    0.3415060481E-02    0.6958811092E+00    0.1557538809E-01    0.3130267783E+00
    0.2300000000E+05    0.1793855447E-01    0.3317603413E-02    0.6958941815E+00    0.1570031636E-01    0.3266808478E+00
    0.2500000000E+05    0.1734712560E-01    0.3215920163E-02    0.6959051672E+00    0.1577045031E-01    0.3392823077E+00
    0.2700000000E+05    0.1675071593E-01    0.3112534834E-02    0.6959145294E+00    0.1579656781E-01    0.3509617709E+00
    0.2900000000E+05    0.1615856965E-01    0.3009205330E-02    0.6959226036E+00    0.1578713047E-01    0.3618266112E+00
    0.3100000000E+05    0.1557697967E-01    0.2907150211E-02    0.6959296387E+00    0.1574886007E-01    0.3719663032E+00
    0.3300000000E+05    0.1501015500E-01    0.2807204438E-02    0.6959358233E+00    0.1568715078E-01    0.3814562992E+00
    0.3500000000E+05    0.1446082285E-01    0.2709927958E-02    0.6959413032E+00    0.1560636963E-01    0.3903608981E+00
    0.3700000000E+05    0.1393065213E-01    0.2615682432E-02    0.6959461923E+00    0.1551007905E-01    0.3987354040E+00
    0.3900000000E+05    0.1342055453E-01    0.2524686095E-02    0.6959505814E+00    0.1540120434E-01    0.4066277772E+00
    0.4100000000E+05    0.1293090067E-01    0.2437053346E-02    0.6959545437E+00    0.1528216127E-01    0.4140799142E+00
    0.4300000000E+05    0.1246167645E-01    0.2352823584E-02    0.6959581385E+00    0.1515495460E-01    0.4211286538E+00
    0.4500000000E+05    0.1201259684E-01    0.2271982330E-02    0.6959614148E+00    0.1502125493E-01    0.4278065770E+00
    0.4700000000E+05    0.1158318913E-01    0.2194476808E-02    0.6959644131E+00    0.1488245928E-01    0.4341426505E+00
    0.4900000000E+05    0.1117285390E-01    0.2120227461E-02    0.6959671675E+00    0.1473973931E-01    0.4401627502E+00
    0.1000000000E+05    0.1980489862E-01    0.3596643974E-02    0.6957160980E+00    0.1298848937E-01    0.2091122312E+00
    0.3000000000E+05    0.1586615132E-01    0.2957958755E-02    0.6959262380E+00    0.1577123512E-01    0.3669820940E+00
    0.5000000000E+05    0.1097462781E-01    0.2084293821E-02    0.6959684624E+00    0.1466722189E-01    0.4430616581E+00
    0.7000000000E+05    0.7833016960E-02    0.1509039704E-02    0.6959866129E+00    0.1318004093E-01    0.4890083144E+00
    0.9000000000E+05    0.5815612382E-02    0.1133451420E-02    0.6959967207E+00    0.1181375765E-01    0.5197308957E+00
    0.1100000000E+06    0.4468083774E-02    0.8793516605E-03    0.6960031659E+00    0.1064275868E-01    0.5416462716E+00
    0.1300000000E+06    0.3531208983E-02    0.7008325112E-03    0.6960076359E+00    0.9653604055E-02    0.5580208060E+00
    0.1500000000E+06    0.2856541177E-02    0.5711323183E-03    0.6960109191E+00    0.8816917671E-02    0.5706939381E+00
    0.1700000000E+06    0.2355930455E-02    0.4741496362E-03    0.6960134333E+00    0.8104496975E-02    0.5807783241E+00
    0.1900000000E+06    0.1974906831E-02    0.3998299595E-03    0.6960154209E+00    0.7492873391E-02    0.5889848350E+00
    0.2100000000E+06    0.1678540755E-02    0.3416687654E-03    0.6960170317E+00    0.6963336178E-02    0.5957879237E+00
    0.2300000000E+06    0.1443679655E-02    0.2953217925E-03    0.6960183639E+00    0.6501142383E-02    0.6015158178E+00
    0.2500000000E+06    0.1254522735E-02    0.2578043665E-03    0.6960194841E+00    0.6094671466E-02    0.6064025126E+00
    0.2700000000E+06    0.1100005816E-02    0.2270140057E-03    0.6960204392E+00    0.5734713413E-02    0.6106191435E+00
    0.2900000000E+06    0.9722036322E-03    0.2014365355E-03    0.6960212633E+00    0.5413912195E-02    0.6142936582E+00
    0.3100000000E+06    0.8653239359E-03    0.1799598245E-03    0.6960219817E+00    0.5126342229E-02    0.6175235659E+00
    0.3300000000E+06    0.7750568209E-03    0.1617525789E-03    0.6960226135E+00    0.4867188635E-02    0.6203844397E+00
    0.3500000000E+06    0.6981434506E-03    0.1461835757E-03    0.6960231735E+00    0.4632505735E-02    0.6229357294E+00
    0.3700000000E+06    0.6320838621E-03    0.1327666726E-03    0.6960236733E+00    0.4419033771E-02    0.6252248265E+00
    0.3900000000E+06    0.5749350283E-03    0.1211226328E-03    0.6960241221E+00    0.4224058871E-02    0.6272899621E+00
    0.4100000000E+06    0.5251687616E-03    0.1109521508E-03    0.6960245273E+00    0.4045305204E-02    0.6291623100E+00
    0.4300000000E+06    0.4815700743E-03    0.1020164826E-03    0.6960248951E+00    0.3880851266E-02    0.6308675376E+00
    0.4500000000E+06    0.4431633782E-03    0.9412333012E-04    0.6960252303E+00    0.3729064352E-02    0.6324269664E+00
    0.4700000000E+06    0.4091581597E-03    0.8711641555E-04    0.6960255372E+00    0.3588548854E-02    0.6338584518E+00
    0.4900000000E+06    0.3789084808E-03    0.8086768349E-04    0.6960258191E+00    0.3458105146E-02    0.6351770573E+00
    0.1000000000E+06    0.5077734366E-02    0.9946690881E-03    0.6960002640E+00    0.1120392671E-01    0.5315393868E+00
    0.3000000000E+06    0.9164466985E-03    0.1902430227E-03    0.6960216344E+00    0.5266297110E-02    0.6159590289E+00
    0.5000000000E+06    0.3650219709E-03    0.7799385378E-04    0.6960259517E+00    0.3396330679E-02    0.6357981056E+00
    0.7000000000E+06    0.1943231513E-03    0.4232855892E-04    0.6960278103E+00    0.2499569552E-02    0.6445775399E+00
    0.9000000000E+06    0.1202990209E-03    0.2658451709E-04    0.6960288447E+00    0.1975060797E-02    0.6495198037E+00
    0.1100000000E+07    0.8170055061E-04    0.1826285641E-04    0.6960295031E+00    0.1631354380E-02    0.6526870416E+00
    0.1300000000E+07    0.5907597931E-04    0.1333117734E-04    0.6960299582E+00    0.1388897453E-02    0.6548891387E+00
    0.1500000000E+07    0.4469429796E-04    0.1016718055E-04    0.6960302911E+00    0.1208783220E-02    0.6565085866E+00
    0.1700000000E+07    0.3499090083E-04    0.8015347532E-05    0.6960305448E+00    0.1069753336E-02    0.6577494464E+00
    0.1900000000E+07    0.2813790012E-04    0.6484954175E-05    0.6960307442E+00    0.9592177850E-03    0.6587304922E+00
    0.2100000000E+07    0.2311978733E-04    0.5357317909E-05    0.6960309048E+00    0.8692484963E-03    0.6595255386E+00
    0.2300000000E+07    0.1933588568E-04    0.4502237312E-05    0.6960310367E+00    0.7946058174E-03    0.6601828685E+00
    0.2500000000E+07    0.1641250986E-04    0.3838235314E-05    0.6960311467E+00    0.7316887771E-03    0.6607353906E+00
    0.2700000000E+07    0.1410733538E-04    0.3312193470E-05    0.6960312397E+00    0.6779413490E-03    0.6612063056E+00
    0.2900000000E+07    0.1225766170E-04    0.2888272430E-05    0.6960313193E+00    0.6314993038E-03    0.6616124394E+00
    0.3100000000E+07    0.1075097136E-04    0.2541575103E-05    0.6960313880E+00    0.5909711477E-03    0.6619662916E+00
    0.3300000000E+07    0.9507445790E-05    0.2254365760E-05    0.6960314478E+00    0.5552973061E-03    0.6622773412E+00
    0.3500000000E+07    0.8469194617E-05    0.2013730866E-05    0.6960315002E+00    0.5236567902E-03    0.6625529070E+00
    0.3700000000E+07    0.7593406816E-05    0.1810085668E-05    0.6960315465E+00    0.4954036655E-03    0.6627987300E+00
    0.3900000000E+07    0.6847872946E-05    0.1636194135E-05    0.6960315876E+00    0.4700227865E-03    0.6630193762E+00
    0.4100000000E+07    0.6207984873E-05    0.1486509966E-05    0.6960316243E+00    0.4470983104E-03    0.6632185230E+00
    0.4300000000E+07    0.5654681093E-05    0.1356723784E-05    0.6960316571E+00    0.4262908853E-03    0.6633991650E+00
    0.4500000000E+07    0.5173011836E-05    0.1243445928E-05    0.6960316866E+00    0.4073208471E-03    0.6635637654E+00
    0.4700000000E+07    0.4751119185E-05    0.1143980316E-05    0.6960317133E+00    0.3899556585E-03    0.6637143692E+00
    0.4900000000E+07    0.4379500514E-05    0.1056160665E-05    0.6960317374E+00    0.3740003896E-03    0.6638526878E+00
    0.1000000000E+07    0.9822082776E-04    0.2183670041E-04    0.6960292069E+00    0.1786977830E-02    0.6512597420E+00
    0.3000000000E+07    0.1146704823E-04    0.2706514507E-05    0.6960313549E+00    0.6105687198E-03    0.6617952493E+00
    0.5000000000E+07    0.4210082508E-05    0.1016055690E-05    0.6960317486E+00    0.3664990103E-03    0.6639177003E+00
    0.7000000000E+07    0.2191319042E-05    0.5340316457E-06    0.6960318938E+00    0.2613514045E-03    0.6648279921E+00
    0.9000000000E+07    0.1355449280E-05    0.3313220157E-06    0.6960319583E+00    0.2028810526E-03    0.6653337131E+00
    0.1100000000E+08    0.9299292354E-06    0.2270072451E-06    0.6960319873E+00    0.1656836294E-03    0.6656554821E+00
    0.1300000000E+08    0.6837400078E-06    0.1661822792E-06    0.6960319981E+00    0.1399507069E-03    0.6658781989E+00
    0.1500000000E+08    0.5282919283E-06    0.1275571978E-06    0.6960319985E+00    0.1210971375E-03    0.6660414905E+00
    0.1700000000E+08    0.4236868084E-06    0.1014584262E-06    0.6960319928E+00    0.1066936805E-03    0.6661663362E+00
    0.1900000000E+08    0.3497965111E-06    0.8297014473E-07    0.6960319831E+00    0.9533360756E-04    0.6662648811E+00
    0.2100000000E+08    0.2955687491E-06    0.6937658069E-07    0.6960319708E+00    0.8614613918E-04    0.6663446431E+00
    0.2300000000E+08    0.2545216814E-06    0.5907673643E-07    0.6960319569E+00    0.7856350894E-04    0.6664105243E+00
    0.2500000000E+08    0.2226480786E-06    0.5107642870E-07    0.6960319418E+00    0.7219976741E-04    0.6664658580E+00
    0.2700000000E+08    0.1973611581E-06    0.4473141996E-07    0.6960319259E+00    0.6678343115E-04    0.6665129892E+00
