  Pressure (Pa) 22mC5-500 (mol/kg) 23mC5-500 (mol/kg) 24mC5-500 (mol/kg) 2mC6-500 (mol/kg) 3mC6-500 (mol/kg)
    0.1000000000E+01    0.1650309520E-04    0.7665688005E-05    0.1266341734E+00    0.1092166736E-04    0.5210825322E-05
    0.3000000000E+01    0.3943124991E-04    0.1834318113E-04    0.2785329361E+00    0.2718082570E-04    0.1563090553E-04
    0.5000000000E+01    0.5653684678E-04    0.2634406467E-04    0.3664451553E+00    0.4051415239E-04    0.2604892372E-04
    0.7000000000E+01    0.7117920449E-04    0.3322014062E-04    0.4237687629E+00    0.5278599145E-04    0.3646489611E-04
    0.9000000000E+01    0.8461890524E-04    0.3955118286E-04    0.4641031973E+00    0.6462989112E-04    0.4687883016E-04
    0.1100000000E+02    0.9741613957E-04    0.4559361010E-04    0.4940266975E+00    0.7629699833E-04    0.5729073010E-04
    0.1300000000E+02    0.1098492659E-03    0.5147417339E-04    0.5171095277E+00    0.8789654845E-04    0.6770059865E-04
    0.1500000000E+02    0.1220679592E-03    0.5726063654E-04    0.5354569021E+00    0.9947858630E-04    0.7810843780E-04
    0.1700000000E+02    0.1341575103E-03    0.6299136716E-04    0.5503905484E+00    0.1110664043E-03    0.8851424914E-04
    0.1900000000E+02    0.1461686882E-03    0.6868903779E-04    0.5627821696E+00    0.1226705202E-03    0.9891803400E-04
    0.2100000000E+02    0.1581327236E-03    0.7436747889E-04    0.5732299533E+00    0.1342951374E-03    0.1093197935E-03
    0.2300000000E+02    0.1700693023E-03    0.8003532231E-04    0.5821580469E+00    0.1459412906E-03    0.1197195288E-03
    0.2500000000E+02    0.1819910469E-03    0.8569803670E-04    0.5898755622E+00    0.1576084380E-03    0.1301172408E-03
    0.2700000000E+02    0.1939061339E-03    0.9135911168E-04    0.5966130989E+00    0.1692952893E-03    0.1405129305E-03
    0.2900000000E+02    0.2058198756E-03    0.9702077079E-04    0.6025461832E+00    0.1810002411E-03    0.1509065988E-03
    0.3100000000E+02    0.2177357047E-03    0.1026844129E-03    0.6078107837E+00    0.1927216072E-03    0.1612982466E-03
    0.3300000000E+02    0.2296558018E-03    0.1083508927E-03    0.6125138602E+00    0.2044577373E-03    0.1716878747E-03
    0.3500000000E+02    0.2415815039E-03    0.1140207018E-03    0.6167407087E+00    0.2162070756E-03    0.1820754839E-03
    0.3700000000E+02    0.2535135754E-03    0.1196940888E-03    0.6205601820E+00    0.2279681857E-03    0.1924610751E-03
    0.3900000000E+02    0.2654523906E-03    0.1253711389E-03    0.6240284695E+00    0.2397397578E-03    0.2028446491E-03
    0.4100000000E+02    0.2773980577E-03    0.1310518284E-03    0.6271918813E+00    0.2515206066E-03    0.2132262068E-03
    0.4300000000E+02    0.2893505048E-03    0.1367360616E-03    0.6300889273E+00    0.2633096632E-03    0.2236057488E-03
    0.4500000000E+02    0.3013095391E-03    0.1424236960E-03    0.6327518937E+00    0.2751059665E-03    0.2339832761E-03
    0.4700000000E+02    0.3132748888E-03    0.1481145605E-03    0.6352080512E+00    0.2869086524E-03    0.2443587893E-03
    0.4900000000E+02    0.3252462322E-03    0.1538084672E-03    0.6374805925E+00    0.2987169447E-03    0.2547322894E-03
    0.1000000000E+02    0.9107627440E-04    0.4259864227E-04    0.4800969914E+00    0.7047673483E-04    0.5208503420E-04
    0.3000000000E+02    0.2117773692E-03    0.9985228031E-04    0.6052547776E+00    0.1868589773E-03    0.1561026752E-03
    0.5000000000E+02    0.3312340425E-03    0.1566565002E-03    0.6385543240E+00    0.3046229721E-03    0.2599182847E-03
    0.7000000000E+02    0.4512172249E-03    0.2137301371E-03    0.6539764039E+00    0.4229015741E-03    0.3635326870E-03
    0.9000000000E+02    0.5714253105E-03    0.2709143166E-03    0.6628714515E+00    0.5412587619E-03    0.4669466529E-03
    0.1100000000E+03    0.6916470790E-03    0.3281054956E-03    0.6686595545E+00    0.6595197111E-03    0.5701609403E-03
    0.1300000000E+03    0.8117577767E-03    0.3852437803E-03    0.6727266070E+00    0.7776029019E-03    0.6731763000E-03
    0.1500000000E+03    0.9316813596E-03    0.4422930731E-03    0.6757409183E+00    0.8954657272E-03    0.7759934777E-03
    0.1700000000E+03    0.1051369303E-02    0.4992305158E-03    0.6780644257E+00    0.1013084041E-02    0.8786132144E-03
    0.1900000000E+03    0.1170789368E-02    0.5560410109E-03    0.6799102068E+00    0.1130443357E-02    0.9810362470E-03
    0.2100000000E+03    0.1289919427E-02    0.6127142457E-03    0.6814118750E+00    0.1247534638E-02    0.1083263308E-02
    0.2300000000E+03    0.1408743898E-02    0.6692429898E-03    0.6826574649E+00    0.1364352114E-02    0.1185295127E-02
    0.2500000000E+03    0.1527251599E-02    0.7256220749E-03    0.6837073403E+00    0.1480892063E-02    0.1287132429E-02
    0.2700000000E+03    0.1645434396E-02    0.7818477563E-03    0.6846042740E+00    0.1597152108E-02    0.1388775935E-02
    0.2900000000E+03    0.1763286325E-02    0.8379172998E-03    0.6853794211E+00    0.1713130779E-02    0.1490226361E-02
    0.3100000000E+03    0.1880803002E-02    0.8938287050E-03    0.6860560120E+00    0.1828827234E-02    0.1591484423E-02
    0.3300000000E+03    0.1997981220E-02    0.9495805162E-03    0.6866517222E+00    0.1944241082E-02    0.1692550830E-02
    0.3500000000E+03    0.2114818660E-02    0.1005171689E-02    0.6871802387E+00    0.2059372259E-02    0.1793426288E-02
    0.3700000000E+03    0.2231313686E-02    0.1060601492E-02    0.6876523248E+00    0.2174220940E-02    0.1894111501E-02
    0.3900000000E+03    0.2347465195E-02    0.1115869443E-02    0.6880765616E+00    0.2288787483E-02    0.1994607166E-02
    0.4100000000E+03    0.2463272504E-02    0.1170975248E-02    0.6884598742E+00    0.2403072383E-02    0.2094913980E-02
    0.4300000000E+03    0.2578735263E-02    0.1225918770E-02    0.6888079126E+00    0.2517076242E-02    0.2195032636E-02
    0.4500000000E+03    0.2693853393E-02    0.1280699994E-02    0.6891253327E+00    0.2630799743E-02    0.2294963820E-02
    0.4700000000E+03    0.2808627034E-02    0.1335319004E-02    0.6894160052E+00    0.2744243634E-02    0.2394708218E-02
    0.4900000000E+03    0.2923056502E-02    0.1389775967E-02    0.6896831750E+00    0.2857408714E-02    0.2494266512E-02
    0.1000000000E+03    0.6315437717E-03    0.2995135083E-03    0.6660423875E+00    0.6004076515E-03    0.5185787094E-03
    0.3000000000E+03    0.1822086794E-02    0.8658928716E-03    0.6857288225E+00    0.1771014317E-02    0.1540879394E-02
    0.5000000000E+03    0.2980142312E-02    0.1416943752E-02    0.6898088197E+00    0.2913886961E-02    0.2543976082E-02
    0.7000000000E+03    0.4103959589E-02    0.1951874767E-02    0.6915729347E+00    0.4029033765E-02    0.3528561076E-02
    0.9000000000E+03    0.5194374283E-02    0.2471087373E-02    0.6925571961E+00    0.5117373475E-02    0.4495292367E-02
    0.1100000000E+04    0.6252545700E-02    0.2975128761E-02    0.6931851669E+00    0.6179876002E-02    0.5444795825E-02
    0.1300000000E+04    0.7279677507E-02    0.3464564820E-02    0.6936206847E+00    0.7217486344E-02    0.6377667167E-02
    0.1500000000E+04    0.8276951527E-02    0.3939950323E-02    0.6939404806E+00    0.8231110798E-02    0.7294473784E-02
    0.1700000000E+04    0.9245507822E-02    0.4401820062E-02    0.6941852779E+00    0.9221614690E-02    0.8195756427E-02
    0.1900000000E+04    0.1018643862E-01    0.4850686210E-02    0.6943786970E+00    0.1018982313E-01    0.9082030778E-02
    0.2100000000E+04    0.1110078724E-01    0.5287037925E-02    0.6945353808E+00    0.1113652266E-01    0.9953788907E-02
    0.2300000000E+04    0.1198954902E-01    0.5711341826E-02    0.6946648903E+00    0.1206246318E-01    0.1081150063E-01
    0.2500000000E+04    0.1285367303E-01    0.6124042848E-02    0.6947737330E+00    0.1296835992E-01    0.1165561477E-01
    0.2700000000E+04    0.1369406421E-01    0.6525565233E-02    0.6948664920E+00    0.1385489531E-01    0.1248656033E-01
    0.2900000000E+04    0.1451158549E-01    0.6916313561E-02    0.6949464883E+00    0.1472272081E-01    0.1330474761E-01
    0.3100000000E+04    0.1530706004E-01    0.7296673779E-02    0.6950161874E+00    0.1557245862E-01    0.1411056922E-01
    0.3300000000E+04    0.1608127332E-01    0.7667014187E-02    0.6950774582E+00    0.1640470330E-01    0.1490440102E-01
    0.3500000000E+04    0.1683497510E-01    0.8027686389E-02    0.6951317429E+00    0.1722002324E-01    0.1568660307E-01
    0.3700000000E+04    0.1756888143E-01    0.8379026192E-02    0.6951801724E+00    0.1801896215E-01    0.1645752041E-01
    0.3900000000E+04    0.1828367641E-01    0.8721354456E-02    0.6952236460E+00    0.1880204031E-01    0.1721748387E-01
    0.4100000000E+04    0.1898001391E-01    0.9054977891E-02    0.6952628878E+00    0.1956975590E-01    0.1796681081E-01
    0.4300000000E+04    0.1965851919E-01    0.9380189817E-02    0.6952984873E+00    0.2032258607E-01    0.1870580583E-01
    0.4500000000E+04    0.2031979041E-01    0.9697270863E-02    0.6953309294E+00    0.2106098812E-01    0.1943476137E-01
    0.4700000000E+04    0.2096440004E-01    0.1000648964E-01    0.6953606166E+00    0.2178540049E-01    0.2015395835E-01
    0.4900000000E+04    0.2159289620E-01    0.1030810338E-01    0.6953878855E+00    0.2249624371E-01    0.2086366675E-01
    0.1000000000E+04    0.5727415066E-02    0.2724969022E-02    0.6929024203E+00    0.5651794483E-02    0.4972159658E-02
    0.3000000000E+04    0.1491202866E-01    0.7107768763E-02    0.6949824965E+00    0.1514981289E-01    0.1370918025E-01
    0.5000000000E+04    0.2190126668E-01    0.1045613576E-01    0.6954007038E+00    0.2284670365E-01    0.2121504424E-01
    0.7000000000E+04    0.2733930313E-01    0.1307224629E-01    0.6955802960E+00    0.2923350133E-01    0.2780255974E-01
    0.9000000000E+04    0.3164560496E-01    0.1515307338E-01    0.6956802045E+00    0.3463561561E-01    0.3368297672E-01
    0.1100000000E+05    0.3510400027E-01    0.1683205307E-01    0.6957438506E+00    0.3927740632E-01    0.3900460388E-01
    0.1300000000E+05    0.3791291485E-01    0.1820258517E-01    0.6957879533E+00    0.4331873705E-01    0.4387495326E-01
    0.1500000000E+05    0.4021494183E-01    0.1933187326E-01    0.6958203212E+00    0.4687671251E-01    0.4837409004E-01
    0.1700000000E+05    0.4211498579E-01    0.2026942233E-01    0.6958450911E+00    0.5003916423E-01    0.5256302365E-01
    0.1900000000E+05    0.4369180221E-01    0.2105244671E-01    0.6958646593E+00    0.5287332389E-01    0.5648917234E-01
    0.2100000000E+05    0.4500556696E-01    0.2170941981E-01    0.6958805102E+00    0.5543157703E-01    0.6019003184E-01
    0.2300000000E+05    0.4610297701E-01    0.2226246784E-01    0.6958936121E+00    0.5775538419E-01    0.6369570449E-01
    0.2500000000E+05    0.4702076968E-01    0.2272902253E-01    0.6959046238E+00    0.5987801707E-01    0.6703068367E-01
    0.2700000000E+05    0.4778820198E-01    0.2312298633E-01    0.6959140091E+00    0.6182650812E-01    0.7021513900E-01
    0.2900000000E+05    0.4842883031E-01    0.2345556934E-01    0.6959221040E+00    0.6362306583E-01    0.7326585896E-01
    0.3100000000E+05    0.4896180924E-01    0.2373590070E-01    0.6959291578E+00    0.6528611957E-01    0.7619695384E-01
    0.3300000000E+05    0.4940285388E-01    0.2397148180E-01    0.6959353595E+00    0.6683110243E-01    0.7902038768E-01
    0.3500000000E+05    0.4976496268E-01    0.2416852703E-01    0.6959408550E+00    0.6827104614E-01    0.8174638622E-01
    0.3700000000E+05    0.5005896716E-01    0.2433222311E-01    0.6959457585E+00    0.6961703855E-01    0.8438375367E-01
    0.3900000000E+05    0.5029395468E-01    0.2446692869E-01    0.6959501609E+00    0.7087857970E-01    0.8694012145E-01
    0.4100000000E+05    0.5047759713E-01    0.2457632965E-01    0.6959541355E+00    0.7206386171E-01    0.8942214541E-01
    0.4300000000E+05    0.5061640879E-01    0.2466356109E-01    0.6959577418E+00    0.7317999100E-01    0.9183566386E-01
    0.4500000000E+05    0.5071595052E-01    0.2473130390E-01    0.6959610289E+00    0.7423316628E-01    0.9418582514E-01
    0.4700000000E+05    0.5078099282E-01    0.2478186205E-01    0.6959640374E+00    0.7522882230E-01    0.9647719157E-01
    0.4900000000E+05    0.5081564689E-01    0.2481722472E-01    0.6959668013E+00    0.7617174684E-01    0.9871382468E-01
    0.1000000000E+05    0.3346680613E-01    0.1603621412E-01    0.6957152023E+00    0.3704035480E-01    0.3640615076E-01
    0.3000000000E+05    0.4870772260E-01    0.2360176395E-01    0.6959257480E+00    0.6447025365E-01    0.7474556677E-01
    0.5000000000E+05    0.5082270939E-01    0.2482975589E-01    0.6959681007E+00    0.7662477805E-01    0.9981276615E-01
    0.7000000000E+05    0.5002023727E-01    0.2459968237E-01    0.6959863216E+00    0.8372774697E-01    0.1196267616E+00
    0.9000000000E+05    0.4834140970E-01    0.2390702102E-01    0.6959964762E+00    0.8839382928E-01    0.1365030169E+00
    0.1100000000E+06    0.4640130803E-01    0.2305926230E-01    0.6960029558E+00    0.9164462273E-01    0.1514362073E+00
    0.1300000000E+06    0.4442437565E-01    0.2217236635E-01    0.6960074527E+00    0.9397830231E-01    0.1649520572E+00
    0.1500000000E+06    0.4249992689E-01    0.2129476484E-01    0.6960107578E+00    0.9567380993E-01    0.1773667464E+00
    0.1700000000E+06    0.4066351323E-01    0.2044738470E-01    0.6960132905E+00    0.9690280782E-01    0.1888880070E+00
    0.1900000000E+06    0.3892737351E-01    0.1963885975E-01    0.6960152938E+00    0.9777841392E-01    0.1996613729E+00
    0.2100000000E+06    0.3729315390E-01    0.1887200166E-01    0.6960169186E+00    0.9837910736E-01    0.2097938839E+00
    0.2300000000E+06    0.3575764620E-01    0.1814678424E-01    0.6960182631E+00    0.9876155484E-01    0.2193673151E+00
    0.2500000000E+06    0.3431551689E-01    0.1746180220E-01    0.6960193944E+00    0.9896799155E-01    0.2284460663E+00
    0.2700000000E+06    0.3296064773E-01    0.1681501389E-01    0.6960203596E+00    0.9903071416E-01    0.2370821239E+00
    0.2900000000E+06    0.3168680200E-01    0.1620412906E-01    0.6960211929E+00    0.9897494493E-01    0.2453183213E+00
    0.3100000000E+06    0.3048795088E-01    0.1562681309E-01    0.6960219198E+00    0.9882072912E-01    0.2531905603E+00
    0.3300000000E+06    0.2935842393E-01    0.1508079332E-01    0.6960225594E+00    0.9858423371E-01    0.2607293727E+00
    0.3500000000E+06    0.2829296748E-01    0.1456391193E-01    0.6960231268E+00    0.9827866147E-01    0.2679610477E+00
    0.3700000000E+06    0.2728675496E-01    0.1407414933E-01    0.6960236334E+00    0.9791491011E-01    0.2749084644E+00
    0.3900000000E+06    0.2633537265E-01    0.1360963119E-01    0.6960240887E+00    0.9750205759E-01    0.2815917199E+00
    0.4100000000E+06    0.2543479379E-01    0.1316862658E-01    0.6960245001E+00    0.9704772636E-01    0.2880286109E+00
    0.4300000000E+06    0.2458134791E-01    0.1274954143E-01    0.6960248736E+00    0.9655836101E-01    0.2942350100E+00
    0.4500000000E+06    0.2377168924E-01    0.1235090976E-01    0.6960252144E+00    0.9603944320E-01    0.3002251626E+00
    0.4700000000E+06    0.2300276610E-01    0.1197138401E-01    0.6960255265E+00    0.9549566013E-01    0.3060119260E+00
    0.4900000000E+06    0.2227179228E-01    0.1160972528E-01    0.6960258134E+00    0.9493103816E-01    0.3116069624E+00
    0.1000000000E+06    0.4738522719E-01    0.2349291790E-01    0.6960000379E+00    0.9015779350E-01    0.1441728987E+00
    0.3000000000E+06    0.3107836591E-01    0.1591141927E-01    0.6960215683E+00    0.9890905372E-01    0.2492979164E+00
    0.5000000000E+06    0.2191973176E-01    0.1143523630E-01    0.6960259484E+00    0.9464201694E-01    0.3143359402E+00
    0.7000000000E+06    0.1635669557E-01    0.8650991449E-02    0.6960278472E+00    0.8839753855E-01    0.3610041965E+00
    0.9000000000E+06    0.1269665115E-01    0.6789038511E-02    0.6960289117E+00    0.8212146422E-01    0.3965567487E+00
    0.1100000000E+07    0.1015010593E-01    0.5477177966E-02    0.6960295943E+00    0.7631478275E-01    0.4246608113E+00
    0.1300000000E+07    0.8303126784E-02    0.4515896155E-02    0.6960300702E+00    0.7108552550E-01    0.4474740522E+00
    0.1500000000E+07    0.6919444587E-02    0.3789462867E-02    0.6960304212E+00    0.6641780357E-01    0.4663759102E+00
    0.1700000000E+07    0.5855421142E-02    0.3226622596E-02    0.6960306911E+00    0.6225784340E-01    0.4822979265E+00
    0.1900000000E+07    0.5019351476E-02    0.2781404342E-02    0.6960309052E+00    0.5854424740E-01    0.4958949147E+00
    0.2100000000E+07    0.4350335521E-02    0.2423006545E-02    0.6960310793E+00    0.5521873402E-01    0.5076418046E+00
    0.2300000000E+07    0.3806592788E-02    0.2130133623E-02    0.6960312238E+00    0.5222952871E-01    0.5178919429E+00
    0.2500000000E+07    0.3358662284E-02    0.1887666092E-02    0.6960313456E+00    0.4953192311E-01    0.5269138819E+00
    0.2700000000E+07    0.2985275515E-02    0.1684621675E-02    0.6960314497E+00    0.4708778381E-01    0.5349154775E+00
    0.2900000000E+07    0.2670761484E-02    0.1512863296E-02    0.6960315397E+00    0.4486473349E-01    0.5420601673E+00
    0.3100000000E+07    0.2403364646E-02    0.1366255827E-02    0.6960316184E+00    0.4283529535E-01    0.5484782561E+00
    0.3300000000E+07    0.2174125475E-02    0.1240101406E-02    0.6960316878E+00    0.4097611079E-01    0.5542749175E+00
    0.3500000000E+07    0.1976117962E-02    0.1130752626E-02    0.6960317493E+00    0.3926726293E-01    0.5595359776E+00
    0.3700000000E+07    0.1803919446E-02    0.1035342203E-02    0.6960318044E+00    0.3769170749E-01    0.5643321699E+00
    0.3900000000E+07    0.1653235140E-02    0.9515906076E-03    0.6960318539E+00    0.3623480027E-01    0.5687223132E+00
    0.4100000000E+07    0.1520627773E-02    0.8776669426E-03    0.6960318987E+00    0.3488390714E-01    0.5727557182E+00
    0.4300000000E+07    0.1403319975E-02    0.8120868357E-03    0.6960319394E+00    0.3362808304E-01    0.5764740335E+00
    0.4500000000E+07    0.1299047858E-02    0.7536364914E-03    0.6960319766E+00    0.3245780733E-01    0.5799126771E+00
    0.4700000000E+07    0.1205951152E-02    0.7013155021E-03    0.6960320107E+00    0.3136476542E-01    0.5831019592E+00
    0.4900000000E+07    0.1122489838E-02    0.6542932991E-03    0.6960320420E+00    0.3034166804E-01    0.5860679695E+00
    0.1000000000E+07    0.1131571958E-01    0.6079463432E-02    0.6960292865E+00    0.7914808915E-01    0.4113811261E+00
    0.3000000000E+07    0.2531788607E-02    0.1436737779E-02    0.6960315804E+00    0.4382736086E-01    0.5453529511E+00
    0.5000000000E+07    0.1083962715E-02    0.6325477210E-03    0.6960320567E+00    0.2985431352E-01    0.5874744245E+00
    0.7000000000E+07    0.5976572275E-03    0.3554368281E-03    0.6960322644E+00    0.2256835213E-01    0.6080349459E+00
    0.9000000000E+07    0.3776179771E-03    0.2278253341E-03    0.6960323806E+00    0.1811729574E-01    0.6201969738E+00
    0.1100000000E+08    0.2598516442E-03    0.1585984872E-03    0.6960324545E+00    0.1512153852E-01    0.6282267199E+00
    0.1300000000E+08    0.1895956948E-03    0.1168440520E-03    0.6960325055E+00    0.1296967904E-01    0.6339212903E+00
    0.1500000000E+08    0.1443666167E-03    0.8971367487E-04    0.6960325426E+00    0.1135009403E-01    0.6381684410E+00
    0.1700000000E+08    0.1135580192E-03    0.7108484877E-04    0.6960325706E+00    0.1008752366E-01    0.6414569017E+00
    0.1900000000E+08    0.9163776497E-04    0.5773668332E-04    0.6960325924E+00    0.9075925994E-02    0.6440778126E+00
    0.2100000000E+08    0.7549166586E-04    0.4784247393E-04    0.6960326097E+00    0.8247412548E-02    0.6462153634E+00
    0.2300000000E+08    0.6325823104E-04    0.4030307170E-04    0.6960326237E+00    0.7556521821E-02    0.6479917478E+00
    0.2500000000E+08    0.5376945277E-04    0.3442469649E-04    0.6960326352E+00    0.6971673378E-02    0.6494912092E+00
    0.2700000000E+08    0.4626249946E-04    0.2975178546E-04    0.6960326446E+00    0.6470250235E-02    0.6507737044E+00
