  Pressure (Pa) 22mC5-500 (mol/kg) 23mC5-500 (mol/kg) 24mC5-500 (mol/kg) 2mC6-500 (mol/kg) 3mC6-500 (mol/kg)
    0.1000000000E+01    0.1650254405E-04    0.9581787253E-06    0.1266344552E+00    0.1638189350E-04    0.3647409804E-04
    0.3000000000E+01    0.3942616916E-04    0.2292600172E-05    0.2785343920E+00    0.4076565878E-04    0.1094012307E-03
    0.5000000000E+01    0.5652258695E-04    0.3292173289E-05    0.3664477890E+00    0.6075560014E-04    0.1823005129E-03
    0.7000000000E+01    0.7115110825E-04    0.4150872893E-05    0.4237723895E+00    0.7914823356E-04    0.2551720712E-03
    0.9000000000E+01    0.8457232496E-04    0.4941171293E-05    0.4641076307E+00    0.9689389412E-04    0.3280159711E-03
    0.1100000000E+02    0.9734643845E-04    0.5695121464E-05    0.4940317815E+00    0.1143693139E-03    0.4008322550E-03
    0.1300000000E+02    0.1097518169E-03    0.6428567850E-05    0.5171151368E+00    0.1317383557E-03    0.4736209550E-03
    0.1500000000E+02    0.1219381434E-03    0.7149981419E-05    0.5354629363E+00    0.1490760946E-03    0.5463820983E-03
    0.1700000000E+02    0.1339907167E-03    0.7864158557E-05    0.5503969281E+00    0.1664174765E-03    0.6191157087E-03
    0.1900000000E+02    0.1459603124E-03    0.8573933731E-05    0.5627888310E+00    0.1837782845E-03    0.6918218086E-03
    0.2100000000E+02    0.1578781676E-03    0.9281036116E-05    0.5732368449E+00    0.2011648294E-03    0.7645004192E-03
    0.2300000000E+02    0.1697639742E-03    0.9986545044E-05    0.5821651270E+00    0.2185786689E-03    0.8371515608E-03
    0.2500000000E+02    0.1816303605E-03    0.1069114443E-04    0.5898827965E+00    0.2360189964E-03    0.9097752533E-03
    0.2700000000E+02    0.1934855087E-03    0.1139527081E-04    0.5966204591E+00    0.2534838813E-03    0.9823715163E-03
    0.2900000000E+02    0.2053347366E-03    0.1209920245E-04    0.6025536460E+00    0.2709709241E-03    0.1054940369E-02
    0.3100000000E+02    0.2171814823E-03    0.1280311451E-04    0.6078183294E+00    0.2884776006E-03    0.1127481831E-02
    0.3300000000E+02    0.2290279317E-03    0.1350711415E-04    0.6125214725E+00    0.3060014408E-03    0.1199995920E-02
    0.3500000000E+02    0.2408754272E-03    0.1421126312E-04    0.6167483739E+00    0.3235401159E-03    0.1272482655E-02
    0.3700000000E+02    0.2527247383E-03    0.1491559279E-04    0.6205678883E+00    0.3410914768E-03    0.1344942056E-02
    0.3900000000E+02    0.2645762447E-03    0.1562011415E-04    0.6240362071E+00    0.3586535640E-03    0.1417374140E-02
    0.4100000000E+02    0.2764300597E-03    0.1632482450E-04    0.6271996416E+00    0.3762246044E-03    0.1489778926E-02
    0.4300000000E+02    0.2882861165E-03    0.1702971220E-04    0.6300967031E+00    0.3938030000E-03    0.1562156433E-02
    0.4500000000E+02    0.3001442276E-03    0.1773475974E-04    0.6327596788E+00    0.4113873143E-03    0.1634506679E-02
    0.4700000000E+02    0.3120041263E-03    0.1843994603E-04    0.6352158403E+00    0.4289762563E-03    0.1706829682E-02
    0.4900000000E+02    0.3238654959E-03    0.1914524786E-04    0.6374883810E+00    0.4465686665E-03    0.1779125460E-02
    0.1000000000E+02    0.9101871266E-04    0.5321460984E-05    0.4801017676E+00    0.1056521700E-03    0.3644275628E-03
    0.3000000000E+02    0.2112582593E-03    0.1245115295E-04    0.6052622841E+00    0.2797219651E-03    0.1091214523E-02
    0.5000000000E+02    0.3297966249E-03    0.1949793455E-04    0.6385621107E+00    0.4553658423E-03    0.1815263146E-02
    0.7000000000E+02    0.4484099880E-03    0.2655196555E-04    0.6539840253E+00    0.6312882799E-03    0.2536592024E-02
    0.9000000000E+02    0.5668018138E-03    0.3359368187E-04    0.6628788093E+00    0.8068403358E-03    0.3255219235E-02
    0.1100000000E+03    0.6847658872E-03    0.4061043214E-04    0.6686666372E+00    0.9817648114E-03    0.3971162633E-02
    0.1300000000E+03    0.8021824039E-03    0.4759501785E-04    0.6727334280E+00    0.1155944413E-02    0.4684439889E-02
    0.1500000000E+03    0.9189802139E-03    0.5454321186E-04    0.6757474978E+00    0.1329320161E-02    0.5395068508E-02
    0.1700000000E+03    0.1035115632E-02    0.6145243876E-04    0.6780707844E+00    0.1501860716E-02    0.6103065831E-02
    0.1900000000E+03    0.1150561206E-02    0.6832109009E-04    0.6799163640E+00    0.1673549174E-02    0.6808449043E-02
    0.2100000000E+03    0.1265299538E-02    0.7514815237E-04    0.6814178480E+00    0.1844376754E-02    0.7511235174E-02
    0.2300000000E+03    0.1379319727E-02    0.8193299437E-04    0.6826632692E+00    0.2014339521E-02    0.8211441101E-02
    0.2500000000E+03    0.1492615218E-02    0.8867523954E-04    0.6837129893E+00    0.2183436565E-02    0.8909083548E-02
    0.2700000000E+03    0.1605182453E-02    0.9537468632E-04    0.6846097798E+00    0.2351668938E-02    0.9604179094E-02
    0.2900000000E+03    0.1717019990E-02    0.1020312564E-03    0.6853847942E+00    0.2519039005E-02    0.1029674417E-01
    0.3100000000E+03    0.1828127922E-02    0.1086449605E-03    0.6860612618E+00    0.2685550026E-02    0.1098679506E-01
    0.3300000000E+03    0.1938507463E-02    0.1152158743E-03    0.6866568572E+00    0.2851205885E-02    0.1167434790E-01
    0.3500000000E+03    0.2048160672E-02    0.1217441219E-03    0.6871852661E+00    0.3016010907E-02    0.1235941870E-01
    0.3700000000E+03    0.2157090238E-02    0.1282298644E-03    0.6876572515E+00    0.3179969734E-02    0.1304202331E-01
    0.3900000000E+03    0.2265299337E-02    0.1346732902E-03    0.6880813937E+00    0.3343087230E-02    0.1372217745E-01
    0.4100000000E+03    0.2372791517E-02    0.1410746095E-03    0.6884646170E+00    0.3505368420E-02    0.1439989671E-01
    0.4300000000E+03    0.2479570614E-02    0.1474340488E-03    0.6888125711E+00    0.3666818444E-02    0.1507519653E-01
    0.4500000000E+03    0.2585640686E-02    0.1537518471E-03    0.6891299114E+00    0.3827442517E-02    0.1574809223E-01
    0.4700000000E+03    0.2691005965E-02    0.1600282537E-03    0.6894205084E+00    0.3987245908E-02    0.1641859898E-01
    0.4900000000E+03    0.2795670817E-02    0.1662635251E-03    0.6896876063E+00    0.4146233918E-02    0.1708673183E-01
    0.1000000000E+03    0.6258462962E-03    0.3710571931E-04    0.6660496069E+00    0.8943902860E-03    0.3613525302E-02
    0.3000000000E+03    0.1772665103E-02    0.1053434633E-03    0.6857341329E+00    0.2602401666E-02    0.1064208287E-01
    0.5000000000E+03    0.2847741975E-02    0.1693658170E-03    0.6898132164E+00    0.4225423817E-02    0.1741991271E-01
    0.7000000000E+03    0.3853517847E-02    0.2293180501E-03    0.6915767791E+00    0.5767712446E-02    0.2396248027E-01
    0.9000000000E+03    0.4794582032E-02    0.2854690644E-03    0.6925606599E+00    0.7234458855E-02    0.3028396917E-01
    0.1100000000E+04    0.5675459930E-02    0.3380834386E-03    0.6931883475E+00    0.8630549740E-02    0.3639741192E-01
    0.1300000000E+04    0.6500377752E-02    0.3874081061E-03    0.6936236438E+00    0.9960495770E-02    0.4231480470E-01
    0.1500000000E+04    0.7273234746E-02    0.4336708628E-03    0.6939432599E+00    0.1122844820E-01    0.4804720866E-01
    0.1700000000E+04    0.7997616913E-02    0.4770812140E-03    0.6941879076E+00    0.1243822819E-01    0.5360483963E-01
    0.1900000000E+04    0.8676820457E-02    0.5178317606E-03    0.6943811994E+00    0.1359335663E-01    0.5899714765E-01
    0.2100000000E+04    0.9313876650E-02    0.5560996567E-03    0.6945377732E+00    0.1469708192E-01    0.6423288771E-01
    0.2300000000E+04    0.9911575599E-02    0.5920479992E-03    0.6946671864E+00    0.1575240517E-01    0.6932018286E-01
    0.2500000000E+04    0.1047248818E-01    0.6258271063E-03    0.6947759437E+00    0.1676210280E-01    0.7426658049E-01
    0.2700000000E+04    0.1099898594E-01    0.6575756790E-03    0.6948686264E+00    0.1772874688E-01    0.7907910275E-01
    0.2900000000E+04    0.1149325913E-01    0.6874218495E-03    0.6949485540E+00    0.1865472331E-01    0.8376429179E-01
    0.3100000000E+04    0.1195733286E-01    0.7154841243E-03    0.6950181908E+00    0.1954224817E-01    0.8832825036E-01
    0.3300000000E+04    0.1239308172E-01    0.7418722339E-03    0.6950794046E+00    0.2039338237E-01    0.9277667837E-01
    0.3500000000E+04    0.1280224288E-01    0.7666878968E-03    0.6951336370E+00    0.2121004485E-01    0.9711490587E-01
    0.3700000000E+04    0.1318642794E-01    0.7900255080E-03    0.6951820182E+00    0.2199402448E-01    0.1013479229E+00
    0.3900000000E+04    0.1354713356E-01    0.8119727598E-03    0.6952254472E+00    0.2274699077E-01    0.1054804063E+00
    0.4100000000E+04    0.1388575112E-01    0.8326112019E-03    0.6952646474E+00    0.2347050357E-01    0.1095167443E+00
    0.4300000000E+04    0.1420357539E-01    0.8520167484E-03    0.6953002082E+00    0.2416602184E-01    0.1134610586E+00
    0.4500000000E+04    0.1450181243E-01    0.8702601362E-03    0.6953326140E+00    0.2483491160E-01    0.1173172247E+00
    0.4700000000E+04    0.1478158669E-01    0.8874073403E-03    0.6953622670E+00    0.2547845314E-01    0.1210888897E+00
    0.4900000000E+04    0.1504394755E-01    0.9035199510E-03    0.6953895040E+00    0.2609784760E-01    0.1247794901E+00
    0.1000000000E+04    0.5242272446E-02    0.3122024476E-03    0.6929057332E+00    0.7941045584E-02    0.3336592352E-01
    0.3000000000E+04    0.1172895040E-01    0.7016689193E-03    0.6949845304E+00    0.1910315991E-01    0.8606105960E-01
    0.5000000000E+04    0.1516890679E-01    0.9112064169E-03    0.6954023068E+00    0.2639884485E-01    0.1265954107E+00
    0.7000000000E+04    0.1696025934E-01    0.1022746796E-02    0.6955816620E+00    0.3139142932E-01    0.1593546288E+00
    0.9000000000E+04    0.1780544726E-01    0.1077607962E-02    0.6956814145E+00    0.3491044397E-01    0.1867670293E+00
    0.1100000000E+05    0.1808612559E-01    0.1098338579E-02    0.6957449477E+00    0.3743526214E-01    0.2102951374E+00
    0.1300000000E+05    0.1802212623E-01    0.1097992928E-02    0.6957889636E+00    0.3926157886E-01    0.2308788158E+00
    0.1500000000E+05    0.1774579390E-01    0.1084475862E-02    0.6958212620E+00    0.4058139941E-01    0.2491540480E+00
    0.1700000000E+05    0.1733953024E-01    0.1062741891E-02    0.6958459746E+00    0.4152466066E-01    0.2655696866E+00
    0.1900000000E+05    0.1685595805E-01    0.1035979152E-02    0.6958654944E+00    0.4218232271E-01    0.2804537724E+00
    0.2100000000E+05    0.1632930720E-01    0.1006279782E-02    0.6958813037E+00    0.4261987498E-01    0.2940532003E+00
    0.2300000000E+05    0.1578211557E-01    0.9750356618E-03    0.6958943693E+00    0.4288559328E-01    0.3065584932E+00
    0.2500000000E+05    0.1522931199E-01    0.9431803610E-03    0.6959053490E+00    0.4301578176E-01    0.3181198588E+00
    0.2700000000E+05    0.1468077786E-01    0.9113415071E-03    0.6959147058E+00    0.4303821030E-01    0.3288579340E+00
    0.2900000000E+05    0.1414299487E-01    0.8799391908E-03    0.6959227750E+00    0.4297443312E-01    0.3388711791E+00
    0.3100000000E+05    0.1362012762E-01    0.8492509120E-03    0.6959298055E+00    0.4284139192E-01    0.3482410937E+00
    0.3300000000E+05    0.1311474792E-01    0.8194552446E-03    0.6959359860E+00    0.4265254869E-01    0.3570359775E+00
    0.3500000000E+05    0.1262832690E-01    0.7906616637E-03    0.6959414620E+00    0.4241870191E-01    0.3653136961E+00
    0.3700000000E+05    0.1216157380E-01    0.7629311990E-03    0.6959463476E+00    0.4214858491E-01    0.3731237514E+00
    0.3900000000E+05    0.1171467163E-01    0.7362909002E-03    0.6959507334E+00    0.4184931126E-01    0.3805088567E+00
    0.4100000000E+05    0.1128744269E-01    0.7107440668E-03    0.6959546925E+00    0.4152671115E-01    0.3875061519E+00
    0.4300000000E+05    0.1087946553E-01    0.6862775375E-03    0.6959582844E+00    0.4118558841E-01    0.3941481543E+00
    0.4500000000E+05    0.1049015803E-01    0.6628669162E-03    0.6959615580E+00    0.4082991939E-01    0.4004635117E+00
    0.4700000000E+05    0.1011883653E-01    0.6404803338E-03    0.6959645537E+00    0.4046300826E-01    0.4064776046E+00
    0.4900000000E+05    0.9764758053E-02    0.6190811627E-03    0.6959673057E+00    0.4008760959E-01    0.4122130342E+00
    0.1000000000E+05    0.1799994001E-01    0.1091266721E-02    0.6957163517E+00    0.3627553885E-01    0.1989488774E+00
    0.3000000000E+05    0.1387950537E-01    0.8644927208E-03    0.6959264071E+00    0.4291565842E-01    0.3436320110E+00
    0.5000000000E+05    0.9593944093E-02    0.6087396028E-03    0.6959685994E+00    0.3989746233E-01    0.4149826524E+00
    0.7000000000E+05    0.6899224476E-02    0.4439848877E-03    0.6959867316E+00    0.3604084136E-01    0.4596987505E+00
    0.9000000000E+05    0.5169602490E-02    0.3364981433E-03    0.6959968270E+00    0.3251418284E-01    0.4907181557E+00
    0.1100000000E+06    0.4007507304E-02    0.2633665660E-03    0.6960032633E+00    0.2947795184E-01    0.5135917509E+00
    0.1300000000E+06    0.3193227339E-02    0.2115928815E-03    0.6960077263E+00    0.2689478539E-01    0.5311862763E+00
    0.1500000000E+06    0.2602061874E-02    0.1736752423E-03    0.6960110039E+00    0.2469278850E-01    0.5451519108E+00
    0.1700000000E+06    0.2159971286E-02    0.1451028603E-03    0.6960135135E+00    0.2280358967E-01    0.5565114266E+00
    0.1900000000E+06    0.1821033073E-02    0.1230492144E-03    0.6960154971E+00    0.2117012701E-01    0.5659344051E+00
    0.2100000000E+06    0.1555637381E-02    0.1056760496E-03    0.6960171046E+00    0.1974660625E-01    0.5738783130E+00
    0.2300000000E+06    0.1344036433E-02    0.9174818099E-04    0.6960184338E+00    0.1849666133E-01    0.5806666435E+00
    0.2500000000E+06    0.1172667496E-02    0.8041166708E-04    0.6960195514E+00    0.1739139545E-01    0.5865347572E+00
    0.2700000000E+06    0.1031974173E-02    0.7106124160E-04    0.6960205042E+00    0.1640772338E-01    0.5916580522E+00
    0.2900000000E+06    0.9150700356E-03    0.6325839561E-04    0.6960213262E+00    0.1552706600E-01    0.5961699520E+00
    0.3100000000E+06    0.8168933064E-03    0.5667922034E-04    0.6960220427E+00    0.1473434884E-01    0.6001737730E+00
    0.3300000000E+06    0.7336572911E-03    0.5108030001E-04    0.6960226727E+00    0.1401723977E-01    0.6037507739E+00
    0.3500000000E+06    0.6624842553E-03    0.4627586834E-04    0.6960232311E+00    0.1336556862E-01    0.6069657502E+00
    0.3700000000E+06    0.6011560987E-03    0.4212217707E-04    0.6960237294E+00    0.1277088326E-01    0.6098710065E+00
    0.3900000000E+06    0.5479411863E-03    0.3850659038E-04    0.6960241769E+00    0.1222610786E-01    0.6125092303E+00
    0.4100000000E+06    0.5014719078E-03    0.3533984202E-04    0.6960245809E+00    0.1172527790E-01    0.6149156065E+00
    0.4300000000E+06    0.4606566895E-03    0.3255044958E-04    0.6960249475E+00    0.1126333305E-01    0.6171193975E+00
    0.4500000000E+06    0.4246158249E-03    0.3008062593E-04    0.6960252816E+00    0.1083595396E-01    0.6191451389E+00
    0.4700000000E+06    0.3926340367E-03    0.2788324650E-04    0.6960255874E+00    0.1043943281E-01    0.6210135582E+00
    0.4900000000E+06    0.3641249710E-03    0.2591957198E-04    0.6960258684E+00    0.1007056974E-01    0.6227422853E+00
    0.1000000000E+06    0.4534315530E-02    0.2966203596E-03    0.6960003656E+00    0.3093542384E-01    0.5029549564E+00
    0.3000000000E+06    0.8639023101E-03    0.5983263850E-04    0.6960216963E+00    0.1512054236E-01    0.5982298518E+00
    0.5000000000E+06    0.3510179732E-03    0.2501512650E-04    0.6960260005E+00    0.9895628052E-02    0.6235590667E+00
    0.7000000000E+06    0.1887421968E-03    0.1371010308E-04    0.6960278520E+00    0.7336859571E-02    0.6352887230E+00
    0.9000000000E+06    0.1175428325E-03    0.8661323096E-05    0.6960288818E+00    0.5823043462E-02    0.6420503926E+00
    0.1100000000E+07    0.8014528772E-04    0.5973315691E-05    0.6960295368E+00    0.4823890370E-02    0.6464472544E+00
    0.1300000000E+07    0.5811485812E-04    0.4372387364E-05    0.6960299894E+00    0.4115576379E-02    0.6495345244E+00
    0.1500000000E+07    0.4405984250E-04    0.3341567003E-05    0.6960303202E+00    0.3587489360E-02    0.6518210561E+00
    0.1700000000E+07    0.3455058633E-04    0.2638576097E-05    0.6960305723E+00    0.3178738452E-02    0.6535823844E+00
    0.1900000000E+07    0.2782007694E-04    0.2137523578E-05    0.6960307702E+00    0.2853058049E-02    0.6549806784E+00
    0.2100000000E+07    0.2288300213E-04    0.1767689428E-05    0.6960309296E+00    0.2587510521E-02    0.6561175974E+00
    0.2300000000E+07    0.1915482002E-04    0.1486842656E-05    0.6960310604E+00    0.2366882670E-02    0.6570600994E+00
    0.2500000000E+07    0.1627099882E-04    0.1268491671E-05    0.6960311695E+00    0.2180688715E-02    0.6578540803E+00
    0.2700000000E+07    0.1399466946E-04    0.1095330271E-05    0.6960312617E+00    0.2021467552E-02    0.6585320500E+00
    0.2900000000E+07    0.1216652000E-04    0.9556616621E-06    0.6960313405E+00    0.1883766195E-02    0.6591176795E+00
    0.3100000000E+07    0.1067621314E-04    0.8413481755E-06    0.6960314086E+00    0.1763507202E-02    0.6596286130E+00
    0.3300000000E+07    0.9445376061E-05    0.7465853640E-06    0.6960314678E+00    0.1657580946E-02    0.6600782709E+00
    0.3500000000E+07    0.8417102808E-05    0.6671421760E-06    0.6960315197E+00    0.1563574732E-02    0.6604770417E+00
    0.3700000000E+07    0.7549268322E-05    0.5998750742E-06    0.6960315654E+00    0.1479588036E-02    0.6608330924E+00
    0.3900000000E+07    0.6810151081E-05    0.5424087226E-06    0.6960316061E+00    0.1404103536E-02    0.6611529318E+00
    0.4100000000E+07    0.6175496413E-05    0.4929210090E-06    0.6960316423E+00    0.1335895225E-02    0.6614418111E+00
    0.4300000000E+07    0.5626503108E-05    0.4499951659E-06    0.6960316747E+00    0.1273961749E-02    0.6617040137E+00
    0.4500000000E+07    0.5148415948E-05    0.4125160678E-06    0.6960317038E+00    0.1217477235E-02    0.6619430677E+00
    0.4700000000E+07    0.4729524397E-05    0.3795962349E-06    0.6960317301E+00    0.1165754490E-02    0.6621619060E+00
    0.4900000000E+07    0.4360438855E-05    0.3505221961E-06    0.6960317539E+00    0.1118217087E-02    0.6623629860E+00
    0.1000000000E+07    0.9617808285E-04    0.7129611762E-05    0.6960292421E+00    0.5277000343E-02    0.6444595435E+00
    0.3000000000E+07    0.1138463719E-04    0.8957424005E-06    0.6960313758E+00    0.1821669747E-02    0.6593815617E+00
    0.5000000000E+07    0.4192140118E-05    0.3372420441E-06    0.6960317650E+00    0.1095862662E-02    0.6624575281E+00
    0.7000000000E+07    0.2184782919E-05    0.1774741048E-06    0.6960319078E+00    0.7822020707E-03    0.6637832370E+00
    0.9000000000E+07    0.1352381098E-05    0.1101850281E-06    0.6960319706E+00    0.6075256943E-03    0.6645211757E+00
    0.1100000000E+08    0.9282534618E-06    0.7552776204E-07    0.6960319984E+00    0.4963050493E-03    0.6649911288E+00
    0.1300000000E+08    0.6827276724E-06    0.5530786083E-07    0.6960320084E+00    0.4193196832E-03    0.6653165650E+00
    0.1500000000E+08    0.5276347533E-06    0.4246260340E-07    0.6960320082E+00    0.3628926107E-03    0.6655552229E+00
    0.1700000000E+08    0.4232365434E-06    0.3378049790E-07    0.6960320018E+00    0.3197713727E-03    0.6657377072E+00
    0.1900000000E+08    0.3494747907E-06    0.2762867815E-07    0.6960319917E+00    0.2857535275E-03    0.6658817495E+00
    0.2100000000E+08    0.2953310275E-06    0.2310468531E-07    0.6960319790E+00    0.2582364512E-03    0.6659983319E+00
    0.2300000000E+08    0.2543411349E-06    0.1967632975E-07    0.6960319647E+00    0.2355225233E-03    0.6660946182E+00
    0.2500000000E+08    0.2225077803E-06    0.1701304634E-07    0.6960319493E+00    0.2164573944E-03    0.6661754808E+00
    0.2700000000E+08    0.1972500026E-06    0.1490057970E-07    0.6960319331E+00    0.2002288647E-03    0.6662443487E+00
