  Pressure (Pa) 22mC5-500 (mol/kg) 23mC5-500 (mol/kg) 24mC5-500 (mol/kg) 2mC6-500 (mol/kg) 3mC6-500 (mol/kg)
    0.1000000000E+01    0.1857287931E-04    0.4311680989E-05    0.3665999872E-01    0.4240667253E-04    0.1563179602E-04
    0.3000000000E+01    0.5135290533E-04    0.1192484311E-04    0.9948632072E-01    0.1183644499E-03    0.4688652192E-04
    0.5000000000E+01    0.7967587432E-04    0.1850775232E-04    0.1513687562E+00    0.1854744590E-03    0.7812944847E-04
    0.7000000000E+01    0.1047024611E-03    0.2432971853E-04    0.1949385444E+00    0.2462218165E-03    0.1093605973E-03
    0.9000000000E+01    0.1272347261E-03    0.2957668836E-04    0.2320459269E+00    0.3022948139E-03    0.1405799863E-03
    0.1100000000E+02    0.1478428542E-03    0.3438073639E-04    0.2640299063E+00    0.3548719408E-03    0.1717876307E-03
    0.1300000000E+02    0.1669420444E-03    0.3883794978E-04    0.2918834182E+00    0.4047948788E-03    0.2029835439E-03
    0.1500000000E+02    0.1848409332E-03    0.4301968742E-04    0.3163583528E+00    0.4526766406E-03    0.2341677383E-03
    0.1700000000E+02    0.2017730833E-03    0.4697989818E-04    0.3380345188E+00    0.4989713049E-03    0.2653402251E-03
    0.1900000000E+02    0.2179180345E-03    0.5076001097E-04    0.3573662120E+00    0.5440202100E-03    0.2965010150E-03
    0.2100000000E+02    0.2334157192E-03    0.5439228210E-04    0.3747144361E+00    0.5880832786E-03    0.3276501183E-03
    0.2300000000E+02    0.2483765487E-03    0.5790213595E-04    0.3903696832E+00    0.6313607027E-03    0.3587875448E-03
    0.2500000000E+02    0.2628886044E-03    0.6130983299E-04    0.4045683491E+00    0.6740082325E-03    0.3899133039E-03
    0.2700000000E+02    0.2770228520E-03    0.6463167861E-04    0.4175047668E+00    0.7161481327E-03    0.4210274049E-03
    0.2900000000E+02    0.2908369809E-03    0.6788091272E-04    0.4293401642E+00    0.7578771512E-03    0.4521298569E-03
    0.3100000000E+02    0.3043782702E-03    0.7106837340E-04    0.4402094267E+00    0.7992723906E-03    0.4832206688E-03
    0.3300000000E+02    0.3176857553E-03    0.7420299830E-04    0.4502262664E+00    0.8403956890E-03    0.5142998494E-03
    0.3500000000E+02    0.3307918841E-03    0.7729220774E-04    0.4594872204E+00    0.8812969219E-03    0.5453674073E-03
    0.3700000000E+02    0.3437237969E-03    0.8034220051E-04    0.4680747756E+00    0.9220165190E-03    0.5764233512E-03
    0.3900000000E+02    0.3565043249E-03    0.8335818454E-04    0.4760598356E+00    0.9625873976E-03    0.6074676895E-03
    0.4100000000E+02    0.3691527759E-03    0.8634455830E-04    0.4835036851E+00    0.1003036462E-02    0.6385004307E-03
    0.4300000000E+02    0.3816855581E-03    0.8930505467E-04    0.4904595677E+00    0.1043385776E-02    0.6695215833E-03
    0.4500000000E+02    0.3941166786E-03    0.9224285595E-04    0.4969739633E+00    0.1083653482E-02    0.7005311554E-03
    0.4700000000E+02    0.4064581455E-03    0.9516068635E-04    0.5030876289E+00    0.1123854538E-02    0.7315291555E-03
    0.4900000000E+02    0.4187202931E-03    0.9806088701E-04    0.5088364534E+00    0.1164001292E-02    0.7625155919E-03
    0.1000000000E+02    0.1377503960E-03    0.3202738478E-04    0.2486096235E+00    0.3289613651E-03    0.1561852757E-03
    0.3000000000E+02    0.2976391191E-03    0.6948176657E-04    0.4348880108E+00    0.7786123138E-03    0.4676767173E-03
    0.5000000000E+02    0.4248244604E-03    0.9950501833E-04    0.5115841105E+00    0.1184057570E-02    0.7780044762E-03
    0.7000000000E+02    0.5443683546E-03    0.1278285229E-03    0.5534294746E+00    0.1584029328E-02    0.1087177064E-02
    0.9000000000E+02    0.6613189167E-03    0.1555886351E-03    0.5797848292E+00    0.1983520016E-02    0.1395202584E-02
    0.1100000000E+03    0.7771073719E-03    0.1831007927E-03    0.5979096121E+00    0.2383019861E-02    0.1702088981E-02
    0.1300000000E+03    0.8922048339E-03    0.2104654790E-03    0.6111394829E+00    0.2782268411E-02    0.2007844097E-02
    0.1500000000E+03    0.1006770957E-02    0.2377146662E-03    0.6212219368E+00    0.3180929331E-02    0.2312475687E-02
    0.1700000000E+03    0.1120852551E-02    0.2648561185E-03    0.6291610191E+00    0.3578717973E-02    0.2615991425E-02
    0.1900000000E+03    0.1234453616E-02    0.2918887821E-03    0.6355747087E+00    0.3975414349E-02    0.2918398911E-02
    0.2100000000E+03    0.1347562376E-02    0.3188086061E-03    0.6408642170E+00    0.4370852808E-02    0.3219705671E-02
    0.2300000000E+03    0.1460162246E-02    0.3456108391E-03    0.6453013763E+00    0.4764909389E-02    0.3519919158E-02
    0.2500000000E+03    0.1572236348E-02    0.3722909304E-03    0.6490769041E+00    0.5157491318E-02    0.3819046756E-02
    0.2700000000E+03    0.1683769295E-02    0.3988448538E-03    0.6523285613E+00    0.5548529070E-02    0.4117095777E-02
    0.2900000000E+03    0.1794747774E-02    0.4252691881E-03    0.6551583406E+00    0.5937970548E-02    0.4414073469E-02
    0.3100000000E+03    0.1905160626E-02    0.4515610981E-03    0.6576433687E+00    0.6325776827E-02    0.4709987007E-02
    0.3300000000E+03    0.2014998704E-02    0.4777182773E-03    0.6598430495E+00    0.6711919043E-02    0.5004843505E-02
    0.3500000000E+03    0.2124254658E-02    0.5037388815E-03    0.6618038785E+00    0.7096376090E-02    0.5298650006E-02
    0.3700000000E+03    0.2232922705E-02    0.5296214634E-03    0.6635627685E+00    0.7479132911E-02    0.5591413493E-02
    0.3900000000E+03    0.2340998416E-02    0.5553649145E-03    0.6651493979E+00    0.7860179198E-02    0.5883140879E-02
    0.4100000000E+03    0.2448478515E-02    0.5809684138E-03    0.6665879000E+00    0.8239508414E-02    0.6173839020E-02
    0.4300000000E+03    0.2555360717E-02    0.6064313837E-03    0.6678981008E+00    0.8617117034E-02    0.6463514704E-02
    0.4500000000E+03    0.2661643579E-02    0.6317534537E-03    0.6690964384E+00    0.8993003958E-02    0.6752174659E-02
    0.4700000000E+03    0.2767326375E-02    0.6569344289E-03    0.6701966577E+00    0.9367170047E-02    0.7039825554E-02
    0.4900000000E+03    0.2872408995E-02    0.6819742638E-03    0.6712103399E+00    0.9739617764E-02    0.7326473993E-02
    0.1000000000E+03    0.7193176904E-03    0.1693669316E-03    0.5896145694E+00    0.2183280099E-02    0.1548787680E-02
    0.3000000000E+03    0.1850025520E-02    0.4384318519E-03    0.6564398857E+00    0.6132080097E-02    0.4562162811E-02
    0.5000000000E+03    0.2924725350E-02    0.6944412749E-03    0.6716878599E+00    0.9925198366E-02    0.7469424340E-02
    0.7000000000E+03    0.3939859336E-02    0.9364434151E-03    0.6784475574E+00    0.1354800840E-01    0.1027737163E-01
    0.9000000000E+03    0.4897333824E-02    0.1164878067E-02    0.6822645404E+00    0.1700740165E-01    0.1299221431E-01
    0.1100000000E+04    0.5800368871E-02    0.1380499702E-02    0.6847172898E+00    0.2031278355E-01    0.1561963598E-01
    0.1300000000E+04    0.6652389956E-02    0.1584111384E-02    0.6864265024E+00    0.2347358293E-01    0.1816484935E-01
    0.1500000000E+04    0.7456723108E-02    0.1776492730E-02    0.6876858853E+00    0.2649872866E-01    0.2063264462E-01
    0.1700000000E+04    0.8216502127E-02    0.1958378195E-02    0.6886524346E+00    0.2939653563E-01    0.2302743189E-01
    0.1900000000E+04    0.8934644496E-02    0.2130451504E-02    0.6894176917E+00    0.3217470311E-01    0.2535327863E-01
    0.2100000000E+04    0.9613852416E-02    0.2293345946E-02    0.6900386376E+00    0.3484034795E-01    0.2761394271E-01
    0.2300000000E+04    0.1025662344E-01    0.2447646903E-02    0.6905525974E+00    0.3740004778E-01    0.2981290165E-01
    0.2500000000E+04    0.1086526455E-01    0.2593895154E-02    0.6909850433E+00    0.3985988552E-01    0.3195337868E-01
    0.2700000000E+04    0.1144190698E-01    0.2732590366E-02    0.6913539545E+00    0.4222549194E-01    0.3403836588E-01
    0.2900000000E+04    0.1198852077E-01    0.2864194495E-02    0.6916723834E+00    0.4450208511E-01    0.3607064477E-01
    0.3100000000E+04    0.1250692840E-01    0.2989134979E-02    0.6919500357E+00    0.4669450642E-01    0.3805280486E-01
    0.3300000000E+04    0.1299881741E-01    0.3107807696E-02    0.6921942782E+00    0.4880725328E-01    0.3998726011E-01
    0.3500000000E+04    0.1346575201E-01    0.3220579670E-02    0.6924108034E+00    0.5084450866E-01    0.4187626384E-01
    0.3700000000E+04    0.1390918355E-01    0.3327791530E-02    0.6926040798E+00    0.5281016783E-01    0.4372192205E-01
    0.3900000000E+04    0.1433046013E-01    0.3429759744E-02    0.6927776641E+00    0.5470786240E-01    0.4552620550E-01
    0.4100000000E+04    0.1473083526E-01    0.3526778648E-02    0.6929344225E+00    0.5654098218E-01    0.4729096051E-01
    0.4300000000E+04    0.1511147566E-01    0.3619122276E-02    0.6930766905E+00    0.5831269482E-01    0.4901791888E-01
    0.4500000000E+04    0.1547346846E-01    0.3707046030E-02    0.6932063904E+00    0.6002596367E-01    0.5070870671E-01
    0.4700000000E+04    0.1581782759E-01    0.3790788181E-02    0.6933251186E+00    0.6168356390E-01    0.5236485254E-01
    0.4900000000E+04    0.1614549969E-01    0.3870571243E-02    0.6934342123E+00    0.6328809721E-01    0.5398779469E-01
    0.1000000000E+04    0.5355441779E-02    0.1274240223E-02    0.6836112244E+00    0.1867874580E-01    0.1431651654E-01
    0.3000000000E+04    0.1225114186E-01    0.2927472243E-02    0.6918158005E+00    0.4560852846E-01    0.3706783486E-01
    0.5000000000E+04    0.1630335683E-01    0.3909043650E-02    0.6934855057E+00    0.6407123265E-01    0.5478724083E-01
    0.7000000000E+04    0.1877097687E-01    0.4514528814E-02    0.6942050245E+00    0.7746760740E-01    0.6932364688E-01
    0.9000000000E+04    0.2029064246E-01    0.4893817164E-02    0.6946060656E+00    0.8759002747E-01    0.8168834327E-01
    0.1100000000E+05    0.2121281060E-01    0.5129682506E-02    0.6948618820E+00    0.9547197356E-01    0.9248597037E-01
    0.1300000000E+05    0.2174350948E-01    0.5270955980E-02    0.6950393246E+00    0.1017515644E+00    0.1021030700E+00
    0.1500000000E+05    0.2201020347E-01    0.5347962140E-02    0.6951696605E+00    0.1068444481E+00    0.1108000158E+00
    0.1700000000E+05    0.2209501124E-01    0.5380316943E-02    0.6952694712E+00    0.1110332374E+00    0.1187597119E+00
    0.1900000000E+05    0.2205259683E-01    0.5381135313E-02    0.6953483704E+00    0.1145169765E+00    0.1261151458E+00
    0.2100000000E+05    0.2192033549E-01    0.5359426597E-02    0.6954123162E+00    0.1174400346E+00    0.1329658332E+00
    0.2300000000E+05    0.2172435233E-01    0.5321520423E-02    0.6954651985E+00    0.1199097649E+00    0.1393880814E+00
    0.2500000000E+05    0.2148324596E-01    0.5271947854E-02    0.6955096650E+00    0.1220077184E+00    0.1454416383E+00
    0.2700000000E+05    0.2121045896E-01    0.5214003650E-02    0.6955475803E+00    0.1237970029E+00    0.1511741422E+00
    0.2900000000E+05    0.2091582909E-01    0.5150115067E-02    0.6955802957E+00    0.1253272501E+00    0.1566241830E+00
    0.3100000000E+05    0.2060662892E-01    0.5082089674E-02    0.6956088145E+00    0.1266380542E+00    0.1618234610E+00
    0.3300000000E+05    0.2028827737E-01    0.5011285409E-02    0.6956338974E+00    0.1277614038E+00    0.1667983415E+00
    0.3500000000E+05    0.1996483581E-01    0.4938729473E-02    0.6956561314E+00    0.1287234365E+00    0.1715709969E+00
    0.3700000000E+05    0.1963935962E-01    0.4865202849E-02    0.6956759771E+00    0.1295457268E+00    0.1761602594E+00
    0.3900000000E+05    0.1931415116E-01    0.4791301280E-02    0.6956938005E+00    0.1302462458E+00    0.1805822684E+00
    0.4100000000E+05    0.1899094398E-01    0.4717479840E-02    0.6957098968E+00    0.1308400884E+00    0.1848509678E+00
    0.4300000000E+05    0.1867103875E-01    0.4644085913E-02    0.6957245059E+00    0.1313400286E+00    0.1889784942E+00
    0.4500000000E+05    0.1835540449E-01    0.4571383863E-02    0.6957378255E+00    0.1317569517E+00    0.1929754821E+00
    0.4700000000E+05    0.1804475472E-01    0.4499573650E-02    0.6957500195E+00    0.1321001919E+00    0.1968513081E+00
    0.4900000000E+05    0.1773960532E-01    0.4428805028E-02    0.6957612254E+00    0.1323777997E+00    0.2006142860E+00
    0.1000000000E+05    0.2081114710E-01    0.5026063357E-02    0.6947466988E+00    0.9176450418E-01    0.8725513874E-01
    0.3000000000E+05    0.2076267482E-01    0.5116525657E-02    0.6955950274E+00    0.1260079282E+00    0.1592534095E+00
    0.5000000000E+05    0.1758921151E-01    0.4393847116E-02    0.6957664947E+00    0.1324942098E+00    0.2024558042E+00
    0.7000000000E+05    0.1490817405E-01    0.3763137245E-02    0.6958404678E+00    0.1326647620E+00    0.2348040313E+00
    0.9000000000E+05    0.1279815715E-01    0.3258150751E-02    0.6958817822E+00    0.1306017270E+00    0.2610313084E+00
    0.1100000000E+06    0.1112795929E-01    0.2853510689E-02    0.6959081935E+00    0.1276320296E+00    0.2831907085E+00
    0.1300000000E+06    0.9784180491E-02    0.2524790859E-02    0.6959265529E+00    0.1243002100E+00    0.3023958043E+00
    0.1500000000E+06    0.8684927069E-02    0.2253709243E-02    0.6959400664E+00    0.1208594331E+00    0.3193333122E+00
    0.1700000000E+06    0.7772174988E-02    0.2027047519E-02    0.6959504358E+00    0.1174356361E+00    0.3344634581E+00
    0.1900000000E+06    0.7004331498E-02    0.1835196281E-02    0.6959586484E+00    0.1140931773E+00    0.3481131519E+00
    0.2100000000E+06    0.6351022281E-02    0.1671061456E-02    0.6959653167E+00    0.1108644641E+00    0.3605247743E+00
    0.2300000000E+06    0.5789633451E-02    0.1529314333E-02    0.6959708410E+00    0.1077645319E+00    0.3718840324E+00
    0.2500000000E+06    0.5303020636E-02    0.1405884365E-02    0.6959754941E+00    0.1047986924E+00    0.3823369474E+00
    0.2700000000E+06    0.4877969792E-02    0.1297613370E-02    0.6959794681E+00    0.1019667432E+00    0.3920007685E+00
    0.2900000000E+06    0.4504143814E-02    0.1202016168E-02    0.6959829024E+00    0.9926537097E-01    0.4009712850E+00
    0.3100000000E+06    0.4173347705E-02    0.1117112067E-02    0.6959859007E+00    0.9668956031E-01    0.4093278978E+00
    0.3300000000E+06    0.3879006438E-02    0.1041304170E-02    0.6959885417E+00    0.9423343389E-01    0.4171372410E+00
    0.3500000000E+06    0.3615787520E-02    0.9732915480E-03    0.6959908860E+00    0.9189075892E-01    0.4244558326E+00
    0.3700000000E+06    0.3379323797E-02    0.9120043428E-03    0.6959929814E+00    0.8965525195E-01    0.4313320563E+00
    0.3900000000E+06    0.3166006893E-02    0.8565551443E-03    0.6959948658E+00    0.8752076040E-01    0.4378076702E+00
    0.4100000000E+06    0.2972831221E-02    0.8062020927E-03    0.6959965697E+00    0.8548136715E-01    0.4439189755E+00
    0.4300000000E+06    0.2797274740E-02    0.7603205414E-03    0.6959981182E+00    0.8353144714E-01    0.4496977329E+00
    0.4500000000E+06    0.2637206763E-02    0.7183810599E-03    0.6959995318E+00    0.8166569369E-01    0.4551718921E+00
    0.4700000000E+06    0.2490815957E-02    0.6799321838E-03    0.6960008274E+00    0.7987912601E-01    0.4603661776E+00
    0.4900000000E+06    0.2356553564E-02    0.6445867619E-03    0.6960020194E+00    0.7816708497E-01    0.4653025657E+00
    0.1000000000E+06    0.1191596520E-01    0.3044958369E-02    0.6958962945E+00    0.1291862037E+00    0.2725362866E+00
    0.3000000000E+06    0.4333810932E-02    0.1158335120E-02    0.6959844507E+00    0.9796212474E-01    0.4052219004E+00
    0.5000000000E+06    0.2293547022E-02    0.6279717195E-03    0.6960025805E+00    0.7733764126E-01    0.4676802618E+00
    0.7000000000E+06    0.1428403406E-02    0.3977129387E-03    0.6960104952E+00    0.6375501800E-01    0.5055101640E+00
    0.9000000000E+06    0.9773308708E-03    0.2756550431E-03    0.6960149572E+00    0.5419376729E-01    0.5311252172E+00
    0.1100000000E+07    0.7115157417E-03    0.2027975532E-03    0.6960178320E+00    0.4710875819E-01    0.5496842323E+00
    0.1300000000E+07    0.5414507520E-03    0.1556921546E-03    0.6960198438E+00    0.4165139489E-01    0.5637716287E+00
    0.1500000000E+07    0.4259829655E-03    0.1234236429E-03    0.6960213333E+00    0.3731988970E-01    0.5748381760E+00
    0.1700000000E+07    0.3439641953E-03    0.1003252832E-03    0.6960224821E+00    0.3379912142E-01    0.5837650166E+00
    0.1900000000E+07    0.2835970348E-03    0.8320835610E-04    0.6960233962E+00    0.3088138177E-01    0.5911196010E+00
    0.2100000000E+07    0.2378699511E-03    0.7016332971E-04    0.6960241414E+00    0.2842425678E-01    0.5972844089E+00
    0.2300000000E+07    0.2023997503E-03    0.5998845185E-04    0.6960247611E+00    0.2632686096E-01    0.6025268693E+00
    0.2500000000E+07    0.1743306371E-03    0.5189601557E-04    0.6960252848E+00    0.2451573878E-01    0.6070397016E+00
    0.2700000000E+07    0.1517366418E-03    0.4535187658E-04    0.6960257334E+00    0.2293614108E-01    0.6109653543E+00
    0.2900000000E+07    0.1332803083E-03    0.3998324902E-04    0.6960261221E+00    0.2154643005E-01    0.6144114199E+00
    0.3100000000E+07    0.1180092134E-03    0.3552344022E-04    0.6960264624E+00    0.2031437811E-01    0.6174606961E+00
    0.3300000000E+07    0.1052301376E-03    0.3177750698E-04    0.6960267627E+00    0.1921465312E-01    0.6201779472E+00
    0.3500000000E+07    0.9442875426E-04    0.2860023578E-04    0.6960270299E+00    0.1822706877E-01    0.6226145643E+00
    0.3700000000E+07    0.8521693449E-04    0.2588163369E-04    0.6960272691E+00    0.1733534186E-01    0.6248118508E+00
    0.3900000000E+07    0.7729731993E-04    0.2353713519E-04    0.6960274846E+00    0.1652619293E-01    0.6268033828E+00
    0.4100000000E+07    0.7043898263E-04    0.2150084904E-04    0.6960276797E+00    0.1578868458E-01    0.6286167363E+00
    0.4300000000E+07    0.6446037564E-04    0.1972081137E-04    0.6960278573E+00    0.1511372724E-01    0.6302747710E+00
    0.4500000000E+07    0.5921718019E-04    0.1815559098E-04    0.6960280195E+00    0.1449370501E-01    0.6317965972E+00
    0.4700000000E+07    0.5459350511E-04    0.1677182340E-04    0.6960281684E+00    0.1392218875E-01    0.6331983145E+00
    0.4900000000E+07    0.5049542183E-04    0.1554239399E-04    0.6960283055E+00    0.1339371381E-01    0.6344935822E+00
    0.1000000000E+07    0.8285512414E-03    0.2349780566E-03    0.6960165343E+00    0.5040565850E-01    0.5410884298E+00
    0.3000000000E+07    0.1252948982E-03    0.3765330420E-04    0.6960262977E+00    0.2091241808E-01    0.6159812490E+00
    0.5000000000E+07    0.4861891965E-04    0.1497845069E-04    0.6960283701E+00    0.1314412919E-01    0.6351050105E+00
    0.7000000000E+07    0.2580752297E-04    0.8060923529E-05    0.6960292823E+00    0.9568125837E-02    0.6438457185E+00
    0.9000000000E+07    0.1606824354E-04    0.5058432883E-05    0.6960297953E+00    0.7514668962E-02    0.6488493555E+00
    0.1100000000E+08    0.1102551701E-04    0.3485055675E-05    0.6960301224E+00    0.6183115675E-02    0.6520884987E+00
    0.1300000000E+08    0.8078253636E-05    0.2556981893E-05    0.6960303478E+00    0.5250187322E-02    0.6543556476E+00
    0.1500000000E+08    0.6205688531E-05    0.1963030855E-05    0.6960305111E+00    0.4560445335E-02    0.6560307254E+00
    0.1700000000E+08    0.4940889352E-05    0.1559519010E-05    0.6960306339E+00    0.4029916204E-02    0.6573185817E+00
    0.1900000000E+08    0.4045664536E-05    0.1272574780E-05    0.6960307288E+00    0.3609269499E-02    0.6583393920E+00
    0.2100000000E+08    0.3388144247E-05    0.1061026363E-05    0.6960308035E+00    0.3267630510E-02    0.6591682963E+00
    0.2300000000E+08    0.2890506830E-05    0.9004352428E-06    0.6960308633E+00    0.2984691328E-02    0.6598546805E+00
    0.2500000000E+08    0.2504409340E-05    0.7755426228E-06    0.6960309117E+00    0.2746548665E-02    0.6604323357E+00
    0.2700000000E+08    0.2198528306E-05    0.6764169578E-06    0.6960309512E+00    0.2543364777E-02    0.6609251607E+00
