  Pressure (Pa) 22mC5-500 (mol/kg) 23mC5-500 (mol/kg) 24mC5-500 (mol/kg) 2mC6-500 (mol/kg) 3mC6-500 (mol/kg)
    0.1000000000E+01    0.1454112092E-04    0.3379559486E-05    0.2142843630E+00    0.4910252271E-05    0.1042166729E-04
    0.3000000000E+01    0.3203675758E-04    0.7470058335E-05    0.3978621970E+00    0.1168437650E-04    0.3126204489E-04
    0.5000000000E+01    0.4555194756E-04    0.1065289921E-04    0.4801289216E+00    0.1762446916E-04    0.5209858424E-04
    0.7000000000E+01    0.5801543020E-04    0.1360015593E-04    0.5268141125E+00    0.2343206482E-04    0.7293132002E-04
    0.9000000000E+01    0.7012728271E-04    0.1647069019E-04    0.5568978002E+00    0.2923301184E-04    0.9376026437E-04
    0.1100000000E+02    0.8211380555E-04    0.1931515945E-04    0.5778986647E+00    0.3505338620E-04    0.1145854234E-03
    0.1300000000E+02    0.9406062526E-04    0.2215239077E-04    0.5933906699E+00    0.4089648748E-04    0.1354068009E-03
    0.1500000000E+02    0.1060028616E-03    0.2498990738E-04    0.6052901146E+00    0.4676006851E-04    0.1562243997E-03
    0.1700000000E+02    0.1179551964E-03    0.2783071942E-04    0.6147168422E+00    0.5264084610E-04    0.1770382221E-03
    0.1900000000E+02    0.1299233840E-03    0.3067589998E-04    0.6223690752E+00    0.5853572578E-04    0.1978482699E-03
    0.2100000000E+02    0.1419091042E-03    0.3352565942E-04    0.6287047715E+00    0.6444208419E-04    0.2186545449E-03
    0.2300000000E+02    0.1539121536E-03    0.3637982417E-04    0.6340367850E+00    0.7035777473E-04    0.2394570488E-03
    0.2500000000E+02    0.1659314834E-03    0.3923805967E-04    0.6385861178E+00    0.7628105998E-04    0.2602557831E-03
    0.2700000000E+02    0.1779657056E-03    0.4209997667E-04    0.6425133245E+00    0.8221053479E-04    0.2810507494E-03
    0.2900000000E+02    0.1900133426E-03    0.4496518196E-04    0.6459378559E+00    0.8814505839E-04    0.3018419490E-03
    0.3100000000E+02    0.2020729489E-03    0.4783330172E-04    0.6489504219E+00    0.9408369911E-04    0.3226293835E-03
    0.3300000000E+02    0.2141431665E-03    0.5070399125E-04    0.6516211453E+00    0.1000256908E-03    0.3434130541E-03
    0.3500000000E+02    0.2262227476E-03    0.5357693788E-04    0.6540050884E+00    0.1059703991E-03    0.3641929624E-03
    0.3700000000E+02    0.2383105591E-03    0.5645186044E-04    0.6561460904E+00    0.1119172949E-03    0.3849691096E-03
    0.3900000000E+02    0.2504055790E-03    0.5932850725E-04    0.6580794882E+00    0.1178659338E-03    0.4057414971E-03
    0.4100000000E+02    0.2625068888E-03    0.6220665345E-04    0.6598340825E+00    0.1238159403E-03    0.4265101263E-03
    0.4300000000E+02    0.2746136638E-03    0.6508609825E-04    0.6614335817E+00    0.1297669950E-03    0.4472749986E-03
    0.4500000000E+02    0.2867251637E-03    0.6796666219E-04    0.6628976805E+00    0.1357188248E-03    0.4680361152E-03
    0.4700000000E+02    0.2988407237E-03    0.7084818469E-04    0.6642428740E+00    0.1416711946E-03    0.4887934775E-03
    0.4900000000E+02    0.3109597459E-03    0.7373052179E-04    0.6654830828E+00    0.1476239013E-03    0.5095470868E-03
    0.1000000000E+02    0.7612909234E-04    0.1789460930E-04    0.5682555008E+00    0.3214033724E-04    0.1041733168E-03
    0.3000000000E+02    0.1960417369E-03    0.4639889981E-04    0.6474908442E+00    0.9111391543E-04    0.3122361368E-03
    0.5000000000E+02    0.3170203848E-03    0.7517195489E-04    0.6660675852E+00    0.1506003249E-03    0.5199224845E-03
    0.7000000000E+02    0.4383091558E-03    0.1040181147E-03    0.6743600244E+00    0.2101138303E-03    0.7272337291E-03
    0.9000000000E+02    0.5595662331E-03    0.1328558487E-03    0.6790570525E+00    0.2695510082E-03    0.9341711786E-03
    0.1100000000E+03    0.6806481318E-03    0.1616514930E-03    0.6820804427E+00    0.3288777503E-03    0.1140736125E-02
    0.1300000000E+03    0.8014842823E-03    0.1903886455E-03    0.6841894740E+00    0.3880797447E-03    0.1346929850E-02
    0.1500000000E+03    0.9220359166E-03    0.2190583561E-03    0.6857444690E+00    0.4471500901E-03    0.1552753628E-02
    0.1700000000E+03    0.1042280055E-02    0.2476553492E-03    0.6869384058E+00    0.5060851767E-03    0.1758208728E-02
    0.1900000000E+03    0.1162202341E-02    0.2761763459E-03    0.6878839619E+00    0.5648830413E-03    0.1963296410E-02
    0.2100000000E+03    0.1281793485E-02    0.3046192352E-03    0.6886513464E+00    0.6235426191E-03    0.2168017928E-02
    0.2300000000E+03    0.1401047346E-02    0.3329826296E-03    0.6892865856E+00    0.6820633695E-03    0.2372374533E-02
    0.2500000000E+03    0.1519959832E-02    0.3612656109E-03    0.6898211090E+00    0.7404450746E-03    0.2576367467E-02
    0.2700000000E+03    0.1638528236E-02    0.3894675769E-03    0.6902771114E+00    0.7986877231E-03    0.2779997967E-02
    0.2900000000E+03    0.1756750815E-02    0.4175881454E-03    0.6906707120E+00    0.8567914415E-03    0.2983267263E-02
    0.3100000000E+03    0.1874626515E-02    0.4456270911E-03    0.6910139006E+00    0.9147564504E-03    0.3186176581E-02
    0.3300000000E+03    0.1992154790E-02    0.4735843031E-03    0.6913157801E+00    0.9725830360E-03    0.3388727141E-02
    0.3500000000E+03    0.2109335468E-02    0.5014597557E-03    0.6915833861E+00    0.1030271532E-02    0.3590920156E-02
    0.3700000000E+03    0.2226168661E-02    0.5292534878E-03    0.6918222425E+00    0.1087822306E-02    0.3792756834E-02
    0.3900000000E+03    0.2342654703E-02    0.5569655875E-03    0.6920367464E+00    0.1145235750E-02    0.3994238378E-02
    0.4100000000E+03    0.2458794097E-02    0.5845961817E-03    0.6922304418E+00    0.1202512275E-02    0.4195365984E-02
    0.4300000000E+03    0.2574587482E-02    0.6121454273E-03    0.6924062167E+00    0.1259652307E-02    0.4396140843E-02
    0.4500000000E+03    0.2690035601E-02    0.6396135051E-03    0.6925664485E+00    0.1316656281E-02    0.4596564142E-02
    0.4700000000E+03    0.2805139286E-02    0.6670006151E-03    0.6927131117E+00    0.1373524639E-02    0.4796637060E-02
    0.4900000000E+03    0.2919899435E-02    0.6943069729E-03    0.6928478599E+00    0.1430257832E-02    0.4996360772E-02
    0.1000000000E+03    0.6201345270E-03    0.1472602008E-03    0.6807165745E+00    0.2992293309E-03    0.1037500134E-02
    0.3000000000E+03    0.1815732069E-02    0.4316178304E-03    0.6908479824E+00    0.8857912680E-03    0.3084766843E-02
    0.5000000000E+03    0.2977150980E-02    0.7079299404E-03    0.6929112107E+00    0.1458573882E-02    0.5096092041E-02
    0.7000000000E+03    0.4104400521E-02    0.9762101213E-03    0.6937994202E+00    0.2017910718E-02    0.7072667361E-02
    0.9000000000E+03    0.5198561368E-02    0.1236713895E-02    0.6942939423E+00    0.2564257049E-02    0.9015630417E-02
    0.1100000000E+04    0.6260807989E-02    0.1489717011E-02    0.6946090543E+00    0.3098060786E-02    0.1092606794E-01
    0.1300000000E+04    0.7292299233E-02    0.1735491026E-02    0.6948274070E+00    0.3619752471E-02    0.1280501861E-01
    0.1500000000E+04    0.8294154395E-02    0.1974298036E-02    0.6949876402E+00    0.4129744112E-02    0.1465347573E-01
    0.1700000000E+04    0.9267447242E-02    0.2206389397E-02    0.6951102360E+00    0.4628429577E-02    0.1647238970E-01
    0.1900000000E+04    0.1021320529E-01    0.2432005609E-02    0.6952070636E+00    0.5116185365E-02    0.1826267031E-01
    0.2100000000E+04    0.1113241087E-01    0.2651376586E-02    0.6952854760E+00    0.5593371456E-02    0.2002518894E-01
    0.2300000000E+04    0.1202600287E-01    0.2864722077E-02    0.6953502714E+00    0.6060332166E-02    0.2176078055E-01
    0.2500000000E+04    0.1289487872E-01    0.3072252137E-02    0.6954047142E+00    0.6517396962E-02    0.2347024561E-01
    0.2700000000E+04    0.1373989637E-01    0.3274167594E-02    0.6954511024E+00    0.6964881240E-02    0.2515435185E-01
    0.2900000000E+04    0.1456187633E-01    0.3470660525E-02    0.6954911008E+00    0.7403087060E-02    0.2681383599E-01
    0.3100000000E+04    0.1536160351E-01    0.3661914691E-02    0.6955259449E+00    0.7832303841E-02    0.2844940524E-01
    0.3300000000E+04    0.1613982911E-01    0.3848105972E-02    0.6955565710E+00    0.8252809005E-02    0.3006173882E-01
    0.3500000000E+04    0.1689727230E-01    0.4029402770E-02    0.6955837013E+00    0.8664868595E-02    0.3165148934E-01
    0.3700000000E+04    0.1763462187E-01    0.4205966386E-02    0.6956079024E+00    0.9068737847E-02    0.3321928410E-01
    0.3900000000E+04    0.1835253777E-01    0.4377951383E-02    0.6956296244E+00    0.9464661736E-02    0.3476572631E-01
    0.4100000000E+04    0.1905165258E-01    0.4545505927E-02    0.6956492299E+00    0.9852875478E-02    0.3629139627E-01
    0.4300000000E+04    0.1973257284E-01    0.4708772108E-02    0.6956670138E+00    0.1023360502E-01    0.3779685244E-01
    0.4500000000E+04    0.2039588041E-01    0.4867886235E-02    0.6956832189E+00    0.1060706748E-01    0.3928263250E-01
    0.4700000000E+04    0.2104213361E-01    0.5022979129E-02    0.6956980466E+00    0.1097347158E-01    0.4074925428E-01
    0.4900000000E+04    0.2167186843E-01    0.5174176387E-02    0.6957116653E+00    0.1133301805E-01    0.4219721670E-01
    0.1000000000E+04    0.5733600737E-02    0.1364135871E-02    0.6944672128E+00    0.2832699399E-02    0.9974848856E-02
    0.3000000000E+04    0.1496447379E-01    0.3566931281E-02    0.6955091028E+00    0.7618801468E-02    0.2763456689E-01
    0.5000000000E+04    0.2198070310E-01    0.5248352035E-02    0.6957180666E+00    0.1151028031E-01    0.4291435161E-01
    0.7000000000E+04    0.2740509093E-01    0.6554280424E-02    0.6958077240E+00    0.1473879008E-01    0.5638567889E-01
    0.9000000000E+04    0.3165351523E-01    0.7582235553E-02    0.6958575727E+00    0.1746182067E-01    0.6844432935E-01
    0.1100000000E+05    0.3501313489E-01    0.8399633278E-02    0.6958893145E+00    0.1979017294E-01    0.7937368242E-01
    0.1300000000E+05    0.3768795734E-01    0.9054428052E-02    0.6959113014E+00    0.2180408230E-01    0.8938239363E-01
    0.1500000000E+05    0.3982647629E-01    0.9581570827E-02    0.6959274329E+00    0.2356309846E-01    0.9862780501E-01
    0.1700000000E+05    0.4153906018E-01    0.1000707444E-01    0.6959397741E+00    0.2511236774E-01    0.1072310295E+00
    0.1900000000E+05    0.4290924475E-01    0.1035065542E-01    0.6959495211E+00    0.2648675717E-01    0.1152869790E+00
    0.2100000000E+05    0.4400127200E-01    0.1062749884E-01    0.6959574145E+00    0.2771363785E-01    0.1228712146E+00
    0.2300000000E+05    0.4486524670E-01    0.1084946617E-01    0.6959639374E+00    0.2881480967E-01    0.1300447382E+00
    0.2500000000E+05    0.4554073961E-01    0.1102593999E-01    0.6959694185E+00    0.2980786116E-01    0.1368574165E+00
    0.2700000000E+05    0.4605935395E-01    0.1116442599E-01    0.6959740891E+00    0.3070714887E-01    0.1433504729E+00
    0.2900000000E+05    0.4644658481E-01    0.1127098945E-01    0.6959781167E+00    0.3152451495E-01    0.1495583327E+00
    0.3100000000E+05    0.4672318741E-01    0.1135057673E-01    0.6959816257E+00    0.3226982111E-01    0.1555100097E+00
    0.3300000000E+05    0.4690619789E-01    0.1140725523E-01    0.6959847102E+00    0.3295135155E-01    0.1612301630E+00
    0.3500000000E+05    0.4700970481E-01    0.1144439497E-01    0.6959874429E+00    0.3357612103E-01    0.1667399126E+00
    0.3700000000E+05    0.4704543897E-01    0.1146480740E-01    0.6959898809E+00    0.3415011301E-01    0.1720574752E+00
    0.3900000000E+05    0.4702322911E-01    0.1147085292E-01    0.6959920693E+00    0.3467846593E-01    0.1771986670E+00
    0.4100000000E+05    0.4695135762E-01    0.1146452467E-01    0.6959940448E+00    0.3516562020E-01    0.1821773025E+00
    0.4300000000E+05    0.4683684058E-01    0.1144751474E-01    0.6959958369E+00    0.3561543537E-01    0.1870055166E+00
    0.4500000000E+05    0.4668565014E-01    0.1142126664E-01    0.6959974702E+00    0.3603128427E-01    0.1916940242E+00
    0.4700000000E+05    0.4650289252E-01    0.1138701748E-01    0.6959989647E+00    0.3641612927E-01    0.1962523329E+00
    0.4900000000E+05    0.4629295152E-01    0.1134583188E-01    0.6960003376E+00    0.3677258447E-01    0.2006889179E+00
    0.1000000000E+05    0.3343011393E-01    0.8013891364E-02    0.6958750284E+00    0.1866973858E-01    0.7403570142E-01
    0.3000000000E+05    0.4659757279E-01    0.1131388267E-01    0.6959799295E+00    0.3190562478E-01    0.1525645613E+00
    0.5000000000E+05    0.4617898875E-01    0.1132293035E-01    0.6960009830E+00    0.3694090036E-01    0.2028639662E+00
    0.7000000000E+05    0.4315736830E-01    0.1066830818E-01    0.6960100268E+00    0.3926147588E-01    0.2414595375E+00
    0.9000000000E+05    0.3965504838E-01    0.9871225432E-02    0.6960150606E+00    0.4030414866E-01    0.2732201581E+00
    0.1100000000E+06    0.3624982949E-01    0.9079292418E-02    0.6960182692E+00    0.4063842905E-01    0.3002878248E+00
    0.1300000000E+06    0.3311124465E-01    0.8339122741E-02    0.6960204937E+00    0.4054474152E-01    0.3238356949E+00
    0.1500000000E+06    0.3027702389E-01    0.7663696483E-02    0.6960221271E+00    0.4018042243E-01    0.3446011910E+00
    0.1700000000E+06    0.2773854461E-01    0.7053587459E-02    0.6960233777E+00    0.3964146356E-01    0.3630923498E+00
    0.1900000000E+06    0.2547128473E-01    0.6504721363E-02    0.6960243661E+00    0.3898978690E-01    0.3796818862E+00
    0.2100000000E+06    0.2344658682E-01    0.6011479177E-02    0.6960251671E+00    0.3826687410E-01    0.3946555634E+00
    0.2300000000E+06    0.2163632364E-01    0.5567995056E-02    0.6960258294E+00    0.3750123399E-01    0.4082395196E+00
    0.2500000000E+06    0.2001466307E-01    0.5168695992E-02    0.6960263863E+00    0.3671279177E-01    0.4206169209E+00
    0.2700000000E+06    0.1855859859E-01    0.4808506487E-02    0.6960268611E+00    0.3591561313E-01    0.4319387564E+00
    0.2900000000E+06    0.1724795179E-01    0.4482901742E-02    0.6960272707E+00    0.3511966801E-01    0.4423311999E+00
    0.3100000000E+06    0.1606515993E-01    0.4187893016E-02    0.6960276278E+00    0.3433201173E-01    0.4519008415E+00
    0.3300000000E+06    0.1499499037E-01    0.3919984597E-02    0.6960279418E+00    0.3355759700E-01    0.4607385330E+00
    0.3500000000E+06    0.1402424607E-01    0.3676121225E-02    0.6960282201E+00    0.3279984437E-01    0.4689222923E+00
    0.3700000000E+06    0.1314148974E-01    0.3453634885E-02    0.6960284685E+00    0.3206104977E-01    0.4765195466E+00
    0.3900000000E+06    0.1233679710E-01    0.3250195003E-02    0.6960286916E+00    0.3134267995E-01    0.4835888971E+00
    0.4100000000E+06    0.1160154142E-01    0.3063763608E-02    0.6960288931E+00    0.3064558887E-01    0.4901815281E+00
    0.4300000000E+06    0.1092820803E-01    0.2892555853E-02    0.6960290759E+00    0.2997017787E-01    0.4963423458E+00
    0.4500000000E+06    0.1031023573E-01    0.2735005687E-02    0.6960292425E+00    0.2931651501E-01    0.5021109091E+00
    0.4700000000E+06    0.9741881821E-02    0.2589736221E-02    0.6960293951E+00    0.2868442451E-01    0.5075221976E+00
    0.4900000000E+06    0.9218107468E-02    0.2455534267E-02    0.6960295353E+00    0.2807355413E-01    0.5126072484E+00
    0.1000000000E+06    0.3792491503E-01    0.9470494495E-02    0.6960168247E+00    0.4053829106E-01    0.2872533358E+00
    0.3000000000E+06    0.1664157714E-01    0.4331802316E-02    0.6960274552E+00    0.3472445257E-01    0.4472128616E+00
    0.5000000000E+06    0.8971531160E-02    0.2392243806E-02    0.6960296012E+00    0.2777593094E-01    0.5150361892E+00
    0.7000000000E+06    0.5547791784E-02    0.1504913079E-02    0.6960305260E+00    0.2279064317E-01    0.5518099896E+00
    0.9000000000E+06    0.3751778369E-02    0.1031392480E-02    0.6960310418E+00    0.1921816296E-01    0.5746084011E+00
    0.1100000000E+07    0.2699784035E-02    0.7503410238E-03    0.6960313709E+00    0.1657231916E-01    0.5900309318E+00
    0.1300000000E+07    0.2032983555E-02    0.5702661837E-03    0.6960315992E+00    0.1454700099E-01    0.6011208436E+00
    0.1500000000E+07    0.1584658147E-02    0.4480832904E-03    0.6960317669E+00    0.1295207891E-01    0.6094620356E+00
    0.1700000000E+07    0.1269149590E-02    0.3614151189E-03    0.6960318952E+00    0.1166597624E-01    0.6159553548E+00
    0.1900000000E+07    0.1038898847E-02    0.2977241200E-03    0.6960319965E+00    0.1060817227E-01    0.6211491151E+00
    0.2100000000E+07    0.8658254038E-03    0.2495494895E-03    0.6960320785E+00    0.9723533587E-02    0.6253953889E+00
    0.2300000000E+07    0.7325009109E-03    0.2122286053E-03    0.6960321462E+00    0.8973171348E-02    0.6289302243E+00
    0.2500000000E+07    0.6276521508E-03    0.1827269000E-03    0.6960322030E+00    0.8328929880E-02    0.6319176196E+00
    0.2700000000E+07    0.5437294583E-03    0.1590007749E-03    0.6960322514E+00    0.7769953345E-02    0.6344749687E+00
    0.2900000000E+07    0.4755248251E-03    0.1396333008E-03    0.6960322930E+00    0.7280480256E-02    0.6366884644E+00
    0.3100000000E+07    0.4193526142E-03    0.1236170326E-03    0.6960323292E+00    0.6848386662E-02    0.6386227878E+00
    0.3300000000E+07    0.3725458228E-03    0.1102197949E-03    0.6960323610E+00    0.6464199376E-02    0.6403274065E+00
    0.3500000000E+07    0.3331364038E-03    0.9889911150E-04    0.6960323890E+00    0.6120412328E-02    0.6418407878E+00
    0.3700000000E+07    0.2996466804E-03    0.8924613009E-04    0.6960324140E+00    0.5811003223E-02    0.6431932882E+00
    0.3900000000E+07    0.2709498629E-03    0.8094797424E-04    0.6960324363E+00    0.5531085503E-02    0.6444091789E+00
    0.4100000000E+07    0.2461747116E-03    0.7376191387E-04    0.6960324565E+00    0.5276653552E-02    0.6455080948E+00
    0.4300000000E+07    0.2246390815E-03    0.6749729734E-04    0.6960324747E+00    0.5044393340E-02    0.6465060890E+00
    0.4500000000E+07    0.2058027734E-03    0.6200268974E-04    0.6960324912E+00    0.4831539763E-02    0.6474164122E+00
    0.4700000000E+07    0.1892335411E-03    0.5715657088E-04    0.6960325062E+00    0.4635767802E-02    0.6482500977E+00
    0.4900000000E+07    0.1745822236E-03    0.5286050998E-04    0.6960325200E+00    0.4455108541E-02    0.6490164056E+00
    0.1000000000E+07    0.3161856522E-02    0.8741935424E-03    0.6960312227E+00    0.1780199085E-01    0.5830028231E+00
    0.3000000000E+07    0.4461208053E-03    0.1312572963E-03    0.6960323117E+00    0.7057906034E-02    0.6376871316E+00
    0.5000000000E+07    0.1678847510E-03    0.5089302887E-04    0.6960325265E+00    0.4369911834E-02    0.6493767877E+00
    0.7000000000E+07    0.8714117820E-04    0.2694496737E-04    0.6960326151E+00    0.3158080628E-02    0.6544350666E+00
    0.9000000000E+07    0.5316939854E-04    0.1668614050E-04    0.6960326617E+00    0.2469821620E-02    0.6572534712E+00
    0.1100000000E+08    0.3576673441E-04    0.1135829161E-04    0.6960326894E+00    0.2026548447E-02    0.6590488273E+00
    0.1300000000E+08    0.2568502055E-04    0.8237294585E-05    0.6960327069E+00    0.1717409383E-02    0.6602921065E+00
    0.1500000000E+08    0.1932981852E-04    0.6251457659E-05    0.6960327185E+00    0.1489617073E-02    0.6612037878E+00
    0.1700000000E+08    0.1506886052E-04    0.4909245727E-05    0.6960327262E+00    0.1314849456E-02    0.6619007975E+00
    0.1900000000E+08    0.1207438604E-04    0.3959269759E-05    0.6960327314E+00    0.1176554364E-02    0.6624508975E+00
    0.2100000000E+08    0.9890408747E-05    0.3262021743E-05    0.6960327348E+00    0.1064413795E-02    0.6628960599E+00
    0.2300000000E+08    0.8249016075E-05    0.2734996027E-05    0.6960327368E+00    0.9716629119E-03    0.6632636666E+00
    0.2500000000E+08    0.6984444108E-05    0.2326843074E-05    0.6960327380E+00    0.8936825728E-03    0.6635723402E+00
    0.2700000000E+08    0.5989684791E-05    0.2004236727E-05    0.6960327384E+00    0.8272115555E-03    0.6638351860E+00
