  Pressure (Pa) 22mC5-500 (mol/kg) 23mC5-500 (mol/kg) 24mC5-500 (mol/kg) 2mC6-500 (mol/kg) 3mC6-500 (mol/kg)
    0.1000000000E+01    0.1913057225E-04    0.1851587317E-05    0.1514058151E+00    0.1590491400E-04    0.2084271973E-04
    0.3000000000E+01    0.4441854105E-04    0.4307491182E-05    0.3165016448E+00    0.3885154777E-04    0.6251843165E-04
    0.5000000000E+01    0.6323368639E-04    0.6144679097E-05    0.4047792910E+00    0.5790151480E-04    0.1041813313E-03
    0.7000000000E+01    0.7965081864E-04    0.7754679984E-05    0.4597354544E+00    0.7578418905E-04    0.1458314918E-03
    0.9000000000E+01    0.9500690750E-04    0.9265209401E-05    0.4972417256E+00    0.9328131025E-04    0.1874689463E-03
    0.1100000000E+02    0.1098427792E-03    0.1072759649E-04    0.5244708120E+00    0.1106615617E-03    0.2290937145E-03
    0.1300000000E+02    0.1244077223E-03    0.1216532889E-04    0.5451379912E+00    0.1280258954E-03    0.2707058106E-03
    0.1500000000E+02    0.1388272109E-03    0.1359012985E-04    0.5613602985E+00    0.1454127696E-03    0.3123052459E-03
    0.1700000000E+02    0.1531683917E-03    0.1500821116E-04    0.5744325009E+00    0.1628354369E-03    0.3538920302E-03
    0.1900000000E+02    0.1674687565E-03    0.1642299960E-04    0.5851909841E+00    0.1802965788E-03    0.3954661726E-03
    0.2100000000E+02    0.1817498240E-03    0.1783643204E-04    0.5942001103E+00    0.1977944664E-03    0.4370276815E-03
    0.2300000000E+02    0.1960241170E-03    0.1924961282E-04    0.6018544935E+00    0.2153256706E-03    0.4785765649E-03
    0.2500000000E+02    0.2102989156E-03    0.2066316545E-04    0.6084383578E+00    0.2328862784E-03    0.5201128307E-03
    0.2700000000E+02    0.2245783637E-03    0.2207742889E-04    0.6141616155E+00    0.2504724330E-03    0.5616364866E-03
    0.2900000000E+02    0.2388646942E-03    0.2349257095E-04    0.6191826641E+00    0.2680805592E-03    0.6031475400E-03
    0.3100000000E+02    0.2531589614E-03    0.2490865565E-04    0.6236232754E+00    0.2857074404E-03    0.6446459985E-03
    0.3300000000E+02    0.2674614900E-03    0.2632568408E-04    0.6275786037E+00    0.3033502271E-03    0.6861318693E-03
    0.3500000000E+02    0.2817721548E-03    0.2774361975E-04    0.6311240815E+00    0.3210064145E-03    0.7276051598E-03
    0.3700000000E+02    0.2960905581E-03    0.2916240430E-04    0.6343202773E+00    0.3386738090E-03    0.7690658772E-03
    0.3900000000E+02    0.3104161430E-03    0.3058196757E-04    0.6372163852E+00    0.3563504909E-03    0.8105140288E-03
    0.4100000000E+02    0.3247482662E-03    0.3200223386E-04    0.6398527751E+00    0.3740347801E-03    0.8519496216E-03
    0.4300000000E+02    0.3390862449E-03    0.3342312590E-04    0.6422628862E+00    0.3917252033E-03    0.8933726630E-03
    0.4500000000E+02    0.3534293871E-03    0.3484456736E-04    0.6444746535E+00    0.4094204665E-03    0.9347831600E-03
    0.4700000000E+02    0.3677770103E-03    0.3626648429E-04    0.6465115952E+00    0.4271194300E-03    0.9761811197E-03
    0.4900000000E+02    0.3821284536E-03    0.3768880606E-04    0.6483936528E+00    0.4448210875E-03    0.1017566549E-02
    0.1000000000E+02    0.1024701914E-03    0.1000056258E-04    0.5118574781E+00    0.1019775596E-03    0.2082829152E-03
    0.3000000000E+02    0.2460108022E-03    0.2420049428E-04    0.6214690462E+00    0.2768918419E-03    0.6238983431E-03
    0.5000000000E+02    0.3893054088E-03    0.3840009769E-04    0.6492820178E+00    0.4536726441E-03    0.1038254567E-02
    0.7000000000E+02    0.5329095790E-03    0.5263305953E-04    0.6619803520E+00    0.6306755957E-03    0.1451358823E-02
    0.9000000000E+02    0.6763756638E-03    0.6685291105E-04    0.6692526334E+00    0.8073613742E-03    0.1863218128E-02
    0.1100000000E+03    0.8194666845E-03    0.8103590385E-04    0.6739645929E+00    0.9835323149E-03    0.2273839417E-02
    0.1300000000E+03    0.9620553800E-03    0.9516946693E-04    0.6772660021E+00    0.1159101408E-02    0.2683229560E-02
    0.1500000000E+03    0.1104068802E-02    0.1092464586E-03    0.6797078158E+00    0.1334025723E-02    0.3091395372E-02
    0.1700000000E+03    0.1245462881E-02    0.1232625936E-03    0.6815871040E+00    0.1508282670E-02    0.3498343614E-02
    0.1900000000E+03    0.1386210023E-02    0.1372152041E-03    0.6830781868E+00    0.1681860093E-02    0.3904080995E-02
    0.2100000000E+03    0.1526292608E-02    0.1511025963E-03    0.6842900998E+00    0.1854751634E-02    0.4308614169E-02
    0.2300000000E+03    0.1665699351E-02    0.1649236924E-03    0.6852945399E+00    0.2026954360E-02    0.4711949744E-02
    0.2500000000E+03    0.1804423160E-02    0.1786778202E-03    0.6861405881E+00    0.2198467466E-02    0.5114094275E-02
    0.2700000000E+03    0.1942459802E-02    0.1923645843E-03    0.6868629754E+00    0.2369291520E-02    0.5515054267E-02
    0.2900000000E+03    0.2079807063E-02    0.2059837829E-03    0.6874869699E+00    0.2539428002E-02    0.5914836177E-02
    0.3100000000E+03    0.2216464174E-02    0.2195353533E-03    0.6880313944E+00    0.2708879020E-02    0.6313446415E-02
    0.3300000000E+03    0.2352431428E-02    0.2330193345E-03    0.6885105581E+00    0.2877647115E-02    0.6710891339E-02
    0.3500000000E+03    0.2487709911E-02    0.2464358414E-03    0.6889355331E+00    0.3045735138E-02    0.7107177263E-02
    0.3700000000E+03    0.2622301311E-02    0.2597850460E-03    0.6893150209E+00    0.3213146159E-02    0.7502310452E-02
    0.3900000000E+03    0.2756207774E-02    0.2730671641E-03    0.6896559544E+00    0.3379883410E-02    0.7896297126E-02
    0.4100000000E+03    0.2889431799E-02    0.2862824449E-03    0.6899639258E+00    0.3545950238E-02    0.8289143456E-02
    0.4300000000E+03    0.3021976163E-02    0.2994311641E-03    0.6902434955E+00    0.3711350069E-02    0.8680855571E-02
    0.4500000000E+03    0.3153843860E-02    0.3125136177E-03    0.6904984198E+00    0.3876086393E-02    0.9071439551E-02
    0.4700000000E+03    0.3285038053E-02    0.3255301178E-03    0.6907318205E+00    0.4040162737E-02    0.9460901433E-02
    0.4900000000E+03    0.3415562039E-02    0.3384809890E-03    0.6909463134E+00    0.4203582656E-02    0.9849247210E-02
    0.1000000000E+03    0.7479777250E-03    0.7394997268E-04    0.6718359846E+00    0.8955181167E-03    0.2068683094E-02
    0.3000000000E+03    0.2148221890E-02    0.2127680212E-03    0.6877681458E+00    0.2624239044E-02    0.6114287357E-02
    0.5000000000E+03    0.3480573765E-02    0.3449319180E-03    0.6910471733E+00    0.4285047573E-02    0.1004300342E-01
    0.7000000000E+03    0.4746490688E-02    0.4705901429E-03    0.6924624901E+00    0.5880758799E-02    0.1386096364E-01
    0.9000000000E+03    0.5949551850E-02    0.5900932136E-03    0.6932514799E+00    0.7414888933E-02    0.1757386483E-01
    0.1100000000E+04    0.7093381249E-02    0.7037948532E-03    0.6937546093E+00    0.8890792144E-02    0.2118700668E-01
    0.1300000000E+04    0.8181420727E-02    0.8120306809E-03    0.6941034250E+00    0.1031160451E-01    0.2470532601E-01
    0.1500000000E+04    0.9216892553E-02    0.9151148030E-03    0.6943594915E+00    0.1168024846E-01    0.2813342755E-01
    0.1700000000E+04    0.1020280093E-01    0.1013340046E-02    0.6945554669E+00    0.1299944680E-01    0.3147561154E-01
    0.1900000000E+04    0.1114194372E-01    0.1106979136E-02    0.6947102864E+00    0.1427173801E-01    0.3473589875E-01
    0.2100000000E+04    0.1203692680E-01    0.1196286105E-02    0.6948356854E+00    0.1549949090E-01    0.3791805297E-01
    0.2300000000E+04    0.1289017848E-01    0.1281497711E-02    0.6949393244E+00    0.1668491822E-01    0.4102560137E-01
    0.2500000000E+04    0.1370396335E-01    0.1362834780E-02    0.6950264167E+00    0.1783008909E-01    0.4406185299E-01
    0.2700000000E+04    0.1448039509E-01    0.1440503460E-02    0.6951006331E+00    0.1893694031E-01    0.4702991550E-01
    0.2900000000E+04    0.1522144829E-01    0.1514696365E-02    0.6951646333E+00    0.2000728672E-01    0.4993271040E-01
    0.3100000000E+04    0.1592896928E-01    0.1585593634E-02    0.6952203917E+00    0.2104283054E-01    0.5277298694E-01
    0.3300000000E+04    0.1660468601E-01    0.1653363888E-02    0.6952694045E+00    0.2204516995E-01    0.5555333470E-01
    0.3500000000E+04    0.1725021709E-01    0.1718165109E-02    0.6953128264E+00    0.2301580683E-01    0.5827619520E-01
    0.3700000000E+04    0.1786708003E-01    0.1780145444E-02    0.6953515628E+00    0.2395615390E-01    0.6094387240E-01
    0.3900000000E+04    0.1845669878E-01    0.1839443932E-02    0.6953863336E+00    0.2486754120E-01    0.6355854238E-01
    0.4100000000E+04    0.1902041063E-01    0.1896191181E-02    0.6954177184E+00    0.2575122204E-01    0.6612226218E-01
    0.4300000000E+04    0.1955947248E-01    0.1950509973E-02    0.6954461889E+00    0.2660837840E-01    0.6863697797E-01
    0.4500000000E+04    0.2007506667E-01    0.2002515831E-02    0.6954721333E+00    0.2744012592E-01    0.7110453247E-01
    0.4700000000E+04    0.2056830620E-01    0.2052317528E-02    0.6954958736E+00    0.2824751852E-01    0.7352667183E-01
    0.4900000000E+04    0.2104023965E-01    0.2100017567E-02    0.6955176794E+00    0.2903155252E-01    0.7590505198E-01
    0.1000000000E+04    0.6528650379E-02    0.6476477420E-03    0.6935280982E+00    0.8159917754E-02    0.1939258899E-01
    0.3000000000E+04    0.1557928965E-01    0.1550546156E-02    0.6951934399E+00    0.2052930672E-01    0.5136049801E-01
    0.5000000000E+04    0.2126852775E-01    0.2123109886E-02    0.6955279293E+00    0.2941510663E-01    0.7707832659E-01
    0.7000000000E+04    0.2492798041E-01    0.2495383414E-02    0.6956715180E+00    0.3606385160E-01    0.9858882328E-01
    0.9000000000E+04    0.2729456899E-01    0.2739500394E-02    0.6957513783E+00    0.4119029634E-01    0.1171006319E+00
    0.1100000000E+05    0.2880393096E-01    0.2898214309E-02    0.6958022433E+00    0.4523334802E-01    0.1333781760E+00
    0.1300000000E+05    0.2972724803E-01    0.2998214986E-02    0.6958374839E+00    0.4847743604E-01    0.1479309346E+00
    0.1500000000E+05    0.3024042981E-01    0.3056869330E-02    0.6958633442E+00    0.5111506372E-01    0.1611131557E+00
    0.1700000000E+05    0.3046146889E-01    0.3085865512E-02    0.6958831316E+00    0.5328126419E-01    0.1731799198E+00
    0.1900000000E+05    0.3047172204E-01    0.3093291899E-02    0.6958987618E+00    0.5507364027E-01    0.1843203809E+00
    0.2100000000E+05    0.3032858723E-01    0.3084877302E-02    0.6959114214E+00    0.5656456011E-01    0.1946783673E+00
    0.2300000000E+05    0.3007334521E-01    0.3064759353E-02    0.6959218844E+00    0.5780886932E-01    0.2043656365E+00
    0.2500000000E+05    0.2973616875E-01    0.3035976186E-02    0.6959306774E+00    0.5884893120E-01    0.2134706816E+00
    0.2700000000E+05    0.2933941315E-01    0.3000789991E-02    0.6959381709E+00    0.5971801638E-01    0.2220647479E+00
    0.2900000000E+05    0.2889983081E-01    0.2960905179E-02    0.6959446336E+00    0.6044264026E-01    0.2302060455E+00
    0.3100000000E+05    0.2843009382E-01    0.2917618692E-02    0.6959502647E+00    0.6104421104E-01    0.2379427622E+00
    0.3300000000E+05    0.2793986097E-01    0.2871925541E-02    0.6959552151E+00    0.6154021489E-01    0.2453152622E+00
    0.3500000000E+05    0.2743653800E-01    0.2824594190E-02    0.6959596013E+00    0.6194508350E-01    0.2523577162E+00
    0.3700000000E+05    0.2692582763E-01    0.2776221205E-02    0.6959635148E+00    0.6227083928E-01    0.2590993310E+00
    0.3900000000E+05    0.2641213286E-01    0.2727271437E-02    0.6959670282E+00    0.6252758237E-01    0.2655652887E+00
    0.4100000000E+05    0.2589885631E-01    0.2678107917E-02    0.6959701998E+00    0.6272386296E-01    0.2717774744E+00
    0.4300000000E+05    0.2538862493E-01    0.2629014360E-02    0.6959730774E+00    0.6286696947E-01    0.2777550461E+00
    0.4500000000E+05    0.2488346026E-01    0.2580212267E-02    0.6959757000E+00    0.6296315410E-01    0.2835148862E+00
    0.4700000000E+05    0.2438490874E-01    0.2531874049E-02    0.6959781002E+00    0.6301781117E-01    0.2890719629E+00
    0.4900000000E+05    0.2389414212E-01    0.2484133184E-02    0.6959803052E+00    0.6303561938E-01    0.2944396211E+00
    0.1000000000E+05    0.2813662240E-01    0.2827587706E-02    0.6957793490E+00    0.4332676768E-01    0.1254823243E+00
    0.3000000000E+05    0.2866806747E-01    0.2939618884E-02    0.6959475427E+00    0.6075763392E-01    0.2341222917E+00
    0.5000000000E+05    0.2365196146E-01    0.2460519809E-02    0.6959813417E+00    0.6303200026E-01    0.2970562044E+00
    0.7000000000E+05    0.1932890007E-01    0.2033805483E-02    0.6959958724E+00    0.6178313426E-01    0.3417963819E+00
    0.9000000000E+05    0.1596859224E-01    0.1696175634E-02    0.6960039655E+00    0.5941091955E-01    0.3761243998E+00
    0.1100000000E+06    0.1337249388E-01    0.1431963144E-02    0.6960091268E+00    0.5670302128E-01    0.4035843333E+00
    0.1300000000E+06    0.1134415160E-01    0.1223409000E-02    0.6960127069E+00    0.5396826370E-01    0.4261623393E+00
    0.1500000000E+06    0.9736069130E-02    0.1056639811E-02    0.6960153369E+00    0.5133503804E-01    0.4451037958E+00
    0.1700000000E+06    0.8442529447E-02    0.9214905851E-03    0.6960173513E+00    0.4885461358E-01    0.4612459635E+00
    0.1900000000E+06    0.7387896448E-02    0.8105771361E-03    0.6960189439E+00    0.4654301713E-01    0.4751792632E+00
    0.2100000000E+06    0.6517470159E-02    0.7184963212E-03    0.6960202349E+00    0.4439976534E-01    0.4873349620E+00
    0.2300000000E+06    0.5791117738E-02    0.6412458023E-03    0.6960213028E+00    0.4241678609E-01    0.4980368101E+00
    0.2500000000E+06    0.5178948437E-02    0.5758203648E-03    0.6960222009E+00    0.4058283011E-01    0.5075332775E+00
    0.2700000000E+06    0.4658373846E-02    0.5199328665E-03    0.6960229668E+00    0.3888568809E-01    0.5160185994E+00
    0.2900000000E+06    0.4212089296E-02    0.4718201439E-03    0.6960236278E+00    0.3731329614E-01    0.5236470097E+00
    0.3100000000E+06    0.3826669027E-02    0.4301065203E-03    0.6960242041E+00    0.3585426361E-01    0.5305426490E+00
    0.3300000000E+06    0.3491574341E-02    0.3937065928E-03    0.6960247110E+00    0.3449809671E-01    0.5368066308E+00
    0.3500000000E+06    0.3198443295E-02    0.3617550866E-03    0.6960251604E+00    0.3323526222E-01    0.5425221851E+00
    0.3700000000E+06    0.2940574999E-02    0.3335555876E-03    0.6960255616E+00    0.3205716900E-01    0.5477584702E+00
    0.3900000000E+06    0.2712550317E-02    0.3085426116E-03    0.6960259219E+00    0.3095610957E-01    0.5525734426E+00
    0.4100000000E+06    0.2509949490E-02    0.2862532128E-03    0.6960262473E+00    0.2992518474E-01    0.5570160473E+00
    0.4300000000E+06    0.2329139501E-02    0.2663054998E-03    0.6960265427E+00    0.2895822385E-01    0.5611279104E+00
    0.4500000000E+06    0.2167112245E-02    0.2483822109E-03    0.6960268121E+00    0.2804970696E-01    0.5649446632E+00
    0.4700000000E+06    0.2021360147E-02    0.2322180369E-03    0.6960270586E+00    0.2719469235E-01    0.5684969863E+00
    0.4900000000E+06    0.1889779658E-02    0.2175897469E-03    0.6960272853E+00    0.2638875057E-01    0.5718114436E+00
    0.1000000000E+06    0.1458840782E-01    0.1556080041E-02    0.6960068029E+00    0.5807344081E-01    0.3905655053E+00
    0.3000000000E+06    0.4012488012E-02    0.4502371549E-03    0.6960239255E+00    0.3657028812E-01    0.5271796344E+00
    0.5000000000E+06    0.1828737954E-02    0.2107913611E-03    0.6960273918E+00    0.2600292317E-01    0.5733868155E+00
    0.7000000000E+06    0.1039708402E-02    0.1220756290E-03    0.6960288876E+00    0.2008777670E-01    0.5966980190E+00
    0.9000000000E+06    0.6690331932E-03    0.7966672989E-04    0.6960297224E+00    0.1633858956E-01    0.6107489035E+00
    0.1100000000E+07    0.4660082793E-03    0.5612574573E-04    0.6960302552E+00    0.1375711932E-01    0.6201399498E+00
    0.1300000000E+07    0.3429716579E-03    0.4170322501E-04    0.6960306247E+00    0.1187384593E-01    0.6268577263E+00
    0.1500000000E+07    0.2628557191E-03    0.3222516920E-04    0.6960308959E+00    0.1044034136E-01    0.6319004255E+00
    0.1700000000E+07    0.2078089103E-03    0.2566086328E-04    0.6960311033E+00    0.9313216511E-02    0.6358244761E+00
    0.1900000000E+07    0.1683759288E-03    0.2092538906E-04    0.6960312670E+00    0.8404037174E-02    0.6389645389E+00
    0.2100000000E+07    0.1391703980E-03    0.1739604560E-04    0.6960313993E+00    0.7655346919E-02    0.6415339539E+00
    0.2300000000E+07    0.1169418850E-03    0.1469455364E-04    0.6960315085E+00    0.7028216573E-02    0.6436751339E+00
    0.2500000000E+07    0.9963495993E-04    0.1258027330E-04    0.6960315999E+00    0.6495343940E-02    0.6454867698E+00
    0.2700000000E+07    0.8589848203E-04    0.1089415962E-04    0.6960316776E+00    0.6037020117E-02    0.6470394077E+00
    0.2900000000E+07    0.7481478317E-04    0.9527654902E-05    0.6960317444E+00    0.5638664394E-02    0.6483848114E+00
    0.3100000000E+07    0.6574296046E-04    0.8404594044E-05    0.6960318024E+00    0.5289260036E-02    0.6495618206E+00
    0.3300000000E+07    0.5822447279E-04    0.7470251799E-05    0.6960318531E+00    0.4980329196E-02    0.6506001461E+00
    0.3500000000E+07    0.5192426525E-04    0.6684481675E-05    0.6960318979E+00    0.4705242106E-02    0.6515229022E+00
    0.3700000000E+07    0.4659292661E-04    0.6017287780E-05    0.6960319376E+00    0.4458740009E-02    0.6523483401E+00
    0.3900000000E+07    0.4204171273E-04    0.5445890924E-05    0.6960319731E+00    0.4236598510E-02    0.6530910630E+00
    0.4100000000E+07    0.3812567016E-04    0.4952739061E-05    0.6960320049E+00    0.4035385414E-02    0.6537628932E+00
    0.4300000000E+07    0.3473199186E-04    0.4524129862E-05    0.6960320336E+00    0.3852283499E-02    0.6543735042E+00
    0.4500000000E+07    0.3177183031E-04    0.4149239165E-05    0.6960320597E+00    0.3684958811E-02    0.6549308873E+00
    0.4700000000E+07    0.2917444309E-04    0.3819424093E-05    0.6960320833E+00    0.3531461384E-02    0.6554417019E+00
    0.4900000000E+07    0.2688294135E-04    0.3527715510E-05    0.6960321049E+00    0.3390149460E-02    0.6559115416E+00
    0.1000000000E+07    0.5538693231E-03    0.6634744753E-04    0.6960300153E+00    0.1493855943E-01    0.6158691291E+00
    0.3000000000E+07    0.7005950112E-04    0.8939521497E-05    0.6960317744E+00    0.5458423296E-02    0.6489923289E+00
    0.5000000000E+07    0.2583711992E-04    0.3394336653E-05    0.6960321150E+00    0.3323619606E-02    0.6561326040E+00
    0.7000000000E+07    0.1331930689E-04    0.1782688914E-05    0.6960322511E+00    0.2384832615E-02    0.6592429217E+00
    0.9000000000E+07    0.8109473448E-05    0.1099927004E-05    0.6960323195E+00    0.1857715863E-02    0.6609825320E+00
    0.1100000000E+08    0.5456239966E-05    0.7475328566E-06    0.6960323575E+00    0.1520468225E-02    0.6620933480E+00
    0.1300000000E+08    0.3924478940E-05    0.5419005859E-06    0.6960323794E+00    0.1286288206E-02    0.6628638497E+00
    0.1500000000E+08    0.2960928385E-05    0.4113942974E-06    0.6960323920E+00    0.1114257046E-02    0.6634295200E+00
    0.1700000000E+08    0.2315698014E-05    0.3233396266E-06    0.6960323987E+00    0.9825705675E-03    0.6638623793E+00
    0.1900000000E+08    0.1862543955E-05    0.2610918415E-06    0.6960324015E+00    0.8785490559E-03    0.6642042410E+00
    0.2100000000E+08    0.1532116644E-05    0.2154413083E-06    0.6960324016E+00    0.7943182822E-03    0.6644810414E+00
    0.2300000000E+08    0.1283755855E-05    0.1809538441E-06    0.6960323999E+00    0.7247309700E-03    0.6647097202E+00
    0.2500000000E+08    0.1092344745E-05    0.1542534369E-06    0.6960323967E+00    0.6662809154E-03    0.6649018090E+00
    0.2700000000E+08    0.9416895117E-06    0.1331522017E-06    0.6960323926E+00    0.6164975633E-03    0.6650654295E+00
