  Pressure (Pa) 22mC5-500 (mol/kg) 23mC5-500 (mol/kg) 24mC5-500 (mol/kg) 2mC6-500 (mol/kg) 3mC6-500 (mol/kg)
    0.1000000000E+01    0.1913062590E-04    0.2777388969E-05    0.1514049063E+00    0.2120663520E-04    0.1042144050E-04
    0.3000000000E+01    0.4441947858E-04    0.6461374389E-05    0.3164981799E+00    0.5180324279E-04    0.3125994133E-04
    0.5000000000E+01    0.6323670165E-04    0.9217460072E-05    0.4047742568E+00    0.7720565693E-04    0.5209268030E-04
    0.7000000000E+01    0.7965706504E-04    0.1163293346E-04    0.4597296015E+00    0.1010529919E-03    0.7291969337E-04
    0.9000000000E+01    0.9501750377E-04    0.1389936286E-04    0.4972354821E+00    0.1243875338E-03    0.9374099649E-04
    0.1100000000E+02    0.1098588260E-03    0.1609373941E-04    0.5244644179E+00    0.1475675120E-03    0.1145565989E-03
    0.1300000000E+02    0.1244303109E-03    0.1825129319E-04    0.5451315823E+00    0.1707275217E-03    0.1353665071E-03
    0.1500000000E+02    0.1388574275E-03    0.2038960837E-04    0.5613539523E+00    0.1939188375E-03    0.1561707262E-03
    0.1700000000E+02    0.1532073190E-03    0.2251800214E-04    0.5744262613E+00    0.2171591269E-03    0.1769692604E-03
    0.1900000000E+02    0.1675174753E-03    0.2464161439E-04    0.5851848751E+00    0.2404519641E-03    0.1977621136E-03
    0.2100000000E+02    0.1818094134E-03    0.2676335020E-04    0.5941941440E+00    0.2637950428E-03    0.2185492895E-03
    0.2300000000E+02    0.1960956548E-03    0.2888486589E-04    0.6018486747E+00    0.2871837897E-03    0.2393307914E-03
    0.2500000000E+02    0.2103834785E-03    0.3100709655E-04    0.6084326868E+00    0.3106129865E-03    0.2601066228E-03
    0.2700000000E+02    0.2246770273E-03    0.3313055046E-04    0.6141560900E+00    0.3340774898E-03    0.2808767867E-03
    0.2900000000E+02    0.2389785329E-03    0.3525547919E-04    0.6191772801E+00    0.3575725315E-03    0.3016412865E-03
    0.3100000000E+02    0.2532890487E-03    0.3738197861E-04    0.6236180281E+00    0.3810938219E-03    0.3224001251E-03
    0.3300000000E+02    0.2676088983E-03    0.3951005023E-04    0.6275734878E+00    0.4046375605E-03    0.3431533057E-03
    0.3500000000E+02    0.2819379554E-03    0.4163963912E-04    0.6311190915E+00    0.4282004066E-03    0.3639008312E-03
    0.3700000000E+02    0.2962758215E-03    0.4377065763E-04    0.6343154077E+00    0.4517794341E-03    0.3846427049E-03
    0.3900000000E+02    0.3106219384E-03    0.4590300035E-04    0.6372116307E+00    0.4753720824E-03    0.4053789295E-03
    0.4100000000E+02    0.3249756618E-03    0.4803655358E-04    0.6398481303E+00    0.4989761102E-03    0.4261095082E-03
    0.4300000000E+02    0.3393363078E-03    0.5017120126E-04    0.6422583462E+00    0.5225895521E-03    0.4468344439E-03
    0.4500000000E+02    0.3537031835E-03    0.5230682874E-04    0.6444702134E+00    0.5462106813E-03    0.4675537396E-03
    0.4700000000E+02    0.3680756052E-03    0.5444332495E-04    0.6465072506E+00    0.5698379773E-03    0.4882673983E-03
    0.4900000000E+02    0.3824529110E-03    0.5658058377E-04    0.6483893993E+00    0.5934700972E-03    0.5089754228E-03
    0.1000000000E+02    0.1024833761E-03    0.1500277061E-04    0.5118511372E+00    0.1359855304E-03    0.1041495099E-03
    0.3000000000E+02    0.2461326311E-03    0.3631853079E-04    0.6214637313E+00    0.3693301444E-03    0.3120214132E-03
    0.5000000000E+02    0.3896431961E-03    0.5764946751E-04    0.6492778085E+00    0.6052875893E-03    0.5193273231E-03
    0.7000000000E+02    0.5335695586E-03    0.7904595424E-04    0.6619768516E+00    0.8416642405E-03    0.7260702571E-03
    0.9000000000E+02    0.6774629883E-03    0.1004381307E-03    0.6692496168E+00    0.1077739830E-02    0.9322531297E-03
    0.1100000000E+03    0.8210854219E-03    0.1217902166E-03    0.6739619274E+00    0.1313249633E-02    0.1137878820E-02
    0.1300000000E+03    0.9643085204E-03    0.1430831988E-03    0.6772636037E+00    0.1548076469E-02    0.1342950183E-02
    0.1500000000E+03    0.1107058267E-02    0.1643062095E-03    0.6797056279E+00    0.1782161947E-02    0.1547470048E-02
    0.1700000000E+03    0.1249289534E-02    0.1854526668E-03    0.6815850867E+00    0.2015474804E-02    0.1751441227E-02
    0.1900000000E+03    0.1390973680E-02    0.2065184169E-03    0.6830763109E+00    0.2247997699E-02    0.1954866510E-02
    0.2100000000E+03    0.1532092049E-02    0.2275007685E-03    0.6842883433E+00    0.2479721038E-02    0.2157748667E-02
    0.2300000000E+03    0.1672632330E-02    0.2483979557E-03    0.6852928856E+00    0.2710639803E-02    0.2360090447E-02
    0.2500000000E+03    0.1812586414E-02    0.2692088227E-03    0.6861390225E+00    0.2940751824E-02    0.2561894582E-02
    0.2700000000E+03    0.1951949068E-02    0.2899326304E-03    0.6868614876E+00    0.3170056773E-02    0.2763163784E-02
    0.2900000000E+03    0.2090717081E-02    0.3105689317E-03    0.6874855509E+00    0.3398555552E-02    0.2963900744E-02
    0.3100000000E+03    0.2228888700E-02    0.3311174894E-03    0.6880300368E+00    0.3626249907E-02    0.3164108138E-02
    0.3300000000E+03    0.2366463246E-02    0.3515782209E-03    0.6885092557E+00    0.3853142175E-02    0.3363788619E-02
    0.3500000000E+03    0.2503440843E-02    0.3719511582E-03    0.6889342805E+00    0.4079235116E-02    0.3562944826E-02
    0.3700000000E+03    0.2639822225E-02    0.3922364210E-03    0.6893138136E+00    0.4304531796E-02    0.3761579375E-02
    0.3900000000E+03    0.2775608594E-02    0.4124341956E-03    0.6896547885E+00    0.4529035503E-02    0.3959694869E-02
    0.4100000000E+03    0.2910801517E-02    0.4325447207E-03    0.6899627979E+00    0.4752749689E-02    0.4157293889E-02
    0.4300000000E+03    0.3045402848E-02    0.4525682752E-03    0.6902424027E+00    0.4975677927E-02    0.4354378999E-02
    0.4500000000E+03    0.3179414666E-02    0.4725051703E-03    0.6904973594E+00    0.5197823879E-02    0.4550952747E-02
    0.4700000000E+03    0.3312839230E-02    0.4923557428E-03    0.6907307901E+00    0.5419191271E-02    0.4747017662E-02
    0.4900000000E+03    0.3445678943E-02    0.5121203495E-03    0.6909453111E+00    0.5639783875E-02    0.4942576257E-02
    0.1000000000E+03    0.7493178150E-03    0.1111206316E-03    0.6718331564E+00    0.1195574751E-02    0.1035135444E-02
    0.3000000000E+03    0.2159877504E-02    0.3208541868E-03    0.6877667583E+00    0.3512503148E-02    0.3064070470E-02
    0.5000000000E+03    0.3511880262E-02    0.5219705316E-03    0.6910461843E+00    0.5749790819E-02    0.5040166464E-02
    0.7000000000E+03    0.4805858582E-02    0.7145579450E-03    0.6924616975E+00    0.7910191079E-02    0.6965990014E-02
    0.9000000000E+03    0.6044558110E-02    0.8990210209E-03    0.6932508071E+00    0.9997489105E-02    0.8843937875E-02
    0.1100000000E+04    0.7230850662E-02    0.1075780975E-02    0.6937540184E+00    0.1201534053E-01    0.1067625103E-01
    0.1300000000E+04    0.8367498500E-02    0.1245242410E-02    0.6941028943E+00    0.1396718746E-01    0.1246502730E-01
    0.1500000000E+04    0.9457109198E-02    0.1407787081E-02    0.6943590072E+00    0.1585625623E-01    0.1421223274E-01
    0.1700000000E+04    0.1050213035E-01    0.1563773260E-02    0.6945550196E+00    0.1768556891E-01    0.1591971195E-01
    0.1900000000E+04    0.1150485529E-01    0.1713536626E-02    0.6947098695E+00    0.1945795735E-01    0.1758919742E-01
    0.2100000000E+04    0.1246743210E-01    0.1857391612E-02    0.6948352940E+00    0.2117607710E-01    0.1922231802E-01
    0.2300000000E+04    0.1339187338E-01    0.1995632844E-02    0.6949389548E+00    0.2284242057E-01    0.2082060677E-01
    0.2500000000E+04    0.1428006582E-01    0.2128536548E-02    0.6950260658E+00    0.2445932910E-01    0.2238550782E-01
    0.2700000000E+04    0.1513377934E-01    0.2256361887E-02    0.6951002987E+00    0.2602900423E-01    0.2391838296E-01
    0.2900000000E+04    0.1595467560E-01    0.2379352203E-02    0.6951643135E+00    0.2755351783E-01    0.2542051741E-01
    0.3100000000E+04    0.1674431581E-01    0.2497736164E-02    0.6952200848E+00    0.2903482152E-01    0.2689312526E-01
    0.3300000000E+04    0.1750416800E-01    0.2611728825E-02    0.6952691093E+00    0.3047475526E-01    0.2833735439E-01
    0.3500000000E+04    0.1823561369E-01    0.2721532596E-02    0.6953125418E+00    0.3187505514E-01    0.2975429096E-01
    0.3700000000E+04    0.1893995399E-01    0.2827338140E-02    0.6953512878E+00    0.3323736071E-01    0.3114496359E-01
    0.3900000000E+04    0.1961841526E-01    0.2929325195E-02    0.6953860674E+00    0.3456322148E-01    0.3251034717E-01
    0.4100000000E+04    0.2027215424E-01    0.3027663324E-02    0.6954174603E+00    0.3585410312E-01    0.3385136639E-01
    0.4300000000E+04    0.2090226286E-01    0.3122512617E-02    0.6954459383E+00    0.3711139299E-01    0.3516889896E-01
    0.4500000000E+04    0.2150977258E-01    0.3214024326E-02    0.6954718896E+00    0.3833640533E-01    0.3646377862E-01
    0.4700000000E+04    0.2209565845E-01    0.3302341457E-02    0.6954956363E+00    0.3953038600E-01    0.3773679791E-01
    0.4900000000E+04    0.2266084284E-01    0.3387599309E-02    0.6955174481E+00    0.4069451691E-01    0.3898871072E-01
    0.1000000000E+04    0.6644079197E-02    0.9883380927E-03    0.6935274698E+00    0.1101487536E-01    0.9765664459E-02
    0.3000000000E+04    0.1635330886E-01    0.2439106230E-02    0.6951931267E+00    0.2829945340E-01    0.2616043892E-01
    0.5000000000E+04    0.2293594667E-01    0.3429121307E-02    0.6955277009E+00    0.4126574156E-01    0.3960697780E-01
    0.7000000000E+04    0.2754026742E-01    0.4126700370E-02    0.6956713322E+00    0.5136764037E-01    0.5102154656E-01
    0.9000000000E+04    0.3082861360E-01    0.4629106325E-02    0.6957512190E+00    0.5946818701E-01    0.6096315823E-01
    0.1100000000E+05    0.3320687905E-01    0.4996060730E-02    0.6958021026E+00    0.6611235402E-01    0.6979404884E-01
    0.1300000000E+05    0.3493606193E-01    0.5266046015E-02    0.6958373571E+00    0.7166153238E-01    0.7776039459E-01
    0.1500000000E+05    0.3619064798E-01    0.5464845572E-02    0.6958632283E+00    0.7636508129E-01    0.8503608581E-01
    0.1700000000E+05    0.3709108771E-01    0.5610299273E-02    0.6958830245E+00    0.8040080859E-01    0.9174794303E-01
    0.1900000000E+05    0.3772279272E-01    0.5715088037E-02    0.6958986621E+00    0.8389905939E-01    0.9799098061E-01
    0.2100000000E+05    0.3814772331E-01    0.5788434335E-02    0.6959113280E+00    0.8695766898E-01    0.1038380369E+00
    0.2300000000E+05    0.3841171349E-01    0.5837178414E-02    0.6959217964E+00    0.8965158421E-01    0.1093460681E+00
    0.2500000000E+05    0.3854924540E-01    0.5866480653E-02    0.6959305941E+00    0.9203924850E-01    0.1145603874E+00
    0.2700000000E+05    0.3858664536E-01    0.5880292312E-02    0.6959380918E+00    0.9416695464E-01    0.1195175980E+00
    0.2900000000E+05    0.3854427381E-01    0.5881678532E-02    0.6959445583E+00    0.9607188303E-01    0.1242476679E+00
    0.3100000000E+05    0.3843805715E-01    0.5873044574E-02    0.6959501927E+00    0.9778426723E-01    0.1287754298E+00
    0.3300000000E+05    0.3828057920E-01    0.5856297240E-02    0.6959551462E+00    0.9932896650E-01    0.1331216842E+00
    0.3500000000E+05    0.3808187169E-01    0.5832961955E-02    0.6959595353E+00    0.1007266271E+00    0.1373040245E+00
    0.3700000000E+05    0.3784999536E-01    0.5804268969E-02    0.6959634514E+00    0.1019945525E+00    0.1413374635E+00
    0.3900000000E+05    0.3759147292E-01    0.5771217676E-02    0.6959669671E+00    0.1031473656E+00    0.1452349154E+00
    0.4100000000E+05    0.3731161556E-01    0.5734625198E-02    0.6959701410E+00    0.1041975172E+00    0.1490075709E+00
    0.4300000000E+05    0.3701477196E-01    0.5695163500E-02    0.6959730206E+00    0.1051556829E+00    0.1526651926E+00
    0.4500000000E+05    0.3670452011E-01    0.5653388025E-02    0.6959756452E+00    0.1060310743E+00    0.1562163506E+00
    0.4700000000E+05    0.3638381648E-01    0.5609760006E-02    0.6959780472E+00    0.1068316873E+00    0.1596686110E+00
    0.4900000000E+05    0.3605511309E-01    0.5564664000E-02    0.6959802538E+00    0.1075645001E+00    0.1630286893E+00
    0.1000000000E+05    0.3211265247E-01    0.4826736972E-02    0.6957791998E+00    0.6294646997E-01    0.6549997106E-01
    0.3000000000E+05    0.3849829176E-01    0.5878484768E-02    0.6959474691E+00    0.9695047876E-01    0.1265354537E+00
    0.5000000000E+05    0.3588841295E-01    0.5541668186E-02    0.6959812912E+00    0.1079074239E+00    0.1646760572E+00
    0.7000000000E+05    0.3247983424E-01    0.5059820578E-02    0.6959958346E+00    0.1123602010E+00    0.1939501032E+00
    0.9000000000E+05    0.2930974839E-01    0.4599676170E-02    0.6960039362E+00    0.1140070234E+00    0.2181795408E+00
    0.1100000000E+06    0.2652878302E-01    0.4189704182E-02    0.6960091038E+00    0.1141996102E+00    0.2390190595E+00
    0.1300000000E+06    0.2411851486E-01    0.3830371835E-02    0.6960126889E+00    0.1135626548E+00    0.2573644728E+00
    0.1500000000E+06    0.2202851055E-01    0.3515993440E-02    0.6960153230E+00    0.1124273607E+00    0.2737691951E+00
    0.1700000000E+06    0.2020809646E-01    0.3240112797E-02    0.6960173409E+00    0.1109856302E+00    0.2886059535E+00
    0.1900000000E+06    0.1861349509E-01    0.2996886098E-02    0.6960189365E+00    0.1093556189E+00    0.3021413935E+00
    0.2100000000E+06    0.1720852009E-01    0.2781354304E-02    0.6960202303E+00    0.1076132682E+00    0.3145748906E+00
    0.2300000000E+06    0.1596364017E-01    0.2589398108E-02    0.6960213006E+00    0.1058089073E+00    0.3260606116E+00
    0.2500000000E+06    0.1485478017E-01    0.2417614598E-02    0.6960222009E+00    0.1039766165E+00    0.3367209386E+00
    0.2700000000E+06    0.1386223765E-01    0.2263189473E-02    0.6960229688E+00    0.1021398015E+00    0.3466550886E+00
    0.2900000000E+06    0.1296979384E-01    0.2123785685E-02    0.6960236316E+00    0.1003146587E+00    0.3559448955E+00
    0.3100000000E+06    0.1216400890E-01    0.1997452055E-02    0.6960242096E+00    0.9851240623E-01    0.3646588295E+00
    0.3300000000E+06    0.1143367014E-01    0.1882550004E-02    0.6960247182E+00    0.9674076345E-01    0.3728548769E+00
    0.3500000000E+06    0.1076936069E-01    0.1777695308E-02    0.6960251691E+00    0.9500495605E-01    0.3805826564E+00
    0.3700000000E+06    0.1016312148E-01    0.1681711826E-02    0.6960255717E+00    0.9330841299E-01    0.3878850092E+00
    0.3900000000E+06    0.9608184991E-02    0.1593594652E-02    0.6960259334E+00    0.9165325832E-01    0.3947992149E+00
    0.4100000000E+06    0.9098764164E-02    0.1512480642E-02    0.6960262601E+00    0.9004066344E-01    0.4013579394E+00
    0.4300000000E+06    0.8629883994E-02    0.1437624703E-02    0.6960265568E+00    0.8847110247E-01    0.4075899815E+00
    0.4500000000E+06    0.8197246205E-02    0.1368380615E-02    0.6960268273E+00    0.8694453954E-01    0.4135208713E+00
    0.4700000000E+06    0.7797119810E-02    0.1304185421E-02    0.6960270750E+00    0.8546056715E-01    0.4191733533E+00
    0.4900000000E+06    0.7426252019E-02    0.1244546648E-02    0.6960273027E+00    0.8401850935E-01    0.4245677820E+00
    0.1000000000E+06    0.2787031107E-01    0.4388127353E-02    0.6960067770E+00    0.1142362921E+00    0.2289561081E+00
    0.3000000000E+06    0.1255681643E-01    0.2059094090E-02    0.6960239302E+00    0.9941012032E-01    0.3603700046E+00
    0.5000000000E+06    0.7250886124E-02    0.1216298668E-02    0.6960274098E+00    0.8331293321E-01    0.4271740149E+00
    0.7000000000E+06    0.4746779417E-02    0.8091692348E-03    0.6960289146E+00    0.7114342110E-01    0.4693515532E+00
    0.9000000000E+06    0.3355745999E-02    0.5792727956E-03    0.6960297564E+00    0.6191682686E-01    0.4987042980E+00
    0.1100000000E+07    0.2500243955E-02    0.4360731628E-03    0.6960302950E+00    0.5474423405E-01    0.5203957362E+00
    0.1300000000E+07    0.1935688005E-02    0.3405830114E-03    0.6960306696E+00    0.4902875603E-01    0.5371097009E+00
    0.1500000000E+07    0.1543234996E-02    0.2736124302E-03    0.6960309454E+00    0.4437547975E-01    0.5503956050E+00
    0.1700000000E+07    0.1259246124E-02    0.2247764710E-03    0.6960311569E+00    0.4051730420E-01    0.5612156030E+00
    0.1900000000E+07    0.1047065361E-02    0.1880396694E-03    0.6960313243E+00    0.3726849740E-01    0.5702005850E+00
    0.2100000000E+07    0.8843394705E-03    0.1596928543E-03    0.6960314602E+00    0.3449641365E-01    0.5777821992E+00
    0.2300000000E+07    0.7567959278E-03    0.1373514163E-03    0.6960315726E+00    0.3210400473E-01    0.5842660876E+00
    0.2500000000E+07    0.6549695370E-03    0.1194241830E-03    0.6960316672E+00    0.3001872770E-01    0.5898748994E+00
    0.2700000000E+07    0.5723800060E-03    0.1048156782E-03    0.6960317478E+00    0.2818531878E-01    0.5947747515E+00
    0.2900000000E+07    0.5044684360E-03    0.9275129432E-04    0.6960318174E+00    0.2656096417E-01    0.5990921433E+00
    0.3100000000E+07    0.4479514857E-03    0.8267052901E-04    0.6960318781E+00    0.2511199596E-01    0.6029251263E+00
    0.3300000000E+07    0.4004155468E-03    0.7415955548E-04    0.6960319314E+00    0.2381158260E-01    0.6063508890E+00
    0.3500000000E+07    0.3600540627E-03    0.6690736990E-04    0.6960319786E+00    0.2263808302E-01    0.6094310335E+00
    0.3700000000E+07    0.3254930182E-03    0.6067653114E-04    0.6960320207E+00    0.2157385290E-01    0.6122153251E+00
    0.3900000000E+07    0.2956723071E-03    0.5528318844E-04    0.6960320585E+00    0.2060436505E-01    0.6147444080E+00
    0.4100000000E+07    0.2697634149E-03    0.5058316992E-04    0.6960320926E+00    0.1971755173E-01    0.6170518050E+00
    0.4300000000E+07    0.2471112384E-03    0.4646211500E-04    0.6960321234E+00    0.1890330636E-01    0.6191654131E+00
    0.4500000000E+07    0.2271922768E-03    0.4282835940E-04    0.6960321516E+00    0.1815310149E-01    0.6211086364E+00
    0.4700000000E+07    0.2095841305E-03    0.3960772785E-04    0.6960321772E+00    0.1745969250E-01    0.6229012564E+00
    0.4900000000E+07    0.1939429420E-03    0.3673967108E-04    0.6960322008E+00    0.1681688554E-01    0.6245601069E+00
    0.1000000000E+07    0.2880635505E-02    0.4999454768E-03    0.6960300523E+00    0.5811691081E-01    0.5103035973E+00
    0.3000000000E+07    0.4749532567E-03    0.8749165924E-04    0.6960318488E+00    0.2581637205E-01    0.6010639434E+00
    0.5000000000E+07    0.1867697305E-03    0.3542193313E-04    0.6960322119E+00    0.1651276359E-01    0.6253439558E+00
    0.7000000000E+07    0.9896698635E-04    0.1913764018E-04    0.6960323654E+00    0.1211710531E-01    0.6366056598E+00
    0.9000000000E+07    0.6111697200E-04    0.1199156250E-04    0.6960324484E+00    0.9560504453E-02    0.6431003897E+00
    0.1100000000E+08    0.4144097120E-04    0.8225845390E-05    0.6960324992E+00    0.7889953492E-02    0.6473237600E+00
    0.1300000000E+08    0.2992925299E-04    0.5998239786E-05    0.6960325327E+00    0.6713518056E-02    0.6502887626E+00
    0.1500000000E+08    0.2262086838E-04    0.4570841552E-05    0.6960325558E+00    0.5840558224E-02    0.6524842354E+00
    0.1700000000E+08    0.1769442806E-04    0.3600934540E-05    0.6960325722E+00    0.5167256138E-02    0.6541749742E+00
    0.1900000000E+08    0.1421764900E-04    0.2911604378E-05    0.6960325841E+00    0.4632263505E-02    0.6555168561E+00
    0.2100000000E+08    0.1167327086E-04    0.2403965349E-05    0.6960325927E+00    0.4197009763E-02    0.6566076025E+00
    0.2300000000E+08    0.9755637853E-05    0.2019200554E-05    0.6960325991E+00    0.3836033775E-02    0.6575115776E+00
    0.2500000000E+08    0.8274748606E-05    0.1720532449E-05    0.6960326037E+00    0.3531853239E-02    0.6582728972E+00
    0.2700000000E+08    0.7107470931E-05    0.1483999242E-05    0.6960326069E+00    0.3272067943E-02    0.6589228074E+00
