  Pressure (Pa) 22mC5-500 (mol/kg) 23mC5-500 (mol/kg) 24mC5-500 (mol/kg) 2mC6-500 (mol/kg) 3mC6-500 (mol/kg)
    0.1000000000E+01    0.2054575294E-04    0.1987919304E-05    0.9950049970E-01    0.2255072586E-04    0.2605304566E-04
    0.3000000000E+01    0.5092583779E-04    0.4932553525E-05    0.2321172366E+00    0.5761688465E-04    0.7814475229E-04
    0.5000000000E+01    0.7401320121E-04    0.7177427574E-05    0.3164817173E+00    0.8631555247E-04    0.1302174061E-03
    0.7000000000E+01    0.9350461221E-04    0.9078863079E-05    0.3748765076E+00    0.1121840608E-03    0.1822710865E-03
    0.9000000000E+01    0.1110260874E-03    0.1079311114E-04    0.4176941827E+00    0.1366770598E-03    0.2343058390E-03
    0.1100000000E+02    0.1273875077E-03    0.1239774156E-04    0.4504345989E+00    0.1604664139E-03    0.2863216940E-03
    0.1300000000E+02    0.1430291801E-03    0.1393477848E-04    0.4762810309E+00    0.1838879566E-03    0.3383186751E-03
    0.1500000000E+02    0.1582065639E-03    0.1542851199E-04    0.4972036921E+00    0.2071190407E-03    0.3902968018E-03
    0.1700000000E+02    0.1730754703E-03    0.1689369743E-04    0.5144873160E+00    0.2302568838E-03    0.4422560913E-03
    0.1900000000E+02    0.1877347521E-03    0.1833965545E-04    0.5290054235E+00    0.2533559836E-03    0.4941965595E-03
    0.2100000000E+02    0.2022491381E-03    0.1977246030E-04    0.5413726609E+00    0.2764471243E-03    0.5461182213E-03
    0.2300000000E+02    0.2166621113E-03    0.2119617137E-04    0.5520340868E+00    0.2995475173E-03    0.5980210910E-03
    0.2500000000E+02    0.2310034958E-03    0.2261355695E-04    0.5613198882E+00    0.3226664308E-03    0.6499051823E-03
    0.2700000000E+02    0.2452940949E-03    0.2402653564E-04    0.5694801961E+00    0.3458084182E-03    0.7017705089E-03
    0.2900000000E+02    0.2595486161E-03    0.2543645398E-04    0.5767079619E+00    0.3689752161E-03    0.7536170840E-03
    0.3100000000E+02    0.2737775654E-03    0.2684426587E-04    0.5831544142E+00    0.3921668859E-03    0.8054449207E-03
    0.3300000000E+02    0.2879885048E-03    0.2825065122E-04    0.5889397573E+00    0.4153825087E-03    0.8572540319E-03
    0.3500000000E+02    0.3021869027E-03    0.2965609602E-04    0.5941607397E+00    0.4386206144E-03    0.9090444305E-03
    0.3700000000E+02    0.3163767200E-03    0.3106094735E-04    0.5988961090E+00    0.4618794482E-03    0.9608161292E-03
    0.3900000000E+02    0.3305608209E-03    0.3246545181E-04    0.6032106127E+00    0.4851571346E-03    0.1012569141E-02
    0.4100000000E+02    0.3447412643E-03    0.3386978267E-04    0.6071579770E+00    0.5084517792E-03    0.1064303478E-02
    0.4300000000E+02    0.3589195136E-03    0.3527405935E-04    0.6107831563E+00    0.5317615296E-03    0.1116019153E-02
    0.4500000000E+02    0.3730965890E-03    0.3667836152E-04    0.6141240530E+00    0.5550846108E-03    0.1167716178E-02
    0.4700000000E+02    0.3872731795E-03    0.3808273940E-04    0.6172128486E+00    0.5784193443E-03    0.1219394567E-02
    0.4900000000E+02    0.4014497258E-03    0.3948722139E-04    0.6200770435E+00    0.6017641569E-03    0.1271054330E-02
    0.1000000000E+02    0.1193184936E-03    0.1160594585E-04    0.4350877736E+00    0.1486336188E-03    0.2603161271E-03
    0.3000000000E+02    0.2666657571E-03    0.2614057540E-04    0.5800207133E+00    0.3805679825E-03    0.7795333438E-03
    0.5000000000E+02    0.4085380678E-03    0.4018950575E-04    0.6214324354E+00    0.6134398806E-03    0.1296877232E-02
    0.7000000000E+02    0.5503083778E-03    0.5423891804E-04    0.6410511806E+00    0.8471822047E-03    0.1812360496E-02
    0.9000000000E+02    0.6919494399E-03    0.6827892316E-04    0.6524968821E+00    0.1080818716E-02    0.2325995418E-02
    0.1100000000E+03    0.8332484142E-03    0.8228658004E-04    0.6599966223E+00    0.1313894505E-02    0.2837794111E-02
    0.1300000000E+03    0.9740508016E-03    0.9624600518E-04    0.6652910813E+00    0.1546184728E-02    0.3347768559E-02
    0.1500000000E+03    0.1114254884E-02    0.1101469363E-03    0.6692283396E+00    0.1777569116E-02    0.3855930634E-02
    0.1700000000E+03    0.1253793675E-02    0.1239826887E-03    0.6722710162E+00    0.2007979495E-02    0.4362292095E-02
    0.1900000000E+03    0.1392622421E-02    0.1377488299E-03    0.6746929222E+00    0.2237375821E-02    0.4866864596E-02
    0.2100000000E+03    0.1530710849E-02    0.1514423794E-03    0.6766664669E+00    0.2465734277E-02    0.5369659684E-02
    0.2300000000E+03    0.1668038379E-02    0.1650613211E-03    0.6783056214E+00    0.2693040911E-02    0.5870688804E-02
    0.2500000000E+03    0.1804591087E-02    0.1786042979E-03    0.6796887450E+00    0.2919288043E-02    0.6369963300E-02
    0.2700000000E+03    0.1940359746E-02    0.1920704149E-03    0.6808714865E+00    0.3144472121E-02    0.6867494414E-02
    0.2900000000E+03    0.2075338503E-02    0.2054591087E-03    0.6818944562E+00    0.3368592392E-02    0.7363293288E-02
    0.3100000000E+03    0.2209523990E-02    0.2187700587E-03    0.6827879848E+00    0.3591650052E-02    0.7857370968E-02
    0.3300000000E+03    0.2342914689E-02    0.2320031246E-03    0.6835751821E+00    0.3813647677E-02    0.8349738403E-02
    0.3500000000E+03    0.2475510489E-02    0.2451583030E-03    0.6842739655E+00    0.4034588840E-02    0.8840406444E-02
    0.3700000000E+03    0.2607312352E-02    0.2582356947E-03    0.6848984405E+00    0.4254477842E-02    0.9329385849E-02
    0.3900000000E+03    0.2738322077E-02    0.2712354816E-03    0.6854598636E+00    0.4473319524E-02    0.9816687282E-02
    0.4100000000E+03    0.2868542116E-02    0.2841579084E-03    0.6859673269E+00    0.4691119125E-02    0.1030232131E-01
    0.4300000000E+03    0.2997975438E-02    0.2970032699E-03    0.6864282542E+00    0.4907882185E-02    0.1078629842E-01
    0.4500000000E+03    0.3126625419E-02    0.3097718997E-03    0.6868487675E+00    0.5123614464E-02    0.1126862900E-01
    0.4700000000E+03    0.3254495760E-02    0.3224641631E-03    0.6872339596E+00    0.5338321890E-02    0.1174932335E-01
    0.4900000000E+03    0.3381590423E-02    0.3350804501E-03    0.6875881023E+00    0.5552010512E-02    0.1222839167E-01
    0.1000000000E+03    0.7626528173E-03    0.7528794818E-04    0.6566004171E+00    0.1197444145E-02    0.2582123541E-02
    0.3000000000E+03    0.2142530537E-02    0.2121243141E-03    0.6823558147E+00    0.3480253915E-02    0.7610546591E-02
    0.5000000000E+03    0.3444848172E-02    0.3413602298E-03    0.6877546803E+00    0.5658474687E-02    0.1246731924E-01
    0.7000000000E+03    0.4670373486E-02    0.4630743079E-03    0.6900956746E+00    0.7735794740E-02    0.1716293356E-01
    0.9000000000E+03    0.5823678572E-02    0.5777142836E-03    0.6914035547E+00    0.9718368050E-02    0.2170701652E-01
    0.1100000000E+04    0.6909529360E-02    0.6857454150E-03    0.6922386625E+00    0.1161213619E-01    0.2610841820E-01
    0.1300000000E+04    0.7932450328E-02    0.7876089544E-03    0.6928181434E+00    0.1342262282E-01    0.3037528904E-01
    0.1500000000E+04    0.8896646843E-02    0.8837148929E-03    0.6932438115E+00    0.1515492771E-01    0.3451514820E-01
    0.1700000000E+04    0.9806003033E-02    0.9744418741E-03    0.6935697453E+00    0.1681375423E-01    0.3853494387E-01
    0.1900000000E+04    0.1066409979E-01    0.1060138999E-02    0.6938273299E+00    0.1840344242E-01    0.4244110691E-01
    0.2100000000E+04    0.1147423796E-01    0.1141128106E-02    0.6940360304E+00    0.1992800134E-01    0.4623959846E-01
    0.2300000000E+04    0.1223946199E-01    0.1217706085E-02    0.6942085610E+00    0.2139113893E-01    0.4993595242E-01
    0.2500000000E+04    0.1296258236E-01    0.1290147058E-02    0.6943535780E+00    0.2279628919E-01    0.5353531340E-01
    0.2700000000E+04    0.1364619627E-01    0.1358704404E-02    0.6944771792E+00    0.2414663657E-01    0.5704247065E-01
    0.2900000000E+04    0.1429270650E-01    0.1423612583E-02    0.6945837841E+00    0.2544513800E-01    0.6046188855E-01
    0.3100000000E+04    0.1490433847E-01    0.1485088803E-02    0.6946766745E+00    0.2669454265E-01    0.6379773393E-01
    0.3300000000E+04    0.1548315570E-01    0.1543334519E-02    0.6947583380E+00    0.2789740970E-01    0.6705390074E-01
    0.3500000000E+04    0.1603107372E-01    0.1598536785E-02    0.6948306950E+00    0.2905612439E-01    0.7023403231E-01
    0.3700000000E+04    0.1654987260E-01    0.1650869475E-02    0.6948952513E+00    0.3017291240E-01    0.7334154134E-01
    0.3900000000E+04    0.1704120837E-01    0.1700494388E-02    0.6949532046E+00    0.3124985296E-01    0.7637962816E-01
    0.4100000000E+04    0.1750662323E-01    0.1747562245E-02    0.6950055190E+00    0.3228889057E-01    0.7935129718E-01
    0.4300000000E+04    0.1794755486E-01    0.1792213590E-02    0.6950529800E+00    0.3329184574E-01    0.8225937183E-01
    0.4500000000E+04    0.1836534481E-01    0.1834579608E-02    0.6950962332E+00    0.3426042463E-01    0.8510650820E-01
    0.4700000000E+04    0.1876124618E-01    0.1874782869E-02    0.6951358150E+00    0.3519622787E-01    0.8789520740E-01
    0.4900000000E+04    0.1913643048E-01    0.1912937997E-02    0.6951721739E+00    0.3610075857E-01    0.9062782690E-01
    0.1000000000E+04    0.6374745789E-02    0.6325276704E-03    0.6918625872E+00    0.1067599738E-01    0.2392502756E-01
    0.3000000000E+04    0.1460274967E-01    0.1454766744E-02    0.6946317726E+00    0.2607581322E-01    0.6214000831E-01
    0.5000000000E+04    0.1931659910E-01    0.1931281313E-02    0.6951892654E+00    0.3654174157E-01    0.9197380674E-01
    0.7000000000E+04    0.2206411228E-01    0.2213321374E-02    0.6954287596E+00    0.4402129087E-01    0.1164279473E+00
    0.9000000000E+04    0.2363798598E-01    0.2378582151E-02    0.6955620186E+00    0.4955800625E-01    0.1371727107E+00
    0.1100000000E+05    0.2447830471E-01    0.2470348103E-02    0.6956469217E+00    0.5376065508E-01    0.1552179994E+00
    0.1300000000E+05    0.2484481456E-01    0.2514265831E-02    0.6957057601E+00    0.5700821225E-01    0.1712144891E+00
    0.1500000000E+05    0.2489826716E-01    0.2526275790E-02    0.6957489463E+00    0.5954900857E-01    0.1856030454E+00
    0.1700000000E+05    0.2474194268E-01    0.2516668044E-02    0.6957819973E+00    0.6155265461E-01    0.1986948483E+00
    0.1900000000E+05    0.2444421082E-01    0.2492290087E-02    0.6958081092E+00    0.6313902297E-01    0.2107171191E+00
    0.2100000000E+05    0.2405143081E-01    0.2457811856E-02    0.6958292617E+00    0.6439529422E-01    0.2218405842E+00
    0.2300000000E+05    0.2359564731E-01    0.2416482096E-02    0.6958467465E+00    0.6538643132E-01    0.2321966923E+00
    0.2500000000E+05    0.2309934909E-01    0.2370597195E-02    0.6958614426E+00    0.6616185999E-01    0.2418888053E+00
    0.2700000000E+05    0.2257850293E-01    0.2321800857E-02    0.6958739686E+00    0.6675986785E-01    0.2509997050E+00
    0.2900000000E+05    0.2204453957E-01    0.2271280812E-02    0.6958847727E+00    0.6721058344E-01    0.2595967667E+00
    0.3100000000E+05    0.2150568376E-01    0.2219900952E-02    0.6958941877E+00    0.6753804333E-01    0.2677356121E+00
    0.3300000000E+05    0.2096786313E-01    0.2168291908E-02    0.6959024656E+00    0.6776165810E-01    0.2754627426E+00
    0.3500000000E+05    0.2043534016E-01    0.2116914245E-02    0.6959098009E+00    0.6789727211E-01    0.2828174754E+00
    0.3700000000E+05    0.1991115857E-01    0.2066103265E-02    0.6959163464E+00    0.6795794315E-01    0.2898333906E+00
    0.3900000000E+05    0.1939746289E-01    0.2016101202E-02    0.6959222231E+00    0.6795452497E-01    0.2965394300E+00
    0.4100000000E+05    0.1889573011E-01    0.1967080655E-02    0.6959275289E+00    0.6789610878E-01    0.3029607426E+00
    0.4300000000E+05    0.1840693933E-01    0.1919161829E-02    0.6959323431E+00    0.6779036210E-01    0.3091193446E+00
    0.4500000000E+05    0.1793169719E-01    0.1872425343E-02    0.6959367312E+00    0.6764379211E-01    0.3150346397E+00
    0.4700000000E+05    0.1747033145E-01    0.1826921831E-02    0.6959407475E+00    0.6746195226E-01    0.3207238346E+00
    0.4900000000E+05    0.1702296119E-01    0.1782679189E-02    0.6959444374E+00    0.6724960627E-01    0.3262022727E+00
    0.1000000000E+05    0.2413060307E-01    0.2431754988E-02    0.6956087040E+00    0.5179849824E-01    0.1464859182E+00
    0.3000000000E+05    0.2177530740E-01    0.2245654325E-02    0.6958896365E+00    0.6738841280E-01    0.2637203719E+00
    0.5000000000E+05    0.1680451785E-01    0.1761034580E-02    0.6959461722E+00    0.6713329899E-01    0.3288668115E+00
    0.7000000000E+05    0.1311627316E-01    0.1391688825E-02    0.6959704999E+00    0.6395155286E-01    0.3737980373E+00
    0.9000000000E+05    0.1047058294E-01    0.1122323887E-02    0.6959840595E+00    0.6016905899E-01    0.4074477136E+00
    0.1100000000E+06    0.8536457951E-02    0.9229391130E-03    0.6959927125E+00    0.5643734277E-01    0.4338460817E+00
    0.1300000000E+06    0.7087033598E-02    0.7720042394E-03    0.6959987180E+00    0.5295717218E-01    0.4552110961E+00
    0.1500000000E+06    0.5975244616E-02    0.6552353629E-03    0.6960031321E+00    0.4977926981E-01    0.4729039056E+00
    0.1700000000E+06    0.5104710079E-02    0.5631237209E-03    0.6960065145E+00    0.4690011560E-01    0.4878201430E+00
    0.1900000000E+06    0.4410743047E-02    0.4892106255E-03    0.6960091900E+00    0.4429699883E-01    0.5005788574E+00
    0.2100000000E+06    0.3848813862E-02    0.4290064236E-03    0.6960113597E+00    0.4194179548E-01    0.5116241066E+00
    0.2300000000E+06    0.3387527494E-02    0.3793194593E-03    0.6960131552E+00    0.3980648485E-01    0.5212838988E+00
    0.2500000000E+06    0.3004262948E-02    0.3378334427E-03    0.6960146657E+00    0.3786524991E-01    0.5298063889E+00
    0.2700000000E+06    0.2682399534E-02    0.3028355901E-03    0.6960159544E+00    0.3609512086E-01    0.5373831164E+00
    0.2900000000E+06    0.2409509311E-02    0.2730378137E-03    0.6960170670E+00    0.3447600000E-01    0.5441644675E+00
    0.3100000000E+06    0.2176151942E-02    0.2474565538E-03    0.6960180373E+00    0.3299043901E-01    0.5502702757E+00
    0.3300000000E+06    0.1975054015E-02    0.2253303799E-03    0.6960188911E+00    0.3162333507E-01    0.5557972734E+00
    0.3500000000E+06    0.1800539280E-02    0.2060624287E-03    0.6960196483E+00    0.3036161938E-01    0.5608244452E+00
    0.3700000000E+06    0.1648126019E-02    0.1891795016E-03    0.6960203244E+00    0.2919396866E-01    0.5654169477E+00
    0.3900000000E+06    0.1514237886E-02    0.1743025392E-03    0.6960209319E+00    0.2811055025E-01    0.5696290263E+00
    0.4100000000E+06    0.1395993154E-02    0.1611250019E-03    0.6960214807E+00    0.2710280232E-01    0.5735062202E+00
    0.4300000000E+06    0.1291049000E-02    0.1493968269E-03    0.6960219790E+00    0.2616324685E-01    0.5770870497E+00
    0.4500000000E+06    0.1197485020E-02    0.1389123789E-03    0.6960224335E+00    0.2528533143E-01    0.5804043243E+00
    0.4700000000E+06    0.1113715068E-02    0.1295012963E-03    0.6960228497E+00    0.2446329603E-01    0.5834861673E+00
    0.4900000000E+06    0.1038419838E-02    0.1210214663E-03    0.6960232322E+00    0.2369206073E-01    0.5863568266E+00
    0.1000000000E+06    0.9431032006E-02    0.1015431902E-02    0.6959888158E+00    0.5827890391E-01    0.4213876994E+00
    0.3000000000E+06    0.2288386738E-02    0.2597721428E-03    0.6960175682E+00    0.3371751970E-01    0.5472952984E+00
    0.5000000000E+06    0.1003597856E-02    0.1170927193E-03    0.6960234122E+00    0.2332406801E-01    0.5877196422E+00
    0.7000000000E+06    0.5601217840E-03    0.6658060005E-04    0.6960259410E+00    0.1777517915E-01    0.6077673229E+00
    0.9000000000E+06    0.3565688254E-03    0.4298700774E-04    0.6960273555E+00    0.1434113774E-01    0.6197485115E+00
    0.1100000000E+07    0.2466435214E-03    0.3007361586E-04    0.6960282601E+00    0.1201066187E-01    0.6277154364E+00
    0.1300000000E+07    0.1806566910E-03    0.2223688658E-04    0.6960288886E+00    0.1032698248E-01    0.6333951052E+00
    0.1500000000E+07    0.1379809448E-03    0.1712184679E-04    0.6960293507E+00    0.9054355292E-02    0.6376481879E+00
    0.1700000000E+07    0.1088086543E-03    0.1359743341E-04    0.6960297047E+00    0.8058999607E-02    0.6409517512E+00
    0.1900000000E+07    0.8799393061E-04    0.1106508946E-04    0.6960299844E+00    0.7259419401E-02    0.6435915424E+00
    0.2100000000E+07    0.7262655815E-04    0.9183771134E-05    0.6960302109E+00    0.6603161937E-02    0.6457491468E+00
    0.2300000000E+07    0.6096045636E-04    0.7747500994E-05    0.6960303980E+00    0.6054950962E-02    0.6475454789E+00
    0.2500000000E+07    0.5189664856E-04    0.6625865869E-05    0.6960305549E+00    0.5590194305E-02    0.6490641628E+00
    0.2700000000E+07    0.4471552431E-04    0.5733009859E-05    0.6960306885E+00    0.5191227252E-02    0.6503648754E+00
    0.2900000000E+07    0.3892993686E-04    0.5010524629E-05    0.6960308034E+00    0.4845035789E-02    0.6514913439E+00
    0.3100000000E+07    0.3420061088E-04    0.4417545961E-05    0.6960309033E+00    0.4541821831E-02    0.6524763389E+00
    0.3300000000E+07    0.3028539300E-04    0.3924784160E-05    0.6960309908E+00    0.4274068435E-02    0.6533449030E+00
    0.3500000000E+07    0.2700771387E-04    0.3510797992E-05    0.6960310681E+00    0.4035912972E-02    0.6541165010E+00
    0.3700000000E+07    0.2423637967E-04    0.3159597387E-05    0.6960311368E+00    0.3822716110E-02    0.6548064907E+00
    0.3900000000E+07    0.2187227039E-04    0.2859059472E-05    0.6960311983E+00    0.3630758807E-02    0.6554271513E+00
    0.4100000000E+07    0.1983937362E-04    0.2599857033E-05    0.6960312535E+00    0.3457025070E-02    0.6559884179E+00
    0.4300000000E+07    0.1807861121E-04    0.2374718282E-05    0.6960313033E+00    0.3299043443E-02    0.6564984150E+00
    0.4500000000E+07    0.1654350738E-04    0.2177905744E-05    0.6960313486E+00    0.3154769512E-02    0.6569638507E+00
    0.4700000000E+07    0.1519709618E-04    0.2004843132E-05    0.6960313897E+00    0.3022497555E-02    0.6573903129E+00
    0.4900000000E+07    0.1400967932E-04    0.1851844024E-05    0.6960314273E+00    0.2900793246E-02    0.6577824931E+00
    0.1000000000E+07    0.2940650916E-03    0.3566314449E-04    0.6960278525E+00    0.1307391851E-01    0.6240962378E+00
    0.3000000000E+07    0.3645021281E-04    0.4699897036E-05    0.6960308550E+00    0.4688571380E-02    0.6519998086E+00
    0.5000000000E+07    0.1346788528E-04    0.1781909254E-05    0.6960314449E+00    0.2843516929E-02    0.6579669919E+00
    0.7000000000E+07    0.6988580763E-05    0.9379458469E-06    0.6960316838E+00    0.2036813673E-02    0.6605612150E+00
    0.9000000000E+07    0.4293151171E-05    0.5809450524E-06    0.6960318056E+00    0.1585086539E-02    0.6620108294E+00
    0.1100000000E+08    0.2919035421E-05    0.3967253720E-06    0.6960318746E+00    0.1296531666E-02    0.6629359660E+00
    0.1300000000E+08    0.2124258092E-05    0.2891780074E-06    0.6960319155E+00    0.1096372810E-02    0.6635774427E+00
    0.1500000000E+08    0.1623092620E-05    0.2208617342E-06    0.6960319399E+00    0.9494430996E-03    0.6640482676E+00
    0.1700000000E+08    0.1286535722E-05    0.1747132876E-06    0.6960319539E+00    0.8370336355E-03    0.6644084814E+00
    0.1900000000E+08    0.1049411686E-05    0.1420442065E-06    0.6960319609E+00    0.7482775561E-03    0.6646929277E+00
    0.2100000000E+08    0.8759046425E-06    0.1180479182E-06    0.6960319632E+00    0.6764325372E-03    0.6649232131E+00
    0.2300000000E+08    0.7450031588E-06    0.9988822267E-07    0.6960319621E+00    0.6170943652E-03    0.6651134458E+00
    0.2500000000E+08    0.6437180669E-06    0.8580282917E-07    0.6960319585E+00    0.5672647340E-03    0.6652732281E+00
    0.2700000000E+08    0.5636671736E-06    0.7464934055E-07    0.6960319530E+00    0.5248319800E-03    0.6654093217E+00
