  Pressure (Pa) 22mC5-500 (mol/kg) 23mC5-500 (mol/kg) 24mC5-500 (mol/kg) 2mC6-500 (mol/kg) 3mC6-500 (mol/kg)
    0.1000000000E+01    0.1744928947E-04    0.2534661511E-05    0.2142838982E+00    0.4910236486E-05    0.1042163987E-04
    0.3000000000E+01    0.3844377314E-04    0.5602494618E-05    0.3978607525E+00    0.1168427306E-04    0.3126179817E-04
    0.5000000000E+01    0.5466151757E-04    0.7989554273E-05    0.4801269863E+00    0.1762420595E-04    0.5209789909E-04
    0.7000000000E+01    0.6961699236E-04    0.1019989326E-04    0.5268119396E+00    0.2343156502E-04    0.7292997744E-04
    0.9000000000E+01    0.8415028268E-04    0.1235265681E-04    0.5568955137E+00    0.2923219705E-04    0.9375804556E-04
    0.1100000000E+02    0.9853294630E-04    0.1448583758E-04    0.5778963293E+00    0.3505217759E-04    0.1145821097E-03
    0.1300000000E+02    0.1128677340E-03    0.1661355574E-04    0.5933883211E+00    0.4089480611E-04    0.1354021739E-03
    0.1500000000E+02    0.1271967893E-03    0.1874145367E-04    0.6052877726E+00    0.4675783548E-04    0.1562182410E-03
    0.1700000000E+02    0.1415377302E-03    0.2087178897E-04    0.6147145187E+00    0.5263798258E-04    0.1770303135E-03
    0.1900000000E+02    0.1558974621E-03    0.2300536648E-04    0.6223667772E+00    0.5853215300E-04    0.1978383934E-03
    0.2100000000E+02    0.1702780010E-03    0.2514234400E-04    0.6287025028E+00    0.6443772350E-04    0.2186424828E-03
    0.2300000000E+02    0.1846791029E-03    0.2728259137E-04    0.6340345476E+00    0.7035254752E-04    0.2394425833E-03
    0.2500000000E+02    0.1990995096E-03    0.2942585772E-04    0.6385839127E+00    0.7627488774E-04    0.2602386967E-03
    0.2700000000E+02    0.2135375555E-03    0.3157185113E-04    0.6425111518E+00    0.8220333909E-04    0.2810308248E-03
    0.2900000000E+02    0.2279914680E-03    0.3372027673E-04    0.6459357154E+00    0.8813676086E-04    0.3018189690E-03
    0.3100000000E+02    0.2424595125E-03    0.3587085419E-04    0.6489483130E+00    0.9407422145E-04    0.3226031310E-03
    0.3300000000E+02    0.2569400598E-03    0.3802332502E-04    0.6516190672E+00    0.1000149548E-03    0.3433833123E-03
    0.3500000000E+02    0.2714316126E-03    0.4017745475E-04    0.6540030402E+00    0.1059583266E-03    0.3641595146E-03
    0.3700000000E+02    0.2859328115E-03    0.4233303253E-04    0.6561440713E+00    0.1119038078E-03    0.3849317393E-03
    0.3900000000E+02    0.3004424304E-03    0.4448986964E-04    0.6580774973E+00    0.1178509541E-03    0.4056999879E-03
    0.4100000000E+02    0.3149593672E-03    0.4664779747E-04    0.6598321187E+00    0.1237993901E-03    0.4264642620E-03
    0.4300000000E+02    0.3294826323E-03    0.4880666545E-04    0.6614316442E+00    0.1297487964E-03    0.4472245631E-03
    0.4500000000E+02    0.3440113379E-03    0.5096633902E-04    0.6628957682E+00    0.1356989000E-03    0.4679808926E-03
    0.4700000000E+02    0.3585446864E-03    0.5312669777E-04    0.6642409862E+00    0.1416494659E-03    0.4887332521E-03
    0.4900000000E+02    0.3730819603E-03    0.5528763377E-04    0.6654812186E+00    0.1476002909E-03    0.5094816431E-03
    0.1000000000E+02    0.9135190132E-04    0.1342051482E-04    0.5682531841E+00    0.3213933541E-04    0.1041705779E-03
    0.3000000000E+02    0.2352238285E-03    0.3479531318E-04    0.6474887196E+00    0.9110503762E-04    0.3122115477E-03
    0.5000000000E+02    0.3803518648E-03    0.5636828756E-04    0.6660657325E+00    0.1505757446E-03    0.5198543508E-03
    0.7000000000E+02    0.5258291705E-03    0.7799272490E-04    0.6743583655E+00    0.2100657894E-03    0.7271005179E-03
    0.9000000000E+02    0.6712457755E-03    0.9960750794E-04    0.6790555367E+00    0.2694718134E-03    0.9339515171E-03
    0.1100000000E+03    0.8164297037E-03    0.1211874190E-03    0.6820790375E+00    0.3287597722E-03    0.1140408799E-02
    0.1300000000E+03    0.9612964749E-03    0.1427201862E-03    0.6841881576E+00    0.3879154170E-03    0.1346473805E-02
    0.1500000000E+03    0.1105799768E-02    0.1641991264E-03    0.6857432258E+00    0.4469319089E-03    0.1552147964E-02
    0.1700000000E+03    0.1249912208E-02    0.1856203122E-03    0.6869372244E+00    0.5058057002E-03    0.1757432701E-02
    0.1900000000E+03    0.1393616764E-02    0.2069813132E-03    0.6878828334E+00    0.5645348893E-03    0.1962329431E-02
    0.2100000000E+03    0.1536902485E-02    0.2282805750E-03    0.6886502641E+00    0.6231184723E-03    0.2166839561E-02
    0.2300000000E+03    0.1679762196E-02    0.2495170853E-03    0.6892855439E+00    0.6815559694E-03    0.2370964494E-02
    0.2500000000E+03    0.1822191179E-02    0.2706901836E-03    0.6898201035E+00    0.7398472225E-03    0.2574705622E-02
    0.2700000000E+03    0.1964186376E-02    0.2917994465E-03    0.6902761383E+00    0.7979922801E-03    0.2778064332E-02
    0.2900000000E+03    0.2105745886E-02    0.3128446150E-03    0.6906697683E+00    0.8559913277E-03    0.2981042005E-02
    0.3100000000E+03    0.2246868634E-02    0.3338255475E-03    0.6910129836E+00    0.9138446447E-03    0.3183640012E-02
    0.3300000000E+03    0.2387554147E-02    0.3547421882E-03    0.6913148875E+00    0.9715525755E-03    0.3385859720E-02
    0.3500000000E+03    0.2527802405E-02    0.3755945450E-03    0.6915825161E+00    0.1029115511E-02    0.3587702488E-02
    0.3700000000E+03    0.2667613728E-02    0.3963826738E-03    0.6918213932E+00    0.1086533877E-02    0.3789169668E-02
    0.3900000000E+03    0.2806988696E-02    0.4171066673E-03    0.6920359164E+00    0.1143808122E-02    0.3990262606E-02
    0.4100000000E+03    0.2945928095E-02    0.4377666472E-03    0.6922296298E+00    0.1200938714E-02    0.4190982640E-02
    0.4300000000E+03    0.3084432868E-02    0.4583627572E-03    0.6924054215E+00    0.1257926133E-02    0.4391331104E-02
    0.4500000000E+03    0.3222504088E-02    0.4788951590E-03    0.6925656690E+00    0.1314770871E-02    0.4591309322E-02
    0.4700000000E+03    0.3360142925E-02    0.4993640284E-03    0.6927123470E+00    0.1371473426E-02    0.4790918615E-02
    0.4900000000E+03    0.3497350634E-02    0.5197695526E-03    0.6928471091E+00    0.1428034301E-02    0.4990160294E-02
    0.1000000000E+03    0.7438733482E-03    0.1104027722E-03    0.6807151173E+00    0.2991316943E-03    0.1037229283E-02
    0.3000000000E+03    0.2176361897E-02    0.3233431159E-03    0.6908470524E+00    0.8849361823E-03    0.3082388381E-02
    0.5000000000E+03    0.3565793225E-02    0.5299486211E-03    0.6929104666E+00    0.1456261768E-02    0.5089643687E-02
    0.7000000000E+03    0.4912357473E-02    0.7302556973E-03    0.6937987794E+00    0.2013497999E-02    0.7060328082E-02
    0.9000000000E+03    0.6217516335E-02    0.9244801365E-03    0.6942933698E+00    0.2557151929E-02    0.8995710384E-02
    0.1100000000E+04    0.7482831088E-02    0.1112851007E-02    0.6946085313E+00    0.3087719371E-02    0.1089699926E-01
    0.1300000000E+04    0.8709832387E-02    0.1295592497E-02    0.6948269220E+00    0.3605675201E-02    0.1276534680E-01
    0.1500000000E+04    0.9899992506E-02    0.1472920105E-02    0.6949871857E+00    0.4111472481E-02    0.1460185180E-01
    0.1700000000E+04    0.1105471908E-01    0.1645039811E-02    0.6951098066E+00    0.4605543107E-02    0.1640756289E-01
    0.1900000000E+04    0.1217535501E-01    0.1812148104E-02    0.6952066554E+00    0.5088298825E-02    0.1818348135E-01
    0.2100000000E+04    0.1326318054E-01    0.1974432300E-02    0.6952850860E+00    0.5560132293E-02    0.1993056377E-01
    0.2300000000E+04    0.1431941596E-01    0.2132070950E-02    0.6953498972E+00    0.6021418135E-02    0.2164972461E-01
    0.2500000000E+04    0.1534522465E-01    0.2285234283E-02    0.6954043540E+00    0.6472513937E-02    0.2334183844E-01
    0.2700000000E+04    0.1634171602E-01    0.2434084647E-02    0.6954507546E+00    0.6913761195E-02    0.2500774216E-01
    0.2900000000E+04    0.1730994840E-01    0.2578776927E-02    0.6954907642E+00    0.7345486199E-02    0.2664823704E-01
    0.3100000000E+04    0.1825093186E-01    0.2719458955E-02    0.6955256184E+00    0.7768000868E-02    0.2826409056E-01
    0.3300000000E+04    0.1916563076E-01    0.2856271893E-02    0.6955562536E+00    0.8181603525E-02    0.2985603826E-01
    0.3500000000E+04    0.2005496626E-01    0.2989350588E-02    0.6955833924E+00    0.8586579632E-02    0.3142478536E-01
    0.3700000000E+04    0.2091981865E-01    0.3118823919E-02    0.6956076012E+00    0.8983202471E-02    0.3297100835E-01
    0.3900000000E+04    0.2176102951E-01    0.3244815111E-02    0.6956293304E+00    0.9371733786E-02    0.3449535644E-01
    0.4100000000E+04    0.2257940379E-01    0.3367442038E-02    0.6956489425E+00    0.9752424386E-02    0.3599845294E-01
    0.4300000000E+04    0.2337571172E-01    0.3486817502E-02    0.6956667327E+00    0.1012551471E-01    0.3748089657E-01
    0.4500000000E+04    0.2415069062E-01    0.3603049498E-02    0.6956829435E+00    0.1049123536E-01    0.3894326267E-01
    0.4700000000E+04    0.2490504662E-01    0.3716241466E-02    0.6956977766E+00    0.1084980758E-01    0.4038610432E-01
    0.4900000000E+04    0.2563945626E-01    0.3826492518E-02    0.6957114004E+00    0.1120144376E-01    0.4180995347E-01
    0.1000000000E+04    0.6855057343E-02    0.1019383073E-02    0.6944666669E+00    0.2824041267E-02    0.9950543209E-02
    0.3000000000E+04    0.1778378493E-01    0.2649610248E-02    0.6955087713E+00    0.7557875871E-02    0.2745919727E-01
    0.5000000000E+04    0.2599938489E-01    0.3880545046E-02    0.6957178042E+00    0.1137472488E-01    0.4251491655E-01
    0.7000000000E+04    0.3229493932E-01    0.4828326306E-02    0.6958074991E+00    0.1452174402E-01    0.5573183852E-01
    0.9000000000E+04    0.3718983098E-01    0.5569099588E-02    0.6958573723E+00    0.1716387656E-01    0.6752779839E-01
    0.1100000000E+05    0.4103701757E-01    0.6154675741E-02    0.6958891317E+00    0.1941542923E-01    0.7819767912E-01
    0.1300000000E+05    0.4408394155E-01    0.6621424506E-02    0.6959111321E+00    0.2135814958E-01    0.8795603583E-01
    0.1500000000E+05    0.4650870008E-01    0.6995558820E-02    0.6959272744E+00    0.2305207872E-01    0.9696305703E-01
    0.1700000000E+05    0.4844239923E-01    0.7296402728E-02    0.6959396245E+00    0.2454233457E-01    0.1053410143E+00
    0.1900000000E+05    0.4998345152E-01    0.7538482888E-02    0.6959493789E+00    0.2586349994E-01    0.1131850430E+00
    0.2100000000E+05    0.5120699587E-01    0.7732907513E-02    0.6959572787E+00    0.2704254696E-01    0.1205704167E+00
    0.2300000000E+05    0.5217126681E-01    0.7888299384E-02    0.6959638072E+00    0.2810083720E-01    0.1275575820E+00
    0.2500000000E+05    0.5292200019E-01    0.8011441719E-02    0.6959692932E+00    0.2905552135E-01    0.1341957223E+00
    0.2700000000E+05    0.5349554314E-01    0.8107734415E-02    0.6959739681E+00    0.2992053883E-01    0.1405253310E+00
    0.2900000000E+05    0.5392108931E-01    0.8181522231E-02    0.6959779997E+00    0.3070734459E-01    0.1465801028E+00
    0.3100000000E+05    0.5422231172E-01    0.8236334718E-02    0.6959815122E+00    0.3142544645E-01    0.1523883457E+00
    0.3300000000E+05    0.5441857335E-01    0.8275064230E-02    0.6959845999E+00    0.3208280811E-01    0.1579740515E+00
    0.3500000000E+05    0.5452583644E-01    0.8300099772E-02    0.6959873356E+00    0.3268615561E-01    0.1633577167E+00
    0.3700000000E+05    0.5455735416E-01    0.8313428873E-02    0.6959897762E+00    0.3324121311E-01    0.1685569809E+00
    0.3900000000E+05    0.5452420236E-01    0.8316715989E-02    0.6959919672E+00    0.3375288650E-01    0.1735871280E+00
    0.4100000000E+05    0.5443569271E-01    0.8311363466E-02    0.6959939450E+00    0.3422540771E-01    0.1784614837E+00
    0.4300000000E+05    0.5429969673E-01    0.8298559402E-02    0.6959957393E+00    0.3466244932E-01    0.1831917339E+00
    0.4500000000E+05    0.5412290209E-01    0.8279315533E-02    0.6959973745E+00    0.3506721632E-01    0.1877881821E+00
    0.4700000000E+05    0.5391101704E-01    0.8254497488E-02    0.6959988710E+00    0.3544252025E-01    0.1922599582E+00
    0.4900000000E+05    0.5366893470E-01    0.8224849122E-02    0.6960002457E+00    0.3579083949E-01    0.1966151909E+00
    0.1000000000E+05    0.3922695974E-01    0.5878726863E-02    0.6958748375E+00    0.1833275566E-01    0.7298856963E-01
    0.3000000000E+05    0.5408594167E-01    0.8211106434E-02    0.6959798143E+00    0.3107445358E-01    0.1495134504E+00
    0.5000000000E+05    0.5353790900E-01    0.8208417653E-02    0.6960008919E+00    0.3595557561E-01    0.1987514052E+00
    0.7000000000E+05    0.5009378536E-01    0.7742908219E-02    0.6960099488E+00    0.3825430355E-01    0.2367773488E+00
    0.9000000000E+05    0.4611546054E-01    0.7177749322E-02    0.6960149911E+00    0.3933007716E-01    0.2682444048E+00
    0.1100000000E+06    0.4224270624E-01    0.6615372462E-02    0.6960182058E+00    0.3972080152E-01    0.2951878465E+00
    0.1300000000E+06    0.3866428730E-01    0.6088334522E-02    0.6960204350E+00    0.3969235040E-01    0.3187206001E+00
    0.1500000000E+06    0.3542354585E-01    0.5605939321E-02    0.6960220722E+00    0.3939489472E-01    0.3395428186E+00
    0.1700000000E+06    0.3251239528E-01    0.5168863189E-02    0.6960233259E+00    0.3892082296E-01    0.3581380851E+00
    0.1900000000E+06    0.2990481857E-01    0.4774501929E-02    0.6960243169E+00    0.3833029765E-01    0.3748624780E+00
    0.2100000000E+06    0.2756986997E-01    0.4419119939E-02    0.6960251201E+00    0.3766403626E-01    0.3899901958E+00
    0.2300000000E+06    0.2547688884E-01    0.4098758250E-02    0.6960257843E+00    0.3695033049E-01    0.4037392429E+00
    0.2500000000E+06    0.2359751885E-01    0.3809619412E-02    0.6960263429E+00    0.3620918756E-01    0.4162870388E+00
    0.2700000000E+06    0.2190635672E-01    0.3548219484E-02    0.6960268192E+00    0.3545491288E-01    0.4277805193E+00
    0.2900000000E+06    0.2038100587E-01    0.3311433353E-02    0.6960272302E+00    0.3469779207E-01    0.4383430213E+00
    0.3100000000E+06    0.1900188102E-01    0.3096491263E-02    0.6960275885E+00    0.3394522440E-01    0.4480791781E+00
    0.3300000000E+06    0.1775192201E-01    0.2900954088E-02    0.6960279036E+00    0.3320250758E-01    0.4570785251E+00
    0.3500000000E+06    0.1661628976E-01    0.2722680696E-02    0.6960281829E+00    0.3247339298E-01    0.4654182302E+00
    0.3700000000E+06    0.1558207667E-01    0.2559793872E-02    0.6960284323E+00    0.3176048539E-01    0.4731652103E+00
    0.3900000000E+06    0.1463804457E-01    0.2410647818E-02    0.6960286562E+00    0.3106553493E-01    0.4803778024E+00
    0.4100000000E+06    0.1377439386E-01    0.2273798512E-02    0.6960288585E+00    0.3038965267E-01    0.4871071038E+00
    0.4300000000E+06    0.1298256325E-01    0.2147977353E-02    0.6960290421E+00    0.2973347139E-01    0.4933980600E+00
    0.4500000000E+06    0.1225505738E-01    0.2032068050E-02    0.6960292094E+00    0.2909726644E-01    0.4992903581E+00
    0.4700000000E+06    0.1158529940E-01    0.1925086535E-02    0.6960293626E+00    0.2848104703E-01    0.5048191661E+00
    0.4900000000E+06    0.1096750495E-01    0.1826163591E-02    0.6960295035E+00    0.2788462568E-01    0.5100157497E+00
    0.1000000000E+06    0.4414880792E-01    0.6893344388E-02    0.6960167585E+00    0.3959067545E-01    0.2821987823E+00
    0.3000000000E+06    0.1967428705E-01    0.3201391633E-02    0.6960274153E+00    0.3432056614E-01    0.4433084785E+00
    0.5000000000E+06    0.1067647636E-01    0.1779480127E-02    0.6960295697E+00    0.2759374019E-01    0.5124982901E+00
    0.7000000000E+06    0.6622605768E-02    0.1122868031E-02    0.6960304990E+00    0.2269632377E-01    0.5500937935E+00
    0.9000000000E+06    0.4486119200E-02    0.7708268171E-03    0.6960310178E+00    0.1916383126E-01    0.5733874753E+00
    0.1100000000E+07    0.3231416640E-02    0.5613275963E-03    0.6960313490E+00    0.1653842455E-01    0.5891239584E+00
    0.1300000000E+07    0.2434852303E-02    0.4268808791E-03    0.6960315789E+00    0.1452453403E-01    0.6004231206E+00
    0.1500000000E+07    0.1898715761E-02    0.3355607341E-03    0.6960317479E+00    0.1293646530E-01    0.6089099169E+00
    0.1700000000E+07    0.1521136381E-02    0.2707372772E-03    0.6960318772E+00    0.1165470755E-01    0.6155082659E+00
    0.1900000000E+07    0.1245444360E-02    0.2230746960E-03    0.6960319794E+00    0.1059978490E-01    0.6207800999E+00
    0.2100000000E+07    0.1038133969E-02    0.1870096876E-03    0.6960320622E+00    0.9717129114E-02    0.6250858962E+00
    0.2300000000E+07    0.8783886913E-03    0.1590618944E-03    0.6960321306E+00    0.8968174479E-02    0.6286670967E+00
    0.2500000000E+07    0.7527334638E-03    0.1369644382E-03    0.6960321880E+00    0.8324958890E-02    0.6316912804E+00
    0.2700000000E+07    0.6521387122E-03    0.1191897934E-03    0.6960322369E+00    0.7766747125E-02    0.6342782893E+00
    0.2900000000E+07    0.5703726295E-03    0.1046783456E-03    0.6960322790E+00    0.7277855452E-02    0.6365160336E+00
    0.3100000000E+07    0.5030233942E-03    0.9267641455E-04    0.6960323156E+00    0.6846211540E-02    0.6384704265E+00
    0.3300000000E+07    0.4468975436E-03    0.8263608118E-04    0.6960323477E+00    0.6462377363E-02    0.6401918380E+00
    0.3500000000E+07    0.3996379467E-03    0.7415128197E-04    0.6960323762E+00    0.6118871356E-02    0.6417194077E+00
    0.3700000000E+07    0.3594744146E-03    0.6691590997E-04    0.6960324015E+00    0.5809688649E-02    0.6430840010E+00
    0.3900000000E+07    0.3250568642E-03    0.6069567252E-04    0.6960324241E+00    0.5529955299E-02    0.6443102801E+00
    0.4100000000E+07    0.2953412451E-03    0.5530877683E-04    0.6960324445E+00    0.5275674975E-02    0.6454181841E+00
    0.4300000000E+07    0.2695100020E-03    0.5061241528E-04    0.6960324630E+00    0.5043540580E-02    0.6464240058E+00
    0.4500000000E+07    0.2469156296E-03    0.4649314250E-04    0.6960324797E+00    0.4830792258E-02    0.6473411863E+00
    0.4700000000E+07    0.2270399683E-03    0.4285991421E-04    0.6960324950E+00    0.4635109012E-02    0.6481809120E+00
    0.4900000000E+07    0.2094644219E-03    0.3963897847E-04    0.6960325090E+00    0.4454525039E-02    0.6489525674E+00
    0.1000000000E+07    0.3782827875E-02    0.6536995382E-03    0.6960311998E+00    0.1775944547E-01    0.5819556170E+00
    0.3000000000E+07    0.5351187673E-03    0.9840187520E-04    0.6960322979E+00    0.7055520036E-02    0.6375251952E+00
    0.5000000000E+07    0.2014300495E-03    0.3816384578E-04    0.6960325156E+00    0.4369361725E-02    0.6493153960E+00
    0.7000000000E+07    0.1045609717E-03    0.2020711315E-04    0.6960326058E+00    0.3157876181E-02    0.6544032526E+00
    0.9000000000E+07    0.6380016180E-04    0.1251400120E-04    0.6960326534E+00    0.2469724829E-02    0.6572341303E+00
    0.1100000000E+08    0.4291868130E-04    0.8518444025E-05    0.6960326818E+00    0.2026495385E-02    0.6590358701E+00
    0.1300000000E+08    0.3082130731E-04    0.6177828783E-05    0.6960326999E+00    0.1717377285E-02    0.6602828401E+00
    0.1500000000E+08    0.2319537830E-04    0.4688512511E-05    0.6960327119E+00    0.1489596233E-02    0.6611968421E+00
    0.1700000000E+08    0.1808238845E-04    0.3681885125E-05    0.6960327200E+00    0.1314835186E-02    0.6618954036E+00
    0.1900000000E+08    0.1448910724E-04    0.2969420694E-05    0.6960327255E+00    0.1176544179E-02    0.6624465913E+00
    0.2100000000E+08    0.1186838631E-04    0.2446495058E-05    0.6960327291E+00    0.1064406279E-02    0.6628925449E+00
    0.2300000000E+08    0.9898747125E-05    0.2051232223E-05    0.6960327315E+00    0.9716572116E-03    0.6632607448E+00
    0.2500000000E+08    0.8381281407E-05    0.1745121688E-05    0.6960327328E+00    0.8936781500E-03    0.6635698742E+00
    0.2700000000E+08    0.7187584007E-05    0.1503169731E-05    0.6960327334E+00    0.8272080570E-03    0.6638330777E+00
