  Pressure (Pa) 22mC5-500 (mol/kg) 23mC5-500 (mol/kg) 24mC5-500 (mol/kg) 2mC6-500 (mol/kg) 3mC6-500 (mol/kg)
    0.1000000000E+01    0.2054545012E-04    0.9939450705E-06    0.9949836889E-01    0.4510086264E-04    0.1042119056E-04
    0.3000000000E+01    0.5092453359E-04    0.2466214026E-05    0.2321067117E+00    0.1152312121E-03    0.3125765171E-04
    0.5000000000E+01    0.7401135417E-04    0.3588624910E-05    0.3164638269E+00    0.1726272787E-03    0.5208627066E-04
    0.7000000000E+01    0.9350278357E-04    0.4539343313E-05    0.3748533993E+00    0.2243637897E-03    0.7290707966E-04
    0.9000000000E+01    0.1110247392E-03    0.5396489932E-05    0.4176676114E+00    0.2733498030E-03    0.9372009725E-04
    0.1100000000E+02    0.1273870100E-03    0.6198845228E-05    0.4504058257E+00    0.3209288607E-03    0.1145253361E-03
    0.1300000000E+02    0.1430298400E-03    0.6967418230E-05    0.4762509336E+00    0.3677725143E-03    0.1353228061E-03
    0.1500000000E+02    0.1582086476E-03    0.7714352022E-05    0.4971728776E+00    0.4142354008E-03    0.1561125154E-03
    0.1700000000E+02    0.1730792179E-03    0.8447023039E-05    0.5144562040E+00    0.4605119161E-03    0.1768944714E-03
    0.1900000000E+02    0.1877403871E-03    0.9170090803E-05    0.5289743046E+00    0.5067110334E-03    0.1976686809E-03
    0.2100000000E+02    0.2022568734E-03    0.9886591954E-05    0.5413417363E+00    0.5528943087E-03    0.2184351502E-03
    0.2300000000E+02    0.2166721531E-03    0.1059855586E-04    0.5520034949E+00    0.5990961582E-03    0.2391938854E-03
    0.2500000000E+02    0.2310160460E-03    0.1130736648E-04    0.5612897232E+00    0.6453351159E-03    0.2599448927E-03
    0.2700000000E+02    0.2453093528E-03    0.1201398297E-04    0.5694505205E+00    0.6916202871E-03    0.2806881777E-03
    0.2900000000E+02    0.2595667793E-03    0.1271907855E-04    0.5766788159E+00    0.7379551461E-03    0.3014237462E-03
    0.3100000000E+02    0.2737988308E-03    0.1342313012E-04    0.5831258216E+00    0.7843398163E-03    0.3221516039E-03
    0.3300000000E+02    0.2880130687E-03    0.1412647762E-04    0.5889117304E+00    0.8307724613E-03    0.3428717564E-03
    0.3500000000E+02    0.3022149611E-03    0.1482936403E-04    0.5941332822E+00    0.8772501431E-03    0.3635842092E-03
    0.3700000000E+02    0.3164084691E-03    0.1553196290E-04    0.5988692186E+00    0.9237693531E-03    0.3842889680E-03
    0.3900000000E+02    0.3305964570E-03    0.1623439754E-04    0.6031842829E+00    0.9703263423E-03    0.4049860381E-03
    0.4100000000E+02    0.3447809840E-03    0.1693675461E-04    0.6071321980E+00    0.1016917324E-02    0.4256754251E-03
    0.4300000000E+02    0.3589635139E-03    0.1763909381E-04    0.6107579162E+00    0.1063538594E-02    0.4463571344E-03
    0.4500000000E+02    0.3731450670E-03    0.1834145502E-04    0.6140993388E+00    0.1110186604E-02    0.4670311713E-03
    0.4700000000E+02    0.3873263328E-03    0.1904386335E-04    0.6171886461E+00    0.1156858000E-02    0.4876975415E-03
    0.4900000000E+02    0.4015077522E-03    0.1974633302E-04    0.6200533380E+00    0.1203549636E-02    0.5083562501E-03
    0.1000000000E+02    0.1193175289E-03    0.5802925361E-05    0.4350599706E+00    0.2972630625E-03    0.1041236884E-03
    0.3000000000E+02    0.2666854469E-03    0.1307121093E-04    0.5799918419E+00    0.7611413357E-03    0.3117886385E-03
    0.5000000000E+02    0.4085986051E-03    0.2009759302E-04    0.6214089728E+00    0.1226902120E-02    0.5186827331E-03
    0.7000000000E+02    0.5504296010E-03    0.2712514724E-04    0.6410318370E+00    0.1694412096E-02    0.7248114777E-03
    0.9000000000E+02    0.6921514656E-03    0.3414894318E-04    0.6524805207E+00    0.2161719916E-02    0.9301802013E-03
    0.1100000000E+03    0.8335515594E-03    0.4115752050E-04    0.6599824792E+00    0.2627916641E-02    0.1134794159E-02
    0.1300000000E+03    0.9744755362E-03    0.4814294535E-04    0.6652786423E+00    0.3092553362E-02    0.1338658549E-02
    0.1500000000E+03    0.1114821806E-02    0.5510009329E-04    0.6692172472E+00    0.3555390273E-02    0.1541778516E-02
    0.1700000000E+03    0.1254523496E-02    0.6202562792E-04    0.6722610133E+00    0.4016291724E-02    0.1744159154E-02
    0.1900000000E+03    0.1393535955E-02    0.6891733848E-04    0.6746838184E+00    0.4475178307E-02    0.1945805509E-02
    0.2100000000E+03    0.1531829006E-02    0.7577373985E-04    0.6766581173E+00    0.4932003043E-02    0.2146722577E-02
    0.2300000000E+03    0.1669382156E-02    0.8259382876E-04    0.6782979136E+00    0.5386738674E-02    0.2346915308E-02
    0.2500000000E+03    0.1806181568E-02    0.8937693116E-04    0.6796815897E+00    0.5839370462E-02    0.2546388607E-02
    0.2700000000E+03    0.1942218089E-02    0.9612260384E-04    0.6808648118E+00    0.6289891913E-02    0.2745147328E-02
    0.2900000000E+03    0.2077485943E-02    0.1028305691E-03    0.6818882035E+00    0.6738302117E-02    0.2943196285E-02
    0.3100000000E+03    0.2211981828E-02    0.1095006705E-03    0.6827821055E+00    0.7184604046E-02    0.3140540243E-02
    0.3300000000E+03    0.2345704292E-02    0.1161328414E-03    0.6835696355E+00    0.7628803418E-02    0.3337183924E-02
    0.3500000000E+03    0.2478653282E-02    0.1227270834E-03    0.6842687172E+00    0.8070907934E-02    0.3533132007E-02
    0.3700000000E+03    0.2610829817E-02    0.1292834502E-03    0.6848934613E+00    0.8510926736E-02    0.3728389128E-02
    0.3900000000E+03    0.2742235748E-02    0.1358020356E-03    0.6854551283E+00    0.8948870030E-02    0.3922959877E-02
    0.4100000000E+03    0.2872873576E-02    0.1422829648E-03    0.6859628136E+00    0.9384748812E-02    0.4116848806E-02
    0.4300000000E+03    0.3002746313E-02    0.1487263877E-03    0.6864239440E+00    0.9818574659E-02    0.4310060422E-02
    0.4500000000E+03    0.3131857375E-02    0.1551324736E-03    0.6868446435E+00    0.1025035958E-01    0.4502599192E-02
    0.4700000000E+03    0.3260210502E-02    0.1615014072E-03    0.6872300073E+00    0.1068011592E-01    0.4694469543E-02
    0.4900000000E+03    0.3387809689E-02    0.1678333856E-03    0.6875843086E+00    0.1110785623E-01    0.4885675859E-02
    0.1000000000E+03    0.7629028528E-03    0.3765571016E-04    0.6565852420E+00    0.2394992003E-02    0.1032581200E-02
    0.3000000000E+03    0.2144830510E-02    0.1061703588E-03    0.6823497542E+00    0.6961716312E-02    0.3041956092E-02
    0.5000000000E+03    0.3451327861E-02    0.1709855810E-03    0.6877509615E+00    0.1132097435E-01    0.4981031365E-02
    0.7000000000E+03    0.4683208405E-02    0.2321433314E-03    0.6900930260E+00    0.1548064765E-01    0.6854321280E-02
    0.9000000000E+03    0.5845056848E-02    0.2898684767E-03    0.6914015185E+00    0.1945343643E-01    0.8665947073E-02
    0.1100000000E+04    0.6941626244E-02    0.3443933698E-03    0.6922370223E+00    0.2325152402E-01    0.1041967945E-01
    0.1300000000E+04    0.7977408522E-02    0.3959373708E-03    0.6928167800E+00    0.2688618233E-01    0.1211897556E-01
    0.1500000000E+04    0.8956561492E-02    0.4447034501E-03    0.6932426522E+00    0.3036777365E-01    0.1376701135E-01
    0.1700000000E+04    0.9882910455E-02    0.4908783290E-03    0.6935687426E+00    0.3370581669E-01    0.1536670998E-01
    0.1900000000E+04    0.1075996921E-01    0.5346335308E-03    0.6938264509E+00    0.3690906209E-01    0.1692076681E-01
    0.2100000000E+04    0.1159096565E-01    0.5761266408E-03    0.6940352517E+00    0.3998556465E-01    0.1843167149E-01
    0.2300000000E+04    0.1237886735E-01    0.6155025568E-03    0.6942078650E+00    0.4294274948E-01    0.1990172750E-01
    0.2500000000E+04    0.1312640551E-01    0.6528946602E-03    0.6943529514E+00    0.4578747144E-01    0.2133306949E-01
    0.2700000000E+04    0.1383609687E-01    0.6884258839E-03    0.6944766116E+00    0.4852606841E-01    0.2272767873E-01
    0.2900000000E+04    0.1451026357E-01    0.7222096780E-03    0.6945832673E+00    0.5116440888E-01    0.2408739681E-01
    0.3100000000E+04    0.1515105091E-01    0.7543508786E-03    0.6946762018E+00    0.5370793442E-01    0.2541393800E-01
    0.3300000000E+04    0.1576044346E-01    0.7849464871E-03    0.6947579040E+00    0.5616169779E-01    0.2670890019E-01
    0.3500000000E+04    0.1634027935E-01    0.8140863704E-03    0.6948302952E+00    0.5853039696E-01    0.2797377482E-01
    0.3700000000E+04    0.1689226323E-01    0.8418538892E-03    0.6948948818E+00    0.6081840573E-01    0.2920995571E-01
    0.3900000000E+04    0.1741797785E-01    0.8683264625E-03    0.6949528622E+00    0.6302980119E-01    0.3041874709E-01
    0.4100000000E+04    0.1791889452E-01    0.8935760760E-03    0.6950052011E+00    0.6516838850E-01    0.3160137080E-01
    0.4300000000E+04    0.1839638250E-01    0.9176697396E-03    0.6950526841E+00    0.6723772315E-01    0.3275897285E-01
    0.4500000000E+04    0.1885171749E-01    0.9406699010E-03    0.6950959575E+00    0.6924113118E-01    0.3389262926E-01
    0.4700000000E+04    0.1928608929E-01    0.9626348185E-03    0.6951355575E+00    0.7118172738E-01    0.3500335150E-01
    0.4900000000E+04    0.1970060877E-01    0.9836188989E-03    0.6951719331E+00    0.7306243183E-01    0.3609209131E-01
    0.1000000000E+04    0.6401213095E-02    0.3175168714E-03    0.6918607682E+00    0.2137359147E-01    0.9549826917E-02
    0.3000000000E+04    0.1483470203E-01    0.7384793649E-03    0.6946312787E+00    0.5244769902E-01    0.2475471204E-01
    0.5000000000E+04    0.1990075100E-01    0.9937591501E-03    0.6951890325E+00    0.7398118766E-01    0.3662850000E-01
    0.7000000000E+04    0.2308036070E-01    0.1155806147E-02    0.6954286346E+00    0.8979535981E-01    0.4639494840E-01
    0.9000000000E+04    0.2512153801E-01    0.1261311861E-02    0.6955619513E+00    0.1019028530E+00    0.5472334719E-01
    0.1100000000E+05    0.2643741853E-01    0.1330602185E-02    0.6956468898E+00    0.1114655501E+00    0.6201406125E-01
    0.1300000000E+05    0.2727204599E-01    0.1375722382E-02    0.6957057519E+00    0.1192020253E+00    0.6852322813E-01
    0.1500000000E+05    0.2777727764E-01    0.1404193299E-02    0.6957489548E+00    0.1255811715E+00    0.7442351368E-01
    0.1700000000E+05    0.2805159565E-01    0.1420910067E-02    0.6957820182E+00    0.1309223926E+00    0.7983629531E-01
    0.1900000000E+05    0.2816104518E-01    0.1429168180E-02    0.6958081396E+00    0.1354510611E+00    0.8484987629E-01
    0.2100000000E+05    0.2815115841E-01    0.1431248905E-02    0.6958292995E+00    0.1393309432E+00    0.8953036379E-01
    0.2300000000E+05    0.2805405657E-01    0.1428768624E-02    0.6958467903E+00    0.1426840376E+00    0.9392846184E-01
    0.2500000000E+05    0.2789284269E-01    0.1422895336E-02    0.6958614912E+00    0.1456031889E+00    0.9808387616E-01
    0.2700000000E+05    0.2768440734E-01    0.1414487232E-02    0.6958740213E+00    0.1481603741E+00    0.1020282638E+00
    0.2900000000E+05    0.2744127131E-01    0.1404183905E-02    0.6958848288E+00    0.1504123029E+00    0.1057872643E+00
    0.3100000000E+05    0.2717282543E-01    0.1392467855E-02    0.6958942466E+00    0.1524042989E+00    0.1093819327E+00
    0.3300000000E+05    0.2688618264E-01    0.1379706859E-02    0.6959025270E+00    0.1541730476E+00    0.1128297728E+00
    0.3500000000E+05    0.2658677469E-01    0.1366183712E-02    0.6959098645E+00    0.1557485811E+00    0.1161454964E+00
    0.3700000000E+05    0.2627877710E-01    0.1352117470E-02    0.6959164118E+00    0.1571557364E+00    0.1193415903E+00
    0.3900000000E+05    0.2596541635E-01    0.1337678832E-02    0.6959222902E+00    0.1584152437E+00    0.1224287476E+00
    0.4100000000E+05    0.2564919491E-01    0.1323001458E-02    0.6959275974E+00    0.1595445510E+00    0.1254161988E+00
    0.4300000000E+05    0.2533205815E-01    0.1308190369E-02    0.6959324129E+00    0.1605584554E+00    0.1283119701E+00
    0.4500000000E+05    0.2501551946E-01    0.1293328275E-02    0.6959368022E+00    0.1614695937E+00    0.1311230876E+00
    0.4700000000E+05    0.2470075501E-01    0.1278480379E-02    0.6959408195E+00    0.1622888269E+00    0.1338557392E+00
    0.4900000000E+05    0.2438867615E-01    0.1263698056E-02    0.6959445104E+00    0.1630255449E+00    0.1365154054E+00
    0.1000000000E+05    0.2585208651E-01    0.1299593767E-02    0.6956086563E+00    0.1069499043E+00    0.5847993058E-01
    0.3000000000E+05    0.2730972215E-01    0.1398477194E-02    0.6958896941E+00    0.1514383235E+00    0.1076039728E+00
    0.5000000000E+05    0.2423387022E-01    0.1256344474E-02    0.6959462456E+00    0.1633655537E+00    0.1378194147E+00
    0.7000000000E+05    0.2137853777E-01    0.1118757565E-02    0.6959705791E+00    0.1673476197E+00    0.1610151283E+00
    0.9000000000E+05    0.1901648731E-01    0.1002769889E-02    0.6959841418E+00    0.1682024821E+00    0.1802924020E+00
    0.1100000000E+06    0.1707405614E-01    0.9061779525E-03    0.6959927969E+00    0.1675573298E+00    0.1969773154E+00
    0.1300000000E+06    0.1545914909E-01    0.8250944449E-03    0.6959988040E+00    0.1661166297E+00    0.2117795247E+00
    0.1500000000E+06    0.1409848615E-01    0.7562343381E-03    0.6960032194E+00    0.1642326428E+00    0.2251316853E+00
    0.1700000000E+06    0.1293745965E-01    0.6970802383E-03    0.6960066031E+00    0.1620987403E+00    0.2373211104E+00
    0.1900000000E+06    0.1193556140E-01    0.6457319280E-03    0.6960092797E+00    0.1598280868E+00    0.2485504739E+00
    0.2100000000E+06    0.1106240559E-01    0.6007460773E-03    0.6960114506E+00    0.1574899565E+00    0.2589693154E+00
    0.2300000000E+06    0.1029484899E-01    0.5610125951E-03    0.6960132471E+00    0.1551281080E+00    0.2686918691E+00
    0.2500000000E+06    0.9614985811E-02    0.5256656871E-03    0.6960147587E+00    0.1527707584E+00    0.2778078432E+00
    0.2700000000E+06    0.9008754482E-02    0.4940207724E-03    0.6960160484E+00    0.1504363043E+00    0.2863892881E+00
    0.2900000000E+06    0.8464959803E-02    0.4655295511E-03    0.6960171620E+00    0.1481367546E+00    0.2944951609E+00
    0.3100000000E+06    0.7974576708E-02    0.4397476504E-03    0.6960181333E+00    0.1458798655E+00    0.3021744685E+00
    0.3300000000E+06    0.7530246839E-02    0.4163110169E-03    0.6960189881E+00    0.1436705106E+00    0.3094684961E+00
    0.3500000000E+06    0.7125908970E-02    0.3949184532E-03    0.6960197462E+00    0.1415115820E+00    0.3164124280E+00
    0.3700000000E+06    0.6756523732E-02    0.3753185249E-03    0.6960204233E+00    0.1394045966E+00    0.3230365524E+00
    0.3900000000E+06    0.6417865772E-02    0.3572996185E-03    0.6960210317E+00    0.1373501107E+00    0.3293671742E+00
    0.4100000000E+06    0.6106364853E-02    0.3406823007E-03    0.6960215814E+00    0.1353480091E+00    0.3354273180E+00
    0.4300000000E+06    0.5818982922E-02    0.3253133802E-03    0.6960220806E+00    0.1333977079E+00    0.3412372779E+00
    0.4500000000E+06    0.5553118004E-02    0.3110612455E-03    0.6960225360E+00    0.1314982994E+00    0.3468150534E+00
    0.4700000000E+06    0.5306528284E-02    0.2978121678E-03    0.6960229531E+00    0.1296486560E+00    0.3521766986E+00
    0.4900000000E+06    0.5077271607E-02    0.2854673436E-03    0.6960233366E+00    0.1278475051E+00    0.3573366054E+00
    0.1000000000E+06    0.1799892848E-01    0.9522990344E-03    0.6959888993E+00    0.1680114433E+00    0.1889056818E+00
    0.3000000000E+06    0.8213585897E-02    0.4523243419E-03    0.6960176637E+00    0.1470026176E+00    0.2983853955E+00
    0.5000000000E+06    0.4968606003E-02    0.2796066349E-03    0.6960235169E+00    0.1269646909E+00    0.3598450078E+00
    0.7000000000E+06    0.3390955836E-02    0.1937579068E-03    0.6960260541E+00    0.1115114085E+00    0.4019904870E+00
    0.9000000000E+06    0.2481645953E-02    0.1434968613E-03    0.6960274762E+00    0.9939611534E-01    0.4333204413E+00
    0.1100000000E+07    0.1902694619E-02    0.1111024815E-03    0.6960283878E+00    0.8966134556E-01    0.4577392865E+00
    0.1300000000E+07    0.1508707371E-02    0.8883451666E-04    0.6960290229E+00    0.8166894435E-01    0.4773958416E+00
    0.1500000000E+07    0.1227356776E-02    0.7279585660E-04    0.6960294912E+00    0.7498799684E-01    0.4936015297E+00
    0.1700000000E+07    0.1018920312E-02    0.6082464216E-04    0.6960298511E+00    0.6931878458E-01    0.5072134232E+00
    0.1900000000E+07    0.8599433152E-03    0.5163336226E-04    0.6960301363E+00    0.6444668153E-01    0.5188200243E+00
    0.2100000000E+07    0.7357839110E-03    0.4441219926E-04    0.6960303681E+00    0.6021397143E-01    0.5288409654E+00
    0.2300000000E+07    0.6368876150E-03    0.3862915833E-04    0.6960305603E+00    0.5650212494E-01    0.5375845806E+00
    0.2500000000E+07    0.5567897112E-03    0.3392210370E-04    0.6960307221E+00    0.5322030866E-01    0.5452830616E+00
    0.2700000000E+07    0.4909817820E-03    0.3003709482E-04    0.6960308604E+00    0.5029771846E-01    0.5521148981E+00
    0.2900000000E+07    0.4362379499E-03    0.2679151317E-04    0.6960309799E+00    0.4767833095E-01    0.5582197283E+00
    0.3100000000E+07    0.3901984492E-03    0.2405114784E-04    0.6960310841E+00    0.4531722698E-01    0.5637084670E+00
    0.3300000000E+07    0.3511035421E-03    0.2171548049E-04    0.6960311759E+00    0.4317796308E-01    0.5686703936E+00
    0.3500000000E+07    0.3176185466E-03    0.1970796391E-04    0.6960312574E+00    0.4123065762E-01    0.5731782215E+00
    0.3700000000E+07    0.2887158528E-03    0.1796943858E-04    0.6960313301E+00    0.3945057430E-01    0.5772917959E+00
    0.3900000000E+07    0.2635935886E-03    0.1645357580E-04    0.6960313955E+00    0.3781705813E-01    0.5810608367E+00
    0.4100000000E+07    0.2416184345E-03    0.1512366169E-04    0.6960314545E+00    0.3631272558E-01    0.5845270044E+00
    0.4300000000E+07    0.2222847041E-03    0.1395028763E-04    0.6960315081E+00    0.3492284049E-01    0.5877254773E+00
    0.4500000000E+07    0.2051845944E-03    0.1290966546E-04    0.6960315570E+00    0.3363482782E-01    0.5906861702E+00
    0.4700000000E+07    0.1899862433E-03    0.1198238091E-04    0.6960316017E+00    0.3243789103E-01    0.5934346875E+00
    0.4900000000E+07    0.1764173324E-03    0.1115245908E-04    0.6960316428E+00    0.3132270801E-01    0.5959930747E+00
    0.1000000000E+07    0.2162447202E-02    0.1256801946E-03    0.6960279768E+00    0.9427706686E-01    0.4462330907E+00
    0.3000000000E+07    0.4122518119E-03    0.2536511778E-04    0.6960310337E+00    0.4646794460E-01    0.5610350894E+00
    0.5000000000E+07    0.1701719835E-03    0.1076977948E-04    0.6960316621E+00    0.3079320321E-01    0.5972070358E+00
    0.7000000000E+07    0.9239196535E-04    0.5958463573E-05    0.6960319322E+00    0.2299946570E-01    0.6150189017E+00
    0.9000000000E+07    0.5790412169E-04    0.3787266123E-05    0.6960320809E+00    0.1834000802E-01    0.6256210001E+00
    0.1100000000E+08    0.3965745279E-04    0.2622992242E-05    0.6960321738E+00    0.1524237050E-01    0.6326518893E+00
    0.1300000000E+08    0.2885204476E-04    0.1925976376E-05    0.6960322364E+00    0.1303493008E-01    0.6376543672E+00
    0.1500000000E+08    0.2193104982E-04    0.1475424800E-05    0.6960322807E+00    0.1138269246E-01    0.6413946284E+00
    0.1700000000E+08    0.1723398075E-04    0.1167228241E-05    0.6960323133E+00    0.1009991575E-01    0.6442962802E+00
    0.1900000000E+08    0.1390119189E-04    0.9470295071E-06    0.6960323378E+00    0.9075342885E-02    0.6466125410E+00
    0.2100000000E+08    0.1145146683E-04    0.7841747310E-06    0.6960323565E+00    0.8238279823E-02    0.6485040644E+00
    0.2300000000E+08    0.9598408533E-05    0.6603004276E-06    0.6960323710E+00    0.7541660957E-02    0.6500776830E+00
    0.2500000000E+08    0.8162936750E-05    0.5638564975E-06    0.6960323823E+00    0.6952942800E-02    0.6514071971E+00
    0.2700000000E+08    0.7028423024E-05    0.4872805731E-06    0.6960323911E+00    0.6448906663E-02    0.6525452216E+00
