  Pressure (Pa) 22mC5-500 (mol/kg) 23mC5-500 (mol/kg) 24mC5-500 (mol/kg) 2mC6-500 (mol/kg) 3mC6-500 (mol/kg)
    0.1000000000E+01    0.2136908917E-04    0.1033640994E-05    0.6965106796E-01    0.4668440914E-04    0.1563167279E-04
    0.3000000000E+01    0.5554235227E-04    0.2688348002E-05    0.1740878759E+00    0.1237634388E-03    0.4688543389E-04
    0.5000000000E+01    0.8268855277E-04    0.4005286477E-05    0.2486587400E+00    0.1880673993E-03    0.7812646619E-04
    0.7000000000E+01    0.1056841667E-03    0.5123296128E-05    0.3045739823E+00    0.2452834475E-03    0.1093548087E-03
    0.9000000000E+01    0.1260679048E-03    0.6116508463E-05    0.3480570861E+00    0.2983349916E-03    0.1405704879E-03
    0.1100000000E+02    0.1447278732E-03    0.7027625579E-05    0.3828401839E+00    0.3488370307E-03    0.1717735237E-03
    0.1300000000E+02    0.1622072431E-03    0.7882709652E-05    0.4112973331E+00    0.3977315068E-03    0.2029639325E-03
    0.1500000000E+02    0.1788537373E-03    0.8698408223E-05    0.4350107599E+00    0.4455913726E-03    0.2341417284E-03
    0.1700000000E+02    0.1948983181E-03    0.9485753327E-05    0.4550755932E+00    0.4927768433E-03    0.2653069242E-03
    0.1900000000E+02    0.2104991238E-03    0.1025228027E-04    0.4722739226E+00    0.5395203834E-03    0.2964595319E-03
    0.2100000000E+02    0.2257672152E-03    0.1100326772E-04    0.4871791957E+00    0.5859751308E-03    0.3275995626E-03
    0.2300000000E+02    0.2407822858E-03    0.1174249344E-04    0.5002214477E+00    0.6322435736E-03    0.3587270273E-03
    0.2500000000E+02    0.2556025821E-03    0.1247271080E-04    0.5117294981E+00    0.6783950973E-03    0.3898419365E-03
    0.2700000000E+02    0.2702713552E-03    0.1319595831E-04    0.5219590759E+00    0.7244770243E-03    0.4209443005E-03
    0.2900000000E+02    0.2848211650E-03    0.1391376584E-04    0.5311120605E+00    0.7705217275E-03    0.4520341293E-03
    0.3100000000E+02    0.2992768181E-03    0.1462729509E-04    0.5393499476E+00    0.8165513108E-03    0.4831114330E-03
    0.3300000000E+02    0.3136574116E-03    0.1533743724E-04    0.5468034671E+00    0.8625807449E-03    0.5141762213E-03
    0.3500000000E+02    0.3279777816E-03    0.1604488205E-04    0.5535795764E+00    0.9086200010E-03    0.5452285042E-03
    0.3700000000E+02    0.3422495459E-03    0.1675016746E-04    0.5597666300E+00    0.9546755230E-03    0.5762682912E-03
    0.3900000000E+02    0.3564818644E-03    0.1745371574E-04    0.5654382553E+00    0.1000751256E-02    0.6072955920E-03
    0.4100000000E+02    0.3706820022E-03    0.1815586025E-04    0.5706562986E+00    0.1046849370E-02    0.6383104162E-03
    0.4300000000E+02    0.3848557505E-03    0.1885686532E-04    0.5754730910E+00    0.1092970780E-02    0.6693127733E-03
    0.4500000000E+02    0.3990077446E-03    0.1955694134E-04    0.5799332108E+00    0.1139115511E-02    0.7003026729E-03
    0.4700000000E+02    0.4131417075E-03    0.2025625620E-04    0.5840748679E+00    0.1185282969E-02    0.7312801243E-03
    0.4900000000E+02    0.4272606367E-03    0.2095494416E-04    0.5879310019E+00    0.1231472130E-02    0.7622451370E-03
    0.1000000000E+02    0.1355735555E-03    0.6580417762E-05    0.3663643107E+00    0.3238346167E-03    0.1561735852E-03
    0.3000000000E+02    0.2920594531E-03    0.1427100413E-04    0.5353365920E+00    0.7935373352E-03    0.4675743461E-03
    0.5000000000E+02    0.4343152385E-03    0.2130408750E-04    0.5897610702E+00    0.1254574450E-02    0.7777229818E-03
    0.7000000000E+02    0.5750030869E-03    0.2827084714E-04    0.6166363731E+00    0.1717384365E-02    0.1086629140E-02
    0.9000000000E+02    0.7152595206E-03    0.3522044163E-04    0.6326568811E+00    0.2180639321E-02    0.1394302121E-02
    0.1100000000E+03    0.8551349098E-03    0.4215314208E-04    0.6432945529E+00    0.2643269108E-02    0.1700751084E-02
    0.1300000000E+03    0.9945383008E-03    0.4906358543E-04    0.6508723796E+00    0.3104641602E-02    0.2005985075E-02
    0.1500000000E+03    0.1133377609E-02    0.5594683654E-04    0.6565447244E+00    0.3564382749E-02    0.2310013045E-02
    0.1700000000E+03    0.1271580182E-02    0.6279912145E-04    0.6609501217E+00    0.4022264218E-02    0.2612843848E-02
    0.1900000000E+03    0.1409091957E-02    0.6961767691E-04    0.6644704563E+00    0.4478142654E-02    0.2914486245E-02
    0.2100000000E+03    0.1545873401E-02    0.7640050261E-04    0.6673481390E+00    0.4931926372E-02    0.3214948912E-02
    0.2300000000E+03    0.1681895800E-02    0.8314615611E-04    0.6697444557E+00    0.5383556374E-02    0.3514240432E-02
    0.2500000000E+03    0.1817138434E-02    0.8985360204E-04    0.6717708850E+00    0.5832995076E-02    0.3812369305E-02
    0.2700000000E+03    0.1951586514E-02    0.9652210465E-04    0.6735069470E+00    0.6280219360E-02    0.4109343943E-02
    0.2900000000E+03    0.2085229697E-02    0.1031511513E-03    0.6750108906E+00    0.6725216125E-02    0.4405172674E-02
    0.3100000000E+03    0.2218061012E-02    0.1097403977E-03    0.6763263601E+00    0.7167979376E-02    0.4699863745E-02
    0.3300000000E+03    0.2350076072E-02    0.1162896278E-03    0.6774867023E+00    0.7608508247E-02    0.4993425319E-02
    0.3500000000E+03    0.2481272490E-02    0.1227987249E-03    0.6785178352E+00    0.8046805635E-02    0.5285865478E-02
    0.3700000000E+03    0.2611649446E-02    0.1292676496E-03    0.6794402070E+00    0.8482877238E-02    0.5577192225E-02
    0.3900000000E+03    0.2741207357E-02    0.1356964231E-03    0.6802701670E+00    0.8916730861E-02    0.5867413482E-02
    0.4100000000E+03    0.2869947623E-02    0.1420851152E-03    0.6810209437E+00    0.9348375907E-02    0.6156537097E-02
    0.4300000000E+03    0.2997872430E-02    0.1484338341E-03    0.6817033556E+00    0.9777823002E-02    0.6444570836E-02
    0.4500000000E+03    0.3124984597E-02    0.1547427190E-03    0.6823263361E+00    0.1020508371E-01    0.6731522393E-02
    0.4700000000E+03    0.3251287457E-02    0.1610119340E-03    0.6828973269E+00    0.1063017030E-01    0.7017399386E-02
    0.4900000000E+03    0.3376784758E-02    0.1672416636E-03    0.6834225769E+00    0.1105309562E-01    0.7302209357E-02
    0.1000000000E+03    0.7852499246E-03    0.3868922570E-04    0.6384634326E+00    0.2412079729E-02    0.1547679037E-02
    0.3000000000E+03    0.2151747165E-02    0.1064507657E-03    0.6756898981E+00    0.6946877096E-02    0.4552659905E-02
    0.5000000000E+03    0.3439232589E-02    0.1703417836E-03    0.6836697335E+00    0.1126375193E-01    0.7444216546E-02
    0.7000000000E+03    0.4647020724E-02    0.2303263253E-03    0.6871495809E+00    0.1536678610E-01    0.1023012947E-01
    0.9000000000E+03    0.5779933520E-02    0.2866406664E-03    0.6890990172E+00    0.1926977611E-01    0.1291745795E-01
    0.1100000000E+04    0.6843259248E-02    0.3395432931E-03    0.6903457902E+00    0.2298642483E-01    0.1551262279E-01
    0.1300000000E+04    0.7842054386E-02    0.3892811215E-03    0.6912118647E+00    0.2652946885E-01    0.1802147779E-01
    0.1500000000E+04    0.8781005804E-02    0.4360829326E-03    0.6918485533E+00    0.2991059624E-01    0.2044937166E-01
    0.1700000000E+04    0.9664416309E-02    0.4801587386E-03    0.6923363552E+00    0.3314050390E-01    0.2280120206E-01
    0.1900000000E+04    0.1049622416E-01    0.5217007650E-03    0.6927220442E+00    0.3622898273E-01    0.2508146269E-01
    0.2100000000E+04    0.1128003191E-01    0.5608848729E-03    0.6930346567E+00    0.3918500405E-01    0.2729428469E-01
    0.2300000000E+04    0.1201913674E-01    0.5978720408E-03    0.6932931720E+00    0.4201679992E-01    0.2944347294E-01
    0.2500000000E+04    0.1271655924E-01    0.6328097747E-03    0.6935105198E+00    0.4473193594E-01    0.3153253807E-01
    0.2700000000E+04    0.1337507006E-01    0.6658334036E-03    0.6936958129E+00    0.4733737626E-01    0.3356472481E-01
    0.2900000000E+04    0.1399721397E-01    0.6970672523E-03    0.6938556587E+00    0.4983954157E-01    0.3554303705E-01
    0.3100000000E+04    0.1458533141E-01    0.7266256932E-03    0.6939949652E+00    0.5224436068E-01    0.3747026010E-01
    0.3300000000E+04    0.1514157793E-01    0.7546140889E-03    0.6941174544E+00    0.5455731652E-01    0.3934898055E-01
    0.3500000000E+04    0.1566794142E-01    0.7811296346E-03    0.6942259998E+00    0.5678348711E-01    0.4118160394E-01
    0.3700000000E+04    0.1616625765E-01    0.8062621113E-03    0.6943228556E+00    0.5892758212E-01    0.4297037062E-01
    0.3900000000E+04    0.1663822410E-01    0.8300945600E-03    0.6944098147E+00    0.6099397562E-01    0.4471736991E-01
    0.4100000000E+04    0.1708541233E-01    0.8527038850E-03    0.6944883213E+00    0.6298673537E-01    0.4642455285E-01
    0.4300000000E+04    0.1750927917E-01    0.8741613959E-03    0.6945595513E+00    0.6490964916E-01    0.4809374364E-01
    0.4500000000E+04    0.1791117667E-01    0.8945332934E-03    0.6946244724E+00    0.6676624846E-01    0.4972664999E-01
    0.4700000000E+04    0.1829236110E-01    0.9138811073E-03    0.6946838878E+00    0.6855982970E-01    0.5132487245E-01
    0.4900000000E+04    0.1865400105E-01    0.9322620899E-03    0.6947384698E+00    0.7029347353E-01    0.5288991284E-01
    0.1000000000E+04    0.6319970693E-02    0.3135026157E-03    0.6897841327E+00    0.2115057228E-01    0.1422618244E-01
    0.3000000000E+04    0.1429538716E-01    0.7120491127E-03    0.6939276236E+00    0.5105376677E-01    0.3651286862E-01
    0.5000000000E+04    0.1882783485E-01    0.9411068294E-03    0.6947641290E+00    0.7113872692E-01    0.5366043398E-01
    0.7000000000E+04    0.2150630466E-01    0.1078418569E-02    0.6951237824E+00    0.8550687445E-01    0.6762984439E-01
    0.9000000000E+04    0.2310370699E-01    0.1161917973E-02    0.6953239944E+00    0.9624999040E-01    0.7946324966E-01
    0.1100000000E+05    0.2403397297E-01    0.1211991853E-02    0.6954515975E+00    0.1045469382E+00    0.8977135361E-01
    0.1300000000E+05    0.2453522598E-01    0.1240413197E-02    0.6955400500E+00    0.1111132660E+00    0.9893892309E-01
    0.1500000000E+05    0.2475215399E-01    0.1254365194E-02    0.6956049864E+00    0.1164089098E+00    0.1072223291E+00
    0.1700000000E+05    0.2477652791E-01    0.1258424344E-02    0.6956546922E+00    0.1207432956E+00    0.1148001756E+00
    0.1900000000E+05    0.2466858862E-01    0.1255609345E-02    0.6956939688E+00    0.1243324708E+00    0.1218014910E+00
    0.2100000000E+05    0.2446899598E-01    0.1247968386E-02    0.6957257903E+00    0.1273320091E+00    0.1283223432E+00
    0.2300000000E+05    0.2420582483E-01    0.1236923788E-02    0.6957520979E+00    0.1298568886E+00    0.1344361024E+00
    0.2500000000E+05    0.2389882462E-01    0.1223482354E-02    0.6957742124E+00    0.1319939941E+00    0.1402000338E+00
    0.2700000000E+05    0.2356210075E-01    0.1208368123E-02    0.6957930636E+00    0.1338102524E+00    0.1456596796E+00
    0.2900000000E+05    0.2320585115E-01    0.1192108575E-02    0.6958093254E+00    0.1353580861E+00    0.1508518552E+00
    0.3100000000E+05    0.2283751937E-01    0.1175092039E-02    0.6958234977E+00    0.1366791651E+00    0.1558067520E+00
    0.3300000000E+05    0.2246257673E-01    0.1157606744E-02    0.6958359598E+00    0.1378070454E+00    0.1605494457E+00
    0.3500000000E+05    0.2208506326E-01    0.1139867915E-02    0.6958470040E+00    0.1387690647E+00    0.1651010002E+00
    0.3700000000E+05    0.2170796798E-01    0.1122036880E-02    0.6958568598E+00    0.1395877265E+00    0.1694792891E+00
    0.3900000000E+05    0.2133350033E-01    0.1104234765E-02    0.6958657095E+00    0.1402817295E+00    0.1736996179E+00
    0.4100000000E+05    0.2096328656E-01    0.1086552423E-02    0.6958737001E+00    0.1408667427E+00    0.1777752016E+00
    0.4300000000E+05    0.2059851338E-01    0.1069057741E-02    0.6958809511E+00    0.1413559978E+00    0.1817175354E+00
    0.4500000000E+05    0.2024003430E-01    0.1051801059E-02    0.6958875609E+00    0.1417607465E+00    0.1855366873E+00
    0.4700000000E+05    0.1988844899E-01    0.1034819241E-02    0.6958936111E+00    0.1420906191E+00    0.1892415300E+00
    0.4900000000E+05    0.1954416308E-01    0.1018138751E-02    0.6958991700E+00    0.1423539062E+00    0.1928399282E+00
    0.1000000000E+05    0.2363448340E-01    0.1190256661E-02    0.6953941546E+00    0.1006517923E+00    0.8478008317E-01
    0.3000000000E+05    0.2302281463E-01    0.1183674934E-02    0.6958166467E+00    0.1360447077E+00    0.1533572908E+00
    0.5000000000E+05    0.1937484250E-01    0.1009917519E-02    0.6959017837E+00    0.1424628610E+00    0.1946014302E+00
    0.7000000000E+05    0.1638721559E-01    0.8631784069E-03    0.6959384490E+00    0.1424664002E+00    0.2256063309E+00
    0.9000000000E+05    0.1406458058E-01    0.7471751492E-03    0.6959588989E+00    0.1402353930E+00    0.2508443330E+00
    0.1100000000E+06    0.1223740387E-01    0.6548153578E-03    0.6959719569E+00    0.1371095282E+00    0.2722506851E+00
    0.1300000000E+06    0.1077214332E-01    0.5800405765E-03    0.6959810246E+00    0.1336328417E+00    0.2908730229E+00
    0.1500000000E+06    0.9575501298E-02    0.5184852727E-03    0.6959876926E+00    0.1300560643E+00    0.3073563179E+00
    0.1700000000E+06    0.8582541888E-02    0.4670546520E-03    0.6959928048E+00    0.1265029363E+00    0.3221322519E+00
    0.1900000000E+06    0.7747238146E-02    0.4235262172E-03    0.6959968504E+00    0.1230361811E+00    0.3355071850E+00
    0.2100000000E+06    0.7036234089E-02    0.3862727473E-03    0.6960001328E+00    0.1196870658E+00    0.3477081547E+00
    0.2300000000E+06    0.6424830738E-02    0.3540791056E-03    0.6960028501E+00    0.1164698546E+00    0.3589090980E+00
    0.2500000000E+06    0.5894376708E-02    0.3260210096E-03    0.6960051372E+00    0.1133893471E+00    0.3692468182E+00
    0.2700000000E+06    0.5430537821E-02    0.3013835838E-03    0.6960070893E+00    0.1104450067E+00    0.3788312255E+00
    0.2900000000E+06    0.5022124210E-02    0.2796055811E-03    0.6960087752E+00    0.1076333055E+00    0.3877521872E+00
    0.3100000000E+06    0.4660278112E-02    0.2602404286E-03    0.6960102462E+00    0.1049490931E+00    0.3960842736E+00
    0.3300000000E+06    0.4337900088E-02    0.2429285066E-03    0.6960115411E+00    0.1023864091E+00    0.4038901410E+00
    0.3500000000E+06    0.4049236163E-02    0.2273770759E-03    0.6960126899E+00    0.9993897118E-01    0.4112230065E+00
    0.3700000000E+06    0.3789575751E-02    0.2133455073E-03    0.6960137161E+00    0.9760046715E-01    0.4181284953E+00
    0.3900000000E+06    0.3555027233E-02    0.2006342515E-03    0.6960146384E+00    0.9536472794E-01    0.4246460477E+00
    0.4100000000E+06    0.3342348905E-02    0.1890764915E-03    0.6960154721E+00    0.9322582661E-01    0.4308100063E+00
    0.4300000000E+06    0.3148819998E-02    0.1785317467E-03    0.6960162292E+00    0.9117813125E-01    0.4366504700E+00
    0.4500000000E+06    0.2972141142E-02    0.1688809156E-03    0.6960169201E+00    0.8921632891E-01    0.4421939726E+00
    0.4700000000E+06    0.2810356713E-02    0.1600223960E-03    0.6960175530E+00    0.8733543161E-01    0.4474640284E+00
    0.4900000000E+06    0.2661793671E-02    0.1518690161E-03    0.6960181350E+00    0.8553077132E-01    0.4524815755E+00
    0.1000000000E+06    0.1309848245E-01    0.6984616345E-03    0.6959660757E+00    0.1387402440E+00    0.2619481432E+00
    0.3000000000E+06    0.4835859668E-02    0.2696456470E-03    0.6960095349E+00    0.1062756236E+00    0.3919876772E+00
    0.5000000000E+06    0.2592012441E-02    0.1480328459E-03    0.6960184088E+00    0.8465565600E-01    0.4549015880E+00
    0.7000000000E+06    0.1628838434E-02    0.9459355710E-04    0.6960222636E+00    0.7024536269E-01    0.4937004636E+00
    0.9000000000E+06    0.1121737621E-02    0.6599092190E-04    0.6960244278E+00    0.6000262862E-01    0.5203094338E+00
    0.1100000000E+07    0.8206199715E-03    0.4878789913E-04    0.6960258170E+00    0.5235441293E-01    0.5397732169E+00
    0.1300000000E+07    0.6268011673E-03    0.3759821614E-04    0.6960267860E+00    0.4642718520E-01    0.5546568719E+00
    0.1500000000E+07    0.4945615771E-03    0.2989548883E-04    0.6960275010E+00    0.4169937047E-01    0.5664179671E+00
    0.1700000000E+07    0.4002522412E-03    0.2435955135E-04    0.6960280509E+00    0.3784068947E-01    0.5759507449E+00
    0.1900000000E+07    0.3306067927E-03    0.2024337712E-04    0.6960284872E+00    0.3463189466E-01    0.5838359684E+00
    0.2100000000E+07    0.2777026900E-03    0.1709746155E-04    0.6960288419E+00    0.3192174378E-01    0.5904678938E+00
    0.2300000000E+07    0.2365665924E-03    0.1463773041E-04    0.6960291361E+00    0.2960253315E-01    0.5961238731E+00
    0.2500000000E+07    0.2039464313E-03    0.1267730409E-04    0.6960293840E+00    0.2759548322E-01    0.6010048357E+00
    0.2700000000E+07    0.1776419895E-03    0.1108905336E-04    0.6960295958E+00    0.2584164035E-01    0.6052599845E+00
    0.2900000000E+07    0.1561210545E-03    0.9784001465E-05    0.6960297789E+00    0.2429600962E-01    0.6090024717E+00
    0.3100000000E+07    0.1382897769E-03    0.8698333255E-05    0.6960299388E+00    0.2292365491E-01    0.6123196874E+00
    0.3300000000E+07    0.1233502138E-03    0.7785296517E-05    0.6960300795E+00    0.2169703724E-01    0.6152802076E+00
    0.3500000000E+07    0.1107091454E-03    0.7009994530E-05    0.6960302044E+00    0.2059415583E-01    0.6179386052E+00
    0.3700000000E+07    0.9991809232E-04    0.6345945868E-05    0.6960303160E+00    0.1959722291E-01    0.6203388549E+00
    0.3900000000E+07    0.9063289134E-04    0.5772756845E-05    0.6960304163E+00    0.1869170162E-01    0.6225167886E+00
    0.4100000000E+07    0.8258586402E-04    0.5274512994E-05    0.6960305068E+00    0.1786559605E-01    0.6245018985E+00
    0.4300000000E+07    0.7556628225E-04    0.4838646160E-05    0.6960305890E+00    0.1710891946E-01    0.6263186808E+00
    0.4500000000E+07    0.6940641890E-04    0.4455122812E-05    0.6960306640E+00    0.1641329076E-01    0.6279876506E+00
    0.4700000000E+07    0.6397142940E-04    0.4115853427E-05    0.6960307326E+00    0.1577162440E-01    0.6295261200E+00
    0.4900000000E+07    0.5915190694E-04    0.3814256636E-05    0.6960307956E+00    0.1517788945E-01    0.6309487996E+00
    0.1000000000E+07    0.9534460439E-03    0.5640040230E-04    0.6960251905E+00    0.5591980786E-01    0.5307384085E+00
    0.3000000000E+07    0.1467997572E-03    0.9216994581E-05    0.6960298615E+00    0.2359004241E-01    0.6107095762E+00
    0.5000000000E+07    0.5694431640E-04    0.3675859262E-05    0.6960308252E+00    0.1489735259E-01    0.6316207220E+00
    0.7000000000E+07    0.3007151747E-04    0.1975321804E-05    0.6960312391E+00    0.1086850453E-01    0.6412509440E+00
    0.9000000000E+07    0.1858227986E-04    0.1235530809E-05    0.6960314661E+00    0.8546990024E-02    0.6467847911E+00
    0.1100000000E+08    0.1263516386E-04    0.8475661894E-06    0.6960316070E+00    0.7038440607E-02    0.6503754080E+00
    0.1300000000E+08    0.9163604866E-05    0.6187326348E-06    0.6960317013E+00    0.5980000482E-02    0.6528924280E+00
    0.1500000000E+08    0.6962024873E-05    0.4723649612E-06    0.6960317675E+00    0.5196662557E-02    0.6547541690E+00
    0.1700000000E+08    0.5478442459E-05    0.3730176694E-06    0.6960318154E+00    0.4593676493E-02    0.6561867190E+00
    0.1900000000E+08    0.4431172033E-05    0.3024526010E-06    0.6960318510E+00    0.4115291161E-02    0.6573229469E+00
    0.2100000000E+08    0.3664261409E-05    0.2505000958E-06    0.6960318776E+00    0.3726569712E-02    0.6582460419E+00
    0.2300000000E+08    0.3085700159E-05    0.2111223340E-06    0.6960318978E+00    0.3404509449E-02    0.6590107398E+00
    0.2500000000E+08    0.2638357519E-05    0.1805492737E-06    0.6960319131E+00    0.3133349348E-02    0.6596545250E+00
    0.2700000000E+08    0.2285239172E-05    0.1563273187E-06    0.6960319246E+00    0.2901929599E-02    0.6602039280E+00
