  Pressure (Pa) 22mC5-500 (mol/kg) 23mC5-500 (mol/kg) 24mC5-500 (mol/kg) 2mC6-500 (mol/kg) 3mC6-500 (mol/kg)
    0.1000000000E+01    0.1980316052E-04    0.1916368026E-05    0.1266338484E+00    0.1638200220E-04    0.2605320887E-04
    0.3000000000E+01    0.4731270969E-04    0.4585328107E-05    0.2785316295E+00    0.4076688455E-04    0.7814627061E-04
    0.5000000000E+01    0.6783110542E-04    0.6584737205E-05    0.3664432560E+00    0.6075926293E-04    0.1302216895E-03
    0.7000000000E+01    0.8538951982E-04    0.8302544796E-05    0.4237666091E+00    0.7915564202E-04    0.1822795534E-03
    0.9000000000E+01    0.1015006381E-03    0.9883693050E-05    0.4641009891E+00    0.9690633507E-04    0.2343199067E-03
    0.1100000000E+02    0.1168366832E-03    0.1139228612E-04    0.4940245449E+00    0.1143880601E-03    0.2863427772E-03
    0.1300000000E+02    0.1317316848E-03    0.1286001171E-04    0.5171074885E+00    0.1317646712E-03    0.3383481853E-03
    0.1500000000E+02    0.1463652545E-03    0.1430381098E-04    0.5354550044E+00    0.1491112384E-03    0.3903361480E-03
    0.1700000000E+02    0.1608397447E-03    0.1573327613E-04    0.5503888036E+00    0.1664627037E-03    0.4423066798E-03
    0.1900000000E+02    0.1752160819E-03    0.1715407568E-04    0.5627805795E+00    0.1838348475E-03    0.4942597943E-03
    0.2100000000E+02    0.1895317473E-03    0.1856966766E-04    0.5732285145E+00    0.2012339785E-03    0.5461955040E-03
    0.2300000000E+02    0.2038103682E-03    0.1998221045E-04    0.5821567532E+00    0.2186616527E-03    0.5981138212E-03
    0.2500000000E+02    0.2180670961E-03    0.2139307165E-04    0.5898744059E+00    0.2361170615E-03    0.6500147575E-03
    0.2700000000E+02    0.2323117472E-03    0.2280312409E-04    0.5966120717E+00    0.2535982729E-03    0.7018983245E-03
    0.2900000000E+02    0.2465507007E-03    0.2421292409E-04    0.6025452770E+00    0.2711028860E-03    0.7537645334E-03
    0.3100000000E+02    0.2607880805E-03    0.2562282181E-04    0.6078099904E+00    0.2886283750E-03    0.8056133955E-03
    0.3300000000E+02    0.2750265076E-03    0.2703303134E-04    0.6125131721E+00    0.3061722684E-03    0.8574449217E-03
    0.3500000000E+02    0.2892675908E-03    0.2844367602E-04    0.6167401186E+00    0.3237322362E-03    0.9092591230E-03
    0.3700000000E+02    0.3035122518E-03    0.2985481842E-04    0.6205596831E+00    0.3413061275E-03    0.9610560103E-03
    0.3900000000E+02    0.3177609443E-03    0.3126648028E-04    0.6240280558E+00    0.3588919817E-03    0.1012835594E-02
    0.4100000000E+02    0.3320138024E-03    0.3267865611E-04    0.6271915468E+00    0.3764880240E-03    0.1064597886E-02
    0.4300000000E+02    0.3462707441E-03    0.3409132236E-04    0.6300886667E+00    0.3940926553E-03    0.1116342896E-02
    0.4500000000E+02    0.3605315426E-03    0.3550444390E-04    0.6327517021E+00    0.4117044372E-03    0.1168070635E-02
    0.4700000000E+02    0.3747958760E-03    0.3691797834E-04    0.6352079240E+00    0.4293220776E-03    0.1219781114E-02
    0.4900000000E+02    0.3890633625E-03    0.3833187910E-04    0.6374805257E+00    0.4469444156E-03    0.1271474343E-02
    0.1000000000E+02    0.1092396773E-03    0.1064460122E-04    0.4800948012E+00    0.1056676051E-03    0.2603335259E-03
    0.3000000000E+02    0.2536693951E-03    0.2491784479E-04    0.6052539288E+00    0.2798631781E-03    0.7796911321E-03
    0.5000000000E+02    0.3961981587E-03    0.3903895170E-04    0.6385542859E+00    0.4557570158E-03    0.1297314492E-02
    0.7000000000E+02    0.5389554503E-03    0.5318805487E-04    0.6539767852E+00    0.6320521264E-03    0.1813214457E-02
    0.9000000000E+02    0.6815836273E-03    0.6732585191E-04    0.6628720695E+00    0.8080981293E-03    0.2327401540E-02
    0.1100000000E+03    0.8238334502E-03    0.8142686745E-04    0.6686603150E+00    0.9836363940E-03    0.2839886124E-02
    0.1300000000E+03    0.9655593905E-03    0.9547653374E-04    0.6727274570E+00    0.1158548208E-02    0.3350678490E-02
    0.1500000000E+03    0.1106674325E-02    0.1094662276E-03    0.6757418259E+00    0.1332773191E-02    0.3859788829E-02
    0.1700000000E+03    0.1247124111E-02    0.1233906316E-03    0.6780653707E+00    0.1506278617E-02    0.4367227243E-02
    0.1900000000E+03    0.1386874102E-02    0.1372463638E-03    0.6799111757E+00    0.1679046212E-02    0.4873003749E-02
    0.2100000000E+03    0.1525901744E-02    0.1510312346E-03    0.6814128588E+00    0.1851065844E-02    0.5377128282E-02
    0.2300000000E+03    0.1664192296E-02    0.1647438210E-03    0.6826584572E+00    0.2022332242E-02    0.5879610693E-02
    0.2500000000E+03    0.1801736254E-02    0.1783832111E-03    0.6837083365E+00    0.2192843175E-02    0.6380460752E-02
    0.2700000000E+03    0.1938527730E-02    0.1919488452E-03    0.6846052710E+00    0.2362598396E-02    0.6879688151E-02
    0.2900000000E+03    0.2074563399E-02    0.2054404120E-03    0.6853804165E+00    0.2531598979E-02    0.7377302500E-02
    0.3100000000E+03    0.2209841795E-02    0.2188577800E-03    0.6860570041E+00    0.2699846913E-02    0.7873313331E-02
    0.3300000000E+03    0.2344362818E-02    0.2322009497E-03    0.6866527097E+00    0.2867344827E-02    0.8367730101E-02
    0.3500000000E+03    0.2478127400E-02    0.2454700209E-03    0.6871812206E+00    0.3034095807E-02    0.8860562188E-02
    0.3700000000E+03    0.2611137251E-02    0.2586651679E-03    0.6876533005E+00    0.3200103267E-02    0.9351818895E-02
    0.3900000000E+03    0.2743394683E-02    0.2717866229E-03    0.6880775306E+00    0.3365370863E-02    0.9841509449E-02
    0.4100000000E+03    0.2874902472E-02    0.2848346625E-03    0.6884608361E+00    0.3529902424E-02    0.1032964300E-01
    0.4300000000E+03    0.3005663761E-02    0.2978095981E-03    0.6888088672E+00    0.3693701907E-02    0.1081622864E-01
    0.4500000000E+03    0.3135681975E-02    0.3107117681E-03    0.6891262798E+00    0.3856773362E-02    0.1130127536E-01
    0.4700000000E+03    0.3264960767E-02    0.3235415325E-03    0.6894169448E+00    0.4019120906E-02    0.1178479210E-01
    0.4900000000E+03    0.3393503967E-02    0.3362992683E-03    0.6896841071E+00    0.4180748700E-02    0.1226678773E-01
    0.1000000000E+03    0.7527667156E-03    0.7438205119E-04    0.6660430853E+00    0.8959400828E-03    0.2583855999E-02
    0.3000000000E+03    0.2142297290E-02    0.2121583735E-03    0.6857298164E+00    0.2615816875E-02    0.7625507762E-02
    0.5000000000E+03    0.3457500957E-02    0.3426512468E-03    0.6898097479E+00    0.4261294000E-02    0.1250721788E-01
    0.7000000000E+03    0.4699841828E-02    0.4660092640E-03    0.6915737911E+00    0.5835443659E-02    0.1723807543E-01
    0.9000000000E+03    0.5873534147E-02    0.5826449275E-03    0.6925579919E+00    0.7342408912E-02    0.2182647219E-01
    0.1100000000E+04    0.6982865659E-02    0.6929766210E-03    0.6931859124E+00    0.8786146356E-02    0.2628016884E-01
    0.1300000000E+04    0.8031896407E-02    0.7974001427E-03    0.6936213880E+00    0.1017033997E-01    0.3060635349E-01
    0.1500000000E+04    0.9024409152E-02    0.8962841466E-03    0.6939411480E+00    0.1149840503E-01    0.3481169387E-01
    0.1700000000E+04    0.9963911796E-02    0.9899704796E-03    0.6941859143E+00    0.1277350646E-01    0.3890238381E-01
    0.1900000000E+04    0.1085365336E-01    0.1078775778E-02    0.6943793063E+00    0.1399857914E-01    0.4288418489E-01
    0.2100000000E+04    0.1169664327E-01    0.1162993364E-02    0.6945359662E+00    0.1517634750E-01    0.4676246378E-01
    0.2300000000E+04    0.1249567071E-01    0.1242895134E-02    0.6946654543E+00    0.1630934343E-01    0.5054222568E-01
    0.2500000000E+04    0.1325332293E-01    0.1318733346E-02    0.6947742777E+00    0.1739992276E-01    0.5422814454E-01
    0.2700000000E+04    0.1397200218E-01    0.1390742266E-02    0.6948670192E+00    0.1845028003E-01    0.5782459019E-01
    0.2900000000E+04    0.1465394116E-01    0.1459139672E-02    0.6949469996E+00    0.1946246194E-01    0.6133565290E-01
    0.3100000000E+04    0.1530121711E-01    0.1524128223E-02    0.6950166842E+00    0.2043837944E-01    0.6476516560E-01
    0.3300000000E+04    0.1591576463E-01    0.1585896702E-02    0.6950779415E+00    0.2137981876E-01    0.6811672395E-01
    0.3500000000E+04    0.1649938722E-01    0.1644621145E-02    0.6951322138E+00    0.2228845129E-01    0.7139370463E-01
    0.3700000000E+04    0.1705376789E-01    0.1700465860E-02    0.6951806317E+00    0.2316584267E-01    0.7459928191E-01
    0.3900000000E+04    0.1758047863E-01    0.1753584363E-02    0.6952240946E+00    0.2401346088E-01    0.7773644277E-01
    0.4100000000E+04    0.1808098920E-01    0.1804120214E-02    0.6952633263E+00    0.2483268379E-01    0.8080800065E-01
    0.4300000000E+04    0.1855667499E-01    0.1852207794E-02    0.6952989163E+00    0.2562480584E-01    0.8381660804E-01
    0.4500000000E+04    0.1900882421E-01    0.1897972999E-02    0.6953313495E+00    0.2639104432E-01    0.8676476792E-01
    0.4700000000E+04    0.1943864449E-01    0.1941533880E-02    0.6953610282E+00    0.2713254491E-01    0.8965484432E-01
    0.4900000000E+04    0.1984726886E-01    0.1983001226E-02    0.6953882893E+00    0.2785038691E-01    0.9248907197E-01
    0.1000000000E+04    0.6435984908E-02    0.6385734102E-03    0.6929031898E+00    0.8071944390E-02    0.2406969599E-01
    0.3000000000E+04    0.1498178790E-01    0.1492047944E-02    0.6949830005E+00    0.1995483930E-01    0.6306037294E-01
    0.5000000000E+04    0.2004396762E-01    0.2002982591E-02    0.6954011037E+00    0.2820075625E-01    0.9388590767E-01
    0.7000000000E+04    0.2309168232E-01    0.2314868760E-02    0.6955806361E+00    0.3418472274E-01    0.1193482210E+00
    0.9000000000E+04    0.2490478403E-01    0.2504084036E-02    0.6956805042E+00    0.3866752389E-01    0.1410527576E+00
    0.1100000000E+05    0.2592854703E-01    0.2614375920E-02    0.6957441206E+00    0.4210364482E-01    0.1599907957E+00
    0.1300000000E+05    0.2643188442E-01    0.2672257988E-02    0.6957882002E+00    0.4478123884E-01    0.1768110226E+00
    0.1500000000E+05    0.2658450883E-01    0.2694528417E-02    0.6958205494E+00    0.4689189014E-01    0.1919581817E+00
    0.1700000000E+05    0.2649735733E-01    0.2692214933E-02    0.6958453037E+00    0.4856801484E-01    0.2057490802E+00
    0.1900000000E+05    0.2624503396E-01    0.2672768571E-02    0.6958648588E+00    0.4990413245E-01    0.2184167278E+00
    0.2100000000E+05    0.2587887893E-01    0.2641343538E-02    0.6958806982E+00    0.5096957026E-01    0.2301372216E+00
    0.2300000000E+05    0.2543489039E-01    0.2601574524E-02    0.6958937901E+00    0.5181637018E-01    0.2410467911E+00
    0.2500000000E+05    0.2493869226E-01    0.2556065215E-02    0.6959047929E+00    0.5248438614E-01    0.2512529832E+00
    0.2700000000E+05    0.2440874198E-01    0.2506704449E-02    0.6959141702E+00    0.5300467191E-01    0.2608422216E+00
    0.2900000000E+05    0.2385845489E-01    0.2454876115E-02    0.6959222579E+00    0.5340179365E-01    0.2698850515E+00
    0.3100000000E+05    0.2329764246E-01    0.2401601634E-02    0.6959293052E+00    0.5369544580E-01    0.2784398611E+00
    0.3300000000E+05    0.2273350518E-01    0.2347638591E-02    0.6959355009E+00    0.5390160415E-01    0.2865555784E+00
    0.3500000000E+05    0.2217132980E-01    0.2293550214E-02    0.6959409908E+00    0.5403336407E-01    0.2942736600E+00
    0.3700000000E+05    0.2161498639E-01    0.2239755061E-02    0.6959458892E+00    0.5410156029E-01    0.3016295829E+00
    0.3900000000E+05    0.2106728759E-01    0.2186563051E-02    0.6959502869E+00    0.5411523200E-01    0.3086539800E+00
    0.4100000000E+05    0.2053025130E-01    0.2134201912E-02    0.6959542571E+00    0.5408197700E-01    0.3153735168E+00
    0.4300000000E+05    0.2000529488E-01    0.2082836806E-02    0.6959578592E+00    0.5400822447E-01    0.3218115756E+00
    0.4500000000E+05    0.1949338009E-01    0.2032585035E-02    0.6959611424E+00    0.5389944773E-01    0.3279887974E+00
    0.4700000000E+05    0.1899512209E-01    0.1983527157E-02    0.6959641472E+00    0.5376033189E-01    0.3339235135E+00
    0.4900000000E+05    0.1851087217E-01    0.1935715455E-02    0.6959669076E+00    0.5359490715E-01    0.3396320949E+00
    0.1000000000E+05    0.2549554382E-01    0.2567146535E-02    0.6957154861E+00    0.4049554537E-01    0.1508210570E+00
    0.3000000000E+05    0.2357886245E-01    0.2428367039E-02    0.6959258986E+00    0.5356047886E-01    0.2742202052E+00
    0.5000000000E+05    0.1827405370E-01    0.1912287157E-02    0.6959682053E+00    0.5350343612E-01    0.3424062358E+00
    0.7000000000E+05    0.1424796828E-01    0.1509643716E-02    0.6959864000E+00    0.5092848518E-01    0.3889147920E+00
    0.9000000000E+05    0.1134055765E-01    0.1213949453E-02    0.6959965366E+00    0.4781940439E-01    0.4233294462E+00
    0.1100000000E+06    0.9212665775E-02    0.9947928138E-03    0.6960030026E+00    0.4474292124E-01    0.4500126256E+00
    0.1300000000E+06    0.7620107481E-02    0.8290892285E-03    0.6960074887E+00    0.4187590067E-01    0.4713715757E+00
    0.1500000000E+06    0.6401517472E-02    0.7011982878E-03    0.6960107848E+00    0.3926373238E-01    0.4888809757E+00
    0.1700000000E+06    0.5450190973E-02    0.6006061727E-03    0.6960133098E+00    0.3690394014E-01    0.5035066741E+00
    0.1900000000E+06    0.4694220913E-02    0.5201393758E-03    0.6960153064E+00    0.3477706359E-01    0.5159120602E+00
    0.2100000000E+06    0.4084039786E-02    0.4548031890E-03    0.6960169252E+00    0.3285885293E-01    0.5265695928E+00
    0.2300000000E+06    0.3584708159E-02    0.4010470330E-03    0.6960182644E+00    0.3112515459E-01    0.5358256282E+00
    0.2500000000E+06    0.3171080575E-02    0.3562968133E-03    0.6960193907E+00    0.2955376393E-01    0.5439402065E+00
    0.2700000000E+06    0.2824713761E-02    0.3186522592E-03    0.6960203514E+00    0.2812498498E-01    0.5511125329E+00
    0.2900000000E+06    0.2531845810E-02    0.2866871739E-03    0.6960211806E+00    0.2682164286E-01    0.5574978713E+00
    0.3100000000E+06    0.2282047012E-02    0.2593149746E-03    0.6960219036E+00    0.2562887941E-01    0.5632190739E+00
    0.3300000000E+06    0.2067300862E-02    0.2356964478E-03    0.6960225397E+00    0.2453387950E-01    0.5683746443E+00
    0.3500000000E+06    0.1881366343E-02    0.2151753299E-03    0.6960231036E+00    0.2352559283E-01    0.5730444994E+00
    0.3700000000E+06    0.1719327707E-02    0.1972325711E-03    0.6960236070E+00    0.2259447782E-01    0.5772941645E+00
    0.3900000000E+06    0.1577271582E-02    0.1814533625E-03    0.6960240592E+00    0.2173227640E-01    0.5811778783E+00
    0.4100000000E+06    0.1452051998E-02    0.1675030278E-03    0.6960244677E+00    0.2093182083E-01    0.5847409253E+00
    0.4300000000E+06    0.1341117074E-02    0.1551091636E-03    0.6960248385E+00    0.2018686990E-01    0.5880214127E+00
    0.4500000000E+06    0.1242379609E-02    0.1440482499E-03    0.6960251766E+00    0.1949197102E-01    0.5910516386E+00
    0.4700000000E+06    0.1154119327E-02    0.1341354972E-03    0.6960254861E+00    0.1884234446E-01    0.5938591598E+00
    0.4900000000E+06    0.1074908257E-02    0.1252170689E-03    0.6960257706E+00    0.1823378619E-01    0.5964676306E+00
    0.1000000000E+06    0.1019673953E-01    0.1096448320E-02    0.6960000911E+00    0.4626131529E-01    0.4374577135E+00
    0.3000000000E+06    0.2402111785E-02    0.2724843479E-03    0.6960215541E+00    0.2621228430E-01    0.5604348391E+00
    0.5000000000E+06    0.1038315429E-02    0.1210896068E-03    0.6960259044E+00    0.1794373099E-01    0.5977037142E+00
    0.7000000000E+06    0.5748388659E-03    0.6831193739E-04    0.6960277830E+00    0.1359529164E-01    0.6157164805E+00
    0.9000000000E+06    0.3640620033E-03    0.4388487983E-04    0.6960288317E+00    0.1092842056E-01    0.6263262715E+00
    0.1100000000E+07    0.2509265792E-03    0.3059576428E-04    0.6960295012E+00    0.9129382061E-02    0.6333158214E+00
    0.1300000000E+07    0.1833053609E-03    0.2256543223E-04    0.6960299656E+00    0.7835152282E-02    0.6382665135E+00
    0.1500000000E+07    0.1397134490E-03    0.1734072121E-04    0.6960303064E+00    0.6859985348E-02    0.6419560975E+00
    0.1700000000E+07    0.1099894675E-03    0.1374963436E-04    0.6960305670E+00    0.6099146247E-02    0.6448115361E+00
    0.1900000000E+07    0.8882363003E-04    0.1117447832E-04    0.6960307726E+00    0.5489146428E-02    0.6470866879E+00
    0.2100000000E+07    0.7322275196E-04    0.9264445365E-05    0.6960309388E+00    0.4989282663E-02    0.6489419385E+00
    0.2300000000E+07    0.6139571102E-04    0.7808219919E-05    0.6960310758E+00    0.4572267572E-02    0.6504835845E+00
    0.2500000000E+07    0.5221765392E-04    0.6672302231E-05    0.6960311906E+00    0.4219128392E-02    0.6517848551E+00
    0.2700000000E+07    0.4495339129E-04    0.5768967067E-05    0.6960312881E+00    0.3916267139E-02    0.6528978390E+00
    0.2900000000E+07    0.3910602025E-04    0.5038628930E-05    0.6960313718E+00    0.3653684873E-02    0.6538605971E+00
    0.3100000000E+07    0.3432994709E-04    0.4439657240E-05    0.6960314445E+00    0.3423865875E-02    0.6547015856E+00
    0.3300000000E+07    0.3037880605E-04    0.3942248830E-05    0.6960315080E+00    0.3221052459E-02    0.6554425047E+00
    0.3500000000E+07    0.2707314759E-04    0.3524609696E-05    0.6960315640E+00    0.3040759748E-02    0.6561001904E+00
    0.3700000000E+07    0.2427976427E-04    0.3170502008E-05    0.6960316137E+00    0.2879442653E-02    0.6566879049E+00
    0.3900000000E+07    0.2189810033E-04    0.2867625437E-05    0.6960316581E+00    0.2734262157E-02    0.6572162368E+00
    0.4100000000E+07    0.1985110150E-04    0.2606523438E-05    0.6960316978E+00    0.2602918002E-02    0.6576937420E+00
    0.4300000000E+07    0.1807892159E-04    0.2379828469E-05    0.6960317337E+00    0.2483526773E-02    0.6581274090E+00
    0.4500000000E+07    0.1653451052E-04    0.2181731153E-05    0.6960317661E+00    0.2374531640E-02    0.6585230022E+00
    0.4700000000E+07    0.1518046736E-04    0.2007600512E-05    0.6960317955E+00    0.2274634562E-02    0.6588853184E+00
    0.4900000000E+07    0.1398676044E-04    0.1853708035E-05    0.6960318224E+00    0.2182744701E-02    0.6592183816E+00
    0.1000000000E+07    0.2996643612E-03    0.3633992742E-04    0.6960291997E+00    0.9949082786E-02    0.6301471426E+00
    0.3000000000E+07    0.3660134468E-04    0.4724809050E-05    0.6960314094E+00    0.3535074429E-02    0.6542948238E+00
    0.5000000000E+07    0.1344224151E-04    0.1783381549E-05    0.6960318349E+00    0.2139508279E-02    0.6593750270E+00
    0.7000000000E+07    0.6938996878E-05    0.9356617122E-06    0.6960320032E+00    0.1531138129E-02    0.6615747961E+00
    0.9000000000E+07    0.4240345968E-05    0.5777906527E-06    0.6960320864E+00    0.1190952354E-02    0.6628017750E+00
    0.1100000000E+08    0.2867386094E-05    0.3933943831E-06    0.6960321314E+00    0.9738291842E-03    0.6635840376E+00
    0.1300000000E+08    0.2074763537E-05    0.2858781614E-06    0.6960321565E+00    0.8233026508E-03    0.6641261065E+00
    0.1500000000E+08    0.1575868168E-05    0.2176594137E-06    0.6960321698E+00    0.7128496318E-03    0.6645238017E+00
    0.1700000000E+08    0.1241447755E-05    0.1716269072E-06    0.6960321759E+00    0.6283716531E-03    0.6648279764E+00
    0.1900000000E+08    0.1006266051E-05    0.1390745752E-06    0.6960321771E+00    0.5616848467E-03    0.6650681198E+00
    0.2100000000E+08    0.8345064288E-06    0.1151893489E-06    0.6960321751E+00    0.5077139619E-03    0.6652625070E+00
    0.2300000000E+08    0.7051749217E-06    0.9713290798E-07    0.6960321708E+00    0.4631449982E-03    0.6654230661E+00
    0.2500000000E+08    0.6053038029E-06    0.8314262431E-07    0.6960321648E+00    0.4257225363E-03    0.6655579124E+00
    0.2700000000E+08    0.5265314311E-06    0.7207648025E-07    0.6960321577E+00    0.3938585203E-03    0.6656727588E+00
