  Pressure (Pa) 22mC5-500 (mol/kg) 23mC5-500 (mol/kg) 24mC5-500 (mol/kg) 2mC6-500 (mol/kg) 3mC6-500 (mol/kg)
    0.1000000000E+01    0.2228752626E-04    0.2155847086E-05    0.3666063898E-01    0.2423240220E-04    0.3647373846E-04
    0.3000000000E+01    0.6162351342E-04    0.5962421728E-05    0.9949087365E-01    0.6763638219E-04    0.1093978158E-03
    0.5000000000E+01    0.9560989955E-04    0.9253758534E-05    0.1513789417E+00    0.1059829703E-03    0.1822907492E-03
    0.7000000000E+01    0.1256389284E-03    0.1216445798E-04    0.1949548827E+00    0.1406917063E-03    0.2551525936E-03
    0.9000000000E+01    0.1526728091E-03    0.1478746815E-04    0.2320683361E+00    0.1727271011E-03    0.3279833951E-03
    0.1100000000E+02    0.1773956520E-03    0.1718881569E-04    0.2640580129E+00    0.2027624951E-03    0.4007831937E-03
    0.1300000000E+02    0.2003056603E-03    0.1941654087E-04    0.2919167221E+00    0.2312788354E-03    0.4735520254E-03
    0.1500000000E+02    0.2217732003E-03    0.2150632345E-04    0.3163963150E+00    0.2586264335E-03    0.5462899232E-03
    0.1700000000E+02    0.2420785678E-03    0.2348513991E-04    0.3380766072E+00    0.2850647941E-03    0.6189969181E-03
    0.1900000000E+02    0.2614372382E-03    0.2537370742E-04    0.3574119244E+00    0.3107890028E-03    0.6916730395E-03
    0.2100000000E+02    0.2800171604E-03    0.2718815705E-04    0.3747633105E+00    0.3359476211E-03    0.7643183156E-03
    0.2300000000E+02    0.2979508573E-03    0.2894120384E-04    0.3904213013E+00    0.3606550762E-03    0.8369327737E-03
    0.2500000000E+02    0.3153440536E-03    0.3064298065E-04    0.4046223358E+00    0.3850003966E-03    0.9095164403E-03
    0.2700000000E+02    0.3322819330E-03    0.3230164256E-04    0.4175607877E+00    0.4090534727E-03    0.9820693417E-03
    0.2900000000E+02    0.3488337447E-03    0.3392381167E-04    0.4293979227E+00    0.4328696105E-03    0.1054591503E-02
    0.3100000000E+02    0.3650562436E-03    0.3551490893E-04    0.4402686602E+00    0.4564928874E-03    0.1127082950E-02
    0.3300000000E+02    0.3809962894E-03    0.3707940482E-04    0.4502867429E+00    0.4799586553E-03    0.1199543708E-02
    0.3500000000E+02    0.3966928350E-03    0.3862101099E-04    0.4595487350E+00    0.5032954288E-03    0.1271973800E-02
    0.3700000000E+02    0.4121784624E-03    0.4014282813E-04    0.4681371475E+00    0.5265263224E-03    0.1344373252E-02
    0.3900000000E+02    0.4274805811E-03    0.4164746138E-04    0.4761229054E+00    0.5496701566E-03    0.1416742087E-02
    0.4100000000E+02    0.4426223710E-03    0.4313711098E-04    0.4835673120E+00    0.5727423144E-03    0.1489080330E-02
    0.4300000000E+02    0.4576235315E-03    0.4461364430E-04    0.4905236277E+00    0.5957554117E-03    0.1561388005E-02
    0.4500000000E+02    0.4725008799E-03    0.4607865330E-04    0.4970383469E+00    0.6187198235E-03    0.1633665136E-02
    0.4700000000E+02    0.4872688333E-03    0.4753350082E-04    0.5031522395E+00    0.6416441024E-03    0.1705911746E-02
    0.4900000000E+02    0.5019398000E-03    0.4897935810E-04    0.5089012057E+00    0.6645353110E-03    0.1778127859E-02
    0.1000000000E+02    0.1652884202E-03    0.1601250366E-04    0.2486349386E+00    0.1879610881E-03    0.3643871674E-03
    0.3000000000E+02    0.3569830235E-03    0.3472294509E-04    0.4349465376E+00    0.4447029672E-03    0.1090841064E-02
    0.5000000000E+02    0.5092423212E-03    0.4969923666E-04    0.5116489050E+00    0.6759703806E-03    0.1814224486E-02
    0.7000000000E+02    0.6521520065E-03    0.6380816364E-04    0.5534925211E+00    0.9039063821E-03    0.2534561673E-02
    0.9000000000E+02    0.7917743343E-03    0.7761833596E-04    0.5798439427E+00    0.1131367603E-02    0.3251875850E-02
    0.1100000000E+03    0.9298296428E-03    0.9128774794E-04    0.5979644077E+00    0.1358636804E-02    0.3966189818E-02
    0.1300000000E+03    0.1066885721E-02    0.1048668777E-03    0.6111901533E+00    0.1585567578E-02    0.4677526076E-02
    0.1500000000E+03    0.1203136488E-02    0.1183719366E-03    0.6212688453E+00    0.1811970123E-02    0.5385906863E-02
    0.1700000000E+03    0.1338640398E-02    0.1318070278E-03    0.6292045550E+00    0.2037684164E-02    0.6091354176E-02
    0.1900000000E+03    0.1473404513E-02    0.1451718429E-03    0.6356152377E+00    0.2262586362E-02    0.6793889780E-02
    0.2100000000E+03    0.1607416937E-02    0.1584645728E-03    0.6409020658E+00    0.2486584412E-02    0.7493535213E-02
    0.2300000000E+03    0.1740659982E-02    0.1716830560E-03    0.6453368306E+00    0.2709609809E-02    0.8190311792E-02
    0.2500000000E+03    0.1873115583E-02    0.1848252291E-03    0.6491102124E+00    0.2931611848E-02    0.8884240619E-02
    0.2700000000E+03    0.2004767439E-02    0.1978892883E-03    0.6523599386E+00    0.3152553081E-02    0.9575342577E-02
    0.2900000000E+03    0.2135601713E-02    0.2108737301E-03    0.6551879737E+00    0.3372405992E-02    0.1026363834E-01
    0.3100000000E+03    0.2265607124E-02    0.2237773410E-03    0.6576714202E+00    0.3591150563E-02    0.1094914838E-01
    0.3300000000E+03    0.2394774781E-02    0.2365991696E-03    0.6598696612E+00    0.3808772500E-02    0.1163189295E-01
    0.3500000000E+03    0.2523097920E-02    0.2493384928E-03    0.6618291749E+00    0.4025261910E-02    0.1231189212E-01
    0.3700000000E+03    0.2650571633E-02    0.2619947837E-03    0.6635868592E+00    0.4240612331E-02    0.1298916574E-01
    0.3900000000E+03    0.2777192608E-02    0.2745676819E-03    0.6651723797E+00    0.4454819986E-02    0.1366373347E-01
    0.4100000000E+03    0.2902958892E-02    0.2870569682E-03    0.6666098590E+00    0.4667883226E-02    0.1433561479E-01
    0.4300000000E+03    0.3027869693E-02    0.2994625426E-03    0.6679191135E+00    0.4879802093E-02    0.1500482896E-01
    0.4500000000E+03    0.3151925202E-02    0.3117844063E-03    0.6691165735E+00    0.5090577990E-02    0.1567139507E-01
    0.4700000000E+03    0.3275126450E-02    0.3240226455E-03    0.6702159767E+00    0.5300213413E-02    0.1633533202E-01
    0.4900000000E+03    0.3397475176E-02    0.3361774189E-03    0.6712288983E+00    0.5508711746E-02    0.1699665852E-01
    0.1000000000E+03    0.8609488475E-03    0.8446623347E-04    0.5896715211E+00    0.1245032513E-02    0.3609406448E-02
    0.3000000000E+03    0.2200708636E-02    0.2173357046E-03    0.6564687091E+00    0.3481917830E-02    0.1060674031E-01
    0.5000000000E+03    0.3458330555E-02    0.3422235725E-03    0.6717060570E+00    0.5612535762E-02    0.1732634864E-01
    0.7000000000E+03    0.4631498372E-02    0.4588430052E-03    0.6784604426E+00    0.7630589059E-02    0.2378753616E-01
    0.9000000000E+03    0.5724207859E-02    0.5675792718E-03    0.6822742697E+00    0.9541821957E-02    0.3000780540E-01
    0.1100000000E+04    0.6741816857E-02    0.6689542535E-03    0.6847249398E+00    0.1135319317E-01    0.3600306396E-01
    0.1300000000E+04    0.7689744348E-02    0.7634962091E-03    0.6864326854E+00    0.1307148286E-01    0.4178780300E-01
    0.1500000000E+04    0.8573129584E-02    0.8517061686E-03    0.6876909816E+00    0.1470301933E-01    0.4737525224E-01
    0.1700000000E+04    0.9396742052E-02    0.9340491348E-03    0.6886566960E+00    0.1625363584E-01    0.5277751505E-01
    0.1900000000E+04    0.1016497074E-01    0.1010953056E-02    0.6894212935E+00    0.1772868840E-01    0.5800568647E-01
    0.2100000000E+04    0.1088184098E-01    0.1082810481E-02    0.6900417063E+00    0.1913309079E-01    0.6306995676E-01
    0.2300000000E+04    0.1155104054E-01    0.1149981110E-02    0.6905552272E+00    0.2047135300E-01    0.6797970241E-01
    0.2500000000E+04    0.1217594801E-01    0.1212794561E-02    0.6909873063E+00    0.2174761851E-01    0.7274356642E-01
    0.2700000000E+04    0.1275966056E-01    0.1271553074E-02    0.6913559068E+00    0.2296569885E-01    0.7736952917E-01
    0.2900000000E+04    0.1330501992E-01    0.1326534038E-02    0.6916740697E+00    0.2412910499E-01    0.8186497132E-01
    0.3100000000E+04    0.1381463620E-01    0.1377992308E-02    0.6919514921E+00    0.2524107556E-01    0.8623672960E-01
    0.3300000000E+04    0.1429090954E-01    0.1426162309E-02    0.6921955340E+00    0.2630460225E-01    0.9049114652E-01
    0.3500000000E+04    0.1473604956E-01    0.1471259931E-02    0.6924118831E+00    0.2732245247E-01    0.9463411469E-01
    0.3700000000E+04    0.1515209299E-01    0.1513484232E-02    0.6926050038E+00    0.2829718970E-01    0.9867111646E-01
    0.3900000000E+04    0.1554091934E-01    0.1553018974E-02    0.6927784497E+00    0.2923119170E-01    0.1026072594E+00
    0.4100000000E+04    0.1590426511E-01    0.1590033996E-02    0.6929350844E+00    0.3012666684E-01    0.1064473084E+00
    0.4300000000E+04    0.1624373655E-01    0.1624686451E-02    0.6930772412E+00    0.3098566879E-01    0.1101957138E+00
    0.4500000000E+04    0.1656082102E-01    0.1657121922E-02    0.6932068407E+00    0.3181010968E-01    0.1138566380E+00
    0.4700000000E+04    0.1685689736E-01    0.1687475416E-02    0.6933254781E+00    0.3260177205E-01    0.1174339779E+00
    0.4900000000E+04    0.1713324514E-01    0.1715872273E-02    0.6934344891E+00    0.3336231948E-01    0.1209313869E+00
    0.1000000000E+04    0.6242056713E-02    0.6191534685E-03    0.6836198164E+00    0.1045955724E-01    0.3303262404E-01
    0.3000000000E+04    0.1356414125E-01    0.1352688403E-02    0.6918173678E+00    0.2469132723E-01    0.8406590350E-01
    0.5000000000E+04    0.1726439563E-01    0.1729373689E-02    0.6934857440E+00    0.3373141485E-01    0.1226511969E+00
    0.7000000000E+04    0.1909924323E-01    0.1920961991E-02    0.6942047497E+00    0.3980771060E-01    0.1535811372E+00
    0.9000000000E+04    0.1990335144E-01    0.2009400948E-02    0.6946055366E+00    0.4404175730E-01    0.1793781318E+00
    0.1100000000E+05    0.2011115531E-01    0.2037550334E-02    0.6948612101E+00    0.4705759254E-01    0.2015084589E+00
    0.1300000000E+05    0.1996464609E-01    0.2029417923E-02    0.6950385660E+00    0.4922959720E-01    0.2208905012E+00
    0.1500000000E+05    0.1960561275E-01    0.1999160729E-02    0.6951688469E+00    0.5079585075E-01    0.2381339682E+00
    0.1700000000E+05    0.1912034648E-01    0.1955457874E-02    0.6952686219E+00    0.5191492481E-01    0.2536630163E+00
    0.1900000000E+05    0.1856286331E-01    0.1903788367E-02    0.6953474976E+00    0.5269647025E-01    0.2677842468E+00
    0.2100000000E+05    0.1796766072E-01    0.1847686178E-02    0.6954114280E+00    0.5321868632E-01    0.2807264773E+00
    0.2300000000E+05    0.1735705327E-01    0.1789464411E-02    0.6954643006E+00    0.5353879552E-01    0.2926651372E+00
    0.2500000000E+05    0.1674555429E-01    0.1730649488E-02    0.6955087613E+00    0.5369958778E-01    0.3037378479E+00
    0.2700000000E+05    0.1614257774E-01    0.1672249981E-02    0.6955466735E+00    0.5373365490E-01    0.3140547215E+00
    0.2900000000E+05    0.1555414975E-01    0.1614927678E-02    0.6955793879E+00    0.5366621490E-01    0.3237053765E+00
    0.3100000000E+05    0.1498401783E-01    0.1559108986E-02    0.6956079073E+00    0.5351704621E-01    0.3327638438E+00
    0.3300000000E+05    0.1443438369E-01    0.1505058942E-02    0.6956329918E+00    0.5330184352E-01    0.3412920782E+00
    0.3500000000E+05    0.1390639537E-01    0.1452931209E-02    0.6956552283E+00    0.5303318788E-01    0.3493425254E+00
    0.3700000000E+05    0.1340048238E-01    0.1402802343E-02    0.6956750770E+00    0.5272125367E-01    0.3569600323E+00
    0.3900000000E+05    0.1291658638E-01    0.1354695563E-02    0.6956929040E+00    0.5237433231E-01    0.3641832941E+00
    0.4100000000E+05    0.1245432146E-01    0.1308597394E-02    0.6957090040E+00    0.5199922591E-01    0.3710459659E+00
    0.4300000000E+05    0.1201308627E-01    0.1264469431E-02    0.6957236172E+00    0.5160154721E-01    0.3775775301E+00
    0.4500000000E+05    0.1159214280E-01    0.1222256680E-02    0.6957369410E+00    0.5118595069E-01    0.3838039801E+00
    0.4700000000E+05    0.1119067178E-01    0.1181893509E-02    0.6957491394E+00    0.5075631284E-01    0.3897483668E+00
    0.4900000000E+05    0.1080781173E-01    0.1143307903E-02    0.6957603497E+00    0.5031587392E-01    0.3954312393E+00
    0.1000000000E+05    0.2006356731E-01    0.2029207084E-02    0.6947460889E+00    0.4567441876E-01    0.1908349838E+00
    0.3000000000E+05    0.1526662964E-01    0.1586810712E-02    0.6955941197E+00    0.5360078290E-01    0.3283045123E+00
    0.5000000000E+05    0.1062308696E-01    0.1124658200E-02    0.6957656212E+00    0.5009247087E-01    0.3981804350E+00
    0.7000000000E+05    0.7702267979E-02    0.8268763468E-03    0.6958396375E+00    0.4552314388E-01    0.4430446821E+00
    0.9000000000E+05    0.5814530017E-02    0.6312694232E-03    0.6958809887E+00    0.4128919827E-01    0.4747484204E+00
    0.1100000000E+06    0.4536514081E-02    0.4971749036E-03    0.6959074303E+00    0.3760483668E-01    0.4984686791E+00
    0.1300000000E+06    0.3634647911E-02    0.4015735419E-03    0.6959258147E+00    0.3444243438E-01    0.5169285549E+00
    0.1500000000E+06    0.2975755412E-02    0.3311187163E-03    0.6959393492E+00    0.3172666939E-01    0.5317217804E+00
    0.1700000000E+06    0.2480276852E-02    0.2777357041E-03    0.6959497364E+00    0.2938205350E-01    0.5438506722E+00
    0.1900000000E+06    0.2098552139E-02    0.2363325251E-03    0.6959579643E+00    0.2734393031E-01    0.5539798430E+00
    0.2100000000E+06    0.1798367091E-02    0.2035773953E-03    0.6959646459E+00    0.2555950990E-01    0.5625684565E+00
    0.2300000000E+06    0.1558116074E-02    0.1772189373E-03    0.6959701818E+00    0.2398632492E-01    0.5699443998E+00
    0.2500000000E+06    0.1362883854E-02    0.1556926167E-03    0.6959748451E+00    0.2259027875E-01    0.5763483001E+00
    0.2700000000E+06    0.1202111638E-02    0.1378842765E-03    0.6959788281E+00    0.2134389598E-01    0.5819608599E+00
    0.2900000000E+06    0.1068158069E-02    0.1229832549E-03    0.6959822705E+00    0.2022490089E-01    0.5869204816E+00
    0.3100000000E+06    0.9553845251E-03    0.1103884043E-03    0.6959852761E+00    0.1921510388E-01    0.5913349960E+00
    0.3300000000E+06    0.8595577248E-03    0.9964634974E-04    0.6959879236E+00    0.1829954061E-01    0.5952896827E+00
    0.3500000000E+06    0.7774500272E-03    0.9040995822E-04    0.6959902738E+00    0.1746580842E-01    0.5988528851E+00
    0.3700000000E+06    0.7065661634E-03    0.8240980639E-04    0.6959923745E+00    0.1670355370E-01    0.6020800233E+00
    0.3900000000E+06    0.6449527317E-03    0.7543419976E-04    0.6959942637E+00    0.1600407379E-01    0.6050165159E+00
    0.4100000000E+06    0.5910630365E-03    0.6931493730E-04    0.6959959721E+00    0.1536000599E-01    0.6076999420E+00
    0.4300000000E+06    0.5436596475E-03    0.6391700890E-04    0.6959975246E+00    0.1476508289E-01    0.6101616645E+00
    0.4500000000E+06    0.5017431229E-03    0.5913103147E-04    0.6959989419E+00    0.1421393848E-01    0.6124280660E+00
    0.4700000000E+06    0.4644991710E-03    0.5486762259E-04    0.6960002409E+00    0.1370195356E-01    0.6145215003E+00
    0.4900000000E+06    0.4312589986E-03    0.5105316448E-04    0.6960014360E+00    0.1322513134E-01    0.6164610339E+00
    0.1000000000E+06    0.5117044318E-02    0.5582713430E-03    0.6958955169E+00    0.3937787208E-01    0.4874002521E+00
    0.3000000000E+06    0.1009415874E-02    0.1164287936E-03    0.6959838225E+00    0.1970735487E-01    0.5891900939E+00
    0.5000000000E+06    0.4159635580E-03    0.4929478725E-04    0.6960019985E+00    0.1299880232E-01    0.6173782935E+00
    0.7000000000E+06    0.2257834829E-03    0.2722568127E-04    0.6960099325E+00    0.9674753874E-02    0.6306136761E+00
    0.9000000000E+06    0.1417332544E-03    0.1730218068E-04    0.6960144028E+00    0.7696077717E-02    0.6382973445E+00
    0.1100000000E+07    0.9736290609E-04    0.1199469201E-04    0.6960172802E+00    0.6385146322E-02    0.6433151669E+00
    0.1300000000E+07    0.7112150046E-04    0.8822818593E-05    0.6960192913E+00    0.5453409616E-02    0.6468485504E+00
    0.1500000000E+07    0.5432369936E-04    0.6774804915E-05    0.6960207781E+00    0.4757450169E-02    0.6494708454E+00
    0.1700000000E+07    0.4292445632E-04    0.5374780703E-05    0.6960219230E+00    0.4217999204E-02    0.6514939051E+00
    0.1900000000E+07    0.3483353884E-04    0.4374788552E-05    0.6960228323E+00    0.3787703513E-02    0.6531018855E+00
    0.2100000000E+07    0.2888256395E-04    0.3635223429E-05    0.6960235721E+00    0.3436542856E-02    0.6544105253E+00
    0.2300000000E+07    0.2437693891E-04    0.3072562123E-05    0.6960241860E+00    0.3144569496E-02    0.6554962115E+00
    0.2500000000E+07    0.2088270819E-04    0.2634325439E-05    0.6960247037E+00    0.2898013424E-02    0.6564113905E+00
    0.2700000000E+07    0.1811742606E-04    0.2286181290E-05    0.6960251461E+00    0.2687064242E-02    0.6571932628E+00
    0.2900000000E+07    0.1589083842E-04    0.2004895838E-05    0.6960255285E+00    0.2504544279E-02    0.6578689463E+00
    0.3100000000E+07    0.1407099102E-04    0.1774285991E-05    0.6960258622E+00    0.2345081538E-02    0.6584586747E+00
    0.3300000000E+07    0.1256403072E-04    0.1582796188E-05    0.6960261561E+00    0.2204575841E-02    0.6589778505E+00
    0.3500000000E+07    0.1130172394E-04    0.1421994684E-05    0.6960264168E+00    0.2079843730E-02    0.6594384058E+00
    0.3700000000E+07    0.1023349767E-04    0.1285610978E-05    0.6960266495E+00    0.1968375989E-02    0.6598497272E+00
    0.3900000000E+07    0.9321222944E-05    0.1168902604E-05    0.6960268584E+00    0.1868168238E-02    0.6602192997E+00
    0.4100000000E+07    0.8535711504E-05    0.1068228456E-05    0.6960270471E+00    0.1777600132E-02    0.6605531652E+00
    0.4300000000E+07    0.7854311594E-05    0.9807550311E-06    0.6960272182E+00    0.1695347651E-02    0.6608562541E+00
    0.4500000000E+07    0.7259225724E-05    0.9042502729E-06    0.6960273741E+00    0.1620318369E-02    0.6611326295E+00
    0.4700000000E+07    0.6736312814E-05    0.8369363638E-06    0.6960275166E+00    0.1551602966E-02    0.6613856698E+00
    0.4900000000E+07    0.6274221638E-05    0.7773829420E-06    0.6960276474E+00    0.1488438438E-02    0.6616182072E+00
    0.1000000000E+07    0.1164083978E-03    0.1428027933E-04    0.6960159817E+00    0.6980135887E-02    0.6410446404E+00
    0.3000000000E+07    0.1493665686E-04    0.1884066192E-05    0.6960257008E+00    0.2422211989E-02    0.6581734976E+00
    0.5000000000E+07    0.6063039709E-05    0.7501446602E-06    0.6960277088E+00    0.1458732226E-02    0.6617275497E+00
    0.7000000000E+07    0.3509281907E-05    0.4198094795E-06    0.6960285610E+00    0.1041704736E-02    0.6632614463E+00
    0.9000000000E+07    0.2413713209E-05    0.2779442176E-06    0.6960290189E+00    0.8092919320E-03    0.6641157587E+00
    0.1100000000E+08    0.1834649512E-05    0.2033351207E-06    0.6960292954E+00    0.6612450257E-03    0.6646599849E+00
    0.1300000000E+08    0.1486223737E-05    0.1588355856E-06    0.6960294736E+00    0.5587398218E-03    0.6650369202E+00
    0.1500000000E+08    0.1257150565E-05    0.1299078653E-06    0.6960295929E+00    0.4835925835E-03    0.6653133764E+00
    0.1700000000E+08    0.1096529601E-05    0.1098853422E-06    0.6960296741E+00    0.4261568432E-03    0.6655247794E+00
    0.1900000000E+08    0.9782690658E-06    0.9534851057E-07    0.6960297296E+00    0.3808411572E-03    0.6656916592E+00
    0.2100000000E+08    0.8878041446E-06    0.8439019060E-07    0.6960297668E+00    0.3441818260E-03    0.6658267323E+00
    0.2300000000E+08    0.8164470497E-06    0.7587507940E-07    0.6960297908E+00    0.3139191349E-03    0.6659382955E+00
    0.2500000000E+08    0.7587326913E-06    0.6909113891E-07    0.6960298048E+00    0.2885162790E-03    0.6660319921E+00
    0.2700000000E+08    0.7110700625E-06    0.6357225937E-07    0.6960298113E+00    0.2668918224E-03    0.6661117936E+00
