  Pressure (Pa) 22mC5-500 (mol/kg) 23mC5-500 (mol/kg) 24mC5-500 (mol/kg) 2mC6-500 (mol/kg) 3mC6-500 (mol/kg)
    0.1000000000E+01    0.2136966930E-04    0.4134676177E-05    0.6965291256E-01    0.1750710954E-04    0.2605318104E-04
    0.3000000000E+01    0.5554611391E-04    0.1075412027E-04    0.1740986325E+00    0.4641432488E-04    0.7814592555E-04
    0.5000000000E+01    0.8269674943E-04    0.1602273506E-04    0.2486792931E+00    0.7053210557E-04    0.1302205937E-03
    0.7000000000E+01    0.1056975840E-03    0.2049578997E-04    0.3046029562E+00    0.9199285480E-04    0.1822772460E-03
    0.9000000000E+01    0.1260873014E-03    0.2446980636E-04    0.3480927494E+00    0.1118928692E-03    0.2343159220E-03
    0.1100000000E+02    0.1447540814E-03    0.2811560709E-04    0.3828809700E+00    0.1308378462E-03    0.2863366505E-03
    0.1300000000E+02    0.1622411783E-03    0.3153745699E-04    0.4113419511E+00    0.1491810822E-03    0.3383394541E-03
    0.1500000000E+02    0.1788963845E-03    0.3480195974E-04    0.4350581831E+00    0.1671374867E-03    0.3903243521E-03
    0.1700000000E+02    0.1949507163E-03    0.3795325383E-04    0.4551250170E+00    0.1848421774E-03    0.4422913612E-03
    0.1900000000E+02    0.2105623516E-03    0.4102148812E-04    0.4723247203E+00    0.2023823542E-03    0.4942404968E-03
    0.2100000000E+02    0.2258423802E-03    0.4402778285E-04    0.4872308799E+00    0.2198154611E-03    0.5461717732E-03
    0.2300000000E+02    0.2408705165E-03    0.4698725296E-04    0.5002736396E+00    0.2371799425E-03    0.5980852041E-03
    0.2500000000E+02    0.2557050215E-03    0.4991091477E-04    0.5117819031E+00    0.2545018250E-03    0.6499808026E-03
    0.2700000000E+02    0.2703891567E-03    0.5280692428E-04    0.5220114652E+00    0.2717988586E-03    0.7018585812E-03
    0.2900000000E+02    0.2849554890E-03    0.5568140223E-04    0.5311642563E+00    0.2890831856E-03    0.7537185525E-03
    0.3100000000E+02    0.2994288295E-03    0.5853899628E-04    0.5394018125E+00    0.3063630956E-03    0.8055607286E-03
    0.3300000000E+02    0.3138282782E-03    0.6138327171E-04    0.5468548950E+00    0.3236442024E-03    0.8573851216E-03
    0.3500000000E+02    0.3281686726E-03    0.6421698777E-04    0.5536304863E+00    0.3409302442E-03    0.9091917431E-03
    0.3700000000E+02    0.3424616310E-03    0.6704229627E-04    0.5598169605E+00    0.3582236362E-03    0.9609806051E-03
    0.3900000000E+02    0.3567163131E-03    0.6986088630E-04    0.5654879606E+00    0.3755258560E-03    0.1012751719E-02
    0.4100000000E+02    0.3709399832E-03    0.7267409107E-04    0.5707053455E+00    0.3928377156E-03    0.1064505097E-02
    0.4300000000E+02    0.3851384313E-03    0.7548296767E-04    0.5755214562E+00    0.4101595556E-03    0.1116240749E-02
    0.4500000000E+02    0.3993162912E-03    0.7828835734E-04    0.5799808788E+00    0.4274913833E-03    0.1167958689E-02
    0.4700000000E+02    0.4134772842E-03    0.8109093133E-04    0.5841218297E+00    0.4448329735E-03    0.1219658926E-02
    0.4900000000E+02    0.4276244056E-03    0.8389122621E-04    0.5879772534E+00    0.4621839407E-03    0.1271341472E-02
    0.1000000000E+02    0.1355962486E-03    0.2632608799E-04    0.3664027145E+00    0.1214584518E-03    0.2603285282E-03
    0.3000000000E+02    0.2922024750E-03    0.5711206523E-04    0.5353886374E+00    0.2977232900E-03    0.7796418642E-03
    0.5000000000E+02    0.4346935388E-03    0.8529065669E-04    0.5898069662E+00    0.4708627896E-03    0.1297176115E-02
    0.7000000000E+02    0.5757324933E-03    0.1132267289E-03    0.6166755675E+00    0.6447904933E-03    0.1812942958E-02
    0.9000000000E+02    0.7164536304E-03    0.1411164773E-03    0.6326905883E+00    0.8190061995E-03    0.2326953560E-02
    0.1100000000E+03    0.8569050109E-03    0.1689605349E-03    0.6433239070E+00    0.9931064046E-03    0.2839218907E-02
    0.1300000000E+03    0.9969934598E-03    0.1967370155E-03    0.6508982556E+00    0.1166851990E-02    0.3349749868E-02
    0.1500000000E+03    0.1136624747E-02    0.2244257598E-03    0.6565677794E+00    0.1340100678E-02    0.3858557205E-02
    0.1700000000E+03    0.1275724132E-02    0.2520112643E-03    0.6609708522E+00    0.1512764888E-02    0.4365651584E-02
    0.1900000000E+03    0.1414235515E-02    0.2794820780E-03    0.6644892432E+00    0.1684788942E-02    0.4871043576E-02
    0.2100000000E+03    0.1552117365E-02    0.3068298095E-03    0.6673652795E+00    0.1856136573E-02    0.5374743661E-02
    0.2300000000E+03    0.1689339010E-02    0.3340483064E-03    0.6697601853E+00    0.2026783803E-02    0.5876762231E-02
    0.2500000000E+03    0.1825877806E-02    0.3611330515E-03    0.6717853932E+00    0.2196714717E-02    0.6377109585E-02
    0.2700000000E+03    0.1961717075E-02    0.3880807326E-03    0.6735203883E+00    0.2365918850E-02    0.6875795940E-02
    0.2900000000E+03    0.2096844617E-02    0.4148889363E-03    0.6750233925E+00    0.2534389525E-02    0.7372831424E-02
    0.3100000000E+03    0.2231251635E-02    0.4415559284E-03    0.6763380289E+00    0.2702122757E-02    0.7868226079E-02
    0.3300000000E+03    0.2364931947E-02    0.4680804943E-03    0.6774976278E+00    0.2869116510E-02    0.8361989866E-02
    0.3500000000E+03    0.2497881400E-02    0.4944618219E-03    0.6785280933E+00    0.3035370185E-02    0.8854132659E-02
    0.3700000000E+03    0.2630097440E-02    0.5206994141E-03    0.6794498630E+00    0.3200884262E-02    0.9344664253E-02
    0.3900000000E+03    0.2761578776E-02    0.5467930228E-03    0.6802792773E+00    0.3365660035E-02    0.9833594359E-02
    0.4100000000E+03    0.2892325128E-02    0.5727425984E-03    0.6810295572E+00    0.3529699422E-02    0.1032093261E-01
    0.4300000000E+03    0.3022337032E-02    0.5985482508E-03    0.6817115150E+00    0.3693004824E-02    0.1080668855E-01
    0.4500000000E+03    0.3151615682E-02    0.6242102192E-03    0.6823340790E+00    0.3855579019E-02    0.1129087167E-01
    0.4700000000E+03    0.3280162813E-02    0.6497288480E-03    0.6829046864E+00    0.4017425075E-02    0.1177349135E-01
    0.4900000000E+03    0.3407980601E-02    0.6751045675E-03    0.6834295825E+00    0.4178546296E-02    0.1225455691E-01
    0.1000000000E+03    0.7867182599E-03    0.1550455333E-03    0.6384948379E+00    0.9060886342E-03    0.2583303709E-02
    0.3000000000E+03    0.2164138632E-02    0.4282401703E-03    0.6757019714E+00    0.2618348488E-02    0.7620733231E-02
    0.5000000000E+03    0.3471616773E-02    0.6877389904E-03    0.6836765721E+00    0.4258836175E-02    0.1249450978E-01
    0.7000000000E+03    0.4706808950E-02    0.9330739979E-03    0.6871540493E+00    0.5827493873E-02    0.1721419568E-01
    0.9000000000E+03    0.5873131107E-02    0.1164915244E-02    0.6891021532E+00    0.7328132766E-02    0.2178859891E-01
    0.1100000000E+04    0.6974677367E-02    0.1384062905E-02    0.6903480817E+00    0.8764720479E-02    0.2622584680E-01
    0.1300000000E+04    0.8015489338E-02    0.1591305822E-02    0.6912135781E+00    0.1014102549E-01    0.3053345096E-01
    0.1500000000E+04    0.8999391129E-02    0.1787389958E-02    0.6918498492E+00    0.1146056248E-01    0.3471836488E-01
    0.1700000000E+04    0.9929952127E-02    0.1973011434E-02    0.6923373375E+00    0.1272659385E-01    0.3878703510E-01
    0.1900000000E+04    0.1081048736E-01    0.2148816730E-02    0.6927227838E+00    0.1394214468E-01    0.4274544691E-01
    0.2100000000E+04    0.1164407023E-01    0.2315405232E-02    0.6930352038E+00    0.1511002087E-01    0.4659916517E-01
    0.2300000000E+04    0.1243354911E-01    0.2473332500E-02    0.6932935635E+00    0.1623282702E-01    0.5035337086E-01
    0.2500000000E+04    0.1318156467E-01    0.2623113658E-02    0.6935107835E+00    0.1731298338E-01    0.5401289390E-01
    0.2700000000E+04    0.1389056662E-01    0.2765226659E-02    0.6936959700E+00    0.1835274137E-01    0.5758224258E-01
    0.2900000000E+04    0.1456282939E-01    0.2900115345E-02    0.6938557262E+00    0.1935419775E-01    0.6106563019E-01
    0.3100000000E+04    0.1520046662E-01    0.3028192265E-02    0.6939949565E+00    0.2031930744E-01    0.6446699895E-01
    0.3300000000E+04    0.1580544441E-01    0.3149841251E-02    0.6941173802E+00    0.2124989520E-01    0.6779004168E-01
    0.3500000000E+04    0.1637959340E-01    0.3265419774E-02    0.6942258690E+00    0.2214766614E-01    0.7103822141E-01
    0.3700000000E+04    0.1692461975E-01    0.3375261078E-02    0.6943226756E+00    0.2301421530E-01    0.7421478917E-01
    0.3900000000E+04    0.1744211518E-01    0.3479676125E-02    0.6944095916E+00    0.2385103634E-01    0.7732280017E-01
    0.4100000000E+04    0.1793356602E-01    0.3578955362E-02    0.6944880603E+00    0.2465952939E-01    0.8036512846E-01
    0.4300000000E+04    0.1840036149E-01    0.3673370330E-02    0.6945592568E+00    0.2544100822E-01    0.8334448032E-01
    0.4500000000E+04    0.1884380125E-01    0.3763175129E-02    0.6946241482E+00    0.2619670677E-01    0.8626340651E-01
    0.4700000000E+04    0.1926510222E-01    0.3848607746E-02    0.6946835370E+00    0.2692778508E-01    0.8912431342E-01
    0.4900000000E+04    0.1966540487E-01    0.3929891277E-02    0.6947380953E+00    0.2763533475E-01    0.9192947324E-01
    0.1000000000E+04    0.6431744439E-02    0.1276025638E-02    0.6897868033E+00    0.8054191714E-02    0.2402388407E-01
    0.3000000000E+04    0.1488585001E-01    0.2964980642E-02    0.6939276514E+00    0.1984117896E-01    0.6277633052E-01
    0.5000000000E+04    0.1985801873E-01    0.3969043055E-02    0.6947637436E+00    0.2798060996E-01    0.9331182369E-01
    0.7000000000E+04    0.2283513048E-01    0.4578744653E-02    0.6951232633E+00    0.3387127101E-01    0.1184959347E+00
    0.9000000000E+04    0.2459786932E-01    0.4947048184E-02    0.6953234223E+00    0.3827844484E-01    0.1399522918E+00
    0.1100000000E+05    0.2558811563E-01    0.5160809976E-02    0.6954510039E+00    0.4165550837E-01    0.1586752632E+00
    0.1300000000E+05    0.2607095952E-01    0.5272322503E-02    0.6955394494E+00    0.4428813114E-01    0.1753115836E+00
    0.1500000000E+05    0.2621284076E-01    0.5314547823E-02    0.6956043859E+00    0.4636535490E-01    0.1903025719E+00
    0.1700000000E+05    0.2612211985E-01    0.5309039095E-02    0.6956540958E+00    0.4801737082E-01    0.2039614376E+00
    0.1900000000E+05    0.2587143794E-01    0.5270313785E-02    0.6956933783E+00    0.4933685639E-01    0.2165178726E+00
    0.2100000000E+05    0.2551066022E-01    0.5208389882E-02    0.6957252069E+00    0.5039164729E-01    0.2281450631E+00
    0.2300000000E+05    0.2507468255E-01    0.5130318674E-02    0.6957515221E+00    0.5123258750E-01    0.2389767386E+00
    0.2500000000E+05    0.2458830691E-01    0.5041144061E-02    0.6957736444E+00    0.5189857065E-01    0.2491183169E+00
    0.2700000000E+05    0.2406937841E-01    0.4944521270E-02    0.6957925034E+00    0.5241987974E-01    0.2586544128E+00
    0.2900000000E+05    0.2353085669E-01    0.4843126402E-02    0.6958087728E+00    0.5282046056E-01    0.2676540333E+00
    0.3100000000E+05    0.2298221481E-01    0.4738933756E-02    0.6958229526E+00    0.5311950660E-01    0.2761742556E+00
    0.3300000000E+05    0.2243040288E-01    0.4633407403E-02    0.6958354219E+00    0.5333258776E-01    0.2842628861E+00
    0.3500000000E+05    0.2188052354E-01    0.4527635883E-02    0.6958464731E+00    0.5347246949E-01    0.2919604189E+00
    0.3700000000E+05    0.2133631278E-01    0.4422428397E-02    0.6958563357E+00    0.5354971754E-01    0.2993015015E+00
    0.3900000000E+05    0.2080048698E-01    0.4318384473E-02    0.6958651920E+00    0.5357315134E-01    0.3063160496E+00
    0.4100000000E+05    0.2027499647E-01    0.4215945047E-02    0.6958731888E+00    0.5355018869E-01    0.3130301061E+00
    0.4300000000E+05    0.1976121279E-01    0.4115430340E-02    0.6958804458E+00    0.5348711123E-01    0.3194665115E+00
    0.4500000000E+05    0.1926006827E-01    0.4017068217E-02    0.6958870614E+00    0.5338927122E-01    0.3256454332E+00
    0.4700000000E+05    0.1877216113E-01    0.3921015621E-02    0.6958931172E+00    0.5326125443E-01    0.3315847882E+00
    0.4900000000E+05    0.1829783503E-01    0.3827374885E-02    0.6958986815E+00    0.5310700961E-01    0.3373005833E+00
    0.1000000000E+05    0.2517001192E-01    0.5069396328E-02    0.6953935692E+00    0.4007501194E-01    0.1496089812E+00
    0.3000000000E+05    0.2325731630E-01    0.4791278141E-02    0.6958160979E+00    0.5298162821E-01    0.2719708898E+00
    0.5000000000E+05    0.1806581792E-01    0.3781479156E-02    0.6959012977E+00    0.5302113751E-01    0.3400791950E+00
    0.7000000000E+05    0.1411520569E-01    0.2991435178E-02    0.6959380065E+00    0.5055167644E-01    0.3867522226E+00
    0.9000000000E+05    0.1125371843E-01    0.2409463125E-02    0.6959584880E+00    0.4752679701E-01    0.4213861700E+00
    0.1100000000E+06    0.9154110048E-02    0.1977018422E-02    0.6959715700E+00    0.4451376480E-01    0.4482855724E+00
    0.1300000000E+06    0.7579491177E-02    0.1649370555E-02    0.6959806568E+00    0.4169417859E-01    0.4698400341E+00
    0.1500000000E+06    0.6372639525E-02    0.1396069740E-02    0.6959873405E+00    0.3911771327E-01    0.4875205297E+00
    0.1700000000E+06    0.5429220464E-02    0.1196569712E-02    0.6959924657E+00    0.3678510983E-01    0.5022940794E+00
    0.1900000000E+06    0.4678718488E-02    0.1036808914E-02    0.6959965223E+00    0.3467921011E-01    0.5148267587E+00
    0.2100000000E+06    0.4072407733E-02    0.9069720375E-03    0.6959998142E+00    0.3277739550E-01    0.5255939537E+00
    0.2300000000E+06    0.3575872832E-02    0.8000671310E-03    0.6960025397E+00    0.3105667283E-01    0.5349447275E+00
    0.2500000000E+06    0.3164303623E-02    0.7110163321E-03    0.6960048342E+00    0.2949567095E-01    0.5431414701E+00
    0.2700000000E+06    0.2819476745E-02    0.6360654962E-03    0.6960067927E+00    0.2807529960E-01    0.5503853690E+00
    0.2900000000E+06    0.2527777823E-02    0.5723935239E-03    0.6960084844E+00    0.2677882966E-01    0.5568333394E+00
    0.3100000000E+06    0.2278878174E-02    0.5178487852E-03    0.6960099606E+00    0.2559173501E-01    0.5626096008E+00
    0.3300000000E+06    0.2064831776E-02    0.4707679468E-03    0.6960112601E+00    0.2450145089E-01    0.5678137892E+00
    0.3500000000E+06    0.1879447625E-02    0.4298492391E-03    0.6960124132E+00    0.2349711787E-01    0.5725267600E+00
    0.3700000000E+06    0.1717846017E-02    0.3940623465E-03    0.6960134433E+00    0.2256934148E-01    0.5768148191E+00
    0.3900000000E+06    0.1576139929E-02    0.3625833637E-03    0.6960143692E+00    0.2170997818E-01    0.5807328563E+00
    0.4100000000E+06    0.1451202901E-02    0.3347471837E-03    0.6960152061E+00    0.2091195024E-01    0.5843267020E+00
    0.4300000000E+06    0.1340497677E-02    0.3100121936E-03    0.6960159663E+00    0.2016908778E-01    0.5876349228E+00
    0.4500000000E+06    0.1241948136E-02    0.2879337818E-03    0.6960166599E+00    0.1947599524E-01    0.5906902055E+00
    0.4700000000E+06    0.1153842489E-02    0.2681442349E-03    0.6960172954E+00    0.1882793884E-01    0.5935204363E+00
    0.4900000000E+06    0.1074759322E-02    0.2503373258E-03    0.6960178798E+00    0.1822075184E-01    0.5961495512E+00
    0.1000000000E+06    0.1012569638E-01    0.2177730702E-02    0.6959656775E+00    0.4600274032E-01    0.4356245372E+00
    0.3000000000E+06    0.2398522126E-02    0.5440939540E-03    0.6960092467E+00    0.2617243866E-01    0.5597987074E+00
    0.5000000000E+06    0.1038222064E-02    0.2420954848E-03    0.6960181547E+00    0.1793131741E-01    0.5973952589E+00
    0.7000000000E+06    0.5752477365E-03    0.1366628414E-03    0.6960220259E+00    0.1358992899E-01    0.6155353908E+00
    0.9000000000E+06    0.3645627115E-03    0.8783568667E-04    0.6960241991E+00    0.1092563523E-01    0.6262072794E+00
    0.1100000000E+07    0.2514324961E-03    0.6126293569E-04    0.6960255937E+00    0.9127754287E-02    0.6332316670E+00
    0.1300000000E+07    0.1837949553E-03    0.4520176934E-04    0.6960265657E+00    0.7834119792E-02    0.6382038442E+00
    0.1500000000E+07    0.1401819730E-03    0.3475007166E-04    0.6960272825E+00    0.6859289821E-02    0.6419076117E+00
    0.1700000000E+07    0.1104370492E-03    0.2756518079E-04    0.6960278332E+00    0.6098655619E-02    0.6447729064E+00
    0.1900000000E+07    0.8925180207E-04    0.2241216382E-04    0.6960282696E+00    0.5488787508E-02    0.6470551867E+00
    0.2100000000E+07    0.7363333989E-04    0.1858955768E-04    0.6960286240E+00    0.4989012240E-02    0.6489157614E+00
    0.2300000000E+07    0.6179046923E-04    0.1567477267E-04    0.6960289175E+00    0.4572058804E-02    0.6504614898E+00
    0.2500000000E+07    0.5259815816E-04    0.1340080905E-04    0.6960291645E+00    0.4218963893E-02    0.6517659604E+00
    0.2700000000E+07    0.4532102161E-04    0.1159220111E-04    0.6960293753E+00    0.3916135245E-02    0.6528814997E+00
    0.2900000000E+07    0.3946197497E-04    0.1012975836E-04    0.6960295571E+00    0.3653577522E-02    0.6538463316E+00
    0.3100000000E+07    0.3467526541E-04    0.8930200127E-05    0.6960297156E+00    0.3423777352E-02    0.6546890264E+00
    0.3300000000E+07    0.3071439124E-04    0.7933902193E-05    0.6960298549E+00    0.3220978620E-02    0.6554313666E+00
    0.3500000000E+07    0.2739978785E-04    0.7097260716E-05    0.6960299782E+00    0.3040697529E-02    0.6560902489E+00
    0.3700000000E+07    0.2459815062E-04    0.6387786262E-05    0.6960300882E+00    0.2879389750E-02    0.6566789805E+00
    0.3900000000E+07    0.2220884158E-04    0.5780866287E-05    0.6960301868E+00    0.2734216808E-02    0.6572081843E+00
    0.4100000000E+07    0.2015473669E-04    0.5257577458E-05    0.6960302756E+00    0.2602878844E-02    0.6576864429E+00
    0.4300000000E+07    0.1837593029E-04    0.4803175860E-05    0.6960303561E+00    0.2483492737E-02    0.6581207654E+00
    0.4500000000E+07    0.1682532133E-04    0.4406035113E-05    0.6960304294E+00    0.2374501877E-02    0.6585169325E+00
    0.4700000000E+07    0.1546546502E-04    0.4056886652E-05    0.6960304962E+00    0.2274608392E-02    0.6588797543E+00
    0.4900000000E+07    0.1426629175E-04    0.3748267710E-05    0.6960305575E+00    0.2182721574E-02    0.6592132651E+00
    0.1000000000E+07    0.3001724437E-03    0.7274977705E-04    0.6960249649E+00    0.9946978973E-02    0.6300478275E+00
    0.3000000000E+07    0.3695186032E-04    0.9501293381E-05    0.6960296390E+00    0.3534977094E-02    0.6542814516E+00
    0.5000000000E+07    0.1371915921E-04    0.3607216099E-05    0.6960305862E+00    0.2139486501E-02    0.6593701154E+00
    0.7000000000E+07    0.7175732216E-05    0.1905661737E-05    0.6960309825E+00    0.1531130228E-02    0.6615723746E+00
    0.9000000000E+07    0.4450877402E-05    0.1185952417E-05    0.6960311925E+00    0.1190948737E-02    0.6628004260E+00
    0.1100000000E+08    0.3059083103E-05    0.8143213892E-06    0.6960313174E+00    0.9738272937E-03    0.6635832547E+00
    0.1300000000E+08    0.2252070149E-05    0.5971286316E-06    0.6960313966E+00    0.8233015796E-03    0.6641256633E+00
    0.1500000000E+08    0.1741708852E-05    0.4589756021E-06    0.6960314485E+00    0.7128489946E-03    0.6645235817E+00
    0.1700000000E+08    0.1397868848E-05    0.3655053423E-06    0.6960314829E+00    0.6283712646E-03    0.6648279132E+00
    0.1900000000E+08    0.1154766179E-05    0.2992220575E-06    0.6960315055E+00    0.5616846092E-03    0.6650681725E+00
    0.2100000000E+08    0.9762224029E-06    0.2504444798E-06    0.6960315199E+00    0.5077138203E-03    0.6652626493E+00
    0.2300000000E+08    0.8409935789E-06    0.2134579653E-06    0.6960315282E+00    0.4631449196E-03    0.6654232799E+00
    0.2500000000E+08    0.7359329448E-06    0.1847100954E-06    0.6960315321E+00    0.4257225002E-03    0.6655581848E+00
    0.2700000000E+08    0.6525467840E-06    0.1618968349E-06    0.6960315327E+00    0.3938585135E-03    0.6656730806E+00
