  Pressure (Pa) 22mC5-500 (mol/kg) 23mC5-500 (mol/kg) 24mC5-500 (mol/kg) 2mC6-500 (mol/kg) 3mC6-500 (mol/kg)
    0.1000000000E+01    0.2054587132E-04    0.3975861979E-05    0.9949971290E-01    0.2818862062E-04    0.1042136895E-04
    0.3000000000E+01    0.5092742166E-04    0.9865417378E-05    0.2321132885E+00    0.7202365551E-04    0.3125925658E-04
    0.5000000000E+01    0.7401825565E-04    0.1435584318E-04    0.3164749025E+00    0.1079022846E-03    0.5209072676E-04
    0.7000000000E+01    0.9351518567E-04    0.1815979074E-04    0.3748675742E+00    0.1402461935E-03    0.7291580997E-04
    0.9000000000E+01    0.1110441936E-03    0.2158975546E-04    0.4176837641E+00    0.1708736395E-03    0.9373452300E-04
    0.1100000000E+02    0.1274151257E-03    0.2480087023E-04    0.4504231628E+00    0.2006244074E-03    0.1145468768E-03
    0.1300000000E+02    0.1430682638E-03    0.2787717846E-04    0.4762689121E+00    0.2299182589E-03    0.1353528793E-03
    0.1500000000E+02    0.1582590496E-03    0.3086725695E-04    0.4971911290E+00    0.2589768649E-03    0.1561525371E-03
    0.1700000000E+02    0.1731432821E-03    0.3380061404E-04    0.5144744789E+00    0.2879217341E-03    0.1769458557E-03
    0.1900000000E+02    0.1878198049E-03    0.3669588927E-04    0.5289924349E+00    0.3168209796E-03    0.1977328402E-03
    0.2100000000E+02    0.2023533404E-03    0.3956522991E-04    0.5413596095E+00    0.3457130748E-03    0.2185134951E-03
    0.2300000000E+02    0.2167873661E-03    0.4241675370E-04    0.5520210371E+00    0.3746195284E-03    0.2392878249E-03
    0.2500000000E+02    0.2311517020E-03    0.4525599643E-04    0.5613068870E+00    0.4035519216E-03    0.2600558338E-03
    0.2700000000E+02    0.2454671478E-03    0.4808679459E-04    0.5694672773E+00    0.4325159418E-03    0.2808175258E-03
    0.2900000000E+02    0.2597484076E-03    0.5091184066E-04    0.5766951504E+00    0.4615137567E-03    0.3015729049E-03
    0.3100000000E+02    0.2740059848E-03    0.5373304187E-04    0.5831417274E+00    0.4905454394E-03    0.3223219752E-03
    0.3300000000E+02    0.2882474384E-03    0.5655175751E-04    0.5889272077E+00    0.5196098381E-03    0.3430647404E-03
    0.3500000000E+02    0.3024782342E-03    0.5936895905E-04    0.5941483358E+00    0.5487051124E-03    0.3638012043E-03
    0.3700000000E+02    0.3167023308E-03    0.6218534021E-04    0.5988838563E+00    0.5778290653E-03    0.3845313707E-03
    0.3900000000E+02    0.3309225898E-03    0.6500139370E-04    0.6031985145E+00    0.6069793495E-03    0.4052552435E-03
    0.4100000000E+02    0.3451410680E-03    0.6781746562E-04    0.6071460348E+00    0.6361535941E-03    0.4259728263E-03
    0.4300000000E+02    0.3593592263E-03    0.7063379434E-04    0.6107713702E+00    0.6653494804E-03    0.4466841228E-03
    0.4500000000E+02    0.3735780825E-03    0.7345053876E-04    0.6141124225E+00    0.6945647867E-03    0.4673891368E-03
    0.4700000000E+02    0.3877983234E-03    0.7626779889E-04    0.6172013721E+00    0.7237974118E-03    0.4880878720E-03
    0.4900000000E+02    0.4020203875E-03    0.7908563106E-04    0.6200657190E+00    0.7530453862E-03    0.5087803319E-03
    0.1000000000E+02    0.1193411101E-03    0.2321630402E-04    0.4350767970E+00    0.1858260183E-03    0.1041414942E-03
    0.3000000000E+02    0.2668796266E-03    0.5232282625E-04    0.5800079623E+00    0.4760254154E-03    0.3119482284E-03
    0.5000000000E+02    0.4091321879E-03    0.8049477016E-04    0.6214211859E+00    0.7676745507E-03    0.5191242098E-03
    0.7000000000E+02    0.5514691447E-03    0.1087039964E-03    0.6410412760E+00    0.1060686297E-02    0.7256732114E-03
    0.9000000000E+02    0.6938609850E-03    0.1369302879E-03    0.6524880283E+00    0.1353837282E-02    0.9315988525E-03
    0.1100000000E+03    0.8360926202E-03    0.1651273263E-03    0.6599885925E+00    0.1646555791E-02    0.1136904701E-02
    0.1300000000E+03    0.9780073181E-03    0.1932629118E-03    0.6652837112E+00    0.1938557705E-02    0.1341594288E-02
    0.1500000000E+03    0.1119501149E-02    0.2213160908E-03    0.6692215094E+00    0.2229689657E-02    0.1545671116E-02
    0.1700000000E+03    0.1260504940E-02    0.2492730697E-03    0.6722646364E+00    0.2519863431E-02    0.1749138655E-02
    0.1900000000E+03    0.1400971775E-02    0.2771245642E-03    0.6746869244E+00    0.2809026010E-02    0.1952000350E-02
    0.2100000000E+03    0.1540869245E-02    0.3048641991E-03    0.6766607975E+00    0.3097144692E-02    0.2154259616E-02
    0.2300000000E+03    0.1680174657E-02    0.3324875328E-03    0.6783002379E+00    0.3384199146E-02    0.2355919843E-02
    0.2500000000E+03    0.1818872007E-02    0.3599914468E-03    0.6796836128E+00    0.3670176911E-02    0.2556984393E-02
    0.2700000000E+03    0.1956950003E-02    0.3873737517E-03    0.6808665772E+00    0.3955070722E-02    0.2757456603E-02
    0.2900000000E+03    0.2094400763E-02    0.4146329263E-03    0.6818897464E+00    0.4238876849E-02    0.2957339782E-02
    0.3100000000E+03    0.2231218906E-02    0.4417679394E-03    0.6827834545E+00    0.4521594028E-02    0.3156637216E-02
    0.3300000000E+03    0.2367400931E-02    0.4687781259E-03    0.6835708144E+00    0.4803222756E-02    0.3355352163E-02
    0.3500000000E+03    0.2502944764E-02    0.4956630983E-03    0.6842697459E+00    0.5083764808E-02    0.3553487857E-02
    0.3700000000E+03    0.2637849433E-02    0.5224226828E-03    0.6848943565E+00    0.5363222900E-02    0.3751047508E-02
    0.3900000000E+03    0.2772114824E-02    0.5490568719E-03    0.6854559043E+00    0.5641600457E-02    0.3948034300E-02
    0.4100000000E+03    0.2905741498E-02    0.5755657889E-03    0.6859634827E+00    0.5918901431E-02    0.4144451394E-02
    0.4300000000E+03    0.3038730558E-02    0.6019496607E-03    0.6864245167E+00    0.6195130180E-02    0.4340301924E-02
    0.4500000000E+03    0.3171083536E-02    0.6282087975E-03    0.6868451290E+00    0.6470291373E-02    0.4535589004E-02
    0.4700000000E+03    0.3302802311E-02    0.6543435760E-03    0.6872304136E+00    0.6744389913E-02    0.4730315720E-02
    0.4900000000E+03    0.3433889046E-02    0.6803544273E-03    0.6875846427E+00    0.7017430888E-02    0.4924485140E-02
    0.1000000000E+03    0.7650080975E-03    0.1510347970E-03    0.6565919993E+00    0.1500272593E-02    0.1034329029E-02
    0.3000000000E+03    0.2162889168E-02    0.4282160020E-03    0.6823511969E+00    0.4380371561E-02    0.3057061513E-02
    0.5000000000E+03    0.3499196138E-02    0.6933135272E-03    0.6877512619E+00    0.7153556417E-02    0.5021361814E-02
    0.7000000000E+03    0.4772826378E-02    0.9461217879E-03    0.6900928746E+00    0.9821867305E-02    0.6930368834E-02
    0.9000000000E+03    0.5986695830E-02    0.1187214951E-02    0.6914011419E+00    0.1239071477E-01    0.8786992041E-02
    0.1100000000E+04    0.7144101733E-02    0.1417238542E-02    0.6922365192E+00    0.1486549629E-01    0.1059393243E-01
    0.1300000000E+04    0.8248264131E-02    0.1636821900E-02    0.6928162007E+00    0.1725130834E-01    0.1235370110E-01
    0.1500000000E+04    0.9302228189E-02    0.1846559783E-02    0.6932420250E+00    0.1955291228E-01    0.1406863588E-01
    0.1700000000E+04    0.1030884474E-01    0.2047008846E-02    0.6935680848E+00    0.2177474546E-01    0.1574091617E-01
    0.1900000000E+04    0.1127077327E-01    0.2238688334E-02    0.6938257735E+00    0.2392094249E-01    0.1737257636E-01
    0.2100000000E+04    0.1219049202E-01    0.2422082120E-02    0.6940345619E+00    0.2599535820E-01    0.1896551784E-01
    0.2300000000E+04    0.1307031029E-01    0.2597641117E-02    0.6942071679E+00    0.2800158975E-01    0.2052151981E-01
    0.2500000000E+04    0.1391238090E-01    0.2765785734E-02    0.6943522504E+00    0.2994299718E-01    0.2204224911E-01
    0.2700000000E+04    0.1471871221E-01    0.2926908219E-02    0.6944759092E+00    0.3182272236E-01    0.2352926907E-01
    0.2900000000E+04    0.1549117933E-01    0.3081374849E-02    0.6945825653E+00    0.3364370618E-01    0.2498404755E-01
    0.3100000000E+04    0.1623153450E-01    0.3229527960E-02    0.6946755015E+00    0.3540870433E-01    0.2640796420E-01
    0.3300000000E+04    0.1694141666E-01    0.3371687799E-02    0.6947572063E+00    0.3712030154E-01    0.2780231712E-01
    0.3500000000E+04    0.1762236012E-01    0.3508154226E-02    0.6948296008E+00    0.3878092463E-01    0.2916832886E-01
    0.3700000000E+04    0.1827580258E-01    0.3639208269E-02    0.6948941914E+00    0.4039285433E-01    0.3050715197E-01
    0.3900000000E+04    0.1890309242E-01    0.3765113544E-02    0.6949521760E+00    0.4195823618E-01    0.3181987396E-01
    0.4100000000E+04    0.1950549532E-01    0.3886117549E-02    0.6950045194E+00    0.4347909030E-01    0.3310752198E-01
    0.4300000000E+04    0.2008420039E-01    0.4002452854E-02    0.6950520071E+00    0.4495732051E-01    0.3437106693E-01
    0.4500000000E+04    0.2064032576E-01    0.4114338182E-02    0.6950952852E+00    0.4639472254E-01    0.3561142742E-01
    0.4700000000E+04    0.2117492362E-01    0.4221979408E-02    0.6951348901E+00    0.4779299161E-01    0.3682947323E-01
    0.4900000000E+04    0.2168898495E-01    0.4325570464E-02    0.6951712707E+00    0.4915372938E-01    0.3802602860E-01
    0.1000000000E+04    0.6572251889E-02    0.1303570394E-02    0.6918603200E+00    0.1363953741E-01    0.9696511398E-02
    0.3000000000E+04    0.1586526593E-01    0.3156220082E-02    0.6946305773E+00    0.3453303807E-01    0.2569978064E-01
    0.5000000000E+04    0.2193860843E-01    0.4375904724E-02    0.6951883725E+00    0.4982050054E-01    0.3861649324E-01
    0.7000000000E+04    0.2605339092E-01    0.5209215502E-02    0.6954280217E+00    0.6151290780E-01    0.4946761417E-01
    0.9000000000E+04    0.2890572147E-01    0.5792542022E-02    0.6955613784E+00    0.7075637305E-01    0.5885288921E-01
    0.1100000000E+05    0.3090753790E-01    0.6206777059E-02    0.6956463502E+00    0.7825248775E-01    0.6715009686E-01
    0.1300000000E+05    0.3231628453E-01    0.6502596175E-02    0.6957052401E+00    0.8445529724E-01    0.7461044419E-01
    0.1500000000E+05    0.3330000689E-01    0.6713161183E-02    0.6957484669E+00    0.8967201181E-01    0.8140836585E-01
    0.1700000000E+05    0.3397235070E-01    0.6860958410E-02    0.6957815509E+00    0.9411819959E-01    0.8766935513E-01
    0.1900000000E+05    0.3441246108E-01    0.6961691559E-02    0.6958076903E+00    0.9794978576E-01    0.9348640138E-01
    0.2100000000E+05    0.3467683235E-01    0.7026602946E-02    0.6958288662E+00    0.1012824902E+00    0.9893015270E-01
    0.2300000000E+05    0.3480664475E-01    0.7063912660E-02    0.6958463713E+00    0.1042041080E+00    0.1040554460E+00
    0.2500000000E+05    0.3483246049E-01    0.7079741040E-02    0.6958610851E+00    0.1067825322E+00    0.1089056430E+00
    0.2700000000E+05    0.3477731696E-01    0.7078717221E-02    0.6958736268E+00    0.1090711504E+00    0.1135155931E+00
    0.2900000000E+05    0.3465881587E-01    0.7064390759E-02    0.6958844450E+00    0.1111125673E+00    0.1179137085E+00
    0.3100000000E+05    0.3449056561E-01    0.7039516285E-02    0.6958938726E+00    0.1129412308E+00    0.1221234493E+00
    0.3300000000E+05    0.3428319666E-01    0.7006254229E-02    0.6959021620E+00    0.1145853215E+00    0.1261644082E+00
    0.3500000000E+05    0.3404508903E-01    0.6966314857E-02    0.6959095079E+00    0.1160681374E+00    0.1300531163E+00
    0.3700000000E+05    0.3378290149E-01    0.6921063256E-02    0.6959160629E+00    0.1174091233E+00    0.1338036502E+00
    0.3900000000E+05    0.3350196220E-01    0.6871596947E-02    0.6959219486E+00    0.1186246494E+00    0.1374280977E+00
    0.4100000000E+05    0.3320656053E-01    0.6818804004E-02    0.6959272626E+00    0.1197286061E+00    0.1409369179E+00
    0.4300000000E+05    0.3290016785E-01    0.6763407077E-02    0.6959320845E+00    0.1207328648E+00    0.1443392241E+00
    0.4500000000E+05    0.3258560612E-01    0.6705997101E-02    0.6959364798E+00    0.1216476388E+00    0.1476430079E+00
    0.4700000000E+05    0.3226517807E-01    0.6647059361E-02    0.6959405028E+00    0.1224817682E+00    0.1508553184E+00
    0.4900000000E+05    0.3194076846E-01    0.6586993821E-02    0.6959441990E+00    0.1232429483E+00    0.1539824077E+00
    0.1000000000E+05    0.2999419625E-01    0.6017108505E-02    0.6956081008E+00    0.7469015157E-01    0.6311956279E-01
    0.3000000000E+05    0.3458018486E-01    0.7053124983E-02    0.6958893153E+00    0.1120516033E+00    0.1200408211E+00
    0.5000000000E+05    0.3177756519E-01    0.6556643792E-02    0.6959459367E+00    0.1235983197E+00    0.1555157597E+00
    0.7000000000E+05    0.2855886046E-01    0.5945731208E-02    0.6959703107E+00    0.1281397229E+00    0.1827928494E+00
    0.9000000000E+05    0.2567768908E-01    0.5385756195E-02    0.6959839007E+00    0.1297198857E+00    0.2054248945E+00
    0.1100000000E+06    0.2319978347E-01    0.4897096237E-02    0.6959925759E+00    0.1297885752E+00    0.2249456973E+00
    0.1300000000E+06    0.2107822864E-01    0.4474194672E-02    0.6959985986E+00    0.1290060419E+00    0.2421838063E+00
    0.1500000000E+06    0.1925341175E-01    0.4107293528E-02    0.6960030266E+00    0.1277179854E+00    0.2576495735E+00
    0.1700000000E+06    0.1767278516E-01    0.3787173065E-02    0.6960064207E+00    0.1261225110E+00    0.2716855130E+00
    0.1900000000E+06    0.1629354443E-01    0.3506071709E-02    0.6960091062E+00    0.1243404091E+00    0.2845357440E+00
    0.2100000000E+06    0.1508151979E-01    0.3257665634E-02    0.6960112847E+00    0.1224486465E+00    0.2963821367E+00
    0.2300000000E+06    0.1400947682E-01    0.3036840561E-02    0.6960130879E+00    0.1204978419E+00    0.3073648529E+00
    0.2500000000E+06    0.1305559287E-01    0.2839452016E-02    0.6960146054E+00    0.1185220378E+00    0.3175948311E+00
    0.2700000000E+06    0.1220224334E-01    0.2662121870E-02    0.6960159004E+00    0.1165444695E+00    0.3271617881E+00
    0.2900000000E+06    0.1143507034E-01    0.2502076615E-02    0.6960170187E+00    0.1145811237E+00    0.3361395731E+00
    0.3100000000E+06    0.1074227548E-01    0.2357021695E-02    0.6960179943E+00    0.1126430126E+00    0.3445898796E+00
    0.3300000000E+06    0.1011408257E-01    0.2225044413E-02    0.6960188530E+00    0.1107376715E+00    0.3525648963E+00
    0.3500000000E+06    0.9542327267E-02    0.2104538796E-02    0.6960196147E+00    0.1088701696E+00    0.3601092485E+00
    0.3700000000E+06    0.9020141184E-02    0.1994147159E-02    0.6960202951E+00    0.1070438074E+00    0.3672614523E+00
    0.3900000000E+06    0.8541706661E-02    0.1892714328E-02    0.6960209065E+00    0.1052606055E+00    0.3740550233E+00
    0.4100000000E+06    0.8102064777E-02    0.1799251537E-02    0.6960214591E+00    0.1035216533E+00    0.3805193364E+00
    0.4300000000E+06    0.7696963700E-02    0.1712907714E-02    0.6960219610E+00    0.1018273610E+00    0.3866803033E+00
    0.4500000000E+06    0.7322737930E-02    0.1632946482E-02    0.6960224188E+00    0.1001776430E+00    0.3925609120E+00
    0.4700000000E+06    0.6976211366E-02    0.1558727597E-02    0.6960228382E+00    0.9857205348E-01    0.3981816623E+00
    0.4900000000E+06    0.6654618927E-02    0.1489691871E-02    0.6960232239E+00    0.9700988718E-01    0.4035609207E+00
    0.1000000000E+06    0.2439048206E-01    0.5132650900E-02    0.6959886689E+00    0.1298913924E+00    0.2155122468E+00
    0.3000000000E+06    0.1108002871E-01    0.2427802883E-02    0.6960175225E+00    0.1136083751E+00    0.3404272022E+00
    0.5000000000E+06    0.6502405348E-02    0.1456962026E-02    0.6960234053E+00    0.9624481522E-01    0.4061652197E+00
    0.7000000000E+06    0.4315222500E-02    0.9823170319E-03    0.6960259586E+00    0.8296095680E-01    0.4488366969E+00
    0.9000000000E+06    0.3084249413E-02    0.7108232108E-03    0.6960273913E+00    0.7275744104E-01    0.4791790163E+00
    0.1100000000E+07    0.2318371369E-02    0.5397675203E-03    0.6960283106E+00    0.6473295903E-01    0.5019852994E+00
    0.1300000000E+07    0.1807928479E-02    0.4245782118E-03    0.6960289516E+00    0.5827486952E-01    0.5197998078E+00
    0.1500000000E+07    0.1450084845E-02    0.3431134818E-03    0.6960294245E+00    0.5297232485E-01    0.5341199874E+00
    0.1700000000E+07    0.1189262419E-02    0.2832810583E-03    0.6960297882E+00    0.4854386783E-01    0.5458917282E+00
    0.1900000000E+07    0.9931722687E-03    0.2379931179E-03    0.6960300767E+00    0.4479149590E-01    0.5557445996E+00
    0.2100000000E+07    0.8419698341E-03    0.2028597651E-03    0.6960303113E+00    0.4157232037E-01    0.5641150246E+00
    0.2300000000E+07    0.7228946406E-03    0.1750388395E-03    0.6960305058E+00    0.3878082319E-01    0.5713156034E+00
    0.2500000000E+07    0.6274302195E-03    0.1526217818E-03    0.6960306698E+00    0.3633747308E-01    0.5775763808E+00
    0.2700000000E+07    0.5497122304E-03    0.1342870475E-03    0.6960308099E+00    0.3418123048E-01    0.5830705477E+00
    0.2900000000E+07    0.4855936040E-03    0.1190953128E-03    0.6960309311E+00    0.3226449005E-01    0.5879310573E+00
    0.3100000000E+07    0.4320734854E-03    0.1063636779E-03    0.6960310369E+00    0.3054958946E-01    0.5922617115E+00
    0.3300000000E+07    0.3869364383E-03    0.9558578014E-04    0.6960311301E+00    0.2900634946E-01    0.5961447599E+00
    0.3500000000E+07    0.3485177248E-03    0.8637957774E-04    0.6960312128E+00    0.2761030761E-01    0.5996462328E+00
    0.3700000000E+07    0.3155466394E-03    0.7845234523E-04    0.6960312867E+00    0.2634142863E-01    0.6028197598E+00
    0.3900000000E+07    0.2870395442E-03    0.7157667575E-04    0.6960313531E+00    0.2518314808E-01    0.6057093568E+00
    0.4100000000E+07    0.2622253463E-03    0.6557369823E-04    0.6960314132E+00    0.2412165320E-01    0.6083514914E+00
    0.4300000000E+07    0.2404926300E-03    0.6030112820E-04    0.6960314677E+00    0.2314533519E-01    0.6107766364E+00
    0.4500000000E+07    0.2213515309E-03    0.5564462152E-04    0.6960315174E+00    0.2224436712E-01    0.6130104555E+00
    0.4700000000E+07    0.2044058320E-03    0.5151142582E-04    0.6960315630E+00    0.2141037514E-01    0.6150747160E+00
    0.4900000000E+07    0.1893322619E-03    0.4782565618E-04    0.6960316048E+00    0.2063617984E-01    0.6169880029E+00
    0.1000000000E+07    0.2659917392E-02    0.6162869023E-03    0.6960278961E+00    0.6851689890E-01    0.4913318365E+00
    0.3000000000E+07    0.4576623825E-03    0.1124570526E-03    0.6960309857E+00    0.3138384790E-01    0.5901570419E+00
    0.5000000000E+07    0.1824125409E-03    0.4613056003E-04    0.6960316245E+00    0.2026953754E-01    0.6178931094E+00
    0.7000000000E+07    0.9731442001E-04    0.2508509561E-04    0.6960319003E+00    0.1494414810E-01    0.6309709379E+00
    0.9000000000E+07    0.6035041526E-04    0.1578008426E-04    0.6960320526E+00    0.1182391710E-01    0.6385770992E+00
    0.1100000000E+08    0.4104406006E-04    0.1085388476E-04    0.6960321481E+00    0.9775777358E-02    0.6435488565E+00
    0.1300000000E+08    0.2971180557E-04    0.7930531793E-05    0.6960322126E+00    0.8328964165E-02    0.6470514680E+00
    0.1500000000E+08    0.2250005433E-04    0.6052959072E-05    0.6960322586E+00    0.7252961881E-02    0.6496515469E+00
    0.1700000000E+08    0.1762967480E-04    0.4774884444E-05    0.6960322925E+00    0.6421642492E-02    0.6516576705E+00
    0.1900000000E+08    0.1418727744E-04    0.3865242623E-05    0.6960323180E+00    0.5760210115E-02    0.6532522170E+00
    0.2100000000E+08    0.1166489600E-04    0.3194579709E-05    0.6960323377E+00    0.5221510022E-02    0.6545498766E+00
    0.2300000000E+08    0.9761799865E-05    0.2685753039E-05    0.6960323530E+00    0.4774345920E-02    0.6556263769E+00
    0.2500000000E+08    0.8290757928E-05    0.2290452051E-05    0.6960323650E+00    0.4397258944E-02    0.6565337274E+00
    0.2700000000E+08    0.7130274147E-05    0.1977160264E-05    0.6960323745E+00    0.4075005387E-02    0.6573088269E+00
