  Pressure (Pa) 22mC5-500 (mol/kg) 23mC5-500 (mol/kg) 24mC5-500 (mol/kg) 2mC6-500 (mol/kg) 3mC6-500 (mol/kg)
    0.1000000000E+01    0.2228728879E-04    0.2155824294E-05    0.3665993057E-01    0.4240632929E-04    0.2084219977E-04
    0.3000000000E+01    0.6162205196E-04    0.5962281840E-05    0.9948582659E-01    0.1183614726E-03    0.6251360903E-04
    0.5000000000E+01    0.9560719306E-04    0.9253500474E-05    0.1513676294E+00    0.1854664143E-03    0.1041677293E-03
    0.7000000000E+01    0.1256355851E-03    0.1216414123E-04    0.1949367024E+00    0.2462063779E-03    0.1458045918E-03
    0.9000000000E+01    0.1526697329E-03    0.1478718056E-04    0.2320433533E+00    0.3022697073E-03    0.1874242223E-03
    0.1100000000E+02    0.1773938753E-03    0.1718865733E-04    0.2640266190E+00    0.3548349171E-03    0.2290266433E-03
    0.1300000000E+02    0.2003062591E-03    0.1941661593E-04    0.2918794529E+00    0.4047436998E-03    0.2706118751E-03
    0.1500000000E+02    0.2217772519E-03    0.2150673615E-04    0.3163537533E+00    0.4526090723E-03    0.3121799361E-03
    0.1700000000E+02    0.2420871308E-03    0.2348599257E-04    0.3380293315E+00    0.4988851138E-03    0.3537308437E-03
    0.1900000000E+02    0.2614513433E-03    0.2537509967E-04    0.3573604830E+00    0.5439131617E-03    0.3952646142E-03
    0.2100000000E+02    0.2800378084E-03    0.2719018557E-04    0.3747082099E+00    0.5879531374E-03    0.4367812635E-03
    0.2300000000E+02    0.2979790194E-03    0.2894396244E-04    0.3903630015E+00    0.6312052317E-03    0.4782808068E-03
    0.2500000000E+02    0.3153806733E-03    0.3064656045E-04    0.4045612506E+00    0.6738251937E-03    0.5197632589E-03
    0.2700000000E+02    0.3323279287E-03    0.3230613229E-04    0.4174972871E+00    0.7159352878E-03    0.5612286342E-03
    0.2900000000E+02    0.3488900127E-03    0.3392929788E-04    0.4293323361E+00    0.7576322615E-03    0.6026769471E-03
    0.3100000000E+02    0.3651236603E-03    0.3552147628E-04    0.4402012802E+00    0.7989932179E-03    0.6441082116E-03
    0.3300000000E+02    0.3810757142E-03    0.3708713633E-04    0.4502178287E+00    0.8400799956E-03    0.6855224416E-03
    0.3500000000E+02    0.3967851121E-03    0.3862998821E-04    0.4594785164E+00    0.8809424714E-03    0.7269196507E-03
    0.3700000000E+02    0.4122844231E-03    0.4015313137E-04    0.4680658279E+00    0.9216210761E-03    0.7682998526E-03
    0.3900000000E+02    0.4276010450E-03    0.4165916984E-04    0.4760506648E+00    0.9621487287E-03    0.8096630607E-03
    0.4100000000E+02    0.4427581479E-03    0.4315030292E-04    0.4834943100E+00    0.1002552335E-02    0.8510092885E-03
    0.4300000000E+02    0.4577754226E-03    0.4462839714E-04    0.4904500056E+00    0.1042853962E-02    0.8923385492E-03
    0.4500000000E+02    0.4726696786E-03    0.4609504374E-04    0.4969642298E+00    0.1083071753E-02    0.9336508562E-03
    0.4700000000E+02    0.4874553264E-03    0.4755160492E-04    0.5030777384E+00    0.1123220669E-02    0.9749462226E-03
    0.4900000000E+02    0.5021447685E-03    0.4899925136E-04    0.5088264189E+00    0.1163313061E-02    0.1016224662E-02
    0.1000000000E+02    0.1652858607E-03    0.1601226779E-04    0.2486066893E+00    0.3289305801E-03    0.2082275827E-03
    0.3000000000E+02    0.3570447574E-03    0.3472896140E-04    0.4348800199E+00    0.7783505623E-03    0.6233947096E-03
    0.5000000000E+02    0.5094568186E-03    0.4972005266E-04    0.5115740087E+00    0.1183341324E-02    0.1036857537E-02
    0.7000000000E+02    0.6525970965E-03    0.6385130449E-04    0.5534184969E+00    0.1582636799E-02    0.1448629547E-02
    0.9000000000E+02    0.7925246684E-03    0.7769102498E-04    0.5797735153E+00    0.1981232319E-02    0.1858723645E-02
    0.1100000000E+03    0.9309585198E-03    0.9139708061E-04    0.5978982200E+00    0.2379621271E-02    0.2267152496E-02
    0.1300000000E+03    0.1068465540E-02    0.1050198642E-03    0.6111281435E+00    0.2777546388E-02    0.2673928595E-02
    0.1500000000E+03    0.1205238868E-02    0.1185755127E-03    0.6212107184E+00    0.3174674489E-02    0.3079064292E-02
    0.1700000000E+03    0.1341336207E-02    0.1320680575E-03    0.6291499570E+00    0.3570724038E-02    0.3482571803E-02
    0.1900000000E+03    0.1476763876E-02    0.1454971191E-03    0.6355638202E+00    0.3965478113E-02    0.3884463212E-02
    0.2100000000E+03    0.1611509234E-02    0.1588608172E-03    0.6408535091E+00    0.4358774081E-02    0.4284750478E-02
    0.2300000000E+03    0.1745553851E-02    0.1721569191E-03    0.6452908500E+00    0.4750490952E-02    0.4683445436E-02
    0.2500000000E+03    0.1878878922E-02    0.1853832901E-03    0.6490665570E+00    0.5140538879E-02    0.5080559798E-02
    0.2700000000E+03    0.2011467407E-02    0.1985380557E-03    0.6523183889E+00    0.5528851219E-02    0.5476105159E-02
    0.2900000000E+03    0.2143304733E-02    0.2116196419E-03    0.6551483375E+00    0.5915378711E-02    0.5870092995E-02
    0.3100000000E+03    0.2274378893E-02    0.2246267654E-03    0.6576335290E+00    0.6300085227E-02    0.6262534665E-02
    0.3300000000E+03    0.2404680269E-02    0.2375584051E-03    0.6598333668E+00    0.6682944655E-02    0.6653441416E-02
    0.3500000000E+03    0.2534201382E-02    0.2504137692E-03    0.6617943466E+00    0.7063938602E-02    0.7042824379E-02
    0.3700000000E+03    0.2662936611E-02    0.2631922624E-03    0.6635533813E+00    0.7443054682E-02    0.7430694575E-02
    0.3900000000E+03    0.2790881939E-02    0.2758934567E-03    0.6651401495E+00    0.7820285219E-02    0.7817062916E-02
    0.4100000000E+03    0.2918034716E-02    0.2885170659E-03    0.6665787848E+00    0.8195626270E-02    0.8201940203E-02
    0.4300000000E+03    0.3044393458E-02    0.3010629237E-03    0.6678891133E+00    0.8569076863E-02    0.8585337131E-02
    0.4500000000E+03    0.3169957671E-02    0.3135309654E-03    0.6690875736E+00    0.8940638414E-02    0.8967264290E-02
    0.4700000000E+03    0.3294727709E-02    0.3259212123E-03    0.6701879107E+00    0.9310314266E-02    0.9347732163E-02
    0.4900000000E+03    0.3418704640E-02    0.3382337587E-03    0.6712017061E+00    0.9678109323E-02    0.9726751133E-02
    0.1000000000E+03    0.8618793516E-03    0.8455636315E-04    0.5896031942E+00    0.2180463722E-02    0.2063145442E-02
    0.3000000000E+03    0.2208937863E-02    0.2181325811E-03    0.6564299651E+00    0.6107961428E-02    0.6066506395E-02
    0.5000000000E+03    0.3480396195E-02    0.3443609408E-03    0.6716792811E+00    0.9861303441E-02    0.9915720495E-02
    0.7000000000E+03    0.4673248314E-02    0.4628884042E-03    0.6784398915E+00    0.1342842588E-01    0.1362149968E-01
    0.9000000000E+03    0.5790866280E-02    0.5740403529E-03    0.6822575370E+00    0.1681843075E-01    0.1719355165E-01
    0.1100000000E+04    0.6838047017E-02    0.6782847904E-03    0.6847107944E+00    0.2004263520E-01    0.2064069643E-01
    0.1300000000E+04    0.7819705024E-02    0.7761014986E-03    0.6864204124E+00    0.2311212479E-01    0.2397096662E-01
    0.1500000000E+04    0.8740525476E-02    0.8679478549E-03    0.6876801286E+00    0.2603726699E-01    0.2719169424E-01
    0.1700000000E+04    0.9604868780E-02    0.9542495176E-03    0.6886469584E+00    0.2882762804E-01    0.3030958626E-01
    0.1900000000E+04    0.1041675507E-01    0.1035398941E-02    0.6894124559E+00    0.3149199748E-01    0.3333079056E-01
    0.2100000000E+04    0.1117987677E-01    0.1111756622E-02    0.6900336110E+00    0.3403844348E-01    0.3626095366E-01
    0.2300000000E+04    0.1189762097E-01    0.1183653297E-02    0.6905477549E+00    0.3647437481E-01    0.3910527140E-01
    0.2500000000E+04    0.1257309445E-01    0.1251392383E-02    0.6909803647E+00    0.3880660144E-01    0.4186853355E-01
    0.2700000000E+04    0.1320914849E-01    0.1315252404E-02    0.6913494230E+00    0.4104139075E-01    0.4455516328E-01
    0.2900000000E+04    0.1380840221E-01    0.1375489265E-02    0.6916679849E+00    0.4318451878E-01    0.4716925200E-01
    0.3100000000E+04    0.1437326409E-01    0.1432338344E-02    0.6919457583E+00    0.4524131626E-01    0.4971459034E-01
    0.3300000000E+04    0.1490595148E-01    0.1486016400E-02    0.6921901115E+00    0.4721671004E-01    0.5219469564E-01
    0.3500000000E+04    0.1540850827E-01    0.1536723288E-02    0.6924067387E+00    0.4911526014E-01    0.5461283656E-01
    0.3700000000E+04    0.1588282076E-01    0.1584643504E-02    0.6926001093E+00    0.5094119294E-01    0.5697205498E-01
    0.3900000000E+04    0.1633063197E-01    0.1629947581E-02    0.6927737812E+00    0.5269843085E-01    0.5927518564E-01
    0.4100000000E+04    0.1675355443E-01    0.1672793333E-02    0.6929306211E+00    0.5439061907E-01    0.6152487378E-01
    0.4300000000E+04    0.1715308180E-01    0.1713326980E-02    0.6930729652E+00    0.5602114945E-01    0.6372359095E-01
    0.4500000000E+04    0.1753059914E-01    0.1751684159E-02    0.6932027365E+00    0.5759318209E-01    0.6587364929E-01
    0.4700000000E+04    0.1788739236E-01    0.1787990833E-02    0.6933215318E+00    0.5910966468E-01    0.6797721443E-01
    0.4900000000E+04    0.1822465657E-01    0.1822364110E-02    0.6934306887E+00    0.6057335002E-01    0.7003631710E-01
    0.1000000000E+04    0.6322950875E-02    0.6269957051E-03    0.6836044904E+00    0.1845055075E-01    0.1893221802E-01
    0.3000000000E+04    0.1409498928E-01    0.1404323314E-02    0.6918114639E+00    0.4422339190E-01    0.4845028903E-01
    0.5000000000E+04    0.1838631584E-01    0.1838860084E-02    0.6934820124E+00    0.6128620461E-01    0.7104979533E-01
    0.7000000000E+04    0.2082663946E-01    0.2090073959E-02    0.6942020013E+00    0.7331518324E-01    0.8939137265E-01
    0.9000000000E+04    0.2220265100E-01    0.2235195922E-02    0.6946033535E+00    0.8217291158E-01    0.1048797821E+00
    0.1100000000E+05    0.2293182115E-01    0.2315365687E-02    0.6948593961E+00    0.8890283356E-01    0.1183341059E+00
    0.1300000000E+05    0.2325210117E-01    0.2354131011E-02    0.6950370128E+00    0.9413516291E-01    0.1302684172E+00
    0.1500000000E+05    0.2330671837E-01    0.2365731290E-02    0.6951674882E+00    0.9827329934E-01    0.1410242471E+00
    0.1700000000E+05    0.2318562867E-01    0.2359155071E-02    0.6952674142E+00    0.1015876696E+00    0.1508390160E+00
    0.1900000000E+05    0.2294726644E-01    0.2340273649E-02    0.6953464107E+00    0.1042665076E+00    0.1598839846E+00
    0.2100000000E+05    0.2263062660E-01    0.2313029075E-02    0.6954104401E+00    0.1064449874E+00    0.1682865429E+00
    0.2300000000E+05    0.2226229901E-01    0.2280127580E-02    0.6954633954E+00    0.1082227624E+00    0.1761439347E+00
    0.2500000000E+05    0.2186072784E-01    0.2243460580E-02    0.6955079262E+00    0.1096749635E+00    0.1835320528E+00
    0.2700000000E+05    0.2143887796E-01    0.2204368979E-02    0.6955458988E+00    0.1108593375E+00    0.1905112693E+00
    0.2900000000E+05    0.2100595224E-01    0.2163813917E-02    0.6955786657E+00    0.1118210206E+00    0.1971304158E+00
    0.3100000000E+05    0.2056852526E-01    0.2122489853E-02    0.6956072311E+00    0.1125958157E+00    0.2034295711E+00
    0.3300000000E+05    0.2013130787E-01    0.2080901083E-02    0.6956323565E+00    0.1132124936E+00    0.2094420578E+00
    0.3500000000E+05    0.1969767257E-01    0.2039414525E-02    0.6956546294E+00    0.1136944428E+00    0.2151959017E+00
    0.3700000000E+05    0.1927002060E-01    0.1998296725E-02    0.6956745109E+00    0.1140608733E+00    0.2207149174E+00
    0.3900000000E+05    0.1885004211E-01    0.1957740211E-02    0.6956923675E+00    0.1143277100E+00    0.2260195290E+00
    0.4100000000E+05    0.1843890298E-01    0.1917882482E-02    0.6957084945E+00    0.1145082649E+00    0.2311273994E+00
    0.4300000000E+05    0.1803738050E-01    0.1878819879E-02    0.6957231323E+00    0.1146137500E+00    0.2360539196E+00
    0.4500000000E+05    0.1764596288E-01    0.1840617800E-02    0.6957364787E+00    0.1146536740E+00    0.2408125939E+00
    0.4700000000E+05    0.1726492288E-01    0.1803318303E-02    0.6957486979E+00    0.1146361511E+00    0.2454153452E+00
    0.4900000000E+05    0.1689437273E-01    0.1766945812E-02    0.6957599274E+00    0.1145681456E+00    0.2498727615E+00
    0.1000000000E+05    0.2263030565E-01    0.2281642107E-02    0.6947441079E+00    0.8575759564E-01    0.1118239152E+00
    0.3000000000E+05    0.2078747039E-01    0.2143212746E-02    0.6955934212E+00    0.1122298381E+00    0.2003177706E+00
    0.5000000000E+05    0.1671303290E-01    0.1749111086E-02    0.6957652080E+00    0.1145171223E+00    0.2520499625E+00
    0.7000000000E+05    0.1360063864E-01    0.1439732029E-02    0.6958393548E+00    0.1119437031E+00    0.2898097543E+00
    0.9000000000E+05    0.1128673858E-01    0.1205952692E-02    0.6958807827E+00    0.1079629699E+00    0.3196706155E+00
    0.1100000000E+06    0.9531693275E-02    0.1026485246E-02    0.6959072756E+00    0.1036181382E+00    0.3443081487E+00
    0.1300000000E+06    0.8168644393E-02    0.8857411762E-03    0.6959256973E+00    0.9929431293E-01    0.3651888887E+00
    0.1500000000E+06    0.7087213707E-02    0.7731568874E-03    0.6959392605E+00    0.9514367547E-01    0.3832219190E+00
    0.1700000000E+06    0.6213326197E-02    0.6815297025E-03    0.6959496706E+00    0.9122346066E-01    0.3990169930E+00
    0.1900000000E+06    0.5495978430E-02    0.6058405921E-03    0.6959579175E+00    0.8754906026E-01    0.4130061211E+00
    0.2100000000E+06    0.4899126573E-02    0.5425080838E-03    0.6959646151E+00    0.8411683053E-01    0.4255079643E+00
    0.2300000000E+06    0.4396683664E-02    0.4889187301E-03    0.6959701648E+00    0.8091462234E-01    0.4367649497E+00
    0.2500000000E+06    0.3969363589E-02    0.4431265858E-03    0.6959748402E+00    0.7792686812E-01    0.4469660793E+00
    0.2700000000E+06    0.3602637615E-02    0.4036564207E-03    0.6959788339E+00    0.7513709376E-01    0.4562616672E+00
    0.2900000000E+06    0.3285377295E-02    0.3693718165E-03    0.6959822860E+00    0.7252915366E-01    0.4647732529E+00
    0.3100000000E+06    0.3008931773E-02    0.3393847734E-03    0.6959853003E+00    0.7008781255E-01    0.4726004939E+00
    0.3300000000E+06    0.2766486878E-02    0.3129924887E-03    0.6959879557E+00    0.6779898688E-01    0.4798260919E+00
    0.3500000000E+06    0.2552611246E-02    0.2896323083E-03    0.6959903133E+00    0.6564980856E-01    0.4865193978E+00
    0.3700000000E+06    0.2362929224E-02    0.2688490814E-03    0.6959924208E+00    0.6362859751E-01    0.4927391017E+00
    0.3900000000E+06    0.2193881369E-02    0.2502711363E-03    0.6959943163E+00    0.6172479008E-01    0.4985352773E+00
    0.4100000000E+06    0.2042546559E-02    0.2335923528E-03    0.6959960306E+00    0.5992884860E-01    0.5039509582E+00
    0.4300000000E+06    0.1906508112E-02    0.2185586114E-03    0.6959975887E+00    0.5823216603E-01    0.5090233705E+00
    0.4500000000E+06    0.1783751818E-02    0.2049574309E-03    0.6959990111E+00    0.5662697282E-01    0.5137849079E+00
    0.4700000000E+06    0.1672587416E-02    0.1926099589E-03    0.6960003151E+00    0.5510624959E-01    0.5182639118E+00
    0.4900000000E+06    0.1571587519E-02    0.1813647186E-03    0.6960015150E+00    0.5366364724E-01    0.5224853011E+00
    0.1000000000E+06    0.1035139346E-01    0.1110543616E-02    0.6958953388E+00    0.1058038595E+00    0.3325329586E+00
    0.3000000000E+06    0.3142515560E-02    0.3538887656E-03    0.6959838424E+00    0.7128856679E-01    0.4687668977E+00
    0.5000000000E+06    0.1524513062E-02    0.1761143502E-03    0.6960020797E+00    0.5296982270E-01    0.5245063699E+00
    0.7000000000E+06    0.9008950719E-03    0.1059069000E-03    0.6960100507E+00    0.4205436101E-01    0.5555988617E+00
    0.9000000000E+06    0.5950784400E-03    0.7088896787E-04    0.6960145482E+00    0.3483903058E-01    0.5755301279E+00
    0.1100000000E+07    0.4224517611E-03    0.5086211155E-04    0.6960174475E+00    0.2972186289E-01    0.5894165992E+00
    0.1300000000E+07    0.3154804292E-03    0.3831934300E-04    0.6960194774E+00    0.2590631905E-01    0.5996517956E+00
    0.1500000000E+07    0.2446212667E-03    0.2993597293E-04    0.6960209808E+00    0.2295298917E-01    0.6075101170E+00
    0.1700000000E+07    0.1952671839E-03    0.2405143730E-04    0.6960221405E+00    0.2059994375E-01    0.6137338016E+00
    0.1900000000E+07    0.1595175654E-03    0.1975981506E-04    0.6960230634E+00    0.1868145193E-01    0.6187848627E+00
    0.2100000000E+07    0.1327941999E-03    0.1653220179E-04    0.6960238159E+00    0.1708757487E-01    0.6229660768E+00
    0.2300000000E+07    0.1122948901E-03    0.1404271643E-04    0.6960244416E+00    0.1574253084E-01    0.6264842015E+00
    0.2500000000E+07    0.9622631105E-04    0.1208156037E-04    0.6960249704E+00    0.1459239637E-01    0.6294852656E+00
    0.2700000000E+07    0.8339747793E-04    0.1050864836E-04    0.6960254233E+00    0.1359776127E-01    0.6320753504E+00
    0.2900000000E+07    0.7299228926E-04    0.9227514714E-05    0.6960258157E+00    0.1272915724E-01    0.6343333790E+00
    0.3100000000E+07    0.6443633573E-04    0.8169953175E-05    0.6960261591E+00    0.1196411109E-01    0.6363192865E+00
    0.3300000000E+07    0.5731582449E-04    0.7286621910E-05    0.6960264621E+00    0.1128518687E-01    0.6380794070E+00
    0.3500000000E+07    0.5132654930E-04    0.6541103847E-05    0.6960267316E+00    0.1067865040E-01    0.6396501242E+00
    0.3700000000E+07    0.4624082195E-04    0.5906041723E-05    0.6960269728E+00    0.1013353705E-01    0.6410604068E+00
    0.3900000000E+07    0.4188548648E-04    0.5360558523E-05    0.6960271901E+00    0.9640987665E-02    0.6423336052E+00
    0.4100000000E+07    0.3812696550E-04    0.4888496648E-05    0.6960273867E+00    0.9193766660E-02    0.6434887507E+00
    0.4300000000E+07    0.3486088079E-04    0.4477191537E-05    0.6960275655E+00    0.8785906646E-02    0.6445415097E+00
    0.4500000000E+07    0.3200471599E-04    0.4116601955E-05    0.6960277289E+00    0.8412442441E-02    0.6455048956E+00
    0.4700000000E+07    0.2949254370E-04    0.3798683052E-05    0.6960278787E+00    0.8069209299E-02    0.6463898076E+00
    0.4900000000E+07    0.2727117865E-04    0.3516927685E-05    0.6960280166E+00    0.7752687973E-02    0.6472054431E+00
    0.1000000000E+07    0.4976913206E-03    0.5961925373E-04    0.6960161385E+00    0.3207957360E-01    0.5830422441E+00
    0.3000000000E+07    0.6851207671E-04    0.8674231154E-05    0.6960259929E+00    0.1233487920E-01    0.6353571826E+00
    0.5000000000E+07    0.2625569689E-04    0.3387912745E-05    0.6960280815E+00    0.7603490811E-02    0.6475897711E+00
    0.7000000000E+07    0.1399956877E-04    0.1817872874E-05    0.6960289963E+00    0.5485899875E-02    0.6530358364E+00
    0.9000000000E+07    0.8817377834E-05    0.1144270410E-05    0.6960295069E+00    0.4286687821E-02    0.6561133659E+00
    0.1100000000E+08    0.6143329566E-05    0.7932733137E-06    0.6960298296E+00    0.3515521228E-02    0.6580902771E+00
    0.1300000000E+08    0.4580623204E-05    0.5867728626E-06    0.6960300494E+00    0.2978219411E-02    0.6594668595E+00
    0.1500000000E+08    0.3585831279E-05    0.4547224827E-06    0.6960302068E+00    0.2582557836E-02    0.6604802214E+00
    0.1700000000E+08    0.2911688826E-05    0.3649777859E-06    0.6960303234E+00    0.2279138098E-02    0.6612571951E+00
    0.1900000000E+08    0.2432473955E-05    0.3010816832E-06    0.6960304118E+00    0.2039123889E-02    0.6618717510E+00
    0.2100000000E+08    0.2078717444E-05    0.2538885798E-06    0.6960304802E+00    0.1844554971E-02    0.6623699306E+00
    0.2300000000E+08    0.1809462554E-05    0.2179807970E-06    0.6960305336E+00    0.1683663619E-02    0.6627818864E+00
    0.2500000000E+08    0.1599273505E-05    0.1899802570E-06    0.6960305757E+00    0.1548418735E-02    0.6631281895E+00
    0.2700000000E+08    0.1431664586E-05    0.1676901452E-06    0.6960306089E+00    0.1433152518E-02    0.6634233537E+00
