  Pressure (Pa) 22mC5-500 (mol/kg) 23mC5-500 (mol/kg) 24mC5-500 (mol/kg) 2mC6-500 (mol/kg) 3mC6-500 (mol/kg)
    0.1000000000E+01    0.1744906789E-04    0.8448764083E-06    0.2142824725E+00    0.1473051970E-04    0.1042152094E-04
    0.3000000000E+01    0.3844229643E-04    0.1867426207E-05    0.3978569305E+00    0.3505146242E-04    0.3126072802E-04
    0.5000000000E+01    0.5465773011E-04    0.2662999790E-05    0.4801224729E+00    0.5286903999E-04    0.5209492724E-04
    0.7000000000E+01    0.6960977341E-04    0.3399611613E-05    0.5268073968E+00    0.7028779609E-04    0.7292415417E-04
    0.9000000000E+01    0.8413849124E-04    0.4116975787E-05    0.5568911725E+00    0.8768526057E-04    0.9374842189E-04
    0.1100000000E+02    0.9851543638E-04    0.4827756303E-05    0.5778922619E+00    0.1051396589E-03    0.1145677374E-03
    0.1300000000E+02    0.1128433591E-03    0.5536659865E-05    0.5933845387E+00    0.1226608905E-03    0.1353821055E-03
    0.1500000000E+02    0.1271644038E-03    0.6245567306E-05    0.6052842631E+00    0.1402422153E-03    0.1561915298E-03
    0.1700000000E+02    0.1414961897E-03    0.6955231230E-05    0.6147112618E+00    0.1578737854E-03    0.1769960134E-03
    0.1900000000E+02    0.1558456237E-03    0.7665919981E-05    0.6223637504E+00    0.1755463189E-03    0.1977955594E-03
    0.2100000000E+02    0.1702147231E-03    0.8377686225E-05    0.6286996846E+00    0.1932519473E-03    0.2185901702E-03
    0.2300000000E+02    0.1846032452E-03    0.9090486644E-05    0.6340319180E+00    0.2109842321E-03    0.2393798486E-03
    0.2500000000E+02    0.1990099331E-03    0.9804237671E-05    0.6385814538E+00    0.2287379624E-03    0.2601645968E-03
    0.2700000000E+02    0.2134331226E-03    0.1051884207E-04    0.6425088476E+00    0.2465089240E-03    0.2809444174E-03
    0.2900000000E+02    0.2278710421E-03    0.1123420159E-04    0.6459335517E+00    0.2642936959E-03    0.3017193128E-03
    0.3100000000E+02    0.2423219582E-03    0.1195022287E-04    0.6489462774E+00    0.2820894844E-03    0.3224892852E-03
    0.3300000000E+02    0.2567842429E-03    0.1266681979E-04    0.6516171485E+00    0.2998939922E-03    0.3432543369E-03
    0.3500000000E+02    0.2712564001E-03    0.1338391424E-04    0.6540012287E+00    0.3177053174E-03    0.3640144703E-03
    0.3700000000E+02    0.2857370714E-03    0.1410143601E-04    0.6561423582E+00    0.3355218737E-03    0.3847696876E-03
    0.3900000000E+02    0.3002250319E-03    0.1481932224E-04    0.6580758748E+00    0.3533423294E-03    0.4055199912E-03
    0.4100000000E+02    0.3147191805E-03    0.1553751677E-04    0.6598305800E+00    0.3711655590E-03    0.4262653832E-03
    0.4300000000E+02    0.3292185289E-03    0.1625596947E-04    0.6614301830E+00    0.3889906057E-03    0.4470058659E-03
    0.4500000000E+02    0.3437221902E-03    0.1697463555E-04    0.6628943790E+00    0.4068166509E-03    0.4677414415E-03
    0.4700000000E+02    0.3582293678E-03    0.1769347491E-04    0.6642396639E+00    0.4246429908E-03    0.4884721123E-03
    0.4900000000E+02    0.3727393455E-03    0.1841245163E-04    0.6654799586E+00    0.4424690172E-03    0.5091978805E-03
    0.1000000000E+02    0.9133739397E-04    0.4472795599E-05    0.5682489759E+00    0.9640404292E-04    0.1041586983E-03
    0.3000000000E+02    0.2350949803E-03    0.1159213508E-04    0.6474866214E+00    0.2731903670E-03    0.3121049142E-03
    0.5000000000E+02    0.3799951802E-03    0.1877198129E-04    0.6660645022E+00    0.4513817449E-03    0.5195589268E-03
    0.7000000000E+02    0.5251322676E-03    0.2596348406E-04    0.6743575690E+00    0.6295221556E-03    0.7265230095E-03
    0.9000000000E+02    0.6700973291E-03    0.3314632240E-04    0.6790549946E+00    0.8073024647E-03    0.9329993669E-03
    0.1100000000E+03    0.8147194284E-03    0.4031214107E-04    0.6820786603E+00    0.9846214683E-03    0.1138990180E-02
    0.1300000000E+03    0.9589151139E-03    0.4745689948E-04    0.6841878945E+00    0.1161437341E-02    0.1344497613E-02
    0.1500000000E+03    0.1102639083E-02    0.5457841954E-04    0.6857430455E+00    0.1337730478E-02    0.1549523816E-02
    0.1700000000E+03    0.1245864970E-02    0.6167544123E-04    0.6869371064E+00    0.1513491141E-02    0.1754070923E-02
    0.1900000000E+03    0.1388576743E-02    0.6874720317E-04    0.6878827637E+00    0.1688714522E-02    0.1958141056E-02
    0.2100000000E+03    0.1530764443E-02    0.7579323542E-04    0.6886502326E+00    0.1863398499E-02    0.2161736324E-02
    0.2300000000E+03    0.1672421876E-02    0.8281324840E-04    0.6892855431E+00    0.2037542512E-02    0.2364858822E-02
    0.2500000000E+03    0.1813545299E-02    0.8980706933E-04    0.6898201279E+00    0.2211146961E-02    0.2567510633E-02
    0.2700000000E+03    0.1954132617E-02    0.9677460402E-04    0.6902761836E+00    0.2384212858E-02    0.2769693826E-02
    0.2900000000E+03    0.2094182884E-02    0.1037158127E-03    0.6906698310E+00    0.2556741617E-02    0.2971410458E-02
    0.3100000000E+03    0.2233695972E-02    0.1106306943E-03    0.6910130610E+00    0.2728734928E-02    0.3172662575E-02
    0.3300000000E+03    0.2372672350E-02    0.1175192759E-03    0.6913149775E+00    0.2900194667E-02    0.3373452207E-02
    0.3500000000E+03    0.2511112925E-02    0.1243816055E-03    0.6915826168E+00    0.3071122845E-02    0.3573781375E-02
    0.3700000000E+03    0.2649018939E-02    0.1312177467E-03    0.6918215032E+00    0.3241521564E-02    0.3773652087E-02
    0.3900000000E+03    0.2786391888E-02    0.1380277747E-03    0.6920360344E+00    0.3411392997E-02    0.3973066338E-02
    0.4100000000E+03    0.2923233461E-02    0.1448117743E-03    0.6922297548E+00    0.3580739359E-02    0.4172026111E-02
    0.4300000000E+03    0.3059545501E-02    0.1515698372E-03    0.6924055526E+00    0.3749562902E-02    0.4370533379E-02
    0.4500000000E+03    0.3195329969E-02    0.1583020605E-03    0.6925658055E+00    0.3917865900E-02    0.4568590100E-02
    0.4700000000E+03    0.3330588918E-02    0.1650085459E-03    0.6927124881E+00    0.4085650641E-02    0.4766198222E-02
    0.4900000000E+03    0.3465324475E-02    0.1716893981E-03    0.6928472545E+00    0.4252919423E-02    0.4963359683E-02
    0.1000000000E+03    0.7424577085E-03    0.3673167263E-04    0.6807146658E+00    0.8960230017E-03    0.1036055331E-02
    0.3000000000E+03    0.2164006558E-02    0.1071765432E-03    0.6908471227E+00    0.2642805090E-02    0.3072094454E-02
    0.5000000000E+03    0.3532496662E-02    0.1750202453E-03    0.6929106138E+00    0.4336361050E-02    0.5061773517E-02
    0.7000000000E+03    0.4849016695E-02    0.2403186806E-03    0.6937989481E+00    0.5978668337E-02    0.7007065225E-02
    0.9000000000E+03    0.6115850298E-02    0.3031838222E-03    0.6942935447E+00    0.7571990400E-02    0.8909827784E-02
    0.1100000000E+04    0.7335311183E-02    0.3637286890E-03    0.6946087068E+00    0.9118496456E-02    0.1077181325E-01
    0.1300000000E+04    0.8509619268E-02    0.4220616024E-03    0.6948270958E+00    0.1062023783E-01    0.1259467508E-01
    0.1500000000E+04    0.9640878637E-02    0.4782851928E-03    0.6949873567E+00    0.1207915017E-01    0.1437997506E-01
    0.1700000000E+04    0.1073107641E-01    0.5324963737E-03    0.6951099745E+00    0.1349705984E-01    0.1612918966E-01
    0.1900000000E+04    0.1178208729E-01    0.5847865760E-03    0.6952068200E+00    0.1487569088E-01    0.1784371582E-01
    0.2100000000E+04    0.1279567982E-01    0.6352420562E-03    0.6952852473E+00    0.1621667181E-01    0.1952487629E-01
    0.2300000000E+04    0.1377352288E-01    0.6839442177E-03    0.6953500554E+00    0.1752154205E-01    0.2117392457E-01
    0.2500000000E+04    0.1471719212E-01    0.7309699236E-03    0.6954045090E+00    0.1879175783E-01    0.2279204946E-01
    0.2700000000E+04    0.1562817602E-01    0.7763917938E-03    0.6954509068E+00    0.2002869771E-01    0.2438037918E-01
    0.2900000000E+04    0.1650788161E-01    0.8202784823E-03    0.6954909135E+00    0.2123366766E-01    0.2593998525E-01
    0.3100000000E+04    0.1735763978E-01    0.8626949368E-03    0.6955257651E+00    0.2240790579E-01    0.2747188608E-01
    0.3300000000E+04    0.1817871022E-01    0.9037026381E-03    0.6955563978E+00    0.2355258664E-01    0.2897705023E-01
    0.3500000000E+04    0.1897228597E-01    0.9433598231E-03    0.6955835342E+00    0.2466882523E-01    0.3045639948E-01
    0.3700000000E+04    0.1973949771E-01    0.9817216914E-03    0.6956077407E+00    0.2575768079E-01    0.3191081166E-01
    0.3900000000E+04    0.2048141764E-01    0.1018840596E-02    0.6956294677E+00    0.2682016018E-01    0.3334112327E-01
    0.4100000000E+04    0.2119906319E-01    0.1054766222E-02    0.6956490777E+00    0.2785722108E-01    0.3474813192E-01
    0.4300000000E+04    0.2189340032E-01    0.1089545750E-02    0.6956668658E+00    0.2886977500E-01    0.3613259860E-01
    0.4500000000E+04    0.2256534675E-01    0.1123224007E-02    0.6956830748E+00    0.2985868997E-01    0.3749524978E-01
    0.4700000000E+04    0.2321577481E-01    0.1155843615E-02    0.6956979061E+00    0.3082479315E-01    0.3883677940E-01
    0.4900000000E+04    0.2384551418E-01    0.1187445113E-02    0.6957115282E+00    0.3176887319E-01    0.4015785066E-01
    0.1000000000E+04    0.6731360958E-02    0.3337393902E-03    0.6944668425E+00    0.8350964447E-02    0.9845812084E-02
    0.3000000000E+04    0.1693642378E-01    0.8416665677E-03    0.6955089193E+00    0.2182455336E-01    0.2670933715E-01
    0.5000000000E+04    0.2415287385E-01    0.1202876202E-02    0.6957179311E+00    0.3223289099E-01    0.4081091369E-01
    0.7000000000E+04    0.2938679134E-01    0.1466499096E-02    0.6958076121E+00    0.4052268281E-01    0.5293848619E-01
    0.9000000000E+04    0.3325076373E-01    0.1662496476E-02    0.6958574754E+00    0.4728484599E-01    0.6359590003E-01
    0.1100000000E+05    0.3613682170E-01    0.1810074366E-02    0.6958892272E+00    0.5290740657E-01    0.7312163771E-01
    0.1300000000E+05    0.3830619018E-01    0.1922053125E-02    0.6959112216E+00    0.5765583987E-01    0.8175235181E-01
    0.1500000000E+05    0.3993882235E-01    0.2007280911E-02    0.6959273589E+00    0.6171804175E-01    0.8965904547E-01
    0.1700000000E+05    0.4116218570E-01    0.2072037432E-02    0.6959397048E+00    0.6523084456E-01    0.9696875462E-01
    0.1900000000E+05    0.4206872890E-01    0.2120886478E-02    0.6959494557E+00    0.6829634498E-01    0.1037781069E+00
    0.2100000000E+05    0.4272687563E-01    0.2157213025E-02    0.6959573524E+00    0.7099233523E-01    0.1101621122E+00
    0.2300000000E+05    0.4318816525E-01    0.2183572430E-02    0.6959638781E+00    0.7337918150E-01    0.1161800417E+00
    0.2500000000E+05    0.4349201912E-01    0.2201923763E-02    0.6959693617E+00    0.7550448582E-01    0.1218794665E+00
    0.2700000000E+05    0.4366899918E-01    0.2213789479E-02    0.6959740344E+00    0.7740632305E-01    0.1272990989E+00
    0.2900000000E+05    0.4374308317E-01    0.2220367049E-02    0.6959780640E+00    0.7911553673E-01    0.1324708330E+00
    0.3100000000E+05    0.4373328353E-01    0.2222608463E-02    0.6959815747E+00    0.8065739881E-01    0.1374212385E+00
    0.3300000000E+05    0.4365481887E-01    0.2221277830E-02    0.6959846607E+00    0.8205283010E-01    0.1421726715E+00
    0.3500000000E+05    0.4351997450E-01    0.2216993749E-02    0.6959873949E+00    0.8331931163E-01    0.1467441145E+00
    0.3700000000E+05    0.4333874343E-01    0.2210260896E-02    0.6959898341E+00    0.8447157474E-01    0.1511518187E+00
    0.3900000000E+05    0.4311930977E-01    0.2201493886E-02    0.6959920238E+00    0.8552213030E-01    0.1554098031E+00
    0.4100000000E+05    0.4286841748E-01    0.2191035493E-02    0.6959940004E+00    0.8648167936E-01    0.1595302447E+00
    0.4300000000E+05    0.4259165456E-01    0.2179170716E-02    0.6959957935E+00    0.8735943513E-01    0.1635237886E+00
    0.4500000000E+05    0.4229367429E-01    0.2166137739E-02    0.6959974277E+00    0.8816337796E-01    0.1673997959E+00
    0.4700000000E+05    0.4197836887E-01    0.2152136546E-02    0.6959989232E+00    0.8890045921E-01    0.1711665436E+00
    0.4900000000E+05    0.4164900692E-01    0.2137335759E-02    0.6960002969E+00    0.8957676545E-01    0.1748313873E+00
    0.1000000000E+05    0.3479735393E-01    0.1741421712E-02    0.6958749366E+00    0.5021975758E-01    0.6848356746E-01
    0.3000000000E+05    0.4374764006E-01    0.2221978173E-02    0.6959798777E+00    0.7990598913E-01    0.1349722168E+00
    0.5000000000E+05    0.4147993313E-01    0.2129681001E-02    0.6960009427E+00    0.8989382688E-01    0.1766276752E+00
    0.7000000000E+05    0.3783886333E-01    0.1959610475E-02    0.6960099925E+00    0.9405904122E-01    0.2084843279E+00
    0.9000000000E+05    0.3427694996E-01    0.1788097249E-02    0.6960150302E+00    0.9565979895E-01    0.2347401534E+00
    0.1100000000E+06    0.3107458722E-01    0.1631293394E-02    0.6960182415E+00    0.9591338814E-01    0.2572211367E+00
    0.1300000000E+06    0.2825870124E-01    0.1491776557E-02    0.6960204680E+00    0.9539092239E-01    0.2769184304E+00
    0.1500000000E+06    0.2579443272E-01    0.1368544555E-02    0.6960221031E+00    0.9439886395E-01    0.2944463400E+00
    0.1700000000E+06    0.2363508256E-01    0.1259725368E-02    0.6960233551E+00    0.9311655460E-01    0.3102202189E+00
    0.1900000000E+06    0.2173615666E-01    0.1163392611E-02    0.6960243446E+00    0.9165532024E-01    0.3245384341E+00
    0.2100000000E+06    0.2005892165E-01    0.1077806493E-02    0.6960251465E+00    0.9008717781E-01    0.3376249622E+00
    0.2300000000E+06    0.1857071318E-01    0.1001466067E-02    0.6960258097E+00    0.8846008925E-01    0.3496536025E+00
    0.2500000000E+06    0.1724428554E-01    0.9330990465E-03    0.6960263673E+00    0.8680664076E-01    0.3607627271E+00
    0.2700000000E+06    0.1605696218E-01    0.8716333228E-03    0.6960268427E+00    0.8514925258E-01    0.3710647744E+00
    0.2900000000E+06    0.1498983395E-01    0.8161658880E-03    0.6960272530E+00    0.8350344247E-01    0.3806526360E+00
    0.3100000000E+06    0.1402707320E-01    0.7659344858E-03    0.6960276105E+00    0.8187994199E-01    0.3896041142E+00
    0.3300000000E+06    0.1315536955E-01    0.7202933993E-03    0.6960279250E+00    0.8028610848E-01    0.3979851285E+00
    0.3500000000E+06    0.1236347321E-01    0.6786933565E-03    0.6960282038E+00    0.7872688950E-01    0.4058520827E+00
    0.3700000000E+06    0.1164182756E-01    0.6406650625E-03    0.6960284526E+00    0.7720549486E-01    0.4132536501E+00
    0.3900000000E+06    0.1098227367E-01    0.6058057652E-03    0.6960286761E+00    0.7572387256E-01    0.4202321463E+00
    0.4100000000E+06    0.1037781216E-01    0.5737683013E-03    0.6960288779E+00    0.7428305078E-01    0.4268246014E+00
    0.4300000000E+06    0.9822410612E-02    0.5442521491E-03    0.6960290610E+00    0.7288338630E-01    0.4330636099E+00
    0.4500000000E+06    0.9310846974E-02    0.5169960951E-03    0.6960292280E+00    0.7152474692E-01    0.4389780125E+00
    0.4700000000E+06    0.8838581778E-02    0.4917722022E-03    0.6960293808E+00    0.7020664643E-01    0.4445934495E+00
    0.4900000000E+06    0.8401653196E-02    0.4683808267E-03    0.6960295213E+00    0.6892834506E-01    0.4499328142E+00
    0.1000000000E+06    0.3262662529E-01    0.1707554703E-02    0.6960167957E+00    0.9591053367E-01    0.2463785088E+00
    0.3000000000E+06    0.1449629270E-01    0.7904385170E-03    0.6960274377E+00    0.8268837764E-01    0.3852035556E+00
    0.5000000000E+06    0.8195338400E-02    0.4573166484E-03    0.6960295873E+00    0.6830383745E-01    0.4525054661E+00
    0.7000000000E+06    0.5274632776E-02    0.2992072851E-03    0.6960305141E+00    0.5763766689E-01    0.4934824224E+00
    0.9000000000E+06    0.3679901879E-02    0.2114333336E-03    0.6960310311E+00    0.4969413260E-01    0.5212326148E+00
    0.1100000000E+07    0.2713295241E-02    0.1575421995E-03    0.6960313611E+00    0.4361035703E-01    0.5413146458E+00
    0.1300000000E+07    0.2083075093E-02    0.1220333745E-03    0.6960315901E+00    0.3882173562E-01    0.5565350583E+00
    0.1500000000E+07    0.1649358828E-02    0.9737699509E-04    0.6960317583E+00    0.3496263780E-01    0.5684736446E+00
    0.1700000000E+07    0.1338153824E-02    0.7954747889E-04    0.6960318871E+00    0.3179021221E-01    0.5780904486E+00
    0.1900000000E+07    0.1107304206E-02    0.6623063567E-04    0.6960319888E+00    0.2913818033E-01    0.5860034627E+00
    0.2100000000E+07    0.9313506038E-03    0.5601792658E-04    0.6960320711E+00    0.2688935755E-01    0.5926288616E+00
    0.2300000000E+07    0.7941757643E-03    0.4801151668E-04    0.6960321391E+00    0.2495898923E-01    0.5982573174E+00
    0.2500000000E+07    0.6851718645E-03    0.4161683437E-04    0.6960321962E+00    0.2328435571E-01    0.6030980589E+00
    0.2700000000E+07    0.5971251567E-03    0.3642728729E-04    0.6960322448E+00    0.2181809762E-01    0.6073055598E+00
    0.2900000000E+07    0.5249912665E-03    0.3215710466E-04    0.6960322866E+00    0.2052381135E-01    0.6109963666E+00
    0.3100000000E+07    0.4651568289E-03    0.2860062185E-04    0.6960323230E+00    0.1937306916E-01    0.6142600730E+00
    0.3300000000E+07    0.4149785765E-03    0.2560673443E-04    0.6960323549E+00    0.1834335719E-01    0.6171666896E+00
    0.3500000000E+07    0.3724867912E-03    0.2306238475E-04    0.6960323831E+00    0.1741661911E-01    0.6197717191E+00
    0.3700000000E+07    0.3361893815E-03    0.2088160442E-04    0.6960324082E+00    0.1657820843E-01    0.6221197304E+00
    0.3900000000E+07    0.3049393661E-03    0.1899807273E-04    0.6960324307E+00    0.1581612219E-01    0.6242469250E+00
    0.4100000000E+07    0.2778433503E-03    0.1735995773E-04    0.6960324509E+00    0.1512043186E-01    0.6261830127E+00
    0.4300000000E+07    0.2541971168E-03    0.1592627253E-04    0.6960324692E+00    0.1448285478E-01    0.6279526045E+00
    0.4500000000E+07    0.2334395239E-03    0.1466425861E-04    0.6960324859E+00    0.1389642749E-01    0.6295762612E+00
    0.4700000000E+07    0.2151189976E-03    0.1354747780E-04    0.6960325010E+00    0.1335525364E-01    0.6310712939E+00
    0.4900000000E+07    0.1988688322E-03    0.1255440164E-04    0.6960325149E+00    0.1285430755E-01    0.6324523812E+00
    0.1000000000E+07    0.3141525017E-02    0.1814931858E-03    0.6960312125E+00    0.4646087120E-01    0.5320170607E+00
    0.3000000000E+07    0.4937204718E-03    0.3030014643E-04    0.6960323054E+00    0.1993202351E-01    0.6126768411E+00
    0.5000000000E+07    0.1914241094E-03    0.1209860216E-04    0.6960325214E+00    0.1261754871E-01    0.6331041834E+00
    0.7000000000E+07    0.1007446991E-03    0.6493449843E-05    0.6960326107E+00    0.9213217372E-02    0.6424124044E+00
    0.9000000000E+07    0.6196191986E-04    0.4052890844E-05    0.6960326578E+00    0.7248409068E-02    0.6477328050E+00
    0.1100000000E+08    0.4189795513E-04    0.2772923431E-05    0.6960326858E+00    0.5970594912E-02    0.6511739207E+00
    0.1300000000E+08    0.3019756873E-04    0.2018197535E-05    0.6960327036E+00    0.5073597912E-02    0.6535810394E+00
    0.1500000000E+08    0.2278703688E-04    0.1535713938E-05    0.6960327153E+00    0.4409521955E-02    0.6553588252E+00
    0.1700000000E+08    0.1780079831E-04    0.1208450387E-05    0.6960327232E+00    0.3898219191E-02    0.6567252564E+00
    0.1900000000E+08    0.1428687676E-04    0.9761828728E-06    0.6960327285E+00    0.3492500509E-02    0.6578081192E+00
    0.2100000000E+08    0.1171833680E-04    0.8053289887E-06    0.6960327321E+00    0.3162780958E-02    0.6586872691E+00
    0.2300000000E+08    0.9784395825E-05    0.6759517818E-06    0.6960327342E+00    0.2889574871E-02    0.6594151692E+00
    0.2500000000E+08    0.8292165814E-05    0.5756041870E-06    0.6960327355E+00    0.2659527455E-02    0.6600277039E+00
    0.2700000000E+08    0.7116806329E-05    0.4961869996E-06    0.6960327360E+00    0.2463180646E-02    0.6605502456E+00
