  Pressure (Pa) 22mC5-500 (mol/kg) 23mC5-500 (mol/kg) 24mC5-500 (mol/kg) 2mC6-500 (mol/kg) 3mC6-500 (mol/kg)
    0.1000000000E+01    0.2600220504E-04    0.3233782203E-05    0.3666043042E-01    0.2423251725E-04    0.2605295202E-04
    0.3000000000E+01    0.7189514097E-04    0.8943764385E-05    0.9948936335E-01    0.6763761051E-04    0.7814383117E-04
    0.5000000000E+01    0.1115482276E-03    0.1388105981E-04    0.1513755017E+00    0.1059867678E-03    0.1302147144E-03
    0.7000000000E+01    0.1465859660E-03    0.1824759605E-04    0.1949492662E+00    0.1406997072E-03    0.1822656381E-03
    0.9000000000E+01    0.1781310404E-03    0.2218280843E-04    0.2320604974E+00    0.1727410221E-03    0.2342966324E-03
    0.1100000000E+02    0.2069816299E-03    0.2578574310E-04    0.2640480120E+00    0.2027840875E-03    0.2863077229E-03
    0.1300000000E+02    0.2337189916E-03    0.2912846293E-04    0.2919046720E+00    0.2313098612E-03    0.3382989326E-03
    0.1500000000E+02    0.2587752243E-03    0.3226448810E-04    0.3163823525E+00    0.2586686526E-03    0.3902702821E-03
    0.1700000000E+02    0.2824773361E-03    0.3523428283E-04    0.3380608769E+00    0.2851199591E-03    0.4422217908E-03
    0.1900000000E+02    0.3050767072E-03    0.3806892191E-04    0.3573945693E+00    0.3108588563E-03    0.4941534769E-03
    0.2100000000E+02    0.3267692685E-03    0.4079260072E-04    0.3747444679E+00    0.3360338952E-03    0.5460653576E-03
    0.2300000000E+02    0.3477096199E-03    0.4342439056E-04    0.3904010998E+00    0.3607594923E-03    0.5979574496E-03
    0.2500000000E+02    0.3680210969E-03    0.4597948945E-04    0.4046008945E+00    0.3851246662E-03    0.6498297691E-03
    0.2700000000E+02    0.3878030707E-03    0.4847012884E-04    0.4175382161E+00    0.4091992980E-03    0.7016823319E-03
    0.2900000000E+02    0.4071363231E-03    0.5090624071E-04    0.4293743211E+00    0.4330386855E-03    0.7535151534E-03
    0.3100000000E+02    0.4260870596E-03    0.5329595544E-04    0.4402441201E+00    0.4566868982E-03    0.8053282489E-03
    0.3300000000E+02    0.4447099421E-03    0.5564597779E-04    0.4502613475E+00    0.4801792815E-03    0.8571216333E-03
    0.3500000000E+02    0.4630504084E-03    0.5796187433E-04    0.4595225599E+00    0.5035443432E-03    0.9088953214E-03
    0.3700000000E+02    0.4811464642E-03    0.6024829527E-04    0.4681102617E+00    0.5268051923E-03    0.9606493280E-03
    0.3900000000E+02    0.4990300810E-03    0.6250914753E-04    0.4760953714E+00    0.5499806439E-03    0.1012383667E-02
    0.4100000000E+02    0.5167282963E-03    0.6474773079E-04    0.4835391870E+00    0.5730860764E-03    0.1064098354E-02
    0.4300000000E+02    0.5342640874E-03    0.6696684542E-04    0.4904949636E+00    0.5961341009E-03    0.1115793403E-02
    0.4500000000E+02    0.5516570694E-03    0.6916887873E-04    0.4970091910E+00    0.6191350885E-03    0.1167468827E-02
    0.4700000000E+02    0.5689240576E-03    0.7135587442E-04    0.5031226350E+00    0.6420975877E-03    0.1219124642E-02
    0.4900000000E+02    0.5860795239E-03    0.7352958879E-04    0.5088711922E+00    0.6650286577E-03    0.1270760860E-02
    0.1000000000E+02    0.1928526723E-03    0.2402079113E-04    0.2486260072E+00    0.1879786249E-03    0.2603046641E-03
    0.3000000000E+02    0.4166558491E-03    0.5210644900E-04    0.4349224559E+00    0.4448842998E-03    0.7794241660E-03
    0.5000000000E+02    0.5946194109E-03    0.7461194721E-04    0.5116187006E+00    0.6764842722E-03    0.1296571626E-02
    0.7000000000E+02    0.7618375653E-03    0.9583674634E-04    0.5534599086E+00    0.9049165569E-03    0.1811761571E-02
    0.9000000000E+02    0.9253795051E-03    0.1166333350E-03    0.5798105131E+00    0.1133034915E-02    0.2325007843E-02
    0.1100000000E+03    0.1087249603E-02    0.1372383710E-03    0.5979309037E+00    0.1361119786E-02    0.2836324019E-02
    0.1300000000E+03    0.1248107847E-02    0.1577272690E-03    0.6111569405E+00    0.1589022603E-02    0.3345723498E-02
    0.1500000000E+03    0.1408178153E-02    0.1781240573E-03    0.6212361060E+00    0.1816551461E-02    0.3853219530E-02
    0.1700000000E+03    0.1567526461E-02    0.1984346093E-03    0.6291723776E+00    0.2043544019E-02    0.4358825230E-02
    0.1900000000E+03    0.1726158795E-02    0.2186581866E-03    0.6355836593E+00    0.2269874903E-02    0.4862553581E-02
    0.2100000000E+03    0.1884059092E-02    0.2387918041E-03    0.6408710955E+00    0.2495449798E-02    0.5364417441E-02
    0.2300000000E+03    0.2041204572E-02    0.2588319522E-03    0.6453064620E+00    0.2720198217E-02    0.5864429546E-02
    0.2500000000E+03    0.2197572046E-02    0.2787752720E-03    0.6490804302E+00    0.2944067494E-02    0.6362602509E-02
    0.2700000000E+03    0.2353140407E-02    0.2986187983E-03    0.6523307231E+00    0.3167018253E-02    0.6858948824E-02
    0.2900000000E+03    0.2507891457E-02    0.3183600194E-03    0.6551593028E+00    0.3389021071E-02    0.7353480869E-02
    0.3100000000E+03    0.2661810009E-02    0.3379968627E-03    0.6576432711E+00    0.3610054051E-02    0.7846210905E-02
    0.3300000000E+03    0.2814883690E-02    0.3575276522E-03    0.6598420113E+00    0.3830101043E-02    0.8337151078E-02
    0.3500000000E+03    0.2967102641E-02    0.3769510577E-03    0.6618020021E+00    0.4049150329E-02    0.8826313422E-02
    0.3700000000E+03    0.3118459194E-02    0.3962660469E-03    0.6635601422E+00    0.4267193641E-02    0.9313709860E-02
    0.3900000000E+03    0.3268947569E-02    0.4154718405E-03    0.6651460983E+00    0.4484225424E-02    0.9799352204E-02
    0.4100000000E+03    0.3418563600E-02    0.4345678744E-03    0.6665839939E+00    0.4700242273E-02    0.1028325216E-01
    0.4300000000E+03    0.3567304502E-02    0.4535537671E-03    0.6678936468E+00    0.4915242503E-02    0.1076542131E-01
    0.4500000000E+03    0.3715168664E-02    0.4724292913E-03    0.6690914880E+00    0.5129225807E-02    0.1124587117E-01
    0.4700000000E+03    0.3862155479E-02    0.4911943511E-03    0.6701912564E+00    0.5342193000E-02    0.1172461310E-01
    0.4900000000E+03    0.4008265192E-02    0.5098489621E-03    0.6712045281E+00    0.5554145805E-02    0.1220165838E-01
    0.1000000000E+03    0.1006466502E-02    0.1269532111E-03    0.5896379916E+00    0.1247087981E-02    0.2580906352E-02
    0.3000000000E+03    0.2584955631E-02    0.3281916017E-03    0.6564403019E+00    0.3499659917E-02    0.7600070376E-02
    0.5000000000E+03    0.4080991416E-02    0.5191348806E-03    0.6716818566E+00    0.5659742559E-02    0.1243954829E-01
    0.7000000000E+03    0.5490005660E-02    0.6991202795E-03    0.6784390341E+00    0.7719304450E-02    0.1711095160E-01
    0.9000000000E+03    0.6815040548E-02    0.8685238282E-03    0.6822548597E+00    0.9682578322E-02    0.2162487961E-01
    0.1100000000E+04    0.8060939006E-02    0.1027952810E-02    0.6847070470E+00    0.1155520334E-01    0.2599102875E-01
    0.1300000000E+04    0.9232797187E-02    0.1178046706E-02    0.6864159943E+00    0.1334280525E-01    0.3021828740E-01
    0.1500000000E+04    0.1033554151E-01    0.1319423643E-02    0.6876752728E+00    0.1505070035E-01    0.3431481904E-01
    0.1700000000E+04    0.1137380219E-01    0.1452664530E-02    0.6886418097E+00    0.1668383293E-01    0.3828813516E-01
    0.1900000000E+04    0.1235188250E-01    0.1578309251E-02    0.6894071091E+00    0.1824677677E-01    0.4214515967E-01
    0.2100000000E+04    0.1327376287E-01    0.1696857214E-02    0.6900281301E+00    0.1974375606E-01    0.4589228571E-01
    0.2300000000E+04    0.1414311809E-01    0.1808769529E-02    0.6905421849E+00    0.2117867190E-01    0.4953542599E-01
    0.2500000000E+04    0.1496333902E-01    0.1914471743E-02    0.6909747375E+00    0.2255512937E-01    0.5308005755E-01
    0.2700000000E+04    0.1573755521E-01    0.2014356678E-02    0.6913437618E+00    0.2387646319E-01    0.5653126154E-01
    0.2900000000E+04    0.1646865681E-01    0.2108787178E-02    0.6916623071E+00    0.2514576156E-01    0.5989375870E-01
    0.3100000000E+04    0.1715931506E-01    0.2198098678E-02    0.6919400766E+00    0.2636588778E-01    0.6317194117E-01
    0.3300000000E+04    0.1781200128E-01    0.2282601577E-02    0.6921844357E+00    0.2753949993E-01    0.6636990083E-01
    0.3500000000E+04    0.1842900410E-01    0.2362583403E-02    0.6924010761E+00    0.2866906862E-01    0.6949145489E-01
    0.3700000000E+04    0.1901244525E-01    0.2438310779E-02    0.6925944656E+00    0.2975689305E-01    0.7254016882E-01
    0.3900000000E+04    0.1956429377E-01    0.2510031210E-02    0.6927681604E+00    0.3080511540E-01    0.7551937705E-01
    0.4100000000E+04    0.2008637898E-01    0.2577974695E-02    0.6929250266E+00    0.3181573396E-01    0.7843220160E-01
    0.4300000000E+04    0.2058040210E-01    0.2642355193E-02    0.6930673995E+00    0.3279061487E-01    0.8128156897E-01
    0.4500000000E+04    0.2104794692E-01    0.2703371946E-02    0.6931972013E+00    0.3373150284E-01    0.8407022547E-01
    0.4700000000E+04    0.2149048935E-01    0.2761210679E-02    0.6933160285E+00    0.3464003081E-01    0.8680075102E-01
    0.4900000000E+04    0.2190940612E-01    0.2816044691E-02    0.6934252182E+00    0.3551772871E-01    0.8947557182E-01
    0.1000000000E+04    0.7447561994E-02    0.9494450054E-03    0.6836012126E+00    0.1062986464E-01    0.2382585310E-01
    0.3000000000E+04    0.1681888242E-01    0.2154062842E-02    0.6918057828E+00    0.2576180047E-01    0.6154312681E-01
    0.5000000000E+04    0.2211040996E-01    0.2842385930E-02    0.6934765586E+00    0.3594546829E-01    0.9079281191E-01
    0.7000000000E+04    0.2516071694E-01    0.3245555290E-02    0.6941968842E+00    0.4318672219E-01    0.1147025260E+00
    0.9000000000E+04    0.2689140488E-01    0.3479782286E-02    0.6945985377E+00    0.4853636817E-01    0.1349727196E+00
    0.1100000000E+05    0.2780533282E-01    0.3608701144E-02    0.6948548369E+00    0.5259726503E-01    0.1526147051E+00
    0.1300000000E+05    0.2819545099E-01    0.3669530619E-02    0.6950326724E+00    0.5574016565E-01    0.1682722013E+00
    0.1500000000E+05    0.2824127577E-01    0.3685178318E-02    0.6951633363E+00    0.5820583688E-01    0.1823773841E+00
    0.1700000000E+05    0.2805727456E-01    0.3670322011E-02    0.6952634265E+00    0.6015762870E-01    0.1952331669E+00
    0.1900000000E+05    0.2771878497E-01    0.3634673693E-02    0.6953425676E+00    0.6171042137E-01    0.2070595368E+00
    0.2100000000E+05    0.2727666561E-01    0.3584828501E-02    0.6954067256E+00    0.6294746650E-01    0.2180210909E+00
    0.2300000000E+05    0.2676595454E-01    0.3525359918E-02    0.6954597962E+00    0.6393064430E-01    0.2282441461E+00
    0.2500000000E+05    0.2621118162E-01    0.3459493395E-02    0.6955044313E+00    0.6470695794E-01    0.2378277828E+00
    0.2700000000E+05    0.2562973365E-01    0.3389534178E-02    0.6955424987E+00    0.6531278460E-01    0.2468512061E+00
    0.2900000000E+05    0.2503404521E-01    0.3317146648E-02    0.6955753524E+00    0.6577673967E-01    0.2553787943E+00
    0.3100000000E+05    0.2443305945E-01    0.3243541120E-02    0.6956039976E+00    0.6612165592E-01    0.2634636464E+00
    0.3300000000E+05    0.2383322256E-01    0.3169601433E-02    0.6956291967E+00    0.6636598222E-01    0.2711501311E+00
    0.3500000000E+05    0.2323917310E-01    0.3095973691E-02    0.6956515381E+00    0.6652479170E-01    0.2784757544E+00
    0.3700000000E+05    0.2265422772E-01    0.3023129022E-02    0.6956714833E+00    0.6661052175E-01    0.2854725504E+00
    0.3900000000E+05    0.2208072821E-01    0.2951408596E-02    0.6956893995E+00    0.6663352572E-01    0.2921681360E+00
    0.4100000000E+05    0.2152029256E-01    0.2881056327E-02    0.6957055822E+00    0.6660249044E-01    0.2985865205E+00
    0.4300000000E+05    0.2097399874E-01    0.2812242923E-02    0.6957202725E+00    0.6652475638E-01    0.3047487352E+00
    0.4500000000E+05    0.2044252041E-01    0.2745083724E-02    0.6957336683E+00    0.6640656600E-01    0.3106733305E+00
    0.4700000000E+05    0.1992622810E-01    0.2679652076E-02    0.6957459342E+00    0.6625325877E-01    0.3163767707E+00
    0.4900000000E+05    0.1942526510E-01    0.2615989425E-02    0.6957572079E+00    0.6606942561E-01    0.3218737521E+00
    0.1000000000E+05    0.2742869486E-01    0.3554643054E-02    0.6947394255E+00    0.5070083216E-01    0.1440757173E+00
    0.3000000000E+05    0.2473376236E-01    0.3280434434E-02    0.6955901486E+00    0.6596283521E-01    0.2594736093E+00
    0.5000000000E+05    0.1918052919E-01    0.2584827630E-02    0.6957625097E+00    0.6596732273E-01    0.3245489945E+00
    0.7000000000E+05    0.1503439191E-01    0.2051224208E-02    0.6958369916E+00    0.6304705675E-01    0.3698149670E+00
    0.9000000000E+05    0.1204161482E-01    0.1659580954E-02    0.6958786468E+00    0.5946832001E-01    0.4038795963E+00
    0.1100000000E+06    0.9842543407E-02    0.1368181107E-02    0.6959053074E+00    0.5588861581E-01    0.4306781551E+00
    0.1300000000E+06    0.8187859569E-02    0.1146683847E-02    0.6959238595E+00    0.5252161241E-01    0.4524016463E+00
    0.1500000000E+06    0.6914511620E-02    0.9747657916E-03    0.6959375281E+00    0.4942877906E-01    0.4704068653E+00
    0.1700000000E+06    0.5914878662E-02    0.8387951248E-03    0.6959480257E+00    0.4661442184E-01    0.4855926449E+00
    0.1900000000E+06    0.5116309607E-02    0.7294561224E-03    0.6959563467E+00    0.4406134912E-01    0.4985833753E+00
    0.2100000000E+06    0.4468553135E-02    0.6402408437E-03    0.6959631083E+00    0.4174531816E-01    0.5098286138E+00
    0.2300000000E+06    0.3936039648E-02    0.5665038161E-03    0.6959687139E+00    0.3964105907E-01    0.5196613435E+00
    0.2500000000E+06    0.3493055153E-02    0.5048620957E-03    0.6959734387E+00    0.3772472743E-01    0.5283339927E+00
    0.2700000000E+06    0.3120653426E-02    0.4528069304E-03    0.6959774765E+00    0.3597478663E-01    0.5360416862E+00
    0.2900000000E+06    0.2804633841E-02    0.4084469973E-03    0.6959809683E+00    0.3437219409E-01    0.5429377891E+00
    0.3100000000E+06    0.2534187445E-02    0.3703350825E-03    0.6959840185E+00    0.3290028832E-01    0.5491445998E+00
    0.3300000000E+06    0.2300971655E-02    0.3373487823E-03    0.6959867067E+00    0.3154456044E-01    0.5547608914E+00
    0.3500000000E+06    0.2098465825E-02    0.3086068928E-03    0.6959890943E+00    0.3029239520E-01    0.5598673413E+00
    0.3700000000E+06    0.1921514621E-02    0.2834098259E-03    0.6959912295E+00    0.2913281940E-01    0.5645305147E+00
    0.3900000000E+06    0.1765999304E-02    0.2611964948E-03    0.6959931506E+00    0.2805627331E-01    0.5688058342E+00
    0.4100000000E+06    0.1628597631E-02    0.2415126719E-03    0.6959948887E+00    0.2705440996E-01    0.5727398265E+00
    0.4300000000E+06    0.1506606135E-02    0.2239874655E-03    0.6959964689E+00    0.2611992186E-01    0.5763718447E+00
    0.4500000000E+06    0.1397806957E-02    0.2083156206E-03    0.6959979120E+00    0.2524639317E-01    0.5797354030E+00
    0.4700000000E+06    0.1300366910E-02    0.1942440528E-03    0.6959992354E+00    0.2442817403E-01    0.5828592242E+00
    0.4900000000E+06    0.1212760184E-02    0.1815614995E-03    0.6960004535E+00    0.2366027400E-01    0.5857680680E+00
    0.1000000000E+06    0.1086089646E-01    0.1503524450E-02    0.6958932925E+00    0.5765981494E-01    0.4180240321E+00
    0.3000000000E+06    0.2664284559E-02    0.3886866804E-03    0.6959825431E+00    0.3362085960E-01    0.5461207033E+00
    0.5000000000E+06    0.1172236552E-02    0.1756845050E-03    0.6960010269E+00    0.2329379197E-01    0.5871486930E+00
    0.7000000000E+06    0.6556792210E-03    0.1000587081E-03    0.6960091316E+00    0.1776209785E-01    0.6074325173E+00
    0.9000000000E+06    0.4182472401E-03    0.6468948357E-04    0.6960137157E+00    0.1433435691E-01    0.6195290709E+00
    0.1100000000E+07    0.2899058074E-03    0.4531574631E-04    0.6960166768E+00    0.1200671080E-01    0.6275607116E+00
    0.1300000000E+07    0.2128053306E-03    0.3355149915E-04    0.6960187533E+00    0.1032448493E-01    0.6332802478E+00
    0.1500000000E+07    0.1629075348E-03    0.2586910776E-04    0.6960202934E+00    0.9052679041E-02    0.6375596068E+00
    0.1700000000E+07    0.1287755870E-03    0.2057326925E-04    0.6960214830E+00    0.8057821706E-02    0.6408813954E+00
    0.1900000000E+07    0.1044058451E-03    0.1676644026E-04    0.6960224307E+00    0.7258561095E-02    0.6435343425E+00
    0.2100000000E+07    0.8640163851E-04    0.1393704716E-04    0.6960232041E+00    0.6602517856E-02    0.6457017530E+00
    0.2300000000E+07    0.7272431169E-04    0.1177603142E-04    0.6960238478E+00    0.6054455762E-02    0.6475055895E+00
    0.2500000000E+07    0.6209033519E-04    0.1008766637E-04    0.6960243921E+00    0.5589805735E-02    0.6490301442E+00
    0.2700000000E+07    0.5365900234E-04    0.8743068884E-05    0.6960248587E+00    0.5190917021E-02    0.6503355364E+00
    0.2900000000E+07    0.4686102544E-04    0.7654540574E-05    0.6960252631E+00    0.4844784380E-02    0.6514657952E+00
    0.3100000000E+07    0.4129981001E-04    0.6760712817E-05    0.6960256172E+00    0.4541615433E-02    0.6524539036E+00
    0.3300000000E+07    0.3669221279E-04    0.6017590779E-05    0.6960259299E+00    0.4273897054E-02    0.6533250564E+00
    0.3500000000E+07    0.3283171852E-04    0.5392962392E-05    0.6960262080E+00    0.4035769232E-02    0.6540988303E+00
    0.3700000000E+07    0.2956484004E-04    0.4862800636E-05    0.6960264571E+00    0.3822594474E-02    0.6547906667E+00
    0.3900000000E+07    0.2677558137E-04    0.4408886040E-05    0.6960266814E+00    0.3630655052E-02    0.6554129082E+00
    0.4100000000E+07    0.2437496291E-04    0.4017198147E-05    0.6960268845E+00    0.3456935932E-02    0.6559755387E+00
    0.4300000000E+07    0.2229380817E-04    0.3676804133E-05    0.6960270693E+00    0.3298966366E-02    0.6564867207E+00
    0.4500000000E+07    0.2047768109E-04    0.3379076347E-05    0.6960272382E+00    0.3154702472E-02    0.6569531928E+00
    0.4700000000E+07    0.1888327136E-04    0.3117131964E-05    0.6960273930E+00    0.3022438935E-02    0.6573805666E+00
    0.4900000000E+07    0.1747577305E-04    0.2885425484E-05    0.6960275355E+00    0.2900741739E-02    0.6577735530E+00
    0.1000000000E+07    0.3452848095E-03    0.5370316165E-04    0.6960153392E+00    0.1306880398E-01    0.6239133558E+00
    0.3000000000E+07    0.4394566517E-04    0.7186368245E-05    0.6960254459E+00    0.4688343930E-02    0.6519758906E+00
    0.5000000000E+07    0.1683307899E-04    0.2779468540E-05    0.6960276026E+00    0.2843468565E-02    0.6579584204E+00
    0.7000000000E+07    0.9111089553E-05    0.1497374846E-05    0.6960285480E+00    0.2036797324E-02    0.6605571041E+00
    0.9000000000E+07    0.5860362209E-05    0.9514146121E-06    0.6960290746E+00    0.1585079786E-02    0.6620086254E+00
    0.1100000000E+08    0.4181018485E-05    0.6676057461E-06    0.6960294060E+00    0.1296528648E-02    0.6629347644E+00
    0.1300000000E+08    0.3195558110E-05    0.5005935382E-06    0.6960296304E+00    0.1096371493E-02    0.6635768419E+00
    0.1500000000E+08    0.2564479151E-05    0.3936001540E-06    0.6960297898E+00    0.9494426388E-03    0.6640480620E+00
    0.1700000000E+08    0.2133723153E-05    0.3206760478E-06    0.6960299066E+00    0.8370336348E-03    0.6644085541E+00
    0.1900000000E+08    0.1825035255E-05    0.2685680187E-06    0.6960299943E+00    0.7482778132E-03    0.6646932075E+00
    0.2100000000E+08    0.1595166256E-05    0.2299209349E-06    0.6960300609E+00    0.6764329417E-03    0.6649236535E+00
    0.2300000000E+08    0.1418591430E-05    0.2003803708E-06    0.6960301121E+00    0.6170948541E-03    0.6651140153E+00
    0.2500000000E+08    0.1279432413E-05    0.1772313331E-06    0.6960301515E+00    0.5672652695E-03    0.6652739044E+00
    0.2700000000E+08    0.1167375655E-05    0.1587075416E-06    0.6960301818E+00    0.5248325393E-03    0.6654100886E+00
