  Pressure (Pa) 22mC5-500 (mol/kg) 23mC5-500 (mol/kg) 24mC5-500 (mol/kg) 2mC6-500 (mol/kg) 3mC6-500 (mol/kg)
    0.1000000000E+01    0.2310360722E-04    0.9581806856E-06    0.1266335138E+00    0.1638194523E-04    0.2605314033E-04
    0.3000000000E+01    0.5519765871E-04    0.2292643116E-05    0.2785301029E+00    0.4076650883E-04    0.7814565400E-04
    0.5000000000E+01    0.7913513448E-04    0.3292320376E-05    0.3664407466E+00    0.6075836304E-04    0.1302199774E-03
    0.7000000000E+01    0.9961907008E-04    0.4151187243E-05    0.4237634044E+00    0.7915400763E-04    0.1822761994E-03
    0.9000000000E+01    0.1184142505E-03    0.4941714203E-05    0.4640973019E+00    0.9690374509E-04    0.2343143648E-03
    0.1100000000E+02    0.1363049257E-03    0.5695952905E-05    0.4940205224E+00    0.1143842868E-03    0.2863345023E-03
    0.1300000000E+02    0.1536807905E-03    0.6429746948E-05    0.5171032323E+00    0.1317594835E-03    0.3383366331E-03
    0.1500000000E+02    0.1707513884E-03    0.7151566754E-05    0.5354505856E+00    0.1491044032E-03    0.3903207747E-03
    0.1700000000E+02    0.1876361283E-03    0.7866208348E-05    0.5503842730E+00    0.1664539871E-03    0.4422869426E-03
    0.1900000000E+02    0.2044060901E-03    0.8576505942E-05    0.5627759738E+00    0.1838240153E-03    0.4942351511E-03
    0.2100000000E+02    0.2211050011E-03    0.9284188523E-05    0.5732238607E+00    0.2012207966E-03    0.5461654134E-03
    0.2300000000E+02    0.2377604264E-03    0.9990335278E-05    0.5821520714E+00    0.2186458870E-03    0.5980777424E-03
    0.2500000000E+02    0.2543900427E-03    0.1069563000E-04    0.5898697111E+00    0.2360984783E-03    0.6499721506E-03
    0.2700000000E+02    0.2710053023E-03    0.1140050913E-04    0.5966073753E+00    0.2535766388E-03    0.7018486503E-03
    0.2900000000E+02    0.2876136482E-03    0.1210525082E-04    0.6025405876E+00    0.2710779677E-03    0.7537072535E-03
    0.3100000000E+02    0.3042198916E-03    0.1281003017E-04    0.6078053146E+00    0.2885999399E-03    0.8055479721E-03
    0.3300000000E+02    0.3208270907E-03    0.1351495424E-04    0.6125085150E+00    0.3061400841E-03    0.8573708178E-03
    0.3500000000E+02    0.3374371231E-03    0.1422008472E-04    0.6167354841E+00    0.3236960706E-03    0.9091758024E-03
    0.3700000000E+02    0.3540510644E-03    0.1492545291E-04    0.6205550742E+00    0.3412657491E-03    0.9609629374E-03
    0.3900000000E+02    0.3706694442E-03    0.1563106971E-04    0.6240234745E+00    0.3588471592E-03    0.1012732234E-02
    0.4100000000E+02    0.3872924196E-03    0.1633693237E-04    0.6271869949E+00    0.3764385266E-03    0.1064483705E-02
    0.4300000000E+02    0.4039198954E-03    0.1704302915E-04    0.6300841453E+00    0.3940382524E-03    0.1116217360E-02
    0.4500000000E+02    0.4205516072E-03    0.1774934251E-04    0.6327472121E+00    0.4116448989E-03    0.1167933212E-02
    0.4700000000E+02    0.4371871801E-03    0.1845585125E-04    0.6352034660E+00    0.4292571741E-03    0.1219631272E-02
    0.4900000000E+02    0.4538261691E-03    0.1916253212E-04    0.6374760999E+00    0.4468739174E-03    0.1271311551E-02
    0.1000000000E+02    0.1274424730E-03    0.5322140725E-05    0.4800909312E+00    0.1056644522E-03    0.2603266856E-03
    0.3000000000E+02    0.2959168083E-03    0.1245762781E-04    0.6052492455E+00    0.2798365305E-03    0.7796298476E-03
    0.5000000000E+02    0.4621467938E-03    0.1951592953E-04    0.6385498763E+00    0.4556836344E-03    0.1297145026E-02
    0.7000000000E+02    0.6286172099E-03    0.2658712863E-04    0.6539726894E+00    0.6319091290E-03    0.1812883798E-02
    0.9000000000E+02    0.7949112574E-03    0.3365159275E-04    0.6628682454E+00    0.8078629939E-03    0.2326857396E-02
    0.1100000000E+03    0.9607385977E-03    0.4069660264E-04    0.6686567192E+00    0.9832869474E-03    0.2839076912E-02
    0.1300000000E+03    0.1125929880E-02    0.4771489250E-04    0.6727240539E+00    0.1158062619E-02    0.3349553326E-02
    0.1500000000E+03    0.1290383884E-02    0.5470216847E-04    0.6757385876E+00    0.1332129963E-02    0.3858297518E-02
    0.1700000000E+03    0.1454037859E-02    0.6165578919E-04    0.6780622748E+00    0.1505456585E-02    0.4365320273E-02
    0.1900000000E+03    0.1616851797E-02    0.6857408097E-04    0.6799082046E+00    0.1678024538E-02    0.4870632279E-02
    0.2100000000E+03    0.1778799788E-02    0.7545596587E-04    0.6814099981E+00    0.1849824010E-02    0.5374244134E-02
    0.2300000000E+03    0.1939865031E-02    0.8230074895E-04    0.6826556949E+00    0.2020850045E-02    0.5876166346E-02
    0.2500000000E+03    0.2100036831E-02    0.8910799074E-04    0.6837056629E+00    0.2191100728E-02    0.6376409330E-02
    0.2700000000E+03    0.2259308705E-02    0.9587742748E-04    0.6846026776E+00    0.2360576115E-02    0.6874983416E-02
    0.2900000000E+03    0.2417677154E-02    0.1026089195E-03    0.6853778961E+00    0.2529277586E-02    0.7371898843E-02
    0.3100000000E+03    0.2575140840E-02    0.1093024166E-03    0.6860545507E+00    0.2697207430E-02    0.7867165767E-02
    0.3300000000E+03    0.2731700019E-02    0.1159579345E-03    0.6866503179E+00    0.2864368570E-02    0.8360794256E-02
    0.3500000000E+03    0.2887356140E-02    0.1225755384E-03    0.6871788858E+00    0.3030764382E-02    0.8852794294E-02
    0.3700000000E+03    0.3042111556E-02    0.1291553304E-03    0.6876510186E+00    0.3196398568E-02    0.9343175782E-02
    0.3900000000E+03    0.3195969319E-02    0.1356974413E-03    0.6880752981E+00    0.3361275066E-02    0.9831948537E-02
    0.4100000000E+03    0.3348933014E-02    0.1422020240E-03    0.6884586496E+00    0.3525397985E-02    0.1031912230E-01
    0.4300000000E+03    0.3501006650E-02    0.1486692485E-03    0.6888067239E+00    0.3688771556E-02    0.1080470671E-01
    0.4500000000E+03    0.3652194562E-02    0.1550992982E-03    0.6891241771E+00    0.3851400101E-02    0.1128871136E-01
    0.4700000000E+03    0.3802501344E-02    0.1614923670E-03    0.6894148804E+00    0.4013288003E-02    0.1177114574E-01
    0.4900000000E+03    0.3951931792E-02    0.1678486570E-03    0.6896820787E+00    0.4174439689E-02    0.1225201925E-01
    0.1000000000E+03    0.8778959351E-03    0.3717707525E-04    0.6660393803E+00    0.8956505419E-03    0.2583185725E-02
    0.3000000000E+03    0.2496522108E-02    0.1059604177E-03    0.6857273302E+00    0.2613338791E-02    0.7619737737E-02
    0.5000000000E+03    0.4026319935E-02    0.1710130750E-03    0.6898077370E+00    0.4254740841E-02    0.1249187362E-01
    0.7000000000E+03    0.5469341208E-02    0.2324237210E-03    0.6915720511E+00    0.5823204651E-02    0.1720925867E-01
    0.9000000000E+03    0.6830798952E-02    0.2904110135E-03    0.6925564330E+00    0.7323113233E-02    0.2178079133E-01
    0.1100000000E+04    0.8115951375E-02    0.3451948589E-03    0.6931844857E+00    0.8758632223E-02    0.2621467834E-01
    0.1300000000E+04    0.9329756118E-02    0.3969824135E-03    0.6936200635E+00    0.1013362788E-01    0.3051850108E-01
    0.1500000000E+04    0.1047681722E-01    0.4459660052E-03    0.6939399055E+00    0.1145167454E-01    0.3469927440E-01
    0.1700000000E+04    0.1156139204E-01    0.4923234722E-03    0.6941847397E+00    0.1271607604E-01    0.3876349887E-01
    0.1900000000E+04    0.1258741344E-01    0.5362191082E-03    0.6943781889E+00    0.1392988863E-01    0.4271720739E-01
    0.2100000000E+04    0.1355851524E-01    0.5778047355E-03    0.6945348980E+00    0.1509594279E-01    0.4656600680E-01
    0.2300000000E+04    0.1447805745E-01    0.6172207581E-03    0.6946644291E+00    0.1621686315E-01    0.5031511510E-01
    0.2500000000E+04    0.1534914980E-01    0.6545971467E-03    0.6947732905E+00    0.1729508656E-01    0.5396939488E-01
    0.2700000000E+04    0.1617467344E-01    0.6900543429E-03    0.6948660658E+00    0.1833287838E-01    0.5753338330E-01
    0.2900000000E+04    0.1695730063E-01    0.7237040800E-03    0.6949460766E+00    0.1933234715E-01    0.6101131913E-01
    0.3100000000E+04    0.1769951262E-01    0.7556501278E-03    0.6950157887E+00    0.2029545786E-01    0.6440716708E-01
    0.3300000000E+04    0.1840361578E-01    0.7859889656E-03    0.6950770711E+00    0.2122404379E-01    0.6772463983E-01
    0.3500000000E+04    0.1907175626E-01    0.8148103911E-03    0.6951313663E+00    0.2211981737E-01    0.7096721795E-01
    0.3700000000E+04    0.1970593318E-01    0.8421980712E-03    0.6951798054E+00    0.2298437990E-01    0.7413816793E-01
    0.3900000000E+04    0.2030801062E-01    0.8682300407E-03    0.6952232878E+00    0.2381923033E-01    0.7724055860E-01
    0.4100000000E+04    0.2087972848E-01    0.8929791542E-03    0.6952625376E+00    0.2462577334E-01    0.8027727600E-01
    0.4300000000E+04    0.2142271230E-01    0.9165134962E-03    0.6952981446E+00    0.2540532653E-01    0.8325103700E-01
    0.4500000000E+04    0.2193848226E-01    0.9388967539E-03    0.6953305936E+00    0.2615912708E-01    0.8616440160E-01
    0.4700000000E+04    0.2242846124E-01    0.9601885558E-03    0.6953602872E+00    0.2688833778E-01    0.8901978431E-01
    0.4900000000E+04    0.2289398230E-01    0.9804447805E-03    0.6953875622E+00    0.2759405247E-01    0.9181946443E-01
    0.1000000000E+04    0.7482595318E-02    0.3181900767E-03    0.6929017017E+00    0.8048672732E-02    0.2401445277E-01
    0.3000000000E+04    0.1733331046E-01    0.7398838717E-03    0.6949820915E+00    0.1981832973E-01    0.6271926638E-01
    0.5000000000E+04    0.2311796479E-01    0.9902010579E-03    0.6954003833E+00    0.2793842303E-01    0.9319909369E-01
    0.7000000000E+04    0.2657895326E-01    0.1142092978E-02    0.6955800182E+00    0.3381299475E-01    0.1183322264E+00
    0.9000000000E+04    0.2862752090E-01    0.1233819355E-02    0.6956799535E+00    0.3820798314E-01    0.1397454095E+00
    0.1100000000E+05    0.2977838027E-01    0.1287060505E-02    0.6957436182E+00    0.4157632060E-01    0.1584331037E+00
    0.1300000000E+05    0.3033988626E-01    0.1314851225E-02    0.6957877348E+00    0.4420302557E-01    0.1750412228E+00
    0.1500000000E+05    0.3050545652E-01    0.1325400008E-02    0.6958201136E+00    0.4627653295E-01    0.1900100686E+00
    0.1700000000E+05    0.3040093211E-01    0.1324070667E-02    0.6958448923E+00    0.4792652981E-01    0.2036518809E+00
    0.1900000000E+05    0.3011063582E-01    0.1314474520E-02    0.6958644678E+00    0.4924529249E-01    0.2161955015E+00
    0.2100000000E+05    0.2969243700E-01    0.1299102972E-02    0.6958803248E+00    0.5030034299E-01    0.2278133960E+00
    0.2300000000E+05    0.2918682845E-01    0.1279709439E-02    0.6958934319E+00    0.5114228166E-01    0.2386386923E+00
    0.2500000000E+05    0.2862259057E-01    0.1257548183E-02    0.6959044482E+00    0.5180981324E-01    0.2487763085E+00
    0.2700000000E+05    0.2802043358E-01    0.1233528256E-02    0.6959138375E+00    0.5233307430E-01    0.2583104451E+00
    0.2900000000E+05    0.2739540133E-01    0.1208315352E-02    0.6959219359E+00    0.5273589696E-01    0.2673097647E+00
    0.3100000000E+05    0.2675849400E-01    0.1182400739E-02    0.6959289929E+00    0.5303738644E-01    0.2758310582E+00
    0.3300000000E+05    0.2611778569E-01    0.1156148880E-02    0.6959351975E+00    0.5325304406E-01    0.2839218930E+00
    0.3500000000E+05    0.2547920757E-01    0.1129830892E-02    0.6959406955E+00    0.5339558199E-01    0.2916225632E+00
    0.3700000000E+05    0.2484710535E-01    0.1103648450E-02    0.6959456014E+00    0.5347552469E-01    0.2989675485E+00
    0.3900000000E+05    0.2422464164E-01    0.1077751094E-02    0.6959500059E+00    0.5350165966E-01    0.3059866236E+00
    0.4100000000E+05    0.2361408985E-01    0.1052248917E-02    0.6959539825E+00    0.5348138020E-01    0.3127057124E+00
    0.4300000000E+05    0.2301705127E-01    0.1027221976E-02    0.6959575906E+00    0.5342094924E-01    0.3191475548E+00
    0.4500000000E+05    0.2243461704E-01    0.1002727341E-02    0.6959608793E+00    0.5332570495E-01    0.3253322335E+00
    0.4700000000E+05    0.2186748995E-01    0.9788044170E-03    0.6959638893E+00    0.5320022263E-01    0.3312775934E+00
    0.4900000000E+05    0.2131607672E-01    0.9554790050E-03    0.6959666546E+00    0.5304844347E-01    0.3369995804E+00
    0.1000000000E+05    0.2929242476E-01    0.1264290459E-02    0.6957149613E+00    0.3999979507E-01    0.1493835150E+00
    0.3000000000E+05    0.2707786933E-01    0.1195420456E-02    0.6959255816E+00    0.5289826583E-01    0.2716270012E+00
    0.5000000000E+05    0.2104632666E-01    0.9440454890E-03    0.6959679547E+00    0.5296377667E-01    0.3397813416E+00
    0.7000000000E+05    0.1645072469E-01    0.7471191267E-03    0.6959861853E+00    0.5051429291E-01    0.3865182305E+00
    0.9000000000E+05    0.1311925966E-01    0.6019315593E-03    0.6959963453E+00    0.4750251586E-01    0.4212077001E+00
    0.1100000000E+06    0.1067341858E-01    0.4939848167E-03    0.6960028282E+00    0.4449790360E-01    0.4481509733E+00
    0.1300000000E+06    0.8838424621E-02    0.4121649173E-03    0.6960073272E+00    0.4168376980E-01    0.4697391509E+00
    0.1500000000E+06    0.7431626965E-02    0.3488932589E-03    0.6960106336E+00    0.3911088636E-01    0.4874453933E+00
    0.1700000000E+06    0.6331692122E-02    0.2990504945E-03    0.6960131670E+00    0.3678067149E-01    0.5022386373E+00
    0.1900000000E+06    0.5456556456E-02    0.2591303343E-03    0.6960151708E+00    0.3467638614E-01    0.5147864534E+00
    0.2100000000E+06    0.4749484414E-02    0.2266839401E-03    0.6960167957E+00    0.3277567481E-01    0.5255653498E+00
    0.2300000000E+06    0.4170387447E-02    0.1999661523E-03    0.6960181402E+00    0.3105571240E-01    0.5349252219E+00
    0.2500000000E+06    0.3690356827E-02    0.1777091574E-03    0.6960192712E+00    0.2949523711E-01    0.5431290762E+00
    0.2700000000E+06    0.3288153759E-02    0.1589754109E-03    0.6960202361E+00    0.2807523107E-01    0.5503785593E+00
    0.2900000000E+06    0.2947908165E-02    0.1430602473E-03    0.6960210690E+00    0.2677901382E-01    0.5568309301E+00
    0.3100000000E+06    0.2657578283E-02    0.1294261415E-03    0.6960217954E+00    0.2559209249E-01    0.5626106681E+00
    0.3300000000E+06    0.2407899109E-02    0.1176575051E-03    0.6960224345E+00    0.2450192530E-01    0.5678176067E+00
    0.3500000000E+06    0.2191651292E-02    0.1074290549E-03    0.6960230012E+00    0.2349766891E-01    0.5725327533E+00
    0.3700000000E+06    0.2003144155E-02    0.9848331753E-04    0.6960235073E+00    0.2256994024E-01    0.5768225311E+00
    0.3900000000E+06    0.1837844394E-02    0.9061438713E-04    0.6960239619E+00    0.2171060389E-01    0.5807419213E+00
    0.4100000000E+06    0.1692105537E-02    0.8365603497E-04    0.6960243725E+00    0.2091258796E-01    0.5843368262E+00
    0.4300000000E+06    0.1562968189E-02    0.7747289083E-04    0.6960247454E+00    0.2016972682E-01    0.5876458690E+00
    0.4500000000E+06    0.1448010727E-02    0.7195382472E-04    0.6960250854E+00    0.1947662802E-01    0.5907017815E+00
    0.4700000000E+06    0.1345236433E-02    0.6700692437E-04    0.6960253968E+00    0.1882856004E-01    0.5935324861E+00
    0.4900000000E+06    0.1252987260E-02    0.6255564445E-04    0.6960256830E+00    0.1822135780E-01    0.5961619476E+00
    0.1000000000E+06    0.1180536290E-01    0.5440928769E-03    0.6959999089E+00    0.4598313075E-01    0.4354694041E+00
    0.3000000000E+06    0.2797138081E-02    0.1359864703E-03    0.6960214442E+00    0.2617271777E-01    0.5597981383E+00
    0.5000000000E+06    0.1210367368E-02    0.6049539591E-04    0.6960258176E+00    0.1793191477E-01    0.5974077885E+00
    0.7000000000E+06    0.6703391011E-03    0.3414055727E-04    0.6960277086E+00    0.1359033256E-01    0.6155477035E+00
    0.9000000000E+06    0.4246165707E-03    0.2193618903E-04    0.6960287655E+00    0.1092590078E-01    0.6262177775E+00
    0.1100000000E+07    0.2926897338E-03    0.1529488929E-04    0.6960294408E+00    0.9127935226E-02    0.6332404300E+00
    0.1300000000E+07    0.2138254540E-03    0.1128110963E-04    0.6960299096E+00    0.7834247941E-02    0.6382111836E+00
    0.1500000000E+07    0.1629812000E-03    0.8669423127E-05    0.6960302540E+00    0.6859383728E-02    0.6419138169E+00
    0.1700000000E+07    0.1283100405E-03    0.6874234081E-05    0.6960305176E+00    0.6098726444E-02    0.6447782073E+00
    0.1900000000E+07    0.1036204177E-03    0.5586857789E-05    0.6960307257E+00    0.5488842233E-02    0.6470597601E+00
    0.2100000000E+07    0.8542170189E-04    0.4631962908E-05    0.6960308940E+00    0.4989055398E-02    0.6489197424E+00
    0.2300000000E+07    0.7162493713E-04    0.3903926978E-05    0.6960310329E+00    0.4572093438E-02    0.6504649827E+00
    0.2500000000E+07    0.6091815059E-04    0.3336018547E-05    0.6960311493E+00    0.4218992104E-02    0.6517690464E+00
    0.2700000000E+07    0.5244381662E-04    0.2884385160E-05    0.6960312482E+00    0.3916158524E-02    0.6528842429E+00
    0.2900000000E+07    0.4562232757E-04    0.2519239944E-05    0.6960313332E+00    0.3653596950E-02    0.6538487831E+00
    0.3100000000E+07    0.4005055807E-04    0.2219771145E-05    0.6960314070E+00    0.3423793728E-02    0.6546912275E+00
    0.3300000000E+07    0.3544112319E-04    0.1971079381E-05    0.6960314716E+00    0.3220992546E-02    0.6554333510E+00
    0.3500000000E+07    0.3158469181E-04    0.1762269066E-05    0.6960315286E+00    0.3040709465E-02    0.6560920443E+00
    0.3700000000E+07    0.2832587281E-04    0.1585222217E-05    0.6960315792E+00    0.2879400051E-02    0.6566806101E+00
    0.3900000000E+07    0.2554736294E-04    0.1433789299E-05    0.6960316244E+00    0.2734225755E-02    0.6572096674E+00
    0.4100000000E+07    0.2315927364E-04    0.1303242473E-05    0.6960316649E+00    0.2602886659E-02    0.6576877959E+00
    0.4300000000E+07    0.2109179006E-04    0.1189898273E-05    0.6960317014E+00    0.2483499599E-02    0.6581220022E+00
    0.4500000000E+07    0.1929002447E-04    0.1090852228E-05    0.6960317345E+00    0.2374507930E-02    0.6585180651E+00
    0.4700000000E+07    0.1771034538E-04    0.1003789007E-05    0.6960317646E+00    0.2274613754E-02    0.6588807929E+00
    0.4900000000E+07    0.1631771798E-04    0.9268444715E-06    0.6960317921E+00    0.2182726342E-02    0.6592142187E+00
    0.1000000000E+07    0.3495256258E-03    0.1816571071E-04    0.6960291366E+00    0.9947197082E-02    0.6300574223E+00
    0.3000000000E+07    0.4270037694E-04    0.2362339217E-05    0.6960313714E+00    0.3534994910E-02    0.6542837732E+00
    0.5000000000E+07    0.1568245904E-04    0.8916819596E-06    0.6960318049E+00    0.2139491003E-02    0.6593710294E+00
    0.7000000000E+07    0.8095455915E-05    0.4678285253E-06    0.6960319775E+00    0.1531131872E-02    0.6615727664E+00
    0.9000000000E+07    0.4947055605E-05    0.2888944669E-06    0.6960320635E+00    0.1190949435E-02    0.6628005552E+00
    0.1100000000E+08    0.3345277243E-05    0.1966968048E-06    0.6960321106E+00    0.9738275991E-03    0.6635832265E+00
    0.1300000000E+08    0.2420554135E-05    0.1429388820E-06    0.6960321371E+00    0.8233016982E-03    0.6641255294E+00
    0.1500000000E+08    0.1838511000E-05    0.1088295946E-06    0.6960321517E+00    0.7128490164E-03    0.6645233709E+00
    0.1700000000E+08    0.1448354591E-05    0.8581338548E-07    0.6960321588E+00    0.6283712333E-03    0.6648276429E+00
    0.1900000000E+08    0.1173976343E-05    0.6953724390E-07    0.6960321609E+00    0.5616845480E-03    0.6650678542E+00
    0.2100000000E+08    0.9735903563E-06    0.5759464514E-07    0.6960321596E+00    0.5077137421E-03    0.6652622907E+00
    0.2300000000E+08    0.8227037449E-06    0.4856643362E-07    0.6960321559E+00    0.4631448318E-03    0.6654228866E+00
    0.2500000000E+08    0.7061875341E-06    0.4157129755E-07    0.6960321505E+00    0.4257224075E-03    0.6655577611E+00
    0.2700000000E+08    0.6142864965E-06    0.3603822938E-07    0.6960321439E+00    0.3938584186E-03    0.6656726296E+00
