  Pressure (Pa) 22mC5-500 (mol/kg) 23mC5-500 (mol/kg) 24mC5-500 (mol/kg) 2mC6-500 (mol/kg) 3mC6-500 (mol/kg)
    0.1000000000E+01    0.2396995969E-04    0.9939561028E-06    0.9950022201E-01    0.2255064529E-04    0.2605297712E-04
    0.3000000000E+01    0.5941291768E-04    0.2466253464E-05    0.2321157928E+00    0.5761633677E-04    0.7814413572E-04
    0.5000000000E+01    0.8634745268E-04    0.3588660330E-05    0.3164791417E+00    0.8631425292E-04    0.1302156942E-03
    0.7000000000E+01    0.1090864887E-03    0.4539338605E-05    0.3748730273E+00    0.1121817392E-03    0.1822677329E-03
    0.9000000000E+01    0.1295270365E-03    0.5396413467E-05    0.4176900086E+00    0.1366734340E-03    0.2343002979E-03
    0.1100000000E+02    0.1486139459E-03    0.6198669355E-05    0.4504298975E+00    0.1604611911E-03    0.2863134207E-03
    0.1300000000E+02    0.1668609000E-03    0.6967117989E-05    0.4762759285E+00    0.1838808367E-03    0.3383071255E-03
    0.1500000000E+02    0.1845659291E-03    0.7713904175E-05    0.4971982841E+00    0.2071097188E-03    0.3902814326E-03
    0.1700000000E+02    0.2019108088E-03    0.8446405430E-05    0.5144816749E+00    0.2302450524E-03    0.4422363601E-03
    0.1900000000E+02    0.2190108649E-03    0.9169281961E-05    0.5289996046E+00    0.2533413335E-03    0.4941719246E-03
    0.2100000000E+02    0.2359416128E-03    0.9885570842E-05    0.5413667073E+00    0.2764293454E-03    0.5460881419E-03
    0.2300000000E+02    0.2527537814E-03    0.1059730172E-04    0.5520280320E+00    0.2995262992E-03    0.5979850269E-03
    0.2500000000E+02    0.2694821651E-03    0.1130585871E-04    0.5613137584E+00    0.3226414631E-03    0.6498625944E-03
    0.2700000000E+02    0.2861510343E-03    0.1201220111E-04    0.5694740123E+00    0.3457793905E-03    0.7017208586E-03
    0.2900000000E+02    0.3027775472E-03    0.1271700219E-04    0.5767017409E+00    0.3689418185E-03    0.7535598336E-03
    0.3100000000E+02    0.3193739614E-03    0.1342073891E-04    0.5831481693E+00    0.3921288086E-03    0.8053795332E-03
    0.3300000000E+02    0.3359490992E-03    0.1412375121E-04    0.5889334995E+00    0.4153394425E-03    0.8571799713E-03
    0.3500000000E+02    0.3525093405E-03    0.1482628211E-04    0.5941544778E+00    0.4385722507E-03    0.9089611615E-03
    0.3700000000E+02    0.3690593069E-03    0.1552850518E-04    0.5988898502E+00    0.4618254785E-03    0.9607231173E-03
    0.3900000000E+02    0.3856023403E-03    0.1623054371E-04    0.6032043628E+00    0.4850972513E-03    0.1012465852E-02
    0.4100000000E+02    0.4021408431E-03    0.1693248436E-04    0.6071517408E+00    0.5083856749E-03    0.1064189379E-02
    0.4300000000E+02    0.4186765231E-03    0.1763438687E-04    0.6107769376E+00    0.5316888976E-03    0.1115893712E-02
    0.4500000000E+02    0.4352105709E-03    0.1833629107E-04    0.6141178551E+00    0.5550051450E-03    0.1167578865E-02
    0.4700000000E+02    0.4517437907E-03    0.1903822212E-04    0.6172066741E+00    0.5783327389E-03    0.1219244849E-02
    0.4900000000E+02    0.4682766972E-03    0.1974019421E-04    0.6200708945E+00    0.6016701069E-03    0.1270891679E-02
    0.1000000000E+02    0.1392008339E-03    0.5802802452E-05    0.4350833178E+00    0.1486292317E-03    0.2603092880E-03
    0.3000000000E+02    0.3110788982E-03    0.1306897968E-04    0.5800144789E+00    0.3805322837E-03    0.7794720919E-03
    0.5000000000E+02    0.4765431328E-03    0.2009119781E-04    0.6214262997E+00    0.6133419940E-03    0.1296707915E-02
    0.7000000000E+02    0.6418622674E-03    0.2711255970E-04    0.6410453558E+00    0.8469916955E-03    0.1812030246E-02
    0.9000000000E+02    0.8070049858E-03    0.3412814059E-04    0.6524913719E+00    0.1080505668E-02    0.2325452137E-02
    0.1100000000E+03    0.9717234478E-03    0.4112648975E-04    0.6599913954E+00    0.1313429504E-02    0.2836986462E-02
    0.1300000000E+03    0.1135837868E-02    0.4809968481E-04    0.6652861032E+00    0.1545538852E-02    0.3346645957E-02
    0.1500000000E+03    0.1299230030E-02    0.5504261362E-04    0.6692235799E+00    0.1776713921E-02    0.3854443232E-02
    0.1700000000E+03    0.1461822228E-02    0.6195195248E-04    0.6722664491E+00    0.2006887009E-02    0.4360390776E-02
    0.1900000000E+03    0.1623562688E-02    0.6882550346E-04    0.6746885261E+00    0.2236018539E-02    0.4864500961E-02
    0.2100000000E+03    0.1784416524E-02    0.7566179434E-04    0.6766622237E+00    0.2464085148E-02    0.5366786044E-02
    0.2300000000E+03    0.1944360145E-02    0.8245983478E-04    0.6783015159E+00    0.2691073336E-02    0.5867258169E-02
    0.2500000000E+03    0.2103377729E-02    0.8921896366E-04    0.6796847642E+00    0.2916975865E-02    0.6365929366E-02
    0.2700000000E+03    0.2261458915E-02    0.9593875064E-04    0.6808676193E+00    0.3141789619E-02    0.6862811559E-02
    0.2900000000E+03    0.2418597282E-02    0.1026189309E-03    0.6818906931E+00    0.3365514275E-02    0.7357916560E-02
    0.3100000000E+03    0.2574789296E-02    0.1092593607E-03    0.6827843175E+00    0.3588151450E-02    0.7851256075E-02
    0.3300000000E+03    0.2730033576E-02    0.1158599863E-03    0.6835716033E+00    0.3809704139E-02    0.8342841703E-02
    0.3500000000E+03    0.2884330376E-02    0.1224208220E-03    0.6842704687E+00    0.4030176325E-02    0.8832684939E-02
    0.3700000000E+03    0.3037681198E-02    0.1289419341E-03    0.6848950203E+00    0.4249572713E-02    0.9320797174E-02
    0.3900000000E+03    0.3190088513E-02    0.1354234289E-03    0.6854565148E+00    0.4467898541E-02    0.9807189695E-02
    0.4100000000E+03    0.3341555547E-02    0.1418654444E-03    0.6859640450E+00    0.4685159442E-02    0.1029187369E-01
    0.4300000000E+03    0.3492086123E-02    0.1482681428E-03    0.6864250353E+00    0.4901361340E-02    0.1077486025E-01
    0.4500000000E+03    0.3641684534E-02    0.1546317058E-03    0.6868456077E+00    0.5116510378E-02    0.1125616035E-01
    0.4700000000E+03    0.3790355450E-02    0.1609563307E-03    0.6872308558E+00    0.5330612858E-02    0.1173578489E-01
    0.4900000000E+03    0.3938103834E-02    0.1672422269E-03    0.6875850513E+00    0.5543675198E-02    0.1221374466E-01
    0.1000000000E+03    0.8894302038E-03    0.3763004444E-04    0.6565950529E+00    0.1197058766E-02    0.2581454446E-02
    0.3000000000E+03    0.2496811713E-02    0.1059441198E-03    0.6823521004E+00    0.3476968637E-02    0.7604806276E-02
    0.5000000000E+03    0.4011633695E-02    0.1703707198E-03    0.6877516548E+00    0.5649818345E-02    0.1245210361E-01
    0.7000000000E+03    0.5435153394E-02    0.2309642768E-03    0.6900930485E+00    0.7719683690E-02    0.1713444735E-01
    0.9000000000E+03    0.6773013120E-02    0.2879615606E-03    0.6914011978E+00    0.9693052205E-02    0.2166199445E-01
    0.1100000000E+04    0.8031036128E-02    0.3416062171E-03    0.6922365030E+00    0.1157615298E-01    0.2604405702E-01
    0.1300000000E+04    0.9214725523E-02    0.3921282838E-03    0.6928161369E+00    0.1337475775E-01    0.3028918900E-01
    0.1500000000E+04    0.1032917932E-01    0.4397407988E-03    0.6932419281E+00    0.1509418058E-01    0.3440526234E-01
    0.1700000000E+04    0.1137909275E-01    0.4846399564E-03    0.6935679640E+00    0.1673931000E-01    0.3839953410E-01
    0.1900000000E+04    0.1236878327E-01    0.5270061781E-03    0.6938256348E+00    0.1831464620E-01    0.4227870583E-01
    0.2100000000E+04    0.1330222111E-01    0.5670053954E-03    0.6940344096E+00    0.1982433674E-01    0.4604897614E-01
    0.2300000000E+04    0.1418305971E-01    0.6047903274E-03    0.6942070050E+00    0.2127220939E-01    0.4971608744E-01
    0.2500000000E+04    0.1501466439E-01    0.6405016773E-03    0.6943520793E+00    0.2266180175E-01    0.5328536751E-01
    0.2700000000E+04    0.1580013862E-01    0.6742692283E-03    0.6944757315E+00    0.2399638784E-01    0.5676176661E-01
    0.2900000000E+04    0.1654234780E-01    0.7062128364E-03    0.6945823824E+00    0.2527900199E-01    0.6014989072E-01
    0.3100000000E+04    0.1724394075E-01    0.7364433253E-03    0.6946753143E+00    0.2651246014E-01    0.6345403121E-01
    0.3300000000E+04    0.1790736907E-01    0.7650632919E-03    0.6947570158E+00    0.2769937903E-01    0.6667819158E-01
    0.3500000000E+04    0.1853490444E-01    0.7921678307E-03    0.6948294075E+00    0.2884219338E-01    0.6982611148E-01
    0.3700000000E+04    0.1912865438E-01    0.8178451856E-03    0.6948939958E+00    0.2994317136E-01    0.7290128832E-01
    0.3900000000E+04    0.1969057625E-01    0.8421773373E-03    0.6949519787E+00    0.3100442855E-01    0.7590699685E-01
    0.4100000000E+04    0.2022248999E-01    0.8652405320E-03    0.6950043206E+00    0.3202794047E-01    0.7884630682E-01
    0.4300000000E+04    0.2072608963E-01    0.8871057598E-03    0.6950518072E+00    0.3301555393E-01    0.8172209897E-01
    0.4500000000E+04    0.2120295355E-01    0.9078391856E-03    0.6950950844E+00    0.3396899734E-01    0.8453707961E-01
    0.4700000000E+04    0.2165455398E-01    0.9275025408E-03    0.6951346886E+00    0.3488988997E-01    0.8729379374E-01
    0.4900000000E+04    0.2208226539E-01    0.9461534766E-03    0.6951710687E+00    0.3577975045E-01    0.8999463715E-01
    0.1000000000E+04    0.7411651058E-02    0.3151882022E-03    0.6918603358E+00    0.1064551432E-01    0.2387065985E-01
    0.3000000000E+04    0.1689806367E-01    0.7215356245E-03    0.6946303922E+00    0.2590170756E-01    0.6181220225E-01
    0.5000000000E+04    0.2228756743E-01    0.9551162674E-03    0.6951881703E+00    0.3621349257E-01    0.9132481791E-01
    0.7000000000E+04    0.2541029716E-01    0.1092592226E-02    0.6954278202E+00    0.4356280332E-01    0.1154799196E+00
    0.9000000000E+04    0.2719042039E-01    0.1172794981E-02    0.6955611810E+00    0.4899753818E-01    0.1359646624E+00
    0.1100000000E+05    0.2813589278E-01    0.1217143091E-02    0.6956461576E+00    0.5312327838E-01    0.1537897702E+00
    0.1300000000E+05    0.2854432096E-01    0.1238234927E-02    0.6957050522E+00    0.5631445373E-01    0.1696020265E+00
    0.1500000000E+05    0.2859887689E-01    0.1243858351E-02    0.6957482834E+00    0.5881518979E-01    0.1838374123E+00
    0.1700000000E+05    0.2841675778E-01    0.1239020117E-02    0.6957813713E+00    0.6079160917E-01    0.1968024507E+00
    0.1900000000E+05    0.2807530351E-01    0.1227041728E-02    0.6958075143E+00    0.6236080155E-01    0.2087202833E+00
    0.2100000000E+05    0.2762683306E-01    0.1210183270E-02    0.6958286935E+00    0.6360775822E-01    0.2197581785E+00
    0.2300000000E+05    0.2710744896E-01    0.1190014447E-02    0.6958462016E+00    0.6459572624E-01    0.2300446905E+00
    0.2500000000E+05    0.2654245776E-01    0.1167643579E-02    0.6958609181E+00    0.6537278506E-01    0.2396807681E+00
    0.2700000000E+05    0.2594981349E-01    0.1143863450E-02    0.6958734623E+00    0.6597616284E-01    0.2487471790E+00
    0.2900000000E+05    0.2534236505E-01    0.1119246769E-02    0.6958842828E+00    0.6643515105E-01    0.2573096135E+00
    0.3100000000E+05    0.2472935765E-01    0.1094210134E-02    0.6958937125E+00    0.6677312227E-01    0.2654222773E+00
    0.3300000000E+05    0.2411745677E-01    0.1069057793E-02    0.6959020039E+00    0.6700895826E-01    0.2731304771E+00
    0.3500000000E+05    0.2351145897E-01    0.1044012131E-02    0.6959093516E+00    0.6715808091E-01    0.2804725175E+00
    0.3700000000E+05    0.2291479334E-01    0.1019235245E-02    0.6959159083E+00    0.6723320948E-01    0.2874811167E+00
    0.3900000000E+05    0.2232988012E-01    0.9948444466E-03    0.6959217955E+00    0.6724492587E-01    0.2941844795E+00
    0.4100000000E+05    0.2175839040E-01    0.9709235269E-03    0.6959271110E+00    0.6720210270E-01    0.3006071225E+00
    0.4300000000E+05    0.2120143631E-01    0.9475310436E-03    0.6959319343E+00    0.6711223167E-01    0.3067705175E+00
    0.4500000000E+05    0.2065971151E-01    0.9247064764E-03    0.6959363309E+00    0.6698167850E-01    0.3126935974E+00
    0.4700000000E+05    0.2013359603E-01    0.9024748390E-03    0.6959403551E+00    0.6681588307E-01    0.3183931609E+00
    0.4900000000E+05    0.1962323492E-01    0.8808501626E-03    0.6959440524E+00    0.6661951810E-01    0.3238841969E+00
    0.1000000000E+05    0.2774540573E-01    0.1198517259E-02    0.6956079058E+00    0.5119672431E-01    0.1451629947E+00
    0.3000000000E+05    0.2503608872E-01    0.1106759706E-02    0.6958891542E+00    0.6661799208E-01    0.2614191515E+00
    0.5000000000E+05    0.1937395828E-01    0.8702674817E-03    0.6959457907E+00    0.6651115428E-01    0.3265557724E+00
    0.7000000000E+05    0.1515680780E-01    0.6893154661E-03    0.6959701731E+00    0.6347393656E-01    0.3716878551E+00
    0.9000000000E+05    0.1212094134E-01    0.5568671246E-03    0.6959837684E+00    0.5980222404E-01    0.4055734367E+00
    0.1100000000E+06    0.9895265802E-02    0.4585456941E-03    0.6959924471E+00    0.5615218577E-01    0.4321940654E+00
    0.1300000000E+06    0.8223642462E-02    0.3839485817E-03    0.6959984723E+00    0.5273225658E-01    0.4537552197E+00
    0.1500000000E+06    0.6939170025E-02    0.3261354845E-03    0.6960029019E+00    0.4959928939E-01    0.4716170841E+00
    0.1700000000E+06    0.5932023221E-02    0.2804663189E-03    0.6960062973E+00    0.4675413684E-01    0.4866779015E+00
    0.1900000000E+06    0.5128251686E-02    0.2437786027E-03    0.6960089836E+00    0.4417712931E-01    0.4995601597E+00
    0.2100000000E+06    0.4476814246E-02    0.2138679244E-03    0.6960111626E+00    0.4184225901E-01    0.5107112337E+00
    0.2300000000E+06    0.3941646781E-02    0.1891636516E-03    0.6960129661E+00    0.3972299237E-01    0.5204620357E+00
    0.2500000000E+06    0.3496717182E-02    0.1685237959E-03    0.6960144838E+00    0.3779457124E-01    0.5290631640E+00
    0.2700000000E+06    0.3122869509E-02    0.1511025930E-03    0.6960157789E+00    0.3603479039E-01    0.5367081779E+00
    0.2900000000E+06    0.2805761783E-02    0.1362631525E-03    0.6960168971E+00    0.3442411200E-01    0.5435491228E+00
    0.3100000000E+06    0.2534487856E-02    0.1235186103E-03    0.6960178726E+00    0.3294550325E-01    0.5497071926E+00
    0.3300000000E+06    0.2300637087E-02    0.1124916932E-03    0.6960187311E+00    0.3158417359E-01    0.5552802373E+00
    0.3500000000E+06    0.2097640393E-02    0.1028864215E-03    0.6960194925E+00    0.3032729175E-01    0.5603481629E+00
    0.3700000000E+06    0.1920307449E-02    0.9446796933E-04    0.6960201726E+00    0.2916371712E-01    0.5649768877E+00
    0.3900000000E+06    0.1764493889E-02    0.8704810852E-04    0.6960207837E+00    0.2808375898E-01    0.5692212911E+00
    0.4100000000E+06    0.1626858472E-02    0.8047453662E-04    0.6960213359E+00    0.2707896690E-01    0.5731274413E+00
    0.4300000000E+06    0.1504683484E-02    0.7462295008E-04    0.6960218373E+00    0.2614195099E-01    0.5767343030E+00
    0.4500000000E+06    0.1395740266E-02    0.6939108482E-04    0.6960222947E+00    0.2526622927E-01    0.5800750604E+00
    0.4700000000E+06    0.1298187373E-02    0.6469418567E-04    0.6960227136E+00    0.2444609833E-01    0.5831781545E+00
    0.4900000000E+06    0.1210492619E-02    0.6046152630E-04    0.6960230988E+00    0.2367652417E-01    0.5860681034E+00
    0.1000000000E+06    0.1092537670E-01    0.5041869163E-03    0.6959885385E+00    0.5795604504E-01    0.4196274657E+00
    0.3000000000E+06    0.2664970964E-02    0.1296547879E-03    0.6960174009E+00    0.3366927255E-01    0.5467069259E+00
    0.5000000000E+06    0.1169932683E-02    0.5850034368E-04    0.6960232800E+00    0.2330928277E-01    0.5874399018E+00
    0.7000000000E+06    0.6531856048E-03    0.3327571008E-04    0.6960258278E+00    0.1776888336E-01    0.6076057212E+00
    0.9000000000E+06    0.4158798893E-03    0.2148752481E-04    0.6960272546E+00    0.1433790923E-01    0.6196437825E+00
    0.1100000000E+07    0.2876949729E-03    0.1503392488E-04    0.6960281681E+00    0.1200879633E-01    0.6276422531E+00
    0.1300000000E+07    0.2107363223E-03    0.1111688775E-04    0.6960288035E+00    0.1032581105E-01    0.6333411764E+00
    0.1500000000E+07    0.1609604459E-03    0.8560012080E-05    0.6960292710E+00    0.9053573255E-02    0.6376068498E+00
    0.1700000000E+07    0.1269327011E-03    0.6798148137E-05    0.6960296295E+00    0.8058452409E-02    0.6409190858E+00
    0.1900000000E+07    0.1026525970E-03    0.5532171942E-05    0.6960299129E+00    0.7259022013E-02    0.6435650986E+00
    0.2100000000E+07    0.8472624238E-04    0.4591631120E-05    0.6960301427E+00    0.6602864505E-02    0.6457273144E+00
    0.2300000000E+07    0.7111720433E-04    0.3873570961E-05    0.6960303325E+00    0.6054722716E-02    0.6475271571E+00
    0.2500000000E+07    0.6054368718E-04    0.3312802674E-05    0.6960304920E+00    0.5590015434E-02    0.6490485741E+00
    0.2700000000E+07    0.5216633457E-04    0.2866408149E-05    0.6960306277E+00    0.5191084541E-02    0.6503514552E+00
    0.2900000000E+07    0.4541691768E-04    0.2505188920E-05    0.6960307446E+00    0.4844920154E-02    0.6514796727E+00
    0.3100000000E+07    0.3989968077E-04    0.2208716321E-05    0.6960308463E+00    0.4541726863E-02    0.6524660982E+00
    0.3300000000E+07    0.3533215227E-04    0.1962347648E-05    0.6960309354E+00    0.4273989511E-02    0.6533358471E+00
    0.3500000000E+07    0.3150836068E-04    0.1755363666E-05    0.6960310142E+00    0.4035846689E-02    0.6541084371E+00
    0.3700000000E+07    0.2827526368E-04    0.1579770251E-05    0.6960310843E+00    0.3822659919E-02    0.6547992656E+00
    0.3900000000E+07    0.2551723281E-04    0.1429506582E-05    0.6960311470E+00    0.3630710768E-02    0.6554206417E+00
    0.4100000000E+07    0.2314559486E-04    0.1299909478E-05    0.6960312033E+00    0.3456983687E-02    0.6559825233E+00
    0.4300000000E+07    0.2109143091E-04    0.1187343344E-05    0.6960312543E+00    0.3299007547E-02    0.6564930529E+00
    0.4500000000E+07    0.1930052316E-04    0.1088939655E-05    0.6960313005E+00    0.3154738179E-02    0.6569589527E+00
    0.4700000000E+07    0.1772974756E-04    0.1002410423E-05    0.6960313426E+00    0.3022470047E-02    0.6573858217E+00
    0.4900000000E+07    0.1634445822E-04    0.9259125526E-06    0.6960313811E+00    0.2900768969E-02    0.6577783606E+00
    0.1000000000E+07    0.3429964621E-03    0.1782748852E-04    0.6960277565E+00    0.1307149413E-01    0.6240093680E+00
    0.3000000000E+07    0.4252407398E-04    0.2349884166E-05    0.6960307971E+00    0.4688466752E-02    0.6519888873E+00
    0.5000000000E+07    0.1571237816E-04    0.8909458900E-06    0.6960313992E+00    0.2843494079E-02    0.6579630229E+00
    0.7000000000E+07    0.8153304032E-05    0.4689706073E-06    0.6960316446E+00    0.2036805379E-02    0.6605591957E+00
    0.9000000000E+07    0.5008661741E-05    0.2904716708E-06    0.6960317707E+00    0.1585082665E-02    0.6620096145E+00
    0.1100000000E+08    0.3405534812E-05    0.1983623007E-06    0.6960318427E+00    0.1296529560E-02    0.6629351576E+00
    0.1300000000E+08    0.2478297789E-05    0.1445888055E-06    0.6960318860E+00    0.1096371544E-02    0.6635768673E+00
    0.1500000000E+08    0.1893606194E-05    0.1104307550E-06    0.6960319123E+00    0.9494422813E-03    0.6640478379E+00
    0.1700000000E+08    0.1500957218E-05    0.8735657571E-07    0.6960319278E+00    0.8370330772E-03    0.6644081486E+00
    0.1900000000E+08    0.1224312916E-05    0.7102205956E-07    0.6960319362E+00    0.7482771587E-03    0.6646926626E+00
    0.2100000000E+08    0.1021888270E-05    0.5902392975E-07    0.6960319396E+00    0.6764322446E-03    0.6649229971E+00
    0.2300000000E+08    0.8691700188E-06    0.4994409090E-07    0.6960319394E+00    0.6170941438E-03    0.6651132666E+00
    0.2500000000E+08    0.7510041727E-06    0.4290139991E-07    0.6960319367E+00    0.5672645625E-03    0.6652730770E+00
    0.2700000000E+08    0.6576115269E-06    0.3732465946E-07    0.6960319320E+00    0.5248318445E-03    0.6654091927E+00
