  Pressure (Pa) 22mC5-500 (mol/kg) 23mC5-500 (mol/kg) 24mC5-500 (mol/kg) 2mC6-500 (mol/kg) 3mC6-500 (mol/kg)
    0.1000000000E+01    0.2396989652E-04    0.9939535117E-06    0.9949966107E-01    0.2818824850E-04    0.2084240287E-04
    0.3000000000E+01    0.5941278485E-04    0.2466248142E-05    0.2321130152E+00    0.7202034906E-04    0.6251549906E-04
    0.5000000000E+01    0.8634762893E-04    0.3588668021E-05    0.3164744087E+00    0.1078931562E-03    0.1041730844E-03
    0.7000000000E+01    0.1090873850E-03    0.4539376339E-05    0.3748668993E+00    0.1402283629E-03    0.1458152229E-03
    0.9000000000E+01    0.1295290335E-03    0.5396497005E-05    0.4176829461E+00    0.1708442275E-03    0.1874419515E-03
    0.1100000000E+02    0.1486173961E-03    0.6198813283E-05    0.4504222326E+00    0.2005805360E-03    0.2290532951E-03
    0.1300000000E+02    0.1668661361E-03    0.6967336082E-05    0.4762678935E+00    0.2298570516E-03    0.2706492731E-03
    0.1500000000E+02    0.1845732709E-03    0.7714209677E-05    0.4971900404E+00    0.2588954478E-03    0.3122299015E-03
    0.1700000000E+02    0.2019205678E-03    0.8446811242E-05    0.5144733345E+00    0.2878172362E-03    0.3537951946E-03
    0.1900000000E+02    0.2190233470E-03    0.9169800758E-05    0.5289912460E+00    0.3166905327E-03    0.3953451657E-03
    0.2100000000E+02    0.2359571202E-03    0.9886215154E-05    0.5413583848E+00    0.3455538141E-03    0.4368798272E-03
    0.2300000000E+02    0.2527726141E-03    0.1059808397E-04    0.5520197836E+00    0.3744285924E-03    0.4783991910E-03
    0.2500000000E+02    0.2695046212E-03    0.1130679127E-04    0.5613056104E+00    0.4033264523E-03    0.5199032688E-03
    0.2700000000E+02    0.2861774107E-03    0.1201329630E-04    0.5694659822E+00    0.4322530847E-03    0.5613920717E-03
    0.2900000000E+02    0.3028081402E-03    0.1271827228E-04    0.5766938404E+00    0.4612106607E-03    0.6028656110E-03
    0.3100000000E+02    0.3194090663E-03    0.1342219614E-04    0.5831404057E+00    0.4901992570E-03    0.6443238977E-03
    0.3300000000E+02    0.3359890110E-03    0.1412540783E-04    0.5889258768E+00    0.5192177254E-03    0.6857669426E-03
    0.3500000000E+02    0.3525543539E-03    0.1482815034E-04    0.5941469978E+00    0.5482642289E-03    0.7271947565E-03
    0.3700000000E+02    0.3691097160E-03    0.1553059721E-04    0.5988825130E+00    0.5773365742E-03    0.7686073500E-03
    0.3900000000E+02    0.3856584390E-03    0.1623287174E-04    0.6031971674E+00    0.6064324176E-03    0.8100047340E-03
    0.4100000000E+02    0.4022029252E-03    0.1693506058E-04    0.6071446851E+00    0.6355493915E-03    0.8513869188E-03
    0.4300000000E+02    0.4187448818E-03    0.1763722344E-04    0.6107700191E+00    0.6646851810E-03    0.8927539152E-03
    0.4500000000E+02    0.4352854995E-03    0.1833940016E-04    0.6141110707E+00    0.6938375678E-03    0.9341057336E-03
    0.4700000000E+02    0.4518255821E-03    0.1904161587E-04    0.6172000205E+00    0.7230044544E-03    0.9754423844E-03
    0.4900000000E+02    0.4683656441E-03    0.1974388477E-04    0.6200643683E+00    0.7521838746E-03    0.1016763878E-02
    0.1000000000E+02    0.1392035149E-03    0.5802914420E-05    0.4350759195E+00    0.1857897362E-03    0.2082495452E-03
    0.3000000000E+02    0.3111117102E-03    0.1307034181E-04    0.5800066461E+00    0.4757011319E-03    0.6235966603E-03
    0.5000000000E+02    0.4766357671E-03    0.2009504133E-04    0.6214198359E+00    0.7667777072E-03    0.1037418944E-02
    0.7000000000E+02    0.6420439578E-03    0.2712009740E-04    0.6410399567E+00    0.1058935864E-02    0.1449727066E-02
    0.9000000000E+02    0.8073047172E-03    0.3414057510E-04    0.6524867523E+00    0.1350955737E-02    0.1860531345E-02
    0.1100000000E+03    0.9721699387E-03    0.4114501271E-04    0.6599873602E+00    0.1642269072E-02    0.2269841961E-02
    0.1300000000E+03    0.1136459561E-02    0.4812547653E-04    0.6652825201E+00    0.1932595167E-02    0.2677668982E-02
    0.1500000000E+03    0.1300055088E-02    0.5507684293E-04    0.6692203561E+00    0.2221784024E-02    0.3084022379E-02
    0.1700000000E+03    0.1462878536E-02    0.6199577671E-04    0.6722635174E+00    0.2509750754E-02    0.3488912025E-02
    0.1900000000E+03    0.1624877853E-02    0.6888006852E-04    0.6746858366E+00    0.2796445623E-02    0.3892347701E-02
    0.2100000000E+03    0.1786017875E-02    0.7572823478E-04    0.6766597383E+00    0.3081839170E-02    0.4294339097E-02
    0.2300000000E+03    0.1946274742E-02    0.8253927391E-04    0.6782992049E+00    0.3365914265E-02    0.4694895813E-02
    0.2500000000E+03    0.2105632356E-02    0.8931251361E-04    0.6796826039E+00    0.3648661604E-02    0.5094027362E-02
    0.2700000000E+03    0.2264080090E-02    0.9604751250E-04    0.6808655906E+00    0.3930077042E-02    0.5491743167E-02
    0.2900000000E+03    0.2421611257E-02    0.1027439948E-03    0.6818887803E+00    0.4210159926E-02    0.5888052567E-02
    0.3100000000E+03    0.2578222058E-02    0.1094018060E-03    0.6827825076E+00    0.4488912032E-02    0.6282964817E-02
    0.3300000000E+03    0.2733910854E-02    0.1160208815E-03    0.6835698854E+00    0.4766336855E-02    0.6676489086E-02
    0.3500000000E+03    0.2888677638E-02    0.1226012250E-03    0.6842688336E+00    0.5042439134E-02    0.7068634459E-02
    0.3700000000E+03    0.3042523657E-02    0.1291428923E-03    0.6848934600E+00    0.5317224510E-02    0.7459409943E-02
    0.3900000000E+03    0.3195451129E-02    0.1356459795E-03    0.6854550226E+00    0.5590699292E-02    0.7848824460E-02
    0.4100000000E+03    0.3347463030E-02    0.1421106138E-03    0.6859626149E+00    0.5862870287E-02    0.8236886853E-02
    0.4300000000E+03    0.3498562934E-02    0.1485369476E-03    0.6864236622E+00    0.6133744665E-02    0.8623605886E-02
    0.4500000000E+03    0.3648754890E-02    0.1549251524E-03    0.6868442871E+00    0.6403329875E-02    0.9008990246E-02
    0.4700000000E+03    0.3798043322E-02    0.1612754154E-03    0.6872295835E+00    0.6671633565E-02    0.9393048539E-02
    0.4900000000E+03    0.3946432954E-02    0.1675879360E-03    0.6875838239E+00    0.6938663532E-02    0.9775789298E-02
    0.1000000000E+03    0.8897997422E-03    0.3764537492E-04    0.6565907454E+00    0.1496722505E-02    0.2065372729E-02
    0.3000000000E+03    0.2500031849E-02    0.1060777401E-03    0.6823502406E+00    0.4349702142E-02    0.6085682761E-02
    0.5000000000E+03    0.4020292264E-02    0.1707301081E-03    0.6877504486E+00    0.7071703335E-02    0.9966668248E-02
    0.7000000000E+03    0.5451589839E-02    0.2316466873E-03    0.6900921488E+00    0.9667587291E-02    0.1371710438E-01
    0.9000000000E+03    0.6799342032E-02    0.2890549907E-03    0.6914004772E+00    0.1214525096E-01    0.1734501965E-01
    0.1100000000E+04    0.8069168447E-02    0.3431902770E-03    0.6922359004E+00    0.1451228724E-01    0.2085777446E-01
    0.1300000000E+04    0.9266387553E-02    0.3942749779E-03    0.6928156181E+00    0.1677573447E-01    0.2426212989E-01
    0.1500000000E+04    0.1039592981E-01    0.4425152266E-03    0.6932414721E+00    0.1894207430E-01    0.2756430798E-01
    0.1700000000E+04    0.1146233823E-01    0.4881009431E-03    0.6935675567E+00    0.2101727044E-01    0.3077004492E-01
    0.1900000000E+04    0.1246979188E-01    0.5312068415E-03    0.6938252665E+00    0.2300681369E-01    0.3388463803E-01
    0.2100000000E+04    0.1342213502E-01    0.5719936576E-03    0.6940340734E+00    0.2491576547E-01    0.3691298739E-01
    0.2300000000E+04    0.1432290638E-01    0.6106093754E-03    0.6942066956E+00    0.2674879770E-01    0.3985963274E-01
    0.2500000000E+04    0.1517536669E-01    0.6471903800E-03    0.6943517925E+00    0.2851022894E-01    0.4272878643E-01
    0.2700000000E+04    0.1598252397E-01    0.6818625129E-03    0.6944754642E+00    0.3020405676E-01    0.4552436271E-01
    0.2900000000E+04    0.1674715653E-01    0.7147420296E-03    0.6945821321E+00    0.3183398671E-01    0.4825000395E-01
    0.3100000000E+04    0.1747183356E-01    0.7459364622E-03    0.6946750789E+00    0.3340345840E-01    0.5090910416E-01
    0.3300000000E+04    0.1815893387E-01    0.7755453962E-03    0.6947567936E+00    0.3491566875E-01    0.5350483007E-01
    0.3500000000E+04    0.1881066257E-01    0.8036611698E-03    0.6948291971E+00    0.3637359294E-01    0.5604014009E-01
    0.3700000000E+04    0.1942906618E-01    0.8303695019E-03    0.6948937959E+00    0.3778000328E-01    0.5851780139E-01
    0.3900000000E+04    0.2001604623E-01    0.8557500586E-03    0.6949517883E+00    0.3913748609E-01    0.6094040533E-01
    0.4100000000E+04    0.2057337151E-01    0.8798769639E-03    0.6950041389E+00    0.4044845704E-01    0.6331038142E-01
    0.4300000000E+04    0.2110268909E-01    0.9028192605E-03    0.6950516333E+00    0.4171517495E-01    0.6563000994E-01
    0.4500000000E+04    0.2160553434E-01    0.9246413258E-03    0.6950949178E+00    0.4293975428E-01    0.6790143340E-01
    0.4700000000E+04    0.2208333997E-01    0.9454032495E-03    0.6951345286E+00    0.4412417650E-01    0.7012666698E-01
    0.4900000000E+04    0.2253744422E-01    0.9651611748E-03    0.6951709148E+00    0.4527030030E-01    0.7230760798E-01
    0.1000000000E+04    0.7443654767E-02    0.3165174885E-03    0.6918596797E+00    0.1334214424E-01    0.1911535624E-01
    0.3000000000E+04    0.1711433655E-01    0.7305434796E-03    0.6946301496E+00    0.3262607460E-01    0.4958766867E-01
    0.5000000000E+04    0.2275600253E-01    0.9746801805E-03    0.6951880193E+00    0.4582954990E-01    0.7338203158E-01
    0.7000000000E+04    0.2614697089E-01    0.1123441408E-02    0.6954277104E+00    0.5537582005E-01    0.9292919826E-01
    0.9000000000E+04    0.2818954954E-01    0.1214743976E-02    0.6955610949E+00    0.6254918495E-01    0.1095665472E+00
    0.1100000000E+05    0.2938249811E-01    0.1269614995E-02    0.6956460870E+00    0.6809363782E-01    0.1240965594E+00
    0.1300000000E+05    0.3001992559E-01    0.1300498095E-02    0.6957049926E+00    0.7247023047E-01    0.1370334569E+00
    0.1500000000E+05    0.3028416795E-01    0.1315137910E-02    0.6957482320E+00    0.7598018416E-01    0.1487241978E+00
    0.1700000000E+05    0.3029284123E-01    0.1318551289E-02    0.6957813264E+00    0.7882885503E-01    0.1594128383E+00
    0.1900000000E+05    0.3012427772E-01    0.1314094830E-02    0.6958074745E+00    0.8116123152E-01    0.1692770483E+00
    0.2100000000E+05    0.2983202270E-01    0.1304074477E-02    0.6958286580E+00    0.8308272227E-01    0.1784499486E+00
    0.2300000000E+05    0.2945346717E-01    0.1290109284E-02    0.6958461696E+00    0.8467188796E-01    0.1870337553E+00
    0.2500000000E+05    0.2901518220E-01    0.1273356692E-02    0.6958608892E+00    0.8598854059E-01    0.1951086269E+00
    0.2700000000E+05    0.2853632086E-01    0.1254656530E-02    0.6958734361E+00    0.8707906651E-01    0.2027385871E+00
    0.2900000000E+05    0.2803084776E-01    0.1234625627E-02    0.6958842588E+00    0.8798002500E-01    0.2099756008E+00
    0.3100000000E+05    0.2750903508E-01    0.1213721460E-02    0.6958936906E+00    0.8872064218E-01    0.2168624482E+00
    0.3300000000E+05    0.2697848768E-01    0.1192285891E-02    0.6959019838E+00    0.8932457753E-01    0.2234347949E+00
    0.3500000000E+05    0.2644485839E-01    0.1170575767E-02    0.6959093331E+00    0.8981119986E-01    0.2297227117E+00
    0.3700000000E+05    0.2591235529E-01    0.1148784699E-02    0.6959158914E+00    0.9019652515E-01    0.2357518105E+00
    0.3900000000E+05    0.2538410679E-01    0.1127058778E-02    0.6959217799E+00    0.9049391683E-01    0.2415441050E+00
    0.4100000000E+05    0.2486242768E-01    0.1105508072E-02    0.6959270966E+00    0.9071461614E-01    0.2471186729E+00
    0.4300000000E+05    0.2434901537E-01    0.1084215133E-02    0.6959319210E+00    0.9086814905E-01    0.2524921727E+00
    0.4500000000E+05    0.2384509600E-01    0.1063241361E-02    0.6959363187E+00    0.9096264224E-01    0.2576792496E+00
    0.4700000000E+05    0.2335153442E-01    0.1042631809E-02    0.6959403439E+00    0.9100507107E-01    0.2626928600E+00
    0.4900000000E+05    0.2286891748E-01    0.1022418842E-02    0.6959440421E+00    0.9100145615E-01    0.2675445318E+00
    0.1000000000E+05    0.2887045062E-01    0.1245813108E-02    0.6956078282E+00    0.6549142201E-01    0.1170578744E+00
    0.3000000000E+05    0.2777145564E-01    0.1224259036E-02    0.6958891313E+00    0.8836878398E-01    0.2134604195E+00
    0.5000000000E+05    0.2263183662E-01    0.1012468427E-02    0.6959457809E+00    0.9098404203E-01    0.2699129057E+00
    0.7000000000E+05    0.1848686694E-01    0.8365073217E-03    0.6959701697E+00    0.8918202691E-01    0.3108000861E+00
    0.9000000000E+05    0.1533530702E-01    0.7004230628E-03    0.6959837690E+00    0.8600716785E-01    0.3427928248E+00
    0.1100000000E+06    0.1291902406E-01    0.5947804980E-03    0.6959924507E+00    0.8242749931E-01    0.3688849589E+00
    0.1300000000E+06    0.1103317606E-01    0.5115013538E-03    0.6959984781E+00    0.7881673077E-01    0.3907404623E+00
    0.1500000000E+06    0.9534566662E-02    0.4447643141E-03    0.6960029096E+00    0.7532974370E-01    0.4094001002E+00
    0.1700000000E+06    0.8324047967E-02    0.3904629537E-03    0.6960063065E+00    0.7202907799E-01    0.4255651755E+00
    0.1900000000E+06    0.7331999953E-02    0.3456745203E-03    0.6960089942E+00    0.6893523468E-01    0.4397331333E+00
    0.2100000000E+06    0.6508585918E-02    0.3082842659E-03    0.6960111745E+00    0.6604891527E-01    0.4522703649E+00
    0.2300000000E+06    0.5817428437E-02    0.2767347486E-03    0.6960129791E+00    0.6336156304E-01    0.4634546700E+00
    0.2500000000E+06    0.5231484820E-02    0.2498592750E-03    0.6960144978E+00    0.6086058577E-01    0.4735016035E+00
    0.2700000000E+06    0.4730313554E-02    0.2267699858E-03    0.6960157938E+00    0.5853200430E-01    0.4825816233E+00
    0.2900000000E+06    0.4298227865E-02    0.2067814280E-03    0.6960169128E+00    0.5636179763E-01    0.4908316847E+00
    0.3100000000E+06    0.3923024385E-02    0.1893574493E-03    0.6960178891E+00    0.5433656718E-01    0.4983633291E+00
    0.3300000000E+06    0.3595091697E-02    0.1740736682E-03    0.6960187484E+00    0.5244383875E-01    0.5052684737E+00
    0.3500000000E+06    0.3306774533E-02    0.1605905226E-03    0.6960195105E+00    0.5067217054E-01    0.5116236492E+00
    0.3700000000E+06    0.3051913140E-02    0.1486336225E-03    0.6960201913E+00    0.4901115852E-01    0.5174931600E+00
    0.3900000000E+06    0.2825504720E-02    0.1379792305E-03    0.6960208030E+00    0.4745138943E-01    0.5229314803E+00
    0.4100000000E+06    0.2623451249E-02    0.1284433912E-03    0.6960213559E+00    0.4598436918E-01    0.5279850973E+00
    0.4300000000E+06    0.2442369358E-02    0.1198736974E-03    0.6960218579E+00    0.4460244218E-01    0.5326939474E+00
    0.4500000000E+06    0.2279445354E-02    0.1121429850E-03    0.6960223159E+00    0.4329870985E-01    0.5370925486E+00
    0.4700000000E+06    0.2132323534E-02    0.1051444551E-03    0.6960227354E+00    0.4206695287E-01    0.5412109017E+00
    0.4900000000E+06    0.1999019291E-02    0.9878786559E-04    0.6960231211E+00    0.4090155911E-01    0.5450752156E+00
    0.1000000000E+06    0.1404969160E-01    0.6443585333E-03    0.6959885407E+00    0.8423702746E-01    0.3564528199E+00
    0.3000000000E+06    0.4104168845E-02    0.1977776516E-03    0.6960174171E+00    0.5533186361E-01    0.4946811601E+00
    0.5000000000E+06    0.1937012954E-02    0.9582587335E-04    0.6960233025E+00    0.4034214442E-01    0.5469194082E+00
    0.7000000000E+06    0.1124382012E-02    0.5663879644E-04    0.6960258549E+00    0.3163813808E-01    0.5748022038E+00
    0.9000000000E+06    0.7334537509E-03    0.3746010258E-04    0.6960272854E+00    0.2598978054E-01    0.5921871345E+00
    0.1100000000E+07    0.5158222765E-03    0.2664072448E-04    0.6960282021E+00    0.2203715819E-01    0.6040712863E+00
    0.1300000000E+07    0.3823647926E-03    0.1993389900E-04    0.6960288403E+00    0.1911943384E-01    0.6127101482E+00
    0.1500000000E+07    0.2946798180E-03    0.1548693770E-04    0.6960293105E+00    0.1687860640E-01    0.6192733552E+00
    0.1700000000E+07    0.2340065902E-03    0.1238546934E-04    0.6960296713E+00    0.1510432711E-01    0.6244284943E+00
    0.1900000000E+07    0.1902957325E-03    0.1013545180E-04    0.6960299570E+00    0.1366504407E-01    0.6285845255E+00
    0.2100000000E+07    0.1577702256E-03    0.8450734711E-05    0.6960301887E+00    0.1247432442E-01    0.6320060125E+00
    0.2300000000E+07    0.1329177306E-03    0.7156180432E-05    0.6960303806E+00    0.1147306531E-01    0.6348716974E+00
    0.2500000000E+07    0.1135032346E-03    0.6139674858E-05    0.6960305419E+00    0.1061949638E-01    0.6373066939E+00
    0.2700000000E+07    0.9804969591E-04    0.5326722473E-05    0.6960306794E+00    0.9883267207E-02    0.6394011971E+00
    0.2900000000E+07    0.8554932348E-04    0.4666241505E-05    0.6960307980E+00    0.9241798377E-02    0.6412218707E+00
    0.3100000000E+07    0.7529545681E-04    0.4122249010E-05    0.6960309013E+00    0.8677946417E-02    0.6428190497E+00
    0.3300000000E+07    0.6678073232E-04    0.3668800081E-05    0.6960309920E+00    0.8178462354E-02    0.6442314511E+00
    0.3500000000E+07    0.5963326842E-04    0.3286802325E-05    0.6960310723E+00    0.7732946257E-02    0.6454893421E+00
    0.3700000000E+07    0.5357547353E-04    0.2961951116E-05    0.6960311439E+00    0.7333121167E-02    0.6466167255E+00
    0.3900000000E+07    0.4839675560E-04    0.2683356373E-05    0.6960312080E+00    0.6972318160E-02    0.6476328804E+00
    0.4100000000E+07    0.4393501947E-04    0.2442608151E-05    0.6960312658E+00    0.6645104253E-02    0.6485534690E+00
    0.4300000000E+07    0.4006386124E-04    0.2233127723E-05    0.6960313181E+00    0.6347009007E-02    0.6493913469E+00
    0.4500000000E+07    0.3668353987E-04    0.2049708600E-05    0.6960313656E+00    0.6074320576E-02    0.6501571643E+00
    0.4700000000E+07    0.3371450448E-04    0.1888186459E-05    0.6960314090E+00    0.5823931480E-02    0.6508598196E+00
    0.4900000000E+07    0.3109268298E-04    0.1745198201E-05    0.6960314487E+00    0.5593220508E-02    0.6515068049E+00
    0.1000000000E+07    0.6103637711E-03    0.3135634433E-04    0.6960277889E+00    0.2385272974E-01    0.5986394078E+00
    0.3000000000E+07    0.8017707169E-04    0.4381496834E-05    0.6960308514E+00    0.8951075478E-02    0.6420457479E+00
    0.5000000000E+07    0.2989531248E-04    0.1679777530E-05    0.6960314674E+00    0.5484535217E-02    0.6518114452E+00
    0.7000000000E+07    0.1551859955E-04    0.8869227403E-06    0.6960317239E+00    0.3946355285E-02    0.6561132627E+00
    0.9000000000E+07    0.9503577370E-05    0.5494024241E-06    0.6960318593E+00    0.3078934514E-02    0.6585318765E+00
    0.1100000000E+08    0.6429393787E-05    0.3746577021E-06    0.6960319396E+00    0.2522532607E-02    0.6600809076E+00
    0.1300000000E+08    0.4649691949E-05    0.2724577697E-06    0.6960319903E+00    0.2135515327E-02    0.6611574469E+00
    0.1500000000E+08    0.3527525354E-05    0.2074779589E-06    0.6960320235E+00    0.1850862496E-02    0.6619488513E+00
    0.1700000000E+08    0.2774468302E-05    0.1635672133E-06    0.6960320453E+00    0.1632767890E-02    0.6625550312E+00
    0.1900000000E+08    0.2244517796E-05    0.1324829185E-06    0.6960320596E+00    0.1460369138E-02    0.6630341252E+00
    0.2100000000E+08    0.1857338214E-05    0.1096577170E-06    0.6960320686E+00    0.1320691346E-02    0.6634222582E+00
    0.2300000000E+08    0.1565761812E-05    0.9239335085E-07    0.6960320737E+00    0.1205243063E-02    0.6637430563E+00
    0.2500000000E+08    0.1340615610E-05    0.7901177408E-07    0.6960320760E+00    0.1108234597E-02    0.6640126206E+00
    0.2700000000E+08    0.1163069409E-05    0.6842450838E-07    0.6960320762E+00    0.1025583171E-02    0.6642423007E+00
