  Pressure (Pa) 22mC5-500 (mol/kg) 23mC5-500 (mol/kg) 24mC5-500 (mol/kg) 2mC6-500 (mol/kg) 3mC6-500 (mol/kg)
    0.1000000000E+01    0.2600239517E-04    0.5389676868E-05    0.3666033682E-01    0.2423272472E-04    0.1563198136E-04
    0.3000000000E+01    0.7189695152E-04    0.1490665331E-04    0.9948868595E-01    0.6763956377E-04    0.4688818925E-04
    0.5000000000E+01    0.1115534576E-03    0.2313619493E-04    0.1513739598E+00    0.1059923650E-03    0.7813407804E-04
    0.7000000000E+01    0.1465965102E-03    0.3041486741E-04    0.1949467501E+00    0.1407109247E-03    0.1093696675E-03
    0.9000000000E+01    0.1781488398E-03    0.3697507250E-04    0.2320569880E+00    0.1727598718E-03    0.1405949737E-03
    0.1100000000E+02    0.2070086462E-03    0.4298189136E-04    0.2640435371E+00    0.2028125950E-03    0.1718100100E-03
    0.1300000000E+02    0.2337571941E-03    0.4855543030E-04    0.2918992832E+00    0.2313500551E-03    0.2030147881E-03
    0.1500000000E+02    0.2588265827E-03    0.5378488967E-04    0.3163761118E+00    0.2587225593E-03    0.2342093183E-03
    0.1700000000E+02    0.2825438168E-03    0.5873770911E-04    0.3380538497E+00    0.2851896000E-03    0.2653936103E-03
    0.1900000000E+02    0.3051602715E-03    0.6346567887E-04    0.3573868204E+00    0.3109462467E-03    0.2965676730E-03
    0.2100000000E+02    0.3268718719E-03    0.6800912338E-04    0.3747360589E+00    0.3361410440E-03    0.3277315146E-03
    0.2300000000E+02    0.3478332116E-03    0.7239982681E-04    0.3903920887E+00    0.3608884024E-03    0.3588851432E-03
    0.2500000000E+02    0.3681676201E-03    0.7666311797E-04    0.4045913349E+00    0.3852773342E-03    0.3900285665E-03
    0.2700000000E+02    0.3879744628E-03    0.8081938134E-04    0.4175281573E+00    0.4093777151E-03    0.4211617918E-03
    0.2900000000E+02    0.4073345158E-03    0.8488516910E-04    0.4293638081E+00    0.4332448373E-03    0.4522848266E-03
    0.3100000000E+02    0.4263139793E-03    0.8887403074E-04    0.4402331938E+00    0.4569227659E-03    0.4833976779E-03
    0.3300000000E+02    0.4449675102E-03    0.9279713983E-04    0.4502500451E+00    0.4804468411E-03    0.5145003527E-03
    0.3500000000E+02    0.4633405414E-03    0.9666377298E-04    0.4595109155E+00    0.5038455667E-03    0.5455928578E-03
    0.3700000000E+02    0.4814710742E-03    0.1004816796E-03    0.4680983060E+00    0.5271420476E-03    0.5766752001E-03
    0.3900000000E+02    0.4993910756E-03    0.1042573704E-03    0.4760831325E+00    0.5503550951E-03    0.6077473862E-03
    0.4100000000E+02    0.5171275793E-03    0.1079963439E-03    0.4835266902E+00    0.5735000837E-03    0.6388094229E-03
    0.4300000000E+02    0.5347035585E-03    0.1117032666E-03    0.4904822322E+00    0.5965896212E-03    0.6698613168E-03
    0.4500000000E+02    0.5521386245E-03    0.1153821166E-03    0.4969962460E+00    0.6196340753E-03    0.7009030743E-03
    0.4700000000E+02    0.5694495891E-03    0.1190362992E-03    0.5031094958E+00    0.6426419913E-03    0.7319347021E-03
    0.4900000000E+02    0.5866509206E-03    0.1226687411E-03    0.5088578761E+00    0.6656204252E-03    0.7629562065E-03
    0.1000000000E+02    0.1928748342E-03    0.4003928950E-04    0.2486220097E+00    0.1880020498E-03    0.1562037748E-03
    0.3000000000E+02    0.4168681648E-03    0.8688846788E-04    0.4349117313E+00    0.4451050622E-03    0.4678425248E-03
    0.5000000000E+02    0.5952144475E-03    0.1244776118E-03    0.5116053023E+00    0.6771004509E-03    0.7784631646E-03
    0.7000000000E+02    0.7630037793E-03    0.1599716355E-03    0.5534454889E+00    0.9061224789E-03    0.1088072418E-02
    0.9000000000E+02    0.9273023140E-03    0.1947907228E-03    0.5797957726E+00    0.1135022149E-02    0.1396676624E-02
    0.1100000000E+03    0.1090111739E-02    0.2293287458E-03    0.5979161656E+00    0.1364077405E-02    0.1704281986E-02
    0.1300000000E+03    0.1252089492E-02    0.2637108657E-03    0.6111423610E+00    0.1593137272E-02    0.2010894629E-02
    0.1500000000E+03    0.1413457006E-02    0.2979766133E-03    0.6212217615E+00    0.1822007485E-02    0.2316520611E-02
    0.1700000000E+03    0.1574277781E-02    0.3321352706E-03    0.6291583031E+00    0.2050523374E-02    0.2621165934E-02
    0.1900000000E+03    0.1734555442E-02    0.3661851080E-03    0.6355698683E+00    0.2278557267E-02    0.2924836546E-02
    0.2100000000E+03    0.1894271562E-02    0.4001206583E-03    0.6408575894E+00    0.2506012580E-02    0.3227538343E-02
    0.2300000000E+03    0.2053401027E-02    0.4339355868E-03    0.6452932358E+00    0.2732816588E-02    0.3529277171E-02
    0.2500000000E+03    0.2211918346E-02    0.4676238168E-03    0.6490674754E+00    0.2958914414E-02    0.3830058824E-02
    0.2700000000E+03    0.2369800143E-02    0.5011799337E-03    0.6523180293E+00    0.3184264498E-02    0.4129889050E-02
    0.2900000000E+03    0.2527025978E-02    0.5345992854E-03    0.6551468592E+00    0.3408835265E-02    0.4428773547E-02
    0.3100000000E+03    0.2683578454E-02    0.5678779579E-03    0.6576310665E+00    0.3632602690E-02    0.4726717968E-02
    0.3300000000E+03    0.2839443017E-02    0.6010127038E-03    0.6598300347E+00    0.3855548526E-02    0.5023727917E-02
    0.3500000000E+03    0.2994607656E-02    0.6340008586E-03    0.6617902428E+00    0.4077658981E-02    0.5319808951E-02
    0.3700000000E+03    0.3149062580E-02    0.6668402599E-03    0.6635485903E+00    0.4298923742E-02    0.5614966584E-02
    0.3900000000E+03    0.3302799913E-02    0.6995291730E-03    0.6651347441E+00    0.4519335238E-02    0.5909206283E-02
    0.4100000000E+03    0.3455813423E-02    0.7320662279E-03    0.6665728286E+00    0.4738888071E-02    0.6202533469E-02
    0.4300000000E+03    0.3608098284E-02    0.7644503638E-03    0.6678826617E+00    0.4957578588E-02    0.6494953521E-02
    0.4500000000E+03    0.3759650872E-02    0.7966807835E-03    0.6690806753E+00    0.5175404543E-02    0.6786471773E-02
    0.4700000000E+03    0.3910468594E-02    0.8287569139E-03    0.6701806086E+00    0.5392364834E-02    0.7077093516E-02
    0.4900000000E+03    0.4060549737E-02    0.8606783731E-03    0.6711940382E+00    0.5608459294E-02    0.7366823997E-02
    0.1000000000E+03    0.1008836294E-02    0.2120839243E-03    0.5896232252E+00    0.1249536925E-02    0.1550603776E-02
    0.3000000000E+03    0.2605387359E-02    0.5512564242E-03    0.6564279792E+00    0.3520820654E-02    0.4577862916E-02
    0.5000000000E+03    0.4135313766E-02    0.8765810272E-03    0.6716714431E+00    0.5716181999E-02    0.7511356643E-02
    0.7000000000E+03    0.5592002594E-02    0.1186527697E-02    0.6784298732E+00    0.7825618737E-02    0.1035646892E-01
    0.9000000000E+03    0.6976705720E-02    0.1481350580E-02    0.6822465891E+00    0.9851631853E-02    0.1311816414E-01
    0.1100000000E+04    0.8292696044E-02    0.1761735010E-02    0.6846994492E+00    0.1179833623E-01    0.1580102808E-01
    0.1300000000E+04    0.9543690659E-02    0.2028459665E-02    0.6864089273E+00    0.1367001350E-01    0.1840930367E-01
    0.1500000000E+04    0.1073340283E-01    0.2282302104E-02    0.6876686384E+00    0.1547079264E-01    0.2094692288E-01
    0.1700000000E+04    0.1186539404E-01    0.2524007874E-02    0.6886355365E+00    0.1720456741E-01    0.2341753494E-01
    0.1900000000E+04    0.1294302487E-01    0.2754280340E-02    0.6894011435E+00    0.1887498064E-01    0.2582453160E-01
    0.2100000000E+04    0.1396944326E-01    0.2973778308E-02    0.6900224306E+00    0.2048543035E-01    0.2817106975E-01
    0.2300000000E+04    0.1494758799E-01    0.3183116824E-02    0.6905367184E+00    0.2203908345E-01    0.3046009158E-01
    0.2500000000E+04    0.1588019867E-01    0.3382869272E-02    0.6909694775E+00    0.2353889176E-01    0.3269434281E-01
    0.2700000000E+04    0.1676982808E-01    0.3573569986E-02    0.6913386863E+00    0.2498760806E-01    0.3487638898E-01
    0.2900000000E+04    0.1761885518E-01    0.3755716974E-02    0.6916573978E+00    0.2638780153E-01    0.3700863021E-01
    0.3100000000E+04    0.1842949794E-01    0.3929774607E-02    0.6919353181E+00    0.2774187219E-01    0.3909331450E-01
    0.3300000000E+04    0.1920382548E-01    0.4096176162E-02    0.6921798147E+00    0.2905206416E-01    0.4113254975E-01
    0.3500000000E+04    0.1994376953E-01    0.4255326212E-02    0.6923965813E+00    0.3032047785E-01    0.4312831464E-01
    0.3700000000E+04    0.2065113498E-01    0.4407602831E-02    0.6925900871E+00    0.3154908114E-01    0.4508246859E-01
    0.3900000000E+04    0.2132760960E-01    0.4553359629E-02    0.6927638896E+00    0.3273971953E-01    0.4699676066E-01
    0.4100000000E+04    0.2197477301E-01    0.4692927620E-02    0.6929208558E+00    0.3389412547E-01    0.4887283783E-01
    0.4300000000E+04    0.2259410488E-01    0.4826616932E-02    0.6930633220E+00    0.3501392676E-01    0.5071225238E-01
    0.4500000000E+04    0.2318699241E-01    0.4954718376E-02    0.6931932110E+00    0.3610065437E-01    0.5251646877E-01
    0.4700000000E+04    0.2375473723E-01    0.5077504882E-02    0.6933121201E+00    0.3715574947E-01    0.5428686981E-01
    0.4900000000E+04    0.2429856170E-01    0.5195232807E-02    0.6934213868E+00    0.3818056993E-01    0.5602476244E-01
    0.1000000000E+04    0.7643060500E-02    0.1623299521E-02    0.6835932998E+00    0.1083462828E-01    0.1446917719E-01
    0.3000000000E+04    0.1802884193E-01    0.3843729180E-02    0.6918009506E+00    0.2707045845E-01    0.3805678208E-01
    0.5000000000E+04    0.2456186554E-01    0.5252275683E-02    0.6934727640E+00    0.3868203019E-01    0.5688190705E-01
    0.7000000000E+04    0.2881723145E-01    0.6178999991E-02    0.6941936561E+00    0.4739706624E-01    0.7258563239E-01
    0.9000000000E+04    0.3164084453E-01    0.6801540424E-02    0.6945956798E+00    0.5417385717E-01    0.8610629734E-01
    0.1100000000E+05    0.3352110595E-01    0.7222716604E-02    0.6948522454E+00    0.5958644062E-01    0.9802300170E-01
    0.1300000000E+05    0.3475695083E-01    0.7505632278E-02    0.6950302846E+00    0.6400003215E-01    0.1087147447E+00
    0.1500000000E+05    0.3554002579E-01    0.7690861032E-02    0.6951611107E+00    0.6765839615E-01    0.1184413979E+00
    0.1700000000E+05    0.3599788534E-01    0.7805491443E-02    0.6952613342E+00    0.7073070690E-01    0.1273880357E+00
    0.1900000000E+05    0.3621808177E-01    0.7868178375E-02    0.6953405874E+00    0.7333823645E-01    0.1356906786E+00
    0.2100000000E+05    0.3626227287E-01    0.7892105536E-02    0.6954048414E+00    0.7557032487E-01    0.1434519854E+00
    0.2300000000E+05    0.3617482976E-01    0.7886795885E-02    0.6954579954E+00    0.7749434213E-01    0.1507512155E+00
    0.2500000000E+05    0.3598827550E-01    0.7859257341E-02    0.6955027038E+00    0.7916212577E-01    0.1576507765E+00
    0.2700000000E+05    0.3572682579E-01    0.7814729969E-02    0.6955408365E+00    0.8061427000E-01    0.1642006575E+00
    0.2900000000E+05    0.3540875520E-01    0.7757186190E-02    0.6955737487E+00    0.8188306021E-01    0.1704415100E+00
    0.3100000000E+05    0.3504801496E-01    0.7689673416E-02    0.6956024468E+00    0.8299452812E-01    0.1764068382E+00
    0.3300000000E+05    0.3465536164E-01    0.7614553566E-02    0.6956276940E+00    0.8396992141E-01    0.1821245887E+00
    0.3500000000E+05    0.3423915894E-01    0.7533673534E-02    0.6956500793E+00    0.8482677407E-01    0.1876183240E+00
    0.3700000000E+05    0.3380595637E-01    0.7448488506E-02    0.6956700650E+00    0.8557969908E-01    0.1929081044E+00
    0.3900000000E+05    0.3336091309E-01    0.7360152454E-02    0.6956880185E+00    0.8624098443E-01    0.1980111591E+00
    0.4100000000E+05    0.3290811237E-01    0.7269585441E-02    0.6957042359E+00    0.8682104728E-01    0.2029424052E+00
    0.4300000000E+05    0.3245079768E-01    0.7177524261E-02    0.6957189584E+00    0.8732878443E-01    0.2077148527E+00
    0.4500000000E+05    0.3199155180E-01    0.7084560972E-02    0.6957323843E+00    0.8777184589E-01    0.2123399247E+00
    0.4700000000E+05    0.3153243420E-01    0.6991172492E-02    0.6957446785E+00    0.8815685061E-01    0.2168277130E+00
    0.4900000000E+05    0.3107508713E-01    0.6897743554E-02    0.6957559787E+00    0.8848955831E-01    0.2211871841E+00
    0.1000000000E+05    0.3267699544E-01    0.7032680372E-02    0.6947367106E+00    0.5702424955E-01    0.9223795969E-01
    0.3000000000E+05    0.3523298232E-01    0.7724514513E-02    0.6955885720E+00    0.8245703349E-01    0.1734567531E+00
    0.5000000000E+05    0.3084749744E-01    0.6851113434E-02    0.6957612932E+00    0.8863790029E-01    0.2233213370E+00
    0.7000000000E+05    0.2658917894E-01    0.5965517456E-02    0.6958359697E+00    0.8980452201E-01    0.2608336157E+00
    0.9000000000E+05    0.2302395706E-01    0.5209226282E-02    0.6958777519E+00    0.8898070607E-01    0.2911539786E+00
    0.1100000000E+06    0.2009735740E-01    0.4579997101E-02    0.6959045041E+00    0.8724252501E-01    0.3165833117E+00
    0.1300000000E+06    0.1768722035E-01    0.4056379045E-02    0.6959231265E+00    0.8507013747E-01    0.3384066315E+00
    0.1500000000E+06    0.1568513140E-01    0.3617652637E-02    0.6959368513E+00    0.8270541287E-01    0.3574382767E+00
    0.1700000000E+06    0.1400582000E-01    0.3246934913E-02    0.6959473954E+00    0.8027886990E-01    0.3742368326E+00
    0.1900000000E+06    0.1258394618E-01    0.2931010421E-02    0.6959557556E+00    0.7786354115E-01    0.3892065259E+00
    0.2100000000E+06    0.1136948922E-01    0.2659607974E-02    0.6959625510E+00    0.7550072307E-01    0.4026513205E+00
    0.2300000000E+06    0.1032387669E-01    0.2424713655E-02    0.6959681861E+00    0.7321336621E-01    0.4148064659E+00
    0.2500000000E+06    0.9417066565E-02    0.2220025523E-02    0.6959729370E+00    0.7101348062E-01    0.4258581651E+00
    0.2700000000E+06    0.8625411806E-02    0.2040542424E-02    0.6959769982E+00    0.6890642491E-01    0.4359564850E+00
    0.2900000000E+06    0.7930104853E-02    0.1882258304E-02    0.6959805110E+00    0.6689347916E-01    0.4452241829E+00
    0.3100000000E+06    0.7316039032E-02    0.1741935027E-02    0.6959835804E+00    0.6497342963E-01    0.4537629427E+00
    0.3300000000E+06    0.6770967879E-02    0.1616932595E-02    0.6959862862E+00    0.6314356447E-01    0.4616579021E+00
    0.3500000000E+06    0.6284878106E-02    0.1505081241E-02    0.6959886898E+00    0.6140030781E-01    0.4689810134E+00
    0.3700000000E+06    0.5849516991E-02    0.1404584198E-02    0.6959908399E+00    0.5973962687E-01    0.4757935872E+00
    0.3900000000E+06    0.5458032469E-02    0.1313943095E-02    0.6959927749E+00    0.5815729396E-01    0.4821482492E+00
    0.4100000000E+06    0.5104696328E-02    0.1231900206E-02    0.6959945258E+00    0.5664905421E-01    0.4880904679E+00
    0.4300000000E+06    0.4784689294E-02    0.1157393342E-02    0.6959961181E+00    0.5521073150E-01    0.4936597608E+00
    0.4500000000E+06    0.4493932701E-02    0.1089520324E-02    0.6959975726E+00    0.5383829350E-01    0.4988906597E+00
    0.4700000000E+06    0.4228955518E-02    0.1027510789E-02    0.6959989067E+00    0.5252788964E-01    0.5038134884E+00
    0.4900000000E+06    0.3986788510E-02    0.9707036380E-03    0.6960001348E+00    0.5127587098E-01    0.5084549970E+00
    0.1000000000E+06    0.2148847205E-01    0.4880000234E-02    0.6958924467E+00    0.8818794288E-01    0.3043848322E+00
    0.3000000000E+06    0.7613741016E-02    0.1810028906E-02    0.6959820957E+00    0.6592198554E-01    0.4495790152E+00
    0.5000000000E+06    0.3873446903E-02    0.9440696966E-03    0.6960007131E+00    0.5067067307E-01    0.5106777685E+00
    0.7000000000E+06    0.2341465273E-02    0.5806622048E-03    0.6960088940E+00    0.4090728404E-01    0.5449015653E+00
    0.9000000000E+06    0.1566862008E-02    0.3937732012E-03    0.6960135303E+00    0.3422643929E-01    0.5668438661E+00
    0.1100000000E+07    0.1121519432E-02    0.2849091610E-03    0.6960165308E+00    0.2939098674E-01    0.5821199888E+00
    0.1300000000E+07    0.8421739777E-03    0.2158898612E-03    0.6960186389E+00    0.2573697644E-01    0.5933688935E+00
    0.1500000000E+07    0.6555282167E-03    0.1693562459E-03    0.6960202053E+00    0.2288183835E-01    0.6019976112E+00
    0.1700000000E+07    0.5246923523E-03    0.1364809523E-03    0.6960214174E+00    0.2059099961E-01    0.6088257372E+00
    0.1900000000E+07    0.4294543126E-03    0.1123849012E-03    0.6960223848E+00    0.1871307558E-01    0.6143632366E+00
    0.2100000000E+07    0.3579862991E-03    0.9419113756E-04    0.6960231758E+00    0.1714616562E-01    0.6189441070E+00
    0.2300000000E+07    0.3029929422E-03    0.8011318783E-04    0.6960238352E+00    0.1581923482E-01    0.6227962698E+00
    0.2500000000E+07    0.2597764313E-03    0.6899370681E-04    0.6960243940E+00    0.1468128499E-01    0.6260805889E+00
    0.2700000000E+07    0.2252009558E-03    0.6005592773E-04    0.6960248738E+00    0.1369477334E-01    0.6289138431E+00
    0.2900000000E+07    0.1971086214E-03    0.5276264353E-04    0.6960252905E+00    0.1283145930E-01    0.6313828589E+00
    0.3100000000E+07    0.1739751401E-03    0.4673263169E-04    0.6960256561E+00    0.1206969726E-01    0.6335535333E+00
    0.3300000000E+07    0.1546990644E-03    0.4168924285E-04    0.6960259795E+00    0.1139262104E-01    0.6354767805E+00
    0.3500000000E+07    0.1384684925E-03    0.3742773931E-04    0.6960262677E+00    0.1078689597E-01    0.6371925604E+00
    0.3700000000E+07    0.1246743319E-03    0.3379395255E-04    0.6960265263E+00    0.1024184196E-01    0.6387326731E+00
    0.3900000000E+07    0.1128524259E-03    0.3066998665E-04    0.6960267597E+00    0.9748805216E-02    0.6401227400E+00
    0.4100000000E+07    0.1026440653E-03    0.2796442777E-04    0.6960269715E+00    0.9300700098E-02    0.6413836347E+00
    0.4300000000E+07    0.9376850324E-04    0.2560550587E-04    0.6960271646E+00    0.8891669768E-02    0.6425325331E+00
    0.4500000000E+07    0.8600347707E-04    0.2353623291E-04    0.6960273413E+00    0.8516831211E-02    0.6435836979E+00
    0.4700000000E+07    0.7917117925E-04    0.2171089011E-04    0.6960275037E+00    0.8172081161E-02    0.6445490701E+00
    0.4900000000E+07    0.7312800209E-04    0.2009245272E-04    0.6960276536E+00    0.7853946610E-02    0.6454387233E+00
    0.1000000000E+07    0.1316407283E-02    0.3327046209E-03    0.6960151748E+00    0.3162844467E-01    0.5751094588E+00
    0.3000000000E+07    0.1849989285E-03    0.4960901834E-04    0.6960254791E+00    0.1243903362E-01    0.6325020100E+00
    0.5000000000E+07    0.7036489651E-04    0.1935114936E-04    0.6960277242E+00    0.7703917983E-02    0.6458578806E+00
    0.7000000000E+07    0.3700444485E-04    0.1031976467E-04    0.6960287300E+00    0.5569678930E-02    0.6517941705E+00
    0.9000000000E+07    0.2291581089E-04    0.6441955710E-05    0.6960293040E+00    0.4357088776E-02    0.6551459808E+00
    0.1100000000E+08    0.1566885626E-04    0.4423076677E-05    0.6960296750E+00    0.3575839000E-02    0.6572980581E+00
    0.1300000000E+08    0.1145192015E-04    0.3237401511E-05    0.6960299338E+00    0.3030834666E-02    0.6587961580E+00
    0.1500000000E+08    0.8781120332E-05    0.2480962023E-05    0.6960301239E+00    0.2629148121E-02    0.6598987462E+00
    0.1700000000E+08    0.6981461550E-05    0.1968271186E-05    0.6960302687E+00    0.2320906250E-02    0.6607440078E+00
    0.1900000000E+08    0.5710035526E-05    0.1604358669E-05    0.6960303820E+00    0.2076953963E-02    0.6614125046E+00
    0.2100000000E+08    0.4777602730E-05    0.1336462039E-05    0.6960304726E+00    0.1879112695E-02    0.6619543666E+00
    0.2300000000E+08    0.4072768622E-05    0.1133342311E-05    0.6960305461E+00    0.1715461448E-02    0.6624024166E+00
    0.2500000000E+08    0.3526477974E-05    0.9755350186E-06    0.6960306066E+00    0.1577858885E-02    0.6627790435E+00
    0.2700000000E+08    0.3094064015E-05    0.8503930629E-06    0.6960306569E+00    0.1460556109E-02    0.6631000414E+00
