  Pressure (Pa) 22mC5-500 (mol/kg) 23mC5-500 (mol/kg) 24mC5-500 (mol/kg) 2mC6-500 (mol/kg) 3mC6-500 (mol/kg)
    0.1000000000E+01    0.2160541419E-04    0.1792699240E-05    0.1741108335E+00    0.2063273543E-04    0.5210744895E-05
    0.3000000000E+01    0.4906500326E-04    0.4080895673E-05    0.3481362605E+00    0.4976238019E-04    0.1563020303E-04
    0.5000000000E+01    0.6965185689E-04    0.5807104791E-05    0.4351199777E+00    0.7436888668E-04    0.2604699685E-04
    0.7000000000E+01    0.8798224583E-04    0.7350905698E-05    0.4873023393E+00    0.9786048950E-04    0.3646114453E-04
    0.9000000000E+01    0.1054035539E-03    0.8822266553E-05    0.5220878984E+00    0.1210694654E-03    0.4687265354E-04
    0.1100000000E+02    0.1224181700E-03    0.1026184455E-04    0.5469337031E+00    0.1442432145E-03    0.5728152803E-04
    0.1300000000E+02    0.1392425551E-03    0.1168698454E-04    0.5655676540E+00    0.1674592135E-03    0.6768777082E-04
    0.1500000000E+02    0.1559789730E-03    0.1310578248E-04    0.5800605805E+00    0.1907385536E-03    0.7809138413E-04
    0.1700000000E+02    0.1726786561E-03    0.1452223222E-04    0.5916548870E+00    0.2140825115E-03    0.8849236983E-04
    0.1900000000E+02    0.1893681327E-03    0.1593835883E-04    0.6011411528E+00    0.2374855818E-03    0.9889072960E-04
    0.2100000000E+02    0.2060612547E-03    0.1735518737E-04    0.6090464104E+00    0.2609403859E-03    0.1092864650E-03
    0.2300000000E+02    0.2227650900E-03    0.1877321433E-04    0.6157355187E+00    0.2844395366E-03    0.1196795775E-03
    0.2500000000E+02    0.2394829695E-03    0.2019264956E-04    0.6214690858E+00    0.3079763024E-03    0.1300700686E-03
    0.2700000000E+02    0.2562161319E-03    0.2161354569E-04    0.6264382215E+00    0.3315447861E-03    0.1404579396E-03
    0.2900000000E+02    0.2729646402E-03    0.2303586954E-04    0.6307862567E+00    0.3551399132E-03    0.1508431920E-03
    0.3100000000E+02    0.2897279064E-03    0.2445954249E-04    0.6346227964E+00    0.3787573491E-03    0.1612258270E-03
    0.3300000000E+02    0.3065049969E-03    0.2588446360E-04    0.6380330887E+00    0.4023934004E-03    0.1716058461E-03
    0.3500000000E+02    0.3232948115E-03    0.2731052293E-04    0.6410844344E+00    0.4260449170E-03    0.1819832504E-03
    0.3700000000E+02    0.3400961897E-03    0.2873760916E-04    0.6438306742E+00    0.4497092067E-03    0.1923580414E-03
    0.3900000000E+02    0.3569079722E-03    0.3016561396E-04    0.6463153932E+00    0.4733839609E-03    0.2027302204E-03
    0.4100000000E+02    0.3737290363E-03    0.3159443423E-04    0.6485742522E+00    0.4970671931E-03    0.2130997886E-03
    0.4300000000E+02    0.3905583147E-03    0.3302397322E-04    0.6506367101E+00    0.5207571866E-03    0.2234667473E-03
    0.4500000000E+02    0.4073948051E-03    0.3445414099E-04    0.6525273159E+00    0.5444524527E-03    0.2338310978E-03
    0.4700000000E+02    0.4242375729E-03    0.3588485435E-04    0.6542666909E+00    0.5681516945E-03    0.2441928415E-03
    0.4900000000E+02    0.4410857513E-03    0.3731603663E-04    0.6558722841E+00    0.5918537787E-03    0.2545519795E-03
    0.1000000000E+02    0.1139443129E-03    0.9544631208E-05    0.5354664979E+00    0.1326538558E-03    0.5207741991E-04
    0.3000000000E+02    0.2813444814E-03    0.2374754336E-04    0.6327626511E+00    0.3669460872E-03    0.1560348366E-03
    0.5000000000E+02    0.4495116166E-03    0.3803178135E-04    0.6566296450E+00    0.6037055710E-03    0.2597305718E-03
    0.7000000000E+02    0.6181493468E-03    0.5235701948E-04    0.6674199305E+00    0.8407037685E-03    0.3631659349E-03
    0.9000000000E+02    0.7867236706E-03    0.6667679497E-04    0.6735697786E+00    0.1077347775E-02    0.4663421916E-03
    0.1100000000E+03    0.9549834475E-03    0.8096977953E-04    0.6775429994E+00    0.1313430523E-02    0.5692605928E-03
    0.1300000000E+03    0.1122799348E-02    0.9522511766E-04    0.6803214610E+00    0.1548862839E-02    0.6719223789E-03
    0.1500000000E+03    0.1290098665E-02    0.1094367545E-03    0.6823736583E+00    0.1783601203E-02    0.7743287812E-03
    0.1700000000E+03    0.1456837826E-02    0.1236010839E-03    0.6839514519E+00    0.2017622797E-02    0.8764810223E-03
    0.1900000000E+03    0.1622989543E-02    0.1377158601E-03    0.6852023104E+00    0.2250915307E-02    0.9783803161E-03
    0.2100000000E+03    0.1788536252E-02    0.1517796455E-03    0.6862183183E+00    0.2483472203E-02    0.1080027869E-02
    0.2300000000E+03    0.1953466501E-02    0.1657915087E-03    0.6870599453E+00    0.2715290358E-02    0.1181424878E-02
    0.2500000000E+03    0.2117772854E-02    0.1797508495E-03    0.6877685416E+00    0.2946368745E-02    0.1282572533E-02
    0.2700000000E+03    0.2281450604E-02    0.1936572923E-03    0.6883733410E+00    0.3176707689E-02    0.1383472016E-02
    0.2900000000E+03    0.2444496956E-02    0.2075106183E-03    0.6888955962E+00    0.3406308417E-02    0.1484124502E-02
    0.3100000000E+03    0.2606910483E-02    0.2213107208E-03    0.6893511281E+00    0.3635172768E-02    0.1584531156E-02
    0.3300000000E+03    0.2768690768E-02    0.2350575754E-03    0.6897519573E+00    0.3863303012E-02    0.1684693138E-02
    0.3500000000E+03    0.2929838139E-02    0.2487512185E-03    0.6901073802E+00    0.4090701723E-02    0.1784611598E-02
    0.3700000000E+03    0.3090353494E-02    0.2623917329E-03    0.6904246998E+00    0.4317371695E-02    0.1884287680E-02
    0.3900000000E+03    0.3250238167E-02    0.2759792365E-03    0.6907097325E+00    0.4543315879E-02    0.1983722520E-02
    0.4100000000E+03    0.3409493827E-02    0.2895138749E-03    0.6909671680E+00    0.4768537345E-02    0.2082917247E-02
    0.4300000000E+03    0.3568122412E-02    0.3029958147E-03    0.6912008299E+00    0.4993039246E-02    0.2181872981E-02
    0.4500000000E+03    0.3726126063E-02    0.3164252395E-03    0.6914138664E+00    0.5216824797E-02    0.2280590838E-02
    0.4700000000E+03    0.3883507092E-02    0.3298023463E-03    0.6916088935E+00    0.5439897256E-02    0.2379071923E-02
    0.4900000000E+03    0.4040267939E-02    0.3431273425E-03    0.6917881025E+00    0.5662259912E-02    0.2477317337E-02
    0.1000000000E+03    0.8709027760E-03    0.7382746910E-04    0.6757492278E+00    0.1195466423E-02    0.5178335463E-03
    0.3000000000E+03    0.2525782869E-02    0.2144173256E-03    0.6891308769E+00    0.3520832506E-02    0.1534358486E-02
    0.5000000000E+03    0.4118416586E-02    0.3497703663E-03    0.6918723648E+00    0.5773176098E-02    0.2526352008E-02
    0.7000000000E+03    0.5649490279E-02    0.4799508156E-03    0.6930543542E+00    0.7955048582E-02    0.3494936209E-02
    0.9000000000E+03    0.7121757219E-02    0.6051907307E-03    0.6937129335E+00    0.1006973026E-01    0.4441162927E-02
    0.1100000000E+04    0.8538081777E-02    0.7257303630E-03    0.6941327770E+00    0.1212038298E-01    0.5366019278E-02
    0.1300000000E+04    0.9901222869E-02    0.8418007981E-03    0.6944237951E+00    0.1410999098E-01    0.6270432636E-02
    0.1500000000E+04    0.1121379251E-01    0.9536207056E-03    0.6946374036E+00    0.1604136046E-01    0.7155275150E-02
    0.1700000000E+04    0.1247825081E-01    0.1061395999E-02    0.6948008685E+00    0.1791712907E-01    0.8021367860E-02
    0.1900000000E+04    0.1369691104E-01    0.1165320293E-02    0.6949299952E+00    0.1973977696E-01    0.8869484440E-02
    0.2100000000E+04    0.1487194778E-01    0.1265575598E-02    0.6950345778E+00    0.2151163788E-01    0.9700354619E-02
    0.2300000000E+04    0.1600540572E-01    0.1362333067E-02    0.6951210085E+00    0.2323490957E-01    0.1051466731E-01
    0.2500000000E+04    0.1709920848E-01    0.1455753731E-02    0.6951936372E+00    0.2491166341E-01    0.1131307345E-01
    0.2700000000E+04    0.1815516689E-01    0.1545989197E-02    0.6952555265E+00    0.2654385331E-01    0.1209618866E-01
    0.2900000000E+04    0.1917498685E-01    0.1633182305E-02    0.6953088951E+00    0.2813332395E-01    0.1286459562E-01
    0.3100000000E+04    0.2016027655E-01    0.1717467731E-02    0.6953553899E+00    0.2968181823E-01    0.1361884629E-01
    0.3300000000E+04    0.2111255320E-01    0.1798972546E-02    0.6953962592E+00    0.3119098429E-01    0.1435946392E-01
    0.3500000000E+04    0.2203324926E-01    0.1877816743E-02    0.6954324659E+00    0.3266238181E-01    0.1508694498E-01
    0.3700000000E+04    0.2292371809E-01    0.1954113703E-02    0.6954647653E+00    0.3409748790E-01    0.1580176082E-01
    0.3900000000E+04    0.2378523930E-01    0.2027970645E-02    0.6954937578E+00    0.3549770251E-01    0.1650435930E-01
    0.4100000000E+04    0.2461902359E-01    0.2099489027E-02    0.6955199266E+00    0.3686435342E-01    0.1719516627E-01
    0.4300000000E+04    0.2542621726E-01    0.2168764926E-02    0.6955436654E+00    0.3819870087E-01    0.1787458690E-01
    0.4500000000E+04    0.2620790635E-01    0.2235889382E-02    0.6955652977E+00    0.3950194175E-01    0.1854300697E-01
    0.4700000000E+04    0.2696512050E-01    0.2300948720E-02    0.6955850921E+00    0.4077521363E-01    0.1920079402E-01
    0.4900000000E+04    0.2769883653E-01    0.2364024847E-02    0.6956032735E+00    0.4201959836E-01    0.1984829848E-01
    0.1000000000E+04    0.7836736611E-02    0.6660333628E-03    0.6939437735E+00    0.1110286948E-01    0.4906203092E-02
    0.3000000000E+04    0.1967185110E-01    0.1675680364E-02    0.6953329159E+00    0.2891258798E-01    0.1324345714E-01
    0.5000000000E+04    0.2805717435E-01    0.2394843663E-02    0.6956118197E+00    0.4263128172E-01    0.2016829979E-01
    0.7000000000E+04    0.3419227760E-01    0.2924047925E-02    0.6957315402E+00    0.5357389657E-01    0.2610210491E-01
    0.9000000000E+04    0.3878930065E-01    0.3323062384E-02    0.6957981256E+00    0.6254075082E-01    0.3130772952E-01
    0.1100000000E+05    0.4229553692E-01    0.3629489635E-02    0.6958405361E+00    0.7004756528E-01    0.3595853947E-01
    0.1300000000E+05    0.4500491558E-01    0.3868081685E-02    0.6958699198E+00    0.7644214047E-01    0.4017405902E-01
    0.1500000000E+05    0.4711783013E-01    0.4055743733E-02    0.6958914827E+00    0.8196790193E-01    0.4403972363E-01
    0.1700000000E+05    0.4877514393E-01    0.4204380760E-02    0.6959079824E+00    0.8680056402E-01    0.4761846346E-01
    0.1900000000E+05    0.5007845895E-01    0.4322595798E-02    0.6959210160E+00    0.9107031564E-01    0.5095782160E-01
    0.2100000000E+05    0.5110268913E-01    0.4416744434E-02    0.6959315727E+00    0.9487579324E-01    0.5409450380E-01
    0.2300000000E+05    0.5190413018E-01    0.4491612266E-02    0.6959402980E+00    0.9829318675E-01    0.5705738552E-01
    0.2500000000E+05    0.5252579318E-01    0.4550863116E-02    0.6959476308E+00    0.1013823509E+00    0.5986955770E-01
    0.2700000000E+05    0.5300102118E-01    0.4597343272E-02    0.6959538802E+00    0.1041910136E+00    0.6254975408E-01
    0.2900000000E+05    0.5335599743E-01    0.4633292702E-02    0.6959592700E+00    0.1067577402E+00    0.6511336939E-01
    0.3100000000E+05    0.5361151987E-01    0.4660494657E-02    0.6959639664E+00    0.1091140632E+00    0.6757320008E-01
    0.3300000000E+05    0.5378427918E-01    0.4680383528E-02    0.6959680952E+00    0.1112860413E+00    0.6993999277E-01
    0.3500000000E+05    0.5388779413E-01    0.4694123874E-02    0.6959717536E+00    0.1132954170E+00    0.7222285678E-01
    0.3700000000E+05    0.5393310596E-01    0.4702669163E-02    0.6959750178E+00    0.1151604918E+00    0.7442957893E-01
    0.3900000000E+05    0.5392930081E-01    0.4706806010E-02    0.6959779483E+00    0.1168967931E+00    0.7656686676E-01
    0.4100000000E+05    0.5388390743E-01    0.4707187905E-02    0.6959805938E+00    0.1185175919E+00    0.7864053891E-01
    0.4300000000E+05    0.5380320329E-01    0.4704361191E-02    0.6959829942E+00    0.1200343069E+00    0.8065567546E-01
    0.4500000000E+05    0.5369245253E-01    0.4698785294E-02    0.6959851819E+00    0.1214568240E+00    0.8261673814E-01
    0.4700000000E+05    0.5355609270E-01    0.4690848616E-02    0.6959871841E+00    0.1227937509E+00    0.8452766710E-01
    0.4900000000E+05    0.5339788254E-01    0.4680881124E-02    0.6959890235E+00    0.1240526227E+00    0.8639195960E-01
    0.1000000000E+05    0.4065767143E-01    0.3486073913E-02    0.6958214471E+00    0.6645190885E-01    0.3369403830E-01
    0.3000000000E+05    0.5349506329E-01    0.4647890331E-02    0.6959616962E+00    0.1079604604E+00    0.6635554350E-01
    0.5000000000E+05    0.5331160208E-01    0.4675225478E-02    0.6959898882E+00    0.1246548909E+00    0.8730760506E-01
    0.7000000000E+05    0.5100612523E-01    0.4505759178E-02    0.6960020118E+00    0.1338583508E+00    0.1037786910E+00
    0.9000000000E+05    0.4833053925E-01    0.4295278477E-02    0.6960087659E+00    0.1396075376E+00    0.1177516904E+00
    0.1100000000E+06    0.4571413183E-01    0.4083881543E-02    0.6960130745E+00    0.1434184005E+00    0.1300739188E+00
    0.1300000000E+06    0.4327244620E-01    0.3883427067E-02    0.6960160638E+00    0.1460113571E+00    0.1411955013E+00
    0.1500000000E+06    0.4102829329E-01    0.3697086201E-02    0.6960182604E+00    0.1477812012E+00    0.1513890045E+00
    0.1700000000E+06    0.3897461086E-01    0.3525045671E-02    0.6960199433E+00    0.1489659927E+00    0.1608345370E+00
    0.1900000000E+06    0.3709517909E-01    0.3366451541E-02    0.6960212742E+00    0.1497194537E+00    0.1696587516E+00
    0.2100000000E+06    0.3537198572E-01    0.3220134852E-02    0.6960223533E+00    0.1501460698E+00    0.1779549437E+00
    0.2300000000E+06    0.3378786620E-01    0.3084893487E-02    0.6960232462E+00    0.1503197401E+00    0.1857943498E+00
    0.2500000000E+06    0.3232735581E-01    0.2959599370E-02    0.6960239973E+00    0.1502944087E+00    0.1932329365E+00
    0.2700000000E+06    0.3097684698E-01    0.2843233729E-02    0.6960246380E+00    0.1501104774E+00    0.2003157054E+00
    0.2900000000E+06    0.2972448359E-01    0.2734892385E-02    0.6960251911E+00    0.1497988542E+00    0.2070795423E+00
    0.3100000000E+06    0.2855996869E-01    0.2633778957E-02    0.6960256734E+00    0.1493836081E+00    0.2135551719E+00
    0.3300000000E+06    0.2747435763E-01    0.2539193861E-02    0.6960260979E+00    0.1488837668E+00    0.2197685412E+00
    0.3500000000E+06    0.2645986472E-01    0.2450522487E-02    0.6960264742E+00    0.1483145682E+00    0.2257418225E+00
    0.3700000000E+06    0.2550969297E-01    0.2367224027E-02    0.6960268103E+00    0.1476883514E+00    0.2314941589E+00
    0.3900000000E+06    0.2461788790E-01    0.2288821458E-02    0.6960271123E+00    0.1470152053E+00    0.2370422275E+00
    0.4100000000E+06    0.2377921397E-01    0.2214892811E-02    0.6960273851E+00    0.1463034489E+00    0.2424006739E+00
    0.4300000000E+06    0.2298905065E-01    0.2145063662E-02    0.6960276328E+00    0.1455599927E+00    0.2475824507E+00
    0.4500000000E+06    0.2224330514E-01    0.2079000727E-02    0.6960278587E+00    0.1447906143E+00    0.2525990866E+00
    0.4700000000E+06    0.2153833912E-01    0.2016406402E-02    0.6960280656E+00    0.1440001723E+00    0.2574609015E+00
    0.4900000000E+06    0.2087090709E-01    0.1957014119E-02    0.6960282557E+00    0.1431927728E+00    0.2621771816E+00
    0.1000000000E+06    0.4700425394E-01    0.4188634023E-02    0.6960111344E+00    0.1416994561E+00    0.1240853177E+00
    0.3000000000E+06    0.2913183345E-01    0.2683478034E-02    0.6960254402E+00    0.1496028934E+00    0.2103516626E+00
    0.5000000000E+06    0.2055034656E-01    0.1928442942E-02    0.6960283452E+00    0.1427838243E+00    0.2644834010E+00
    0.7000000000E+06    0.1554369331E-01    0.1478153576E-02    0.6960296028E+00    0.1343294237E+00    0.3046446027E+00
    0.9000000000E+06    0.1227801214E-01    0.1179919832E-02    0.6960303072E+00    0.1261238868E+00    0.3364289470E+00
    0.1100000000E+07    0.9995410450E-02    0.9689784163E-03    0.6960307584E+00    0.1185756918E+00    0.3625251096E+00
    0.1300000000E+07    0.8322135518E-02    0.8128342587E-03    0.6960310726E+00    0.1117407885E+00    0.3844830291E+00
    0.1500000000E+07    0.7051661275E-02    0.6932925746E-03    0.6960313043E+00    0.1055757333E+00    0.4032928431E+00
    0.1700000000E+07    0.6060424302E-02    0.5993496184E-03    0.6960314822E+00    0.1000113265E+00    0.4196307102E+00
    0.1900000000E+07    0.5270007006E-02    0.5239580188E-03    0.6960316232E+00    0.9497650739E-01    0.4339806471E+00
    0.2100000000E+07    0.4628316943E-02    0.4623989713E-03    0.6960317379E+00    0.9040607416E-01    0.4467015495E+00
    0.2300000000E+07    0.4099460845E-02    0.4113981818E-03    0.6960318329E+00    0.8624267977E-01    0.4580669470E+00
    0.2500000000E+07    0.3657953711E-02    0.3686161464E-03    0.6960319129E+00    0.8243675862E-01    0.4682899689E+00
    0.2700000000E+07    0.3285239983E-02    0.3323397219E-03    0.6960319813E+00    0.7894575515E-01    0.4775397418E+00
    0.2900000000E+07    0.2967517064E-02    0.3012879048E-03    0.6960320404E+00    0.7573318471E-01    0.4859525546E+00
    0.3100000000E+07    0.2694326335E-02    0.2744853543E-03    0.6960320920E+00    0.7276772827E-01    0.4936396920E+00
    0.3300000000E+07    0.2457614050E-02    0.2511776373E-03    0.6960321374E+00    0.7002242918E-01    0.5006930679E+00
    0.3500000000E+07    0.2251089438E-02    0.2307730067E-03    0.6960321778E+00    0.6747400657E-01    0.5071893650E+00
    0.3700000000E+07    0.2069776169E-02    0.2128015287E-03    0.6960322138E+00    0.6510227843E-01    0.5131931323E+00
    0.3900000000E+07    0.1909692786E-02    0.1968858373E-03    0.6960322462E+00    0.6288968096E-01    0.5187591409E+00
    0.4100000000E+07    0.1767621043E-02    0.1827198456E-03    0.6960322755E+00    0.6082086922E-01    0.5239342012E+00
    0.4300000000E+07    0.1640935349E-02    0.1700530142E-03    0.6960323021E+00    0.5888238531E-01    0.5287585822E+00
    0.4500000000E+07    0.1527475415E-02    0.1586785612E-03    0.6960323263E+00    0.5706238231E-01    0.5332671328E+00
    0.4700000000E+07    0.1425449970E-02    0.1484245181E-03    0.6960323485E+00    0.5535039384E-01    0.5374901762E+00
    0.4900000000E+07    0.1333363093E-02    0.1391468649E-03    0.6960323690E+00    0.5373714131E-01    0.5414542314E+00
    0.1000000000E+07    0.1104263669E-01    0.1066032044E-02    0.6960305550E+00    0.1222602894E+00    0.3500737749E+00
    0.3000000000E+07    0.2825906233E-02    0.2874070161E-03    0.6960320670E+00    0.7422134566E-01    0.4898806886E+00
    0.5000000000E+07    0.1290645617E-02    0.1348354852E-03    0.6960323786E+00    0.5296492581E-01    0.5433465316E+00
    0.7000000000E+07    0.7379415626E-03    0.7852341374E-04    0.6960325134E+00    0.4111585203E-01    0.5719943877E+00
    0.9000000000E+07    0.4771617585E-03    0.5149063388E-04    0.6960325882E+00    0.3357369555E-01    0.5898886517E+00
    0.1100000000E+08    0.3336373245E-03    0.3641325930E-04    0.6960326355E+00    0.2835545708E-01    0.6021329479E+00
    0.1300000000E+08    0.2462903792E-03    0.2713725616E-04    0.6960326679E+00    0.2453230593E-01    0.6110386693E+00
    0.1500000000E+08    0.1892119097E-03    0.2101985391E-04    0.6960326912E+00    0.2161175346E-01    0.6178069328E+00
    0.1700000000E+08    0.1498777324E-03    0.1677059598E-04    0.6960327086E+00    0.1930850508E-01    0.6231242357E+00
    0.1900000000E+08    0.1216305565E-03    0.1369761441E-04    0.6960327220E+00    0.1744593006E-01    0.6274115234E+00
    0.2100000000E+08    0.1006656775E-03    0.1140252870E-04    0.6960327326E+00    0.1590885282E-01    0.6309412995E+00
    0.2300000000E+08    0.8468053284E-04    0.9642637913E-05    0.6960327410E+00    0.1461897906E-01    0.6338977640E+00
    0.2500000000E+08    0.7221538524E-04    0.8263158331E-05    0.6960327478E+00    0.1352123590E-01    0.6364098997E+00
    0.2700000000E+08    0.6230851712E-04    0.7161559989E-05    0.6960327533E+00    0.1257576205E-01    0.6385707179E+00
