  Pressure (Pa) 22mC5-500 (mol/kg) 23mC5-500 (mol/kg) 24mC5-500 (mol/kg) 2mC6-500 (mol/kg) 3mC6-500 (mol/kg)
    0.1000000000E+01    0.2550732878E-04    0.9257900505E-06    0.1514041468E+00    0.2120649116E-04    0.1042138566E-04
    0.3000000000E+01    0.5922491586E-04    0.2153752952E-05    0.3164950888E+00    0.5180230655E-04    0.3125944798E-04
    0.5000000000E+01    0.8431314606E-04    0.3072396871E-05    0.4047694998E+00    0.7720337993E-04    0.5209131041E-04
    0.7000000000E+01    0.1062050188E-03    0.3877483276E-05    0.4597237837E+00    0.1010487936E-03    0.7291700941E-04
    0.9000000000E+01    0.1266830809E-03    0.4632867065E-05    0.4972289915E+00    0.1243808076E-03    0.9373656142E-04
    0.1100000000E+02    0.1464683914E-03    0.5364211275E-05    0.5244574989E+00    0.1475576388E-03    0.1145499762E-03
    0.1300000000E+02    0.1658933128E-03    0.6083258928E-05    0.5451243923E+00    0.1707138769E-03    0.1353572607E-03
    0.1500000000E+02    0.1851251322E-03    0.6795871224E-05    0.5613465955E+00    0.1939007941E-03    0.1561584205E-03
    0.1700000000E+02    0.2042533712E-03    0.7505153816E-05    0.5744188079E+00    0.2171360573E-03    0.1769534603E-03
    0.1900000000E+02    0.2233280155E-03    0.8212819956E-05    0.5851773737E+00    0.2404232408E-03    0.1977423846E-03
    0.2100000000E+02    0.2423777539E-03    0.8919837997E-05    0.5941866286E+00    0.2637600387E-03    0.2185251975E-03
    0.2300000000E+02    0.2614192820E-03    0.9626760054E-05    0.6018411694E+00    0.2871418785E-03    0.2393019028E-03
    0.2500000000E+02    0.2804623054E-03    0.1033389784E-04    0.6084252088E+00    0.3105635425E-03    0.2600725044E-03
    0.2700000000E+02    0.2995123486E-03    0.1104142080E-04    0.6141486515E+00    0.3340198883E-03    0.2808370061E-03
    0.2900000000E+02    0.3185723878E-03    0.1174941282E-04    0.6191698898E+00    0.3575061487E-03    0.3015954113E-03
    0.3100000000E+02    0.3376438284E-03    0.1245790588E-04    0.6236106923E+00    0.3810180347E-03    0.3223477239E-03
    0.3300000000E+02    0.3567271025E-03    0.1316690052E-04    0.6275662106E+00    0.4045517468E-03    0.3430939472E-03
    0.3500000000E+02    0.3758220428E-03    0.1387637846E-04    0.6311118758E+00    0.4281039450E-03    0.3638340849E-03
    0.3700000000E+02    0.3949281184E-03    0.1458631051E-04    0.6343082555E+00    0.4516717041E-03    0.3845681404E-03
    0.3900000000E+02    0.4140445862E-03    0.1529666157E-04    0.6372045428E+00    0.4752524646E-03    0.4052961173E-03
    0.4100000000E+02    0.4331705880E-03    0.1600739377E-04    0.6398411073E+00    0.4988439856E-03    0.4260180190E-03
    0.4300000000E+02    0.4523052127E-03    0.1671846846E-04    0.6422513880E+00    0.5224443028E-03    0.4467338490E-03
    0.4500000000E+02    0.4714475372E-03    0.1742984744E-04    0.6444633197E+00    0.5460516901E-03    0.4674436107E-03
    0.4700000000E+02    0.4905966510E-03    0.1814149372E-04    0.6465004208E+00    0.5696646279E-03    0.4881473076E-03
    0.4900000000E+02    0.5097516721E-03    0.1885337198E-04    0.6483826327E+00    0.5932817741E-03    0.5088449431E-03
    0.1000000000E+02    0.1366360930E-03    0.5000615099E-05    0.5118444083E+00    0.1359773086E-03    0.1041440355E-03
    0.3000000000E+02    0.3281066383E-03    0.1210359612E-04    0.6214563676E+00    0.3692591372E-03    0.3119723290E-03
    0.5000000000E+02    0.5193311326E-03    0.1920938755E-04    0.6492710731E+00    0.6050915487E-03    0.5191914889E-03
    0.7000000000E+02    0.7110496839E-03    0.2633480971E-04    0.6619706827E+00    0.8412817301E-03    0.7258050178E-03
    0.9000000000E+02    0.9026648227E-03    0.3345660652E-04    0.6692439048E+00    0.1077110197E-02    0.9318163096E-03
    0.1100000000E+03    0.1093859949E-02    0.4056288113E-04    0.6739565859E+00    0.1312312985E-02    0.1137228718E-02
    0.1300000000E+03    0.1284464745E-02    0.4764732518E-04    0.6772585684E+00    0.1546773664E-02    0.1342045564E-02
    0.1500000000E+03    0.1474381312E-02    0.5470634498E-04    0.6797008505E+00    0.1780434580E-02    0.1546270145E-02
    0.1700000000E+03    0.1663550259E-02    0.6173777508E-04    0.6815805302E+00    0.2013265199E-02    0.1749905727E-02
    0.1900000000E+03    0.1851934166E-02    0.6874025901E-04    0.6830719461E+00    0.2245248902E-02    0.1952955555E-02
    0.2100000000E+03    0.2039508916E-02    0.7571292741E-04    0.6842841470E+00    0.2476376802E-02    0.2155422845E-02
    0.2300000000E+03    0.2226258843E-02    0.8265521904E-04    0.6852888389E+00    0.2706644586E-02    0.2357310792E-02
    0.2500000000E+03    0.2412173876E-02    0.8956677578E-04    0.6861351097E+00    0.2936050777E-02    0.2558622564E-02
    0.2700000000E+03    0.2597247765E-02    0.9644737792E-04    0.6868576957E+00    0.3164595734E-02    0.2759361305E-02
    0.2900000000E+03    0.2781476951E-02    0.1032969028E-03    0.6874818689E+00    0.3392281035E-02    0.2959530138E-02
    0.3100000000E+03    0.2964859810E-02    0.1101152976E-03    0.6880264551E+00    0.3619109096E-02    0.3159132157E-02
    0.3300000000E+03    0.3147396138E-02    0.1169025602E-03    0.6885057661E+00    0.3845082916E-02    0.3358170439E-02
    0.3500000000E+03    0.3329086794E-02    0.1236587270E-03    0.6889308761E+00    0.4070205909E-02    0.3556648033E-02
    0.3700000000E+03    0.3509933444E-02    0.1303838629E-03    0.6893104879E+00    0.4294481787E-02    0.3754567968E-02
    0.3900000000E+03    0.3689938367E-02    0.1370780548E-03    0.6896515362E+00    0.4517914475E-02    0.3951933248E-02
    0.4100000000E+03    0.3869104322E-02    0.1437414067E-03    0.6899596140E+00    0.4740508059E-02    0.4148746857E-02
    0.4300000000E+03    0.4047434441E-02    0.1503740358E-03    0.6902392828E+00    0.4962266733E-02    0.4345011754E-02
    0.4500000000E+03    0.4224932148E-02    0.1569760698E-03    0.6904942996E+00    0.5183194776E-02    0.4540730880E-02
    0.4700000000E+03    0.4401601101E-02    0.1635476445E-03    0.6907277869E+00    0.5403296522E-02    0.4735907149E-02
    0.4900000000E+03    0.4577445138E-02    0.1700889021E-03    0.6909423613E+00    0.5622576346E-02    0.4930543459E-02
    0.1000000000E+03    0.9983278173E-03    0.3701216447E-04    0.6718276389E+00    0.1194799050E-02    0.1034597166E-02
    0.3000000000E+03    0.2873274213E-02    0.1067099926E-03    0.6877631275E+00    0.3505802044E-02    0.3059401806E-02
    0.5000000000E+03    0.4665059054E-02    0.1733482079E-03    0.6910432601E+00    0.5731909412E-02    0.5027660027E-02
    0.7000000000E+03    0.6375054317E-02    0.2369804795E-03    0.6924591721E+00    0.7876499180E-02    0.6942335052E-02
    0.9000000000E+03    0.8007505762E-02    0.2977630989E-03    0.6932485471E+00    0.9943911850E-02    0.8806178702E-02
    0.1100000000E+04    0.9566759779E-02    0.3558554290E-03    0.6937519515E+00    0.1193829727E-01    0.1062175022E-01
    0.1300000000E+04    0.1105695728E-01    0.4114091238E-03    0.6941009763E+00    0.1386353783E-01    0.1239143305E-01
    0.1500000000E+04    0.1248198061E-01    0.4645663101E-03    0.6943572087E+00    0.1572325248E-01    0.1411744986E-01
    0.1700000000E+04    0.1384545270E-01    0.5154596003E-03    0.6945533197E+00    0.1752081375E-01    0.1580187604E-01
    0.1900000000E+04    0.1515075009E-01    0.5642125881E-03    0.6947082529E+00    0.1925936648E-01    0.1744665189E-01
    0.2100000000E+04    0.1640101963E-01    0.6109404678E-03    0.6948337489E+00    0.2094184601E-01    0.1905359353E-01
    0.2300000000E+04    0.1759919565E-01    0.6557506649E-03    0.6949374721E+00    0.2257099499E-01    0.2062440286E-01
    0.2500000000E+04    0.1874801639E-01    0.6987434387E-03    0.6950246382E+00    0.2414937872E-01    0.2216067651E-01
    0.2700000000E+04    0.1985003929E-01    0.7400124426E-03    0.6950989201E+00    0.2567939921E-01    0.2366391395E-01
    0.2900000000E+04    0.2090765518E-01    0.7796452414E-03    0.6951629789E+00    0.2716330789E-01    0.2513552493E-01
    0.3100000000E+04    0.2192310116E-01    0.8177237833E-03    0.6952187902E+00    0.2860321724E-01    0.2657683612E-01
    0.3300000000E+04    0.2289847248E-01    0.8543248328E-03    0.6952678509E+00    0.3000111132E-01    0.2798909731E-01
    0.3500000000E+04    0.2383573333E-01    0.8895203650E-03    0.6953113167E+00    0.3135885537E-01    0.2937348692E-01
    0.3700000000E+04    0.2473672669E-01    0.9233779254E-03    0.6953500934E+00    0.3267820462E-01    0.3073111715E-01
    0.3900000000E+04    0.2560318336E-01    0.9559609598E-03    0.6953849013E+00    0.3396081225E-01    0.3206303863E-01
    0.4100000000E+04    0.2643673021E-01    0.9873291141E-03    0.6954163204E+00    0.3520823672E-01    0.3337024468E-01
    0.4300000000E+04    0.2723889769E-01    0.1017538510E-02    0.6954448229E+00    0.3642194849E-01    0.3465367526E-01
    0.4500000000E+04    0.2801112673E-01    0.1046641997E-02    0.6954707971E+00    0.3760333614E-01    0.3591422052E-01
    0.4700000000E+04    0.2875477510E-01    0.1074689382E-02    0.6954945654E+00    0.3875371200E-01    0.3715272417E-01
    0.4900000000E+04    0.2947112318E-01    0.1101727643E-02    0.6955163974E+00    0.3987431733E-01    0.3836998649E-01
    0.1000000000E+04    0.8796017778E-02    0.3271358548E-03    0.6935253132E+00    0.1094998398E-01    0.9719845576E-02
    0.3000000000E+04    0.2142051526E-01    0.7988738800E-03    0.6951918126E+00    0.2788863558E-01    0.2585988815E-01
    0.5000000000E+04    0.2981943989E-01    0.1114882308E-02    0.6955266598E+00    0.4042382570E-01    0.3897089106E-01
    0.7000000000E+04    0.3561254425E-01    0.1334543379E-02    0.6956704395E+00    0.5010559096E-01    0.5003940501E-01
    0.9000000000E+04    0.3970519401E-01    0.1491112780E-02    0.6957504235E+00    0.5782709442E-01    0.5965046474E-01
    0.1100000000E+05    0.4263909679E-01    0.1604529854E-02    0.6958013770E+00    0.6413988110E-01    0.6817518509E-01
    0.1300000000E+05    0.4475610890E-01    0.1687405480E-02    0.6958366850E+00    0.6940344771E-01    0.7586167432E-01
    0.1500000000E+05    0.4628135940E-01    0.1748063774E-02    0.6958625989E+00    0.7386249662E-01    0.8288294009E-01
    0.1700000000E+05    0.4736836120E-01    0.1792194633E-02    0.6958824303E+00    0.7768962557E-01    0.8936386274E-01
    0.1900000000E+05    0.4812486860E-01    0.1823802073E-02    0.6958980975E+00    0.8101024905E-01    0.9539722282E-01
    0.2100000000E+05    0.4862838678E-01    0.1845773735E-02    0.6959107887E+00    0.8391782547E-01    0.1010536599E+00
    0.2300000000E+05    0.4893583727E-01    0.1860236248E-02    0.6959212792E+00    0.8648352581E-01    0.1063880987E+00
    0.2500000000E+05    0.4908978181E-01    0.1868784361E-02    0.6959300963E+00    0.8876257852E-01    0.1114440307E+00
    0.2700000000E+05    0.4912254505E-01    0.1872632919E-02    0.6959376114E+00    0.9079855354E-01    0.1162564492E+00
    0.2900000000E+05    0.4905901371E-01    0.1872720196E-02    0.6959440934E+00    0.9262632802E-01    0.1208539100E+00
    0.3100000000E+05    0.4891857904E-01    0.1869779706E-02    0.6959497418E+00    0.9427418498E-01    0.1252600095E+00
    0.3300000000E+05    0.4871651090E-01    0.1864391075E-02    0.6959547081E+00    0.9576532786E-01    0.1294944665E+00
    0.3500000000E+05    0.4846494688E-01    0.1857016721E-02    0.6959591089E+00    0.9711899273E-01    0.1335739267E+00
    0.3700000000E+05    0.4817361527E-01    0.1848028697E-02    0.6959630357E+00    0.9835127815E-01    0.1375125704E+00
    0.3900000000E+05    0.4785037106E-01    0.1837728634E-02    0.6959665614E+00    0.9947577307E-01    0.1413225789E+00
    0.4100000000E+05    0.4750159833E-01    0.1826362735E-02    0.6959697445E+00    0.1005040384E+00    0.1450144952E+00
    0.4300000000E+05    0.4713251587E-01    0.1814133175E-02    0.6959726327E+00    0.1014459804E+00    0.1485975084E+00
    0.4500000000E+05    0.4674741181E-01    0.1801206882E-02    0.6959752653E+00    0.1023101439E+00    0.1520796782E+00
    0.4700000000E+05    0.4634982546E-01    0.1787722341E-02    0.6959776749E+00    0.1031039440E+00    0.1554681157E+00
    0.4900000000E+05    0.4594268948E-01    0.1773794933E-02    0.6959798886E+00    0.1038338519E+00    0.1587691293E+00
    0.1000000000E+05    0.4129216540E-01    0.1552300289E-02    0.6957784418E+00    0.6113374140E-01    0.6403092644E-01
    0.3000000000E+05    0.4899737146E-01    0.1871589075E-02    0.6959470114E+00    0.9347119158E-01    0.1230795672E+00
    0.5000000000E+05    0.4573631906E-01    0.1766695948E-02    0.6959809293E+00    0.1041766479E+00    0.1603886336E+00
    0.7000000000E+05    0.4152015165E-01    0.1617998920E-02    0.6959955246E+00    0.1087491629E+00    0.1892836394E+00
    0.9000000000E+05    0.3758990392E-01    0.1475586452E-02    0.6960036600E+00    0.1106268166E+00    0.2133538762E+00
    0.1100000000E+06    0.3412749628E-01    0.1348122755E-02    0.6960088520E+00    0.1110774402E+00    0.2341554383E+00
    0.1300000000E+06    0.3111305917E-01    0.1235874224E-02    0.6960124557E+00    0.1106947460E+00    0.2525344368E+00
    0.1500000000E+06    0.2848778560E-01    0.1137225923E-02    0.6960151047E+00    0.1097981982E+00    0.2690163652E+00
    0.1700000000E+06    0.2619188792E-01    0.1050297419E-02    0.6960171348E+00    0.1085757825E+00    0.2839571207E+00
    0.1900000000E+06    0.2417331512E-01    0.9733666482E-03    0.6960187408E+00    0.1071451013E+00    0.2976127131E+00
    0.2100000000E+06    0.2238876133E-01    0.9049598807E-03    0.6960200433E+00    0.1055829937E+00    0.3101755768E+00
    0.2300000000E+06    0.2080267719E-01    0.8438442864E-03    0.6960211213E+00    0.1039412678E+00    0.3217952516E+00
    0.2500000000E+06    0.1938592420E-01    0.7889950915E-03    0.6960220283E+00    0.1022556565E+00    0.3325909955E+00
    0.2700000000E+06    0.1811453617E-01    0.7395600065E-03    0.6960228023E+00    0.1005512008E+00    0.3426599056E+00
    0.2900000000E+06    0.1696869198E-01    0.6948276295E-03    0.6960234705E+00    0.9884562850E-01    0.3520823811E+00
    0.3100000000E+06    0.1593189489E-01    0.6542011994E-03    0.6960240534E+00    0.9715155253E-01    0.3609259327E+00
    0.3300000000E+06    0.1499032577E-01    0.6171773659E-03    0.6960245664E+00    0.9547794234E-01    0.3692479212E+00
    0.3500000000E+06    0.1413233457E-01    0.5833291832E-03    0.6960250213E+00    0.9383113417E-01    0.3770975764E+00
    0.3700000000E+06    0.1334803975E-01    0.5522925157E-03    0.6960254277E+00    0.9221553870E-01    0.3845175183E+00
    0.3900000000E+06    0.1262901120E-01    0.5237551486E-03    0.6960257928E+00    0.9063414561E-01    0.3915449262E+00
    0.4100000000E+06    0.1196801774E-01    0.4974480313E-03    0.6960261228E+00    0.8908888881E-01    0.3982124502E+00
    0.4300000000E+06    0.1135882477E-01    0.4731382003E-03    0.6960264224E+00    0.8758091411E-01    0.4045489344E+00
    0.4500000000E+06    0.1079603108E-01    0.4506230272E-03    0.6960266957E+00    0.8611077770E-01    0.4105799958E+00
    0.4700000000E+06    0.1027493629E-01    0.4297255186E-03    0.6960269460E+00    0.8467859458E-01    0.4163284953E+00
    0.4900000000E+06    0.9791432625E-02    0.4102904527E-03    0.6960271761E+00    0.8328415052E-01    0.4218149222E+00
    0.1000000000E+06    0.3579969747E-01    0.1409890032E-02    0.6960065139E+00    0.1109843098E+00    0.2241001194E+00
    0.3000000000E+06    0.1643758245E-01    0.6740346020E-03    0.6960237715E+00    0.9799652112E-01    0.3565727259E+00
    0.5000000000E+06    0.9562633592E-02    0.4010779848E-03    0.6960272844E+00    0.8260094503E-01    0.4244656926E+00
    0.7000000000E+06    0.6283180787E-02    0.2677937239E-03    0.6960288072E+00    0.7073709871E-01    0.4673600651E+00
    0.9000000000E+06    0.4451191871E-02    0.1921050936E-03    0.6960296607E+00    0.6166378176E-01    0.4971883225E+00
    0.1100000000E+07    0.3320743020E-02    0.1448016083E-03    0.6960302078E+00    0.5457626357E-01    0.5192069337E+00
    0.1300000000E+07    0.2573149313E-02    0.1131902205E-03    0.6960305889E+00    0.4891170712E-01    0.5361542550E+00
    0.1500000000E+07    0.2052698864E-02    0.9098754332E-04    0.6960308698E+00    0.4429073639E-01    0.5496119046E+00
    0.1700000000E+07    0.1675696472E-02    0.7478010927E-04    0.6960310856E+00    0.4045402604E-01    0.5605617266E+00
    0.1900000000E+07    0.1393805242E-02    0.6257869324E-04    0.6960312566E+00    0.3722002870E-01    0.5696471024E+00
    0.2100000000E+07    0.1177491186E-02    0.5315834718E-04    0.6960313955E+00    0.3445848672E-01    0.5773078804E+00
    0.2300000000E+07    0.1007868976E-02    0.4573036675E-04    0.6960315106E+00    0.3207378218E-01    0.5838552523E+00
    0.2500000000E+07    0.8723999609E-03    0.3976785879E-04    0.6960316075E+00    0.2999426421E-01    0.5895157253E+00
    0.2700000000E+07    0.7624918378E-03    0.3490773668E-04    0.6960316902E+00    0.2816524502E-01    0.5944581626E+00
    0.2900000000E+07    0.6720954954E-03    0.3089307179E-04    0.6960317617E+00    0.2654429390E-01    0.5988110599E+00
    0.3100000000E+07    0.5968517378E-03    0.2753783879E-04    0.6960318240E+00    0.2509800446E-01    0.6026739470E+00
    0.3300000000E+07    0.5335545094E-03    0.2470462349E-04    0.6960318788E+00    0.2379972779E-01    0.6061251259E+00
    0.3500000000E+07    0.4798031267E-03    0.2229011134E-04    0.6960319275E+00    0.2262795295E-01    0.6092270491E+00
    0.3700000000E+07    0.4337710624E-03    0.2021539712E-04    0.6960319709E+00    0.2156513008E-01    0.6120301411E+00
    0.3900000000E+07    0.3940486616E-03    0.1841936593E-04    0.6960320098E+00    0.2059680162E-01    0.6145755627E+00
    0.4100000000E+07    0.3595339421E-03    0.1685408033E-04    0.6960320450E+00    0.1971095194E-01    0.6168972467E+00
    0.4300000000E+07    0.3293553786E-03    0.1548150662E-04    0.6960320769E+00    0.1889751400E-01    0.6190234179E+00
    0.4500000000E+07    0.3028163907E-03    0.1427115336E-04    0.6960321060E+00    0.1814799065E-01    0.6209777459E+00
    0.4700000000E+07    0.2793548301E-03    0.1319834248E-04    0.6960321326E+00    0.1745516085E-01    0.6227802284E+00
    0.4900000000E+07    0.2585130082E-03    0.1224292621E-04    0.6960321570E+00    0.1681284918E-01    0.6244478770E+00
    0.1000000000E+07    0.3823744882E-02    0.1659157675E-03    0.6960299612E+00    0.5791215908E-01    0.5089656621E+00
    0.3000000000E+07    0.6328021687E-03    0.2914255487E-04    0.6960317938E+00    0.2580111886E-01    0.6007984355E+00
    0.5000000000E+07    0.2489543899E-03    0.1180394133E-04    0.6960321685E+00    0.1650894812E-01    0.6252357728E+00
    0.7000000000E+07    0.1319359568E-03    0.6378256504E-05    0.6960323283E+00    0.1211563198E-01    0.6365476648E+00
    0.9000000000E+07    0.8148171739E-04    0.3996819964E-05    0.6960324154E+00    0.9559791297E-02    0.6430644324E+00
    0.1100000000E+08    0.5525116810E-04    0.2741778656E-05    0.6960324691E+00    0.7889556843E-02    0.6472993604E+00
    0.1300000000E+08    0.3990387738E-04    0.1999324382E-05    0.6960325048E+00    0.6713275662E-02    0.6502711550E+00
    0.1500000000E+08    0.3016013953E-04    0.1523562949E-05    0.6960325296E+00    0.5840399664E-02    0.6524709490E+00
    0.1700000000E+08    0.2359195116E-04    0.1200280311E-05    0.6960325475E+00    0.5167146935E-02    0.6541646031E+00
    0.1900000000E+08    0.1895646743E-04    0.9705146211E-06    0.6960325606E+00    0.4632185198E-02    0.6555085424E+00
    0.2100000000E+08    0.1556409428E-04    0.8013081732E-06    0.6960325704E+00    0.4196951760E-02    0.6566007938E+00
    0.2300000000E+08    0.1300733165E-04    0.6730573407E-06    0.6960325776E+00    0.3835989649E-02    0.6575059022E+00
    0.2500000000E+08    0.1103286532E-04    0.5735039722E-06    0.6960325830E+00    0.3531818913E-02    0.6582680961E+00
    0.2700000000E+08    0.9476530370E-05    0.4946613645E-06    0.6960325870E+00    0.3272040729E-02    0.6589186945E+00
