  Pressure (Pa) 22mC5-500 (mol/kg) 23mC5-500 (mol/kg) 24mC5-500 (mol/kg) 2mC6-500 (mol/kg) 3mC6-500 (mol/kg)
    0.1000000000E+01    0.2469214052E-04    0.2689074921E-05    0.1741117179E+00    0.1031646875E-04    0.5210790653E-05
    0.3000000000E+01    0.5607590036E-04    0.6121520055E-05    0.3481389955E+00    0.2488191605E-04    0.1563061473E-04
    0.5000000000E+01    0.7960620378E-04    0.8711105281E-05    0.4351233599E+00    0.3718633774E-04    0.2604814013E-04
    0.7000000000E+01    0.1005588611E-03    0.1102720713E-04    0.4873057589E+00    0.4893387846E-04    0.3646338473E-04
    0.9000000000E+01    0.1204737727E-03    0.1323478138E-04    0.5220911050E+00    0.6054068627E-04    0.4687635566E-04
    0.1100000000E+02    0.1399251082E-03    0.1539481501E-04    0.5469366054E+00    0.7213046358E-04    0.5728705676E-04
    0.1300000000E+02    0.1591602548E-03    0.1753332559E-04    0.5655702299E+00    0.8374194857E-04    0.6769549054E-04
    0.1500000000E+02    0.1782960850E-03    0.1966245706E-04    0.5800628378E+00    0.9538568632E-04    0.7810165890E-04
    0.1700000000E+02    0.1973911492E-03    0.2178820002E-04    0.5916568458E+00    0.1070623143E-03    0.8850556341E-04
    0.1900000000E+02    0.2164757636E-03    0.2391359191E-04    0.6011428371E+00    0.1187690790E-03    0.9890720541E-04
    0.2100000000E+02    0.2355657576E-03    0.2604017016E-04    0.6090478451E+00    0.1305022903E-03    0.1093065862E-03
    0.2300000000E+02    0.2546692069E-03    0.2816867931E-04    0.6157367272E+00    0.1422582540E-03    0.1197037069E-03
    0.2500000000E+02    0.2737899168E-03    0.3029943396E-04    0.6214700896E+00    0.1540336035E-03    0.1300985686E-03
    0.2700000000E+02    0.2929293014E-03    0.3243251289E-04    0.6264390401E+00    0.1658253898E-03    0.1404911725E-03
    0.2900000000E+02    0.3120874313E-03    0.3456786617E-04    0.6307869074E+00    0.1776310747E-03    0.1508815196E-03
    0.3100000000E+02    0.3312636330E-03    0.3670537572E-04    0.6346232949E+00    0.1894484907E-03    0.1612696109E-03
    0.3300000000E+02    0.3504568380E-03    0.3884488996E-04    0.6380334489E+00    0.2012757901E-03    0.1716554474E-03
    0.3500000000E+02    0.3696657878E-03    0.4098624384E-04    0.6410846686E+00    0.2131113976E-03    0.1820390302E-03
    0.3700000000E+02    0.3888891548E-03    0.4312927027E-04    0.6438307934E+00    0.2249539665E-03    0.1924203603E-03
    0.3900000000E+02    0.4081256128E-03    0.4527380657E-04    0.6463154072E+00    0.2368023418E-03    0.2027994386E-03
    0.4100000000E+02    0.4273738773E-03    0.4741969797E-04    0.6485741698E+00    0.2486555297E-03    0.2131762662E-03
    0.4300000000E+02    0.4466327274E-03    0.4956679922E-04    0.6506365392E+00    0.2605126715E-03    0.2235508440E-03
    0.4500000000E+02    0.4659010163E-03    0.5171497525E-04    0.6525270635E+00    0.2723730220E-03    0.2339231730E-03
    0.4700000000E+02    0.4851776746E-03    0.5386410114E-04    0.6542663634E+00    0.2842359326E-03    0.2442932541E-03
    0.4900000000E+02    0.5044617107E-03    0.5601406177E-04    0.6558718872E+00    0.2961008358E-03    0.2546610884E-03
    0.1000000000E+02    0.1302375179E-03    0.1431864494E-04    0.5354695582E+00    0.6633425994E-04    0.5208198976E-04
    0.3000000000E+02    0.3216733336E-03    0.3563636038E-04    0.6327632239E+00    0.1835384387E-03    0.1560758471E-03
    0.5000000000E+02    0.5141062059E-03    0.5708932167E-04    0.6566292154E+00    0.3020338766E-03    0.2598441633E-03
    0.7000000000E+02    0.7071961329E-03    0.7861689895E-04    0.6674190448E+00    0.4207057438E-03    0.3633879369E-03
    0.9000000000E+02    0.9003316369E-03    0.1001492677E-03    0.6735686561E+00    0.5392570609E-03    0.4667081259E-03
    0.1100000000E+03    0.1093224537E-02    0.1216543081E-03    0.6775417445E+00    0.6575837759E-03    0.5698056763E-03
    0.1300000000E+03    0.1285725881E-02    0.1431156113E-03    0.6803201293E+00    0.7756407886E-03    0.6726815263E-03
    0.1500000000E+03    0.1477751440E-02    0.1645239705E-03    0.6823722819E+00    0.8934058307E-03    0.7753366077E-03
    0.1700000000E+03    0.1669250291E-02    0.1858738534E-03    0.6839500505E+00    0.1010866990E-02    0.8777718465E-03
    0.1900000000E+03    0.1860190139E-02    0.2071617696E-03    0.6852008964E+00    0.1128017612E-02    0.9799881629E-03
    0.2100000000E+03    0.2050549806E-02    0.2283854417E-03    0.6862168998E+00    0.1244853936E-02    0.1081986472E-02
    0.2300000000E+03    0.2240315115E-02    0.2495433534E-03    0.6870585278E+00    0.1361373911E-02    0.1183767682E-02
    0.2500000000E+03    0.2429476486E-02    0.2706344858E-03    0.6877671289E+00    0.1477576539E-02    0.1285332697E-02
    0.2700000000E+03    0.2618027472E-02    0.2916581585E-03    0.6883719356E+00    0.1593461502E-02    0.1386682417E-02
    0.2900000000E+03    0.2805963817E-02    0.3126139271E-03    0.6888941999E+00    0.1709028939E-02    0.1487817735E-02
    0.3100000000E+03    0.2993282845E-02    0.3335015167E-03    0.6893497420E+00    0.1824279298E-02    0.1588739538E-02
    0.3300000000E+03    0.3179983036E-02    0.3543207767E-03    0.6897505822E+00    0.1939213247E-02    0.1689448710E-02
    0.3500000000E+03    0.3366063738E-02    0.3750716492E-03    0.6901060166E+00    0.2053831612E-02    0.1789946129E-02
    0.3700000000E+03    0.3551524959E-02    0.3957541465E-03    0.6904233480E+00    0.2168135332E-02    0.1890232667E-02
    0.3900000000E+03    0.3736367214E-02    0.4163683352E-03    0.6907083926E+00    0.2282125430E-02    0.1990309193E-02
    0.4100000000E+03    0.3920591413E-02    0.4369143238E-03    0.6909658402E+00    0.2395802990E-02    0.2090176570E-02
    0.4300000000E+03    0.4104198777E-02    0.4573922541E-03    0.6911995140E+00    0.2509169144E-02    0.2189835656E-02
    0.4500000000E+03    0.4287190778E-02    0.4778022941E-03    0.6914125624E+00    0.2622225060E-02    0.2289287304E-02
    0.4700000000E+03    0.4469569085E-02    0.4981446326E-03    0.6916076011E+00    0.2734971929E-02    0.2388532361E-02
    0.4900000000E+03    0.4651335525E-02    0.5184194757E-03    0.6917868217E+00    0.2847410964E-02    0.2487571672E-02
    0.1000000000E+03    0.9968197973E-03    0.1109064613E-03    0.6757480300E+00    0.5984520842E-03    0.5182846721E-03
    0.3000000000E+03    0.2899700614E-02    0.3230662562E-03    0.6891294856E+00    0.1766693715E-02    0.1538305270E-02
    0.5000000000E+03    0.4741989902E-02    0.5285316545E-03    0.6918710896E+00    0.2903515427E-02    0.2537014435E-02
    0.7000000000E+03    0.6523481213E-02    0.7272904080E-03    0.6930531812E+00    0.4009747425E-02    0.3515270654E-02
    0.9000000000E+03    0.8246421341E-02    0.9195919796E-03    0.6937118423E+00    0.5086624140E-02    0.4473884941E-02
    0.1100000000E+04    0.9913265945E-02    0.1105707083E-02    0.6941317519E+00    0.6135356607E-02    0.5413624164E-02
    0.1300000000E+04    0.1152642391E-01    0.1285900753E-02    0.6944228248E+00    0.7157099376E-02    0.6335214058E-02
    0.1500000000E+04    0.1308820275E-01    0.1460426681E-02    0.6946364796E+00    0.8152947203E-02    0.7239341994E-02
    0.1700000000E+04    0.1460079641E-01    0.1629525994E-02    0.6947999842E+00    0.9123936967E-02    0.8126659514E-02
    0.1900000000E+04    0.1606628535E-01    0.1793427316E-02    0.6949291455E+00    0.1007105075E-01    0.8997784678E-02
    0.2100000000E+04    0.1748664062E-01    0.1952347243E-02    0.6950337586E+00    0.1099521912E-01    0.9853304216E-02
    0.2300000000E+04    0.1886372939E-01    0.2106490959E-02    0.6951202166E+00    0.1189732437E-01    0.1069377553E-01
    0.2500000000E+04    0.2019932082E-01    0.2256052889E-02    0.6951928697E+00    0.1277820348E-01    0.1151972851E-01
    0.2700000000E+04    0.2149509188E-01    0.2401217339E-02    0.6952547811E+00    0.1363865105E-01    0.1233166727E-01
    0.2900000000E+04    0.2275263295E-01    0.2542159115E-02    0.6953081698E+00    0.1447942187E-01    0.1313007171E-01
    0.3100000000E+04    0.2397345310E-01    0.2679044100E-02    0.6953546831E+00    0.1530123339E-01    0.1391539897E-01
    0.3300000000E+04    0.2515898503E-01    0.2812029800E-02    0.6953955694E+00    0.1610476804E-01    0.1468808478E-01
    0.3500000000E+04    0.2631058978E-01    0.2941265858E-02    0.6954317919E+00    0.1689067531E-01    0.1544854475E-01
    0.3700000000E+04    0.2742956099E-01    0.3066894524E-02    0.6954641059E+00    0.1765957371E-01    0.1619717552E-01
    0.3900000000E+04    0.2851712900E-01    0.3189051100E-02    0.6954931120E+00    0.1841205266E-01    0.1693435584E-01
    0.4100000000E+04    0.2957446458E-01    0.3307864354E-02    0.6955192936E+00    0.1914867412E-01    0.1766044761E-01
    0.4300000000E+04    0.3060268243E-01    0.3423456902E-02    0.6955430443E+00    0.1986997420E-01    0.1837579680E-01
    0.4500000000E+04    0.3160284448E-01    0.3535945567E-02    0.6955646879E+00    0.2057646468E-01    0.1908073434E-01
    0.4700000000E+04    0.3257596291E-01    0.3645441713E-02    0.6955844930E+00    0.2126863431E-01    0.1977557697E-01
    0.4900000000E+04    0.3352300298E-01    0.3752051558E-02    0.6956026844E+00    0.2194695014E-01    0.2046062797E-01
    0.1000000000E+04    0.9086702950E-02    0.1013406040E-02    0.6939427170E+00    0.5614434839E-02    0.4946067646E-02
    0.3000000000E+04    0.2336754186E-01    0.2611098672E-02    0.6953322001E+00    0.1489265409E-01    0.1352434227E-01
    0.5000000000E+04    0.3398703311E-01    0.3804305974E-02    0.6956112354E+00    0.2228105320E-01    0.2079957289E-01
    0.7000000000E+04    0.4210134800E-01    0.4720191003E-02    0.6957310316E+00    0.2833457666E-01    0.2712898166E-01
    0.9000000000E+04    0.4843381024E-01    0.5438406199E-02    0.6957976680E+00    0.3340746829E-01    0.3274536118E-01
    0.1100000000E+05    0.5345858521E-01    0.6011234772E-02    0.6958401160E+00    0.3773680615E-01    0.3780757975E-01
    0.1300000000E+05    0.5749866487E-01    0.6474338944E-02    0.6958695289E+00    0.4148747842E-01    0.4242819313E-01
    0.1500000000E+05    0.6078117832E-01    0.6852831168E-02    0.6958911153E+00    0.4477788130E-01    0.4668945694E-01
    0.1700000000E+05    0.6347018093E-01    0.7164875825E-02    0.6959076344E+00    0.4769534346E-01    0.5065307349E-01
    0.1900000000E+05    0.6568691082E-01    0.7423915942E-02    0.6959206846E+00    0.5030577408E-01    0.5436637034E-01
    0.2100000000E+05    0.6752275028E-01    0.7640099068E-02    0.6959312556E+00    0.5265991336E-01    0.5786635441E-01
    0.2300000000E+05    0.6904777383E-01    0.7821218370E-02    0.6959399933E+00    0.5479750632E-01    0.6118245222E-01
    0.2500000000E+05    0.7031653626E-01    0.7973350365E-02    0.6959473372E+00    0.5675016394E-01    0.6433841061E-01
    0.2700000000E+05    0.7137208330E-01    0.8101297186E-02    0.6959535964E+00    0.5854337057E-01    0.6735364539E-01
    0.2900000000E+05    0.7224878844E-01    0.8208899644E-02    0.6959589950E+00    0.6019792139E-01    0.7024421771E-01
    0.3100000000E+05    0.7297439631E-01    0.8299262923E-02    0.6959636994E+00    0.6173097068E-01    0.7302355366E-01
    0.3300000000E+05    0.7357151883E-01    0.8374921977E-02    0.6959678356E+00    0.6315680900E-01    0.7570298329E-01
    0.3500000000E+05    0.7405874719E-01    0.8437964552E-02    0.6959715007E+00    0.6448744793E-01    0.7829215022E-01
    0.3700000000E+05    0.7445148931E-01    0.8490123922E-02    0.6959747711E+00    0.6573306602E-01    0.8079932707E-01
    0.3900000000E+05    0.7476260830E-01    0.8532849654E-02    0.6959777074E+00    0.6690235296E-01    0.8323166124E-01
    0.4100000000E+05    0.7500291487E-01    0.8567362224E-02    0.6959803583E+00    0.6800277840E-01    0.8559536864E-01
    0.4300000000E+05    0.7518155078E-01    0.8594695597E-02    0.6959827636E+00    0.6904080384E-01    0.8789588784E-01
    0.4500000000E+05    0.7530629045E-01    0.8615730741E-02    0.6959849560E+00    0.7002205150E-01    0.9013800391E-01
    0.4700000000E+05    0.7538378023E-01    0.8631222243E-02    0.6959869626E+00    0.7095143987E-01    0.9232594874E-01
    0.4900000000E+05    0.7541972972E-01    0.8641819614E-02    0.6959888061E+00    0.7183329352E-01    0.9446348306E-01
    0.1000000000E+05    0.5108672072E-01    0.5740462308E-02    0.6958210095E+00    0.3565345058E-01    0.3533784776E-01
    0.3000000000E+05    0.7262896059E-01    0.8256065996E-02    0.6959614254E+00    0.6097868109E-01    0.7164703831E-01
    0.5000000000E+05    0.7542369355E-01    0.8645461537E-02    0.6959896728E+00    0.7225760627E-01    0.9551440950E-01
    0.7000000000E+05    0.7422033743E-01    0.8564152260E-02    0.6960018267E+00    0.7897753236E-01    0.1145399475E+00
    0.9000000000E+05    0.7183146134E-01    0.8334803398E-02    0.6960086009E+00    0.8349022957E-01    0.1308580620E+00
    0.1100000000E+06    0.6908998469E-01    0.8055541004E-02    0.6960129239E+00    0.8670915659E-01    0.1453794596E+00
    0.1300000000E+06    0.6629784597E-01    0.7763209102E-02    0.6960159243E+00    0.8908049468E-01    0.1585848300E+00
    0.1500000000E+06    0.6357520487E-01    0.7473239759E-02    0.6960181298E+00    0.9085525743E-01    0.1707633890E+00
    0.1700000000E+06    0.6097023988E-01    0.7192371898E-02    0.6960198199E+00    0.9218887263E-01    0.1821053528E+00
    0.1900000000E+06    0.5849994092E-01    0.6923455386E-02    0.6960211569E+00    0.9318446469E-01    0.1927441569E+00
    0.2100000000E+06    0.5616708427E-01    0.6667489216E-02    0.6960222414E+00    0.9391409732E-01    0.2027780815E+00
    0.2300000000E+06    0.5396788074E-01    0.6424561427E-02    0.6960231388E+00    0.9443019121E-01    0.2122823232E+00
    0.2500000000E+06    0.5189561664E-01    0.6194309687E-02    0.6960238940E+00    0.9477211054E-01    0.2213161960E+00
    0.2700000000E+06    0.4994244890E-01    0.5976156961E-02    0.6960245383E+00    0.9497018409E-01    0.2299276633E+00
    0.2900000000E+06    0.4810030351E-01    0.5769435557E-02    0.6960250946E+00    0.9504827656E-01    0.2381563160E+00
    0.3100000000E+06    0.4636132124E-01    0.5573453310E-02    0.6960255799E+00    0.9502549786E-01    0.2460354033E+00
    0.3300000000E+06    0.4471806820E-01    0.5387528733E-02    0.6960260070E+00    0.9491737714E-01    0.2535932593E+00
    0.3500000000E+06    0.4316362272E-01    0.5211009126E-02    0.6960263858E+00    0.9473669210E-01    0.2608543339E+00
    0.3700000000E+06    0.4169159678E-01    0.5043279182E-02    0.6960267242E+00    0.9449406917E-01    0.2678399539E+00
    0.3900000000E+06    0.4029612362E-01    0.4883764249E-02    0.6960270282E+00    0.9419842721E-01    0.2745688962E+00
    0.4100000000E+06    0.3897182879E-01    0.4731930625E-02    0.6960273029E+00    0.9385731171E-01    0.2810578289E+00
    0.4300000000E+06    0.3771379388E-01    0.4587284228E-02    0.6960275524E+00    0.9347715057E-01    0.2873216543E+00
    0.4500000000E+06    0.3651751823E-01    0.4449368440E-02    0.6960277800E+00    0.9306345292E-01    0.2933737803E+00
    0.4700000000E+06    0.3537888132E-01    0.4317761573E-02    0.6960279884E+00    0.9262096560E-01    0.2992263386E+00
    0.4900000000E+06    0.3429410731E-01    0.4192074228E-02    0.6960281801E+00    0.9215379777E-01    0.3048903609E+00
    0.1000000000E+06    0.7047950476E-01    0.8198357887E-02    0.6960109771E+00    0.8522711072E-01    0.1383071457E+00
    0.3000000000E+06    0.4721839301E-01    0.5670145154E-02    0.6960253453E+00    0.9504845267E-01    0.2421376829E+00
    0.5000000000E+06    0.3377082503E-01    0.4131336876E-02    0.6960282703E+00    0.9191209352E-01    0.3076548539E+00
    0.7000000000E+06    0.2542876323E-01    0.3153381122E-02    0.6960295387E+00    0.8644026737E-01    0.3551001182E+00
    0.9000000000E+06    0.1986093067E-01    0.2489781553E-02    0.6960302501E+00    0.8068420066E-01    0.3914189265E+00
    0.1100000000E+07    0.1594748220E-01    0.2017411136E-02    0.6960307065E+00    0.7523415523E-01    0.4202009086E+00
    0.1300000000E+07    0.1308797092E-01    0.1668674048E-02    0.6960310246E+00    0.7025547100E-01    0.4435925531E+00
    0.1500000000E+07    0.1093376200E-01    0.1403649899E-02    0.6960312593E+00    0.6576802066E-01    0.4629819397E+00
    0.1700000000E+07    0.9270094236E-02    0.1197419166E-02    0.6960314398E+00    0.6174061036E-01    0.4793139826E+00
    0.1900000000E+07    0.7958433086E-02    0.1033731616E-02    0.6960315830E+00    0.5812640782E-01    0.4932566218E+00
    0.2100000000E+07    0.6906022552E-02    0.9016064285E-03    0.6960316995E+00    0.5487674815E-01    0.5052961959E+00
    0.2300000000E+07    0.6048805762E-02    0.7933997024E-03    0.6960317961E+00    0.5194635136E-01    0.5157955126E+00
    0.2500000000E+07    0.5341369670E-02    0.7036541458E-03    0.6960318775E+00    0.4929498898E-01    0.5250308165E+00
    0.2700000000E+07    0.4750783405E-02    0.6283875526E-03    0.6960319471E+00    0.4688767866E-01    0.5332161719E+00
    0.2900000000E+07    0.4252692608E-02    0.5646380955E-03    0.6960320074E+00    0.4469429937E-01    0.5405200220E+00
    0.3100000000E+07    0.3828770661E-02    0.5101654441E-03    0.6960320600E+00    0.4268901664E-01    0.5470767160E+00
    0.3300000000E+07    0.3465012652E-02    0.4632494110E-03    0.6960321064E+00    0.4084968520E-01    0.5529947078E+00
    0.3500000000E+07    0.3150567621E-02    0.4225513208E-03    0.6960321475E+00    0.3915729698E-01    0.5583624976E+00
    0.3700000000E+07    0.2876923175E-02    0.3870166946E-03    0.6960321843E+00    0.3759549703E-01    0.5632530107E+00
    0.3900000000E+07    0.2637325910E-02    0.3558057385E-03    0.6960322174E+00    0.3615017006E-01    0.5677268717E+00
    0.4100000000E+07    0.2426362761E-02    0.3282429053E-03    0.6960322474E+00    0.3480909221E-01    0.5718348883E+00
    0.4300000000E+07    0.2239654151E-02    0.3037797695E-03    0.6960322746E+00    0.3356163969E-01    0.5756199561E+00
    0.4500000000E+07    0.2073626060E-02    0.2819673424E-03    0.6960322994E+00    0.3239854587E-01    0.5791185382E+00
    0.4700000000E+07    0.1925338652E-02    0.2624351794E-03    0.6960323222E+00    0.3131169867E-01    0.5823618244E+00
    0.4900000000E+07    0.1792355957E-02    0.2448754378E-03    0.6960323431E+00    0.3029397154E-01    0.5853766492E+00
    0.1000000000E+07    0.1774288869E-01    0.2234783949E-02    0.6960305007E+00    0.7790535470E-01    0.4065947707E+00
    0.3000000000E+07    0.4032421360E-02    0.5363600037E-03    0.6960320345E+00    0.4366960971E-01    0.5438844569E+00
    0.5000000000E+07    0.1730955287E-02    0.2367530586E-03    0.6960323530E+00    0.2980903516E-01    0.5868057669E+00
    0.7000000000E+07    0.9551909070E-03    0.1331473143E-03    0.6960324915E+00    0.2254981897E-01    0.6076596106E+00
    0.9000000000E+07    0.6037330968E-03    0.8537508066E-04    0.6960325688E+00    0.1810805256E-01    0.6199588738E+00
    0.1100000000E+08    0.4155186235E-03    0.5944393842E-04    0.6960326179E+00    0.1511631019E-01    0.6280631419E+00
    0.1300000000E+08    0.3031990999E-03    0.4379833509E-04    0.6960326515E+00    0.1296645215E-01    0.6338024384E+00
    0.1500000000E+08    0.2308766534E-03    0.3363043977E-04    0.6960326759E+00    0.1134797077E-01    0.6380784308E+00
    0.1700000000E+08    0.1816069847E-03    0.2664786762E-04    0.6960326942E+00    0.1008605645E-01    0.6413865227E+00
    0.1900000000E+08    0.1465489610E-03    0.2164420385E-04    0.6960327084E+00    0.9074872135E-02    0.6440213706E+00
    0.2100000000E+08    0.1207244490E-03    0.1793506679E-04    0.6960327195E+00    0.8246631493E-02    0.6461691560E+00
    0.2300000000E+08    0.1011572805E-03    0.1510858322E-04    0.6960327285E+00    0.7555927765E-02    0.6479532672E+00
    0.2500000000E+08    0.8597980059E-04    0.1290474615E-04    0.6960327357E+00    0.6971211609E-02    0.6494586986E+00
    0.2700000000E+08    0.7397212087E-04    0.1115280841E-04    0.6960327417E+00    0.6469884577E-02    0.6507458975E+00
