  Pressure (Pa) 22mC5-500 (mol/kg) 23mC5-500 (mol/kg) 24mC5-500 (mol/kg) 2mC6-500 (mol/kg) 3mC6-500 (mol/kg)
    0.1000000000E+01    0.2971712094E-04    0.4311755427E-05    0.3666069414E-01    0.1211638750E-04    0.2605318080E-04
    0.3000000000E+01    0.8216836551E-04    0.1192538145E-04    0.9949121792E-01    0.3381983782E-04    0.7814588926E-04
    0.5000000000E+01    0.1274899179E-03    0.1850898662E-04    0.1513796038E+00    0.5299600369E-04    0.1302204289E-03
    0.7000000000E+01    0.1675380392E-03    0.2433176278E-04    0.1949557709E+00    0.7035463727E-04    0.1822768337E-03
    0.9000000000E+01    0.2035956564E-03    0.2957960351E-04    0.2320693156E+00    0.8637799106E-04    0.2343151314E-03
    0.1100000000E+02    0.2365749177E-03    0.3438456225E-04    0.2640589427E+00    0.1014027376E-03    0.2863353454E-03
    0.1300000000E+02    0.2671401015E-03    0.3884272072E-04    0.2919174709E+00    0.1156693544E-03    0.3383374961E-03
    0.1500000000E+02    0.2957850392E-03    0.4302543983E-04    0.3163967679E+00    0.1293530009E-03    0.3903216022E-03
    0.1700000000E+02    0.3228834673E-03    0.4698667376E-04    0.3380766676E+00    0.1425834323E-03    0.4422876803E-03
    0.1900000000E+02    0.3487226931E-03    0.5076785789E-04    0.3574115128E+00    0.1554581934E-03    0.4942357465E-03
    0.2100000000E+02    0.3735266538E-03    0.5440125507E-04    0.3747623638E+00    0.1680515662E-03    0.5461658157E-03
    0.2300000000E+02    0.3974720498E-03    0.5791229584E-04    0.3904197698E+00    0.1804207644E-03    0.5980779023E-03
    0.2500000000E+02    0.4206998492E-03    0.6132124617E-04    0.4046201818E+00    0.1926103022E-03    0.6499720200E-03
    0.2700000000E+02    0.4433236305E-03    0.6464441627E-04    0.4175579837E+00    0.2046551239E-03    0.7018481825E-03
    0.2900000000E+02    0.4654357257E-03    0.6789505022E-04    0.4293944495E+00    0.2165828815E-03    0.7537064028E-03
    0.3100000000E+02    0.4871118058E-03    0.7108398964E-04    0.4402645057E+00    0.2284156123E-03    0.8055466938E-03
    0.3300000000E+02    0.5084143483E-03    0.7422017516E-04    0.4502819005E+00    0.2401709906E-03    0.8573690682E-03
    0.3500000000E+02    0.5293952874E-03    0.7731102960E-04    0.4595432031E+00    0.2518632718E-03    0.9091735385E-03
    0.3700000000E+02    0.5500980623E-03    0.8036275388E-04    0.4681309281E+00    0.2635040114E-03    0.9609601170E-03
    0.3900000000E+02    0.5705592150E-03    0.8338055765E-04    0.4761160037E+00    0.2751026176E-03    0.1012728816E-02
    0.4100000000E+02    0.5908096482E-03    0.8636884085E-04    0.4835597358E+00    0.2866667799E-03    0.1064479648E-02
    0.4300000000E+02    0.6108756234E-03    0.8933133753E-04    0.4905153866E+00    0.2982028039E-03    0.1116212624E-02
    0.4500000000E+02    0.6307795589E-03    0.9227123097E-04    0.4970294522E+00    0.3097158753E-03    0.1167927757E-02
    0.4700000000E+02    0.6505406731E-03    0.9519124616E-04    0.5031427036E+00    0.3212102680E-03    0.1219625059E-02
    0.4900000000E+02    0.6701755055E-03    0.9809372490E-04    0.5088910420E+00    0.3326895114E-03    0.1271304540E-02
    0.1000000000E+02    0.2204238278E-03    0.3203075089E-04    0.2486359106E+00    0.9399833492E-04    0.2603274975E-03
    0.3000000000E+02    0.4763240880E-03    0.6949663338E-04    0.4349427249E+00    0.2225099307E-03    0.7796287886E-03
    0.5000000000E+02    0.6799501084E-03    0.9953903040E-04    0.5116384326E+00    0.3384243846E-03    0.1297137603E-02
    0.7000000000E+02    0.8714125887E-03    0.1278909871E-03    0.5534766501E+00    0.4528113813E-03    0.1812866177E-02
    0.9000000000E+02    0.1058789664E-02    0.1556890125E-03    0.5798240386E+00    0.5670971521E-03    0.2326826093E-02
    0.1100000000E+03    0.1244370329E-02    0.1832483984E-03    0.5979415276E+00    0.6814210978E-03    0.2839028700E-02
    0.1300000000E+03    0.1428907029E-02    0.2106694305E-03    0.6111650697E+00    0.7957081183E-03    0.3349485197E-02
    0.1500000000E+03    0.1612653855E-02    0.2379838817E-03    0.6212421198E+00    0.9098614683E-03    0.3858206666E-02
    0.1700000000E+03    0.1795684393E-02    0.2651993246E-03    0.6291766002E+00    0.1023799206E-02    0.4365204081E-02
    0.1900000000E+03    0.1978003792E-02    0.2923145217E-03    0.6355863604E+00    0.1137457889E-02    0.4870488316E-02
    0.2100000000E+03    0.2159592001E-02    0.3193252454E-03    0.6408724973E+00    0.1250789621E-02    0.5374070145E-02
    0.2300000000E+03    0.2340421320E-02    0.3462265733E-03    0.6453067481E+00    0.1363758433E-02    0.5875960248E-02
    0.2500000000E+03    0.2520463612E-02    0.3730137886E-03    0.6490797524E+00    0.1476337278E-02    0.6376169213E-02
    0.2700000000E+03    0.2699693151E-02    0.3996827033E-03    0.6523292080E+00    0.1588505764E-02    0.6874707533E-02
    0.2900000000E+03    0.2878087560E-02    0.4262297380E-03    0.6551570566E+00    0.1700248488E-02    0.7371585611E-02
    0.3100000000E+03    0.3055627925E-02    0.4526519025E-03    0.6576403834E+00    0.1811553821E-02    0.7866813763E-02
    0.3300000000E+03    0.3232298577E-02    0.4789467385E-03    0.6598385582E+00    0.1922413014E-02    0.8360402212E-02
    0.3500000000E+03    0.3408086740E-02    0.5051122526E-03    0.6617980486E+00    0.2032819545E-02    0.8852361098E-02
    0.3700000000E+03    0.3582982167E-02    0.5311468516E-03    0.6635557442E+00    0.2142768628E-02    0.9342700471E-02
    0.3900000000E+03    0.3756976789E-02    0.5570492831E-03    0.6651413040E+00    0.2252256842E-02    0.9831430298E-02
    0.4100000000E+03    0.3930064406E-02    0.5828185847E-03    0.6665788454E+00    0.2361281849E-02    0.1031856046E-01
    0.4300000000E+03    0.4102240413E-02    0.6084540403E-03    0.6678881806E+00    0.2469842179E-02    0.1080410076E-01
    0.4500000000E+03    0.4273501571E-02    0.6339551428E-03    0.6690857362E+00    0.2577937064E-02    0.1128806090E-01
    0.4700000000E+03    0.4443845807E-02    0.6593215630E-03    0.6701852472E+00    0.2685566300E-02    0.1177045053E-01
    0.4900000000E+03    0.4613272044E-02    0.6845531235E-03    0.6711982864E+00    0.2792730150E-02    0.1225127919E-01
    0.1000000000E+03    0.1151739481E-02    0.1694897709E-03    0.5896500164E+00    0.6242576268E-03    0.2583146357E-02
    0.3000000000E+03    0.2966965549E-02    0.4394565944E-03    0.6564377247E+00    0.1755956434E-02    0.7619405287E-02
    0.5000000000E+03    0.4697640815E-02    0.6971183118E-03    0.6716755071E+00    0.2846137743E-02    0.1249111112E-01
    0.7000000000E+03    0.6337118822E-02    0.9413831318E-03    0.6784313267E+00    0.3890157568E-02    0.1720807335E-01
    0.9000000000E+03    0.7887645009E-02    0.1172572617E-02    0.6822466051E+00    0.4889585764E-02    0.2177931146E-01
    0.1100000000E+04    0.9353686803E-02    0.1391340555E-02    0.6846985848E+00    0.5846765088E-02    0.2621313402E-01
    0.1300000000E+04    0.1074014169E-01    0.1598404159E-02    0.6864074856E+00    0.6764091627E-02    0.3051720785E-01
    0.1500000000E+04    0.1205183430E-01    0.1794469816E-02    0.6876667996E+00    0.7643858614E-02    0.3469861917E-01
    0.1700000000E+04    0.1329335524E-01    0.1980209524E-02    0.6886334154E+00    0.8488218229E-02    0.3876392794E-01
    0.1900000000E+04    0.1446901187E-01    0.2156253757E-02    0.6893988166E+00    0.9299176385E-02    0.4271921610E-01
    0.2100000000E+04    0.1558282094E-01    0.2323190447E-02    0.6900199511E+00    0.1007859815E-01    0.4657013067E-01
    0.2300000000E+04    0.1663851792E-01    0.2481566383E-02    0.6905341243E+00    0.1082821665E-01    0.5032192222E-01
    0.2500000000E+04    0.1763957300E-01    0.2631889570E-02    0.6909667966E+00    0.1154964283E-01    0.5397947936E-01
    0.2700000000E+04    0.1858920925E-01    0.2774631903E-02    0.6913359396E+00    0.1224437509E-01    0.5754735964E-01
    0.2900000000E+04    0.1949042115E-01    0.2910231871E-02    0.6916546012E+00    0.1291380837E-01    0.6102981736E-01
    0.3100000000E+04    0.2034599235E-01    0.3039097163E-02    0.6919324839E+00    0.1355924261E-01    0.6443082863E-01
    0.3300000000E+04    0.2115851240E-01    0.3161607114E-02    0.6921769526E+00    0.1418189045E-01    0.6775411391E-01
    0.3500000000E+04    0.2193039227E-01    0.3278114968E-02    0.6923936989E+00    0.1478288428E-01    0.7100315850E-01
    0.3700000000E+04    0.2266387862E-01    0.3388949965E-02    0.6925871905E+00    0.1536328268E-01    0.7418123099E-01
    0.3900000000E+04    0.2336106689E-01    0.3494419250E-02    0.6927609837E+00    0.1592407626E-01    0.7729140004E-01
    0.4100000000E+04    0.2402391321E-01    0.3594809621E-02    0.6929179445E+00    0.1646619297E-01    0.8033654962E-01
    0.4300000000E+04    0.2465424538E-01    0.3690389115E-02    0.6930604086E+00    0.1699050293E-01    0.8331939282E-01
    0.4500000000E+04    0.2525377278E-01    0.3781408467E-02    0.6931902982E+00    0.1749782286E-01    0.8624248455E-01
    0.4700000000E+04    0.2582409548E-01    0.3868102438E-02    0.6933092100E+00    0.1798892004E-01    0.8910823299E-01
    0.4900000000E+04    0.2636671251E-01    0.3950691018E-02    0.6934184811E+00    0.1846451605E-01    0.9191891014E-01
    0.1000000000E+04    0.8630921897E-02    0.1283464676E-02    0.6835928264E+00    0.5373305241E-02    0.2401290622E-01
    0.3000000000E+04    0.1992374563E-01    0.2975482006E-02    0.6917981339E+00    0.1323944762E-01    0.6274026553E-01
    0.5000000000E+04    0.2662807412E-01    0.3990510771E-02    0.6934698612E+00    0.1869671492E-01    0.9330427212E-01
    0.7000000000E+04    0.3069918086E-01    0.4615204401E-02    0.6941908511E+00    0.2267231020E-01    0.1185828975E+00
    0.9000000000E+04    0.3316183023E-01    0.5000180962E-02    0.6945929943E+00    0.2567062250E-01    0.1401929453E+00
    0.1100000000E+05    0.3459527690E-01    0.5230834673E-02    0.6948496731E+00    0.2798920985E-01    0.1591183110E+00
    0.1300000000E+05    0.3534722933E-01    0.5358597423E-02    0.6950278143E+00    0.2981508816E-01    0.1759957375E+00
    0.1500000000E+05    0.3563650767E-01    0.5415956346E-02    0.6951587315E+00    0.3127186710E-01    0.1912579852E+00
    0.1700000000E+05    0.3560612195E-01    0.5424229704E-02    0.6952590362E+00    0.3244466476E-01    0.2052111816E+00
    0.1900000000E+05    0.3535244103E-01    0.5397846919E-02    0.6953383622E+00    0.3339412006E-01    0.2180792207E+00
    0.2100000000E+05    0.3494204894E-01    0.5346826220E-02    0.6954026818E+00    0.3416468689E-01    0.2300305490E+00
    0.2300000000E+05    0.3442190454E-01    0.5278270738E-02    0.6954558954E+00    0.3478975889E-01    0.2411950147E+00
    0.2500000000E+05    0.3382568747E-01    0.5197304884E-02    0.6955006580E+00    0.3529495382E-01    0.2516748484E+00
    0.2700000000E+05    0.3317788538E-01    0.5107678711E-02    0.6955388404E+00    0.3570028599E-01    0.2615520415E+00
    0.2900000000E+05    0.3249649725E-01    0.5012168551E-02    0.6955717983E+00    0.3602164322E-01    0.2708934372E+00
    0.3100000000E+05    0.3179486334E-01    0.4912848867E-02    0.6956005388E+00    0.3627181569E-01    0.2797543272E+00
    0.3300000000E+05    0.3108292940E-01    0.4811280557E-02    0.6956258252E+00    0.3646122816E-01    0.2881810458E+00
    0.3500000000E+05    0.3036813616E-01    0.4708643784E-02    0.6956482472E+00    0.3659847138E-01    0.2962128749E+00
    0.3700000000E+05    0.2965605512E-01    0.4605833208E-02    0.6956682670E+00    0.3669069424E-01    0.3038834687E+00
    0.3900000000E+05    0.2895084959E-01    0.4503527256E-02    0.6956862526E+00    0.3674389803E-01    0.3112219327E+00
    0.4100000000E+05    0.2825561345E-01    0.4402239172E-02    0.6957025002E+00    0.3676316016E-01    0.3182536546E+00
    0.4300000000E+05    0.2757262272E-01    0.4302355083E-02    0.6957172511E+00    0.3675280669E-01    0.3250009511E+00
    0.4500000000E+05    0.2690352457E-01    0.4204162674E-02    0.6957307038E+00    0.3671654684E-01    0.3314835772E+00
    0.4700000000E+05    0.2624948036E-01    0.4107873008E-02    0.6957430234E+00    0.3665757908E-01    0.3377191321E+00
    0.4900000000E+05    0.2561127508E-01    0.4013637262E-02    0.6957543477E+00    0.3657867565E-01    0.3437233858E+00
    0.1000000000E+05    0.3398158394E-01    0.5131012686E-02    0.6947340830E+00    0.2690130438E-01    0.1499453980E+00
    0.3000000000E+05    0.3214752175E-01    0.4962877082E-02    0.6955866433E+00    0.3615492759E-01    0.2753808647E+00
    0.5000000000E+05    0.2529827555E-01    0.3967323724E-02    0.6957596737E+00    0.3653251484E-01    0.3466432689E+00
    0.7000000000E+05    0.1989486761E-01    0.3158624748E-02    0.6958345342E+00    0.3501008162E-01    0.3957216458E+00
    0.9000000000E+05    0.1590667313E-01    0.2551267062E-02    0.6958764423E+00    0.3299630302E-01    0.4320284824E+00
    0.1100000000E+06    0.1294877829E-01    0.2094960119E-02    0.6959032876E+00    0.3093207805E-01    0.4600275184E+00
    0.1300000000E+06    0.1071694784E-01    0.1747058135E-02    0.6959219827E+00    0.2897186346E-01    0.4822625892E+00
    0.1500000000E+06    0.9000813935E-02    0.1477186943E-02    0.6959357662E+00    0.2716594090E-01    0.5003254847E+00
    0.1700000000E+06    0.7657300589E-02    0.1264300707E-02    0.6959463589E+00    0.2552335454E-01    0.5152717250E+00
    0.1900000000E+06    0.6588153273E-02    0.1093748150E-02    0.6959547604E+00    0.2403668971E-01    0.5278306413E+00
    0.2100000000E+06    0.5724749369E-02    0.9551851613E-03    0.6959615912E+00    0.2269252828E-01    0.5385224764E+00
    0.2300000000E+06    0.5018269252E-02    0.8411861050E-03    0.6959672573E+00    0.2147598462E-01    0.5477280789E+00
    0.2500000000E+06    0.4433347794E-02    0.7463300606E-03    0.6959720356E+00    0.2037264611E-01    0.5557324129E+00
    0.2700000000E+06    0.3943926249E-02    0.6665954447E-03    0.6959761211E+00    0.1936933707E-01    0.5627527491E+00
    0.2900000000E+06    0.3530497897E-02    0.5989535731E-03    0.6959796557E+00    0.1845434452E-01    0.5689574938E+00
    0.3100000000E+06    0.3178247174E-02    0.5410915358E-03    0.6959827448E+00    0.1761740242E-01    0.5744790922E+00
    0.3300000000E+06    0.2875770647E-02    0.4912202184E-03    0.6959854685E+00    0.1684957534E-01    0.5794230677E+00
    0.3500000000E+06    0.2614183290E-02    0.4479392310E-03    0.6959878885E+00    0.1614310836E-01    0.5838744809E+00
    0.3700000000E+06    0.2386484189E-02    0.4101404578E-03    0.6959900536E+00    0.1549127421E-01    0.5879026236E+00
    0.3900000000E+06    0.2187099770E-02    0.3769382179E-03    0.6959920025E+00    0.1488823118E-01    0.5915644856E+00
    0.4100000000E+06    0.2011550374E-02    0.3476180282E-03    0.6959937662E+00    0.1432889691E-01    0.5949073496E+00
    0.4300000000E+06    0.1856203756E-02    0.3215985506E-03    0.6959953705E+00    0.1380883880E-01    0.5979707601E+00
    0.4500000000E+06    0.1718090707E-02    0.2984030078E-03    0.6959968361E+00    0.1332418017E-01    0.6007880337E+00
    0.4700000000E+06    0.1594765609E-02    0.2776374789E-03    0.6959981805E+00    0.1287152050E-01    0.6033874320E+00
    0.4900000000E+06    0.1484199895E-02    0.2589742564E-03    0.6959994183E+00    0.1244786789E-01    0.6057930787E+00
    0.1000000000E+06    0.1432042875E-01    0.2307207361E-02    0.6958911868E+00    0.3195719994E-01    0.4468779879E+00
    0.3000000000E+06    0.3347506029E-02    0.5689223634E-03    0.6959812505E+00    0.1802670512E-01    0.5717965460E+00
    0.5000000000E+06    0.1433161298E-02    0.2503434749E-03    0.6960000013E+00    0.1224608174E-01    0.6069298344E+00
    0.7000000000E+06    0.7893007314E-03    0.1404255558E-03    0.6960082519E+00    0.9232883641E-02    0.6232526530E+00
    0.9000000000E+06    0.4985517808E-03    0.8991374969E-04    0.6960129316E+00    0.7397459601E-02    0.6326455385E+00
    0.1100000000E+07    0.3432344337E-03    0.6256782242E-04    0.6960159618E+00    0.6165394965E-02    0.6387395464E+00
    0.1300000000E+07    0.2507087188E-03    0.4610057124E-04    0.6960180912E+00    0.5282286381E-02    0.6430096773E+00
    0.1500000000E+07    0.1912026124E-03    0.3541379598E-04    0.6960196736E+00    0.4618753822E-02    0.6461667356E+00
    0.1700000000E+07    0.1506957173E-03    0.2808239647E-04    0.6960208980E+00    0.4102201529E-02    0.6485950489E+00
    0.1900000000E+07    0.1218863296E-03    0.2283260469E-04    0.6960218750E+00    0.3688797759E-02    0.6505204514E+00
    0.2100000000E+07    0.1006694183E-03    0.1894299146E-04    0.6960226736E+00    0.3350533126E-02    0.6520842894E+00
    0.2300000000E+07    0.8459385669E-04    0.1597996387E-04    0.6960233391E+00    0.3068681260E-02    0.6533795255E+00
    0.2500000000E+07    0.7212303382E-04    0.1367010535E-04    0.6960239027E+00    0.2830251758E-02    0.6544697956E+00
    0.2700000000E+07    0.6225411827E-04    0.1183402777E-04    0.6960243864E+00    0.2625952573E-02    0.6554001215E+00
    0.2900000000E+07    0.5431014345E-04    0.1035004559E-04    0.6960248063E+00    0.2448962653E-02    0.6562032489E+00
    0.3100000000E+07    0.4782076599E-04    0.9133235967E-05    0.6960251743E+00    0.2294162556E-02    0.6569035627E+00
    0.3300000000E+07    0.4245097865E-04    0.8122861295E-05    0.6960254997E+00    0.2157635475E-02    0.6575195936E+00
    0.3500000000E+07    0.3795694396E-04    0.7274543007E-05    0.6960257894E+00    0.2036333998E-02    0.6580656746E+00
    0.3700000000E+07    0.3415776919E-04    0.6555240043E-05    0.6960260491E+00    0.1927851778E-02    0.6585530653E+00
    0.3900000000E+07    0.3091697180E-04    0.5939938948E-05    0.6960262833E+00    0.1830263529E-02    0.6589907337E+00
    0.4100000000E+07    0.2813001198E-04    0.5409419606E-05    0.6960264956E+00    0.1742010633E-02    0.6593859103E+00
    0.4300000000E+07    0.2571572483E-04    0.4948714713E-05    0.6960266889E+00    0.1661817890E-02    0.6597444893E+00
    0.4500000000E+07    0.2361031811E-04    0.4546027188E-05    0.6960268657E+00    0.1588631950E-02    0.6600713240E+00
    0.4700000000E+07    0.2176309392E-04    0.4191956218E-05    0.6960270280E+00    0.1521575117E-02    0.6603704460E+00
    0.4900000000E+07    0.2013335080E-04    0.3878935277E-05    0.6960271775E+00    0.1459910230E-02    0.6606452327E+00
    0.1000000000E+07    0.4100703682E-03    0.7437456732E-04    0.6960145922E+00    0.6726128788E-02    0.6359862495E+00
    0.3000000000E+07    0.5090712421E-04    0.9712498196E-05    0.6960249962E+00    0.2369057331E-02    0.6565649848E+00
    0.5000000000E+07    0.1938947614E-04    0.3735851435E-05    0.6960272480E+00    0.1430901051E-02    0.6607744087E+00
    0.7000000000E+07    0.1046838073E-04    0.2007702442E-05    0.6960282448E+00    0.1023104821E-02    0.6625843549E+00
    0.9000000000E+07    0.6723826400E-05    0.1273915769E-05    0.6960288049E+00    0.7953909810E-03    0.6635906766E+00
    0.1100000000E+08    0.4792696407E-05    0.8931142066E-06    0.6960291605E+00    0.6501722409E-03    0.6642311114E+00
    0.1300000000E+08    0.3660776586E-05    0.6692759107E-06    0.6960294033E+00    0.5495502373E-03    0.6646744055E+00
    0.1500000000E+08    0.2936495951E-05    0.5259922313E-06    0.6960295774E+00    0.4757446983E-03    0.6649993923E+00
    0.1700000000E+08    0.2442424828E-05    0.4283918667E-06    0.6960297063E+00    0.4193122775E-03    0.6652478289E+00
    0.1900000000E+08    0.2088532223E-05    0.3586837775E-06    0.6960298041E+00    0.3747746544E-03    0.6654438961E+00
    0.2100000000E+08    0.1825101006E-05    0.3070024379E-06    0.6960298795E+00    0.3387360242E-03    0.6656025640E+00
    0.2300000000E+08    0.1622808113E-05    0.2675109397E-06    0.6960299382E+00    0.3089798436E-03    0.6657335952E+00
    0.2500000000E+08    0.1463421875E-05    0.2365718497E-06    0.6960299843E+00    0.2839980493E-03    0.6658436277E+00
    0.2700000000E+08    0.1335105337E-05    0.2118197997E-06    0.6960300205E+00    0.2627290704E-03    0.6659373320E+00
