  Pressure (Pa) 22mC5-500 (mol/kg) 23mC5-500 (mol/kg) 24mC5-500 (mol/kg) 2mC6-500 (mol/kg) 3mC6-500 (mol/kg)
    0.1000000000E+01    0.2849248332E-04    0.1033654173E-05    0.6965216557E-01    0.2334247657E-04    0.2605289530E-04
    0.3000000000E+01    0.7405857586E-04    0.2688424179E-05    0.1740941921E+00    0.6188331419E-04    0.7814335505E-04
    0.5000000000E+01    0.1102554619E-03    0.4005433390E-05    0.2486706463E+00    0.9403686874E-04    0.1302134568E-03
    0.7000000000E+01    0.1409180923E-03    0.5123508976E-05    0.3045905391E+00    0.1226465150E-03    0.1822632641E-03
    0.9000000000E+01    0.1680980780E-03    0.6116782403E-05    0.3480771874E+00    0.1491739849E-03    0.2342928199E-03
    0.1100000000E+02    0.1929796310E-03    0.7027958353E-05    0.3828628582E+00    0.1744268433E-03    0.2863021559E-03
    0.1300000000E+02    0.2162870530E-03    0.7883101671E-05    0.4113217978E+00    0.1988761192E-03    0.3382912981E-03
    0.1500000000E+02    0.2384840340E-03    0.8698862062E-05    0.4350364063E+00    0.2228083320E-03    0.3902602687E-03
    0.1700000000E+02    0.2598785692E-03    0.9486273193E-05    0.4551019550E+00    0.2464036195E-03    0.4422090878E-03
    0.1900000000E+02    0.2806815426E-03    0.1025287156E-04    0.4723006455E+00    0.2697782347E-03    0.4941377739E-03
    0.2100000000E+02    0.3010410592E-03    0.1100393668E-04    0.4872060119E+00    0.2930087601E-03    0.5460463444E-03
    0.2300000000E+02    0.3210633940E-03    0.1174324692E-04    0.5002481555E+00    0.3161464488E-03    0.5979348161E-03
    0.2500000000E+02    0.3408262210E-03    0.1247355609E-04    0.5117559464E+00    0.3392259994E-03    0.6498032052E-03
    0.2700000000E+02    0.3603872167E-03    0.1319690300E-04    0.5219851524E+00    0.3622710763E-03    0.7016515275E-03
    0.2900000000E+02    0.3797898004E-03    0.1391481771E-04    0.5311376827E+00    0.3852978681E-03    0.7534797986E-03
    0.3100000000E+02    0.3990670514E-03    0.1462846206E-04    0.5393750558E+00    0.4083174277E-03    0.8052880338E-03
    0.3300000000E+02    0.4182444352E-03    0.1533872734E-04    0.5468280191E+00    0.4313372406E-03    0.8570762482E-03
    0.3500000000E+02    0.4373417349E-03    0.1604630336E-04    0.5536035438E+00    0.4543622920E-03    0.9088444567E-03
    0.3700000000E+02    0.4563744418E-03    0.1675172807E-04    0.5597899946E+00    0.4773958035E-03    0.9605926742E-03
    0.3900000000E+02    0.4753547694E-03    0.1745542378E-04    0.5654610072E+00    0.5004397467E-03    0.1012320916E-02
    0.4100000000E+02    0.4942924047E-03    0.1815772382E-04    0.5706784342E+00    0.5234952061E-03    0.1064029195E-02
    0.4300000000E+02    0.5131950688E-03    0.1885889252E-04    0.5754946113E+00    0.5465626376E-03    0.1115717528E-02
    0.4500000000E+02    0.5320689419E-03    0.1955914026E-04    0.5799541207E+00    0.5696420529E-03    0.1167385928E-02
    0.4700000000E+02    0.5509189870E-03    0.2025863490E-04    0.5840951748E+00    0.5927331537E-03    0.1219034410E-02
    0.4900000000E+02    0.5697492003E-03    0.2095751065E-04    0.5879507155E+00    0.6158354280E-03    0.1270662989E-02
    0.1000000000E+02    0.1807730809E-03    0.6580721225E-05    0.3663858082E+00    0.1619246953E-03    0.2603000136E-03
    0.3000000000E+02    0.3894423483E-03    0.1427211255E-04    0.5353619635E+00    0.3968080150E-03    0.7793864198E-03
    0.5000000000E+02    0.5791579028E-03    0.2130675090E-04    0.5897804912E+00    0.6273905545E-03    0.1296469819E-02
    0.7000000000E+02    0.7668040075E-03    0.2827586204E-04    0.6166506441E+00    0.8588914574E-03    0.1811564985E-02
    0.9000000000E+02    0.9538951764E-03    0.3522857296E-04    0.6326672860E+00    0.1090645885E-02    0.2324686138E-02
    0.1100000000E+03    0.1140497746E-02    0.4216512445E-04    0.6433020637E+00    0.1322117909E-02    0.2835847276E-02
    0.1300000000E+03    0.1326489711E-02    0.4908012641E-04    0.6508776838E+00    0.1552990726E-02    0.3345062236E-02
    0.1500000000E+03    0.1511747611E-02    0.5596861873E-04    0.6565483112E+00    0.1783076608E-02    0.3852344707E-02
    0.1700000000E+03    0.1696173936E-02    0.6282680380E-04    0.6609523461E+00    0.2012260717E-02    0.4357708244E-02
    0.1900000000E+03    0.1879695986E-02    0.6965189564E-04    0.6644715818E+00    0.2240470720E-02    0.4861166263E-02
    0.2100000000E+03    0.2062260453E-02    0.7644187194E-04    0.6673483653E+00    0.2467660133E-02    0.5362732054E-02
    0.2300000000E+03    0.2243828473E-02    0.8319526884E-04    0.6697439370E+00    0.2693798832E-02    0.5862418776E-02
    0.2500000000E+03    0.2424371853E-02    0.8991103008E-04    0.6717697424E+00    0.2918867410E-02    0.6360239461E-02
    0.2700000000E+03    0.2603870321E-02    0.9658839951E-04    0.6735052771E+00    0.3142853704E-02    0.6856207016E-02
    0.2900000000E+03    0.2782309548E-02    0.1032268445E-03    0.6750087713E+00    0.3365750574E-02    0.7350334227E-02
    0.3100000000E+03    0.2959679710E-02    0.1098260013E-03    0.6763238550E+00    0.3587554439E-02    0.7842633757E-02
    0.3300000000E+03    0.3135974438E-02    0.1163856347E-03    0.6774838642E+00    0.3808264297E-02    0.8333118148E-02
    0.3500000000E+03    0.3311190046E-02    0.1229056092E-03    0.6785147077E+00    0.4027881035E-02    0.8821799824E-02
    0.3700000000E+03    0.3485324945E-02    0.1293858671E-03    0.6794368270E+00    0.4246406953E-02    0.9308691093E-02
    0.3900000000E+03    0.3658379205E-02    0.1358264118E-03    0.6802665657E+00    0.4463845411E-02    0.9793804146E-02
    0.4100000000E+03    0.3830354215E-02    0.1422272953E-03    0.6810171477E+00    0.4680200582E-02    0.1027715106E-01
    0.4300000000E+03    0.4001252425E-02    0.1485886087E-03    0.6816993877E+00    0.4895477255E-02    0.1075874380E-01
    0.4500000000E+03    0.4171077139E-02    0.1549104742E-03    0.6823222160E+00    0.5109680698E-02    0.1123859422E-01
    0.4700000000E+03    0.4339832353E-02    0.1611930394E-03    0.6828930716E+00    0.5322816550E-02    0.1171671405E-01
    0.4900000000E+03    0.4507522626E-02    0.1674364727E-03    0.6834182013E+00    0.5534890732E-02    0.1219311494E-01
    0.1000000000E+03    0.1047264356E-02    0.3869919247E-04    0.6384722889E+00    0.1206440929E-02    0.2580510841E-02
    0.3000000000E+03    0.2871128731E-02    0.1065313513E-03    0.6756875788E+00    0.3476789246E-02    0.7596711666E-02
    0.5000000000E+03    0.4590969963E-02    0.1705435720E-03    0.6836653028E+00    0.5640531610E-02    0.1243067438E-01
    0.7000000000E+03    0.6205405196E-02    0.2306825523E-03    0.6871445018E+00    0.7699184937E-02    0.1709437970E-01
    0.9000000000E+03    0.7720483271E-02    0.2871704631E-03    0.6890937276E+00    0.9659209069E-02    0.2159874638E-01
    0.1100000000E+04    0.9142946749E-02    0.3402543292E-03    0.6903404588E+00    0.1152708812E-01    0.2595374748E-01
    0.1300000000E+04    0.1047928844E-01    0.3901717843E-03    0.6912065652E+00    0.1330888250E-01    0.3016851134E-01
    0.1500000000E+04    0.1173555729E-01    0.4371441285E-03    0.6918433197E+00    0.1501017816E-01    0.3425140982E-01
    0.1700000000E+04    0.1291733067E-01    0.4813753842E-03    0.6923312031E+00    0.1663610734E-01    0.3821013570E-01
    0.1900000000E+04    0.1402973337E-01    0.5230530222E-03    0.6927169798E+00    0.1819138452E-01    0.4205177069E-01
    0.2100000000E+04    0.1507747036E-01    0.5623491734E-03    0.6930296817E+00    0.1968034410E-01    0.4578284552E-01
    0.2300000000E+04    0.1606486235E-01    0.5994219355E-03    0.6932882853E+00    0.2110697599E-01    0.4940939293E-01
    0.2500000000E+04    0.1699588038E-01    0.6344166378E-03    0.6935057191E+00    0.2247495814E-01    0.5293699471E-01
    0.2700000000E+04    0.1787417792E-01    0.6674670169E-03    0.6936910950E+00    0.2378768577E-01    0.5637082354E-01
    0.2900000000E+04    0.1870312028E-01    0.6986962879E-03    0.6938510205E+00    0.2504829769E-01    0.5971568012E-01
    0.3100000000E+04    0.1948581109E-01    0.7282181137E-03    0.6939904033E+00    0.2625969976E-01    0.6297602644E-01
    0.3300000000E+04    0.2022511625E-01    0.7561374767E-03    0.6941129653E+00    0.2742458594E-01    0.6615601546E-01
    0.3500000000E+04    0.2092368541E-01    0.7825514631E-03    0.6942215803E+00    0.2854545713E-01    0.6925951773E-01
    0.3700000000E+04    0.2158397125E-01    0.8075499668E-03    0.6943185025E+00    0.2962463803E-01    0.7229014527E-01
    0.3900000000E+04    0.2220824687E-01    0.8312163227E-03    0.6944055252E+00    0.3066429237E-01    0.7525127315E-01
    0.4100000000E+04    0.2279862141E-01    0.8536278760E-03    0.6944840925E+00    0.3166643650E-01    0.7814605879E-01
    0.4300000000E+04    0.2335705405E-01    0.8748564942E-03    0.6945553808E+00    0.3263295168E-01    0.8097745952E-01
    0.4500000000E+04    0.2388536674E-01    0.8949690302E-03    0.6946203575E+00    0.3356559523E-01    0.8374824841E-01
    0.4700000000E+04    0.2438525558E-01    0.9140277385E-03    0.6946798262E+00    0.3446601047E-01    0.8646102859E-01
    0.4900000000E+04    0.2485830123E-01    0.9320906528E-03    0.6947344594E+00    0.3533573585E-01    0.8911824631E-01
    0.1000000000E+04    0.8442876566E-02    0.3141226998E-03    0.6897788090E+00    0.1060427682E-01    0.2379432840E-01
    0.3000000000E+04    0.1910006270E-01    0.7136638762E-03    0.6939230239E+00    0.2565997685E-01    0.6135615059E-01
    0.5000000000E+04    0.2508522255E-01    0.9407657532E-03    0.6947601435E+00    0.3575954396E-01    0.9042674373E-01
    0.7000000000E+04    0.2852421480E-01    0.1073375624E-02    0.6951202075E+00    0.4293053589E-01    0.1141720939E+00
    0.9000000000E+04    0.3047089092E-01    0.1150255125E-02    0.6953207166E+00    0.4822586131E-01    0.1343009435E+00
    0.1100000000E+05    0.3149671206E-01    0.1192498831E-02    0.6954485476E+00    0.5224631633E-01    0.1518243170E+00
    0.1300000000E+05    0.3193317312E-01    0.1212392460E-02    0.6955371825E+00    0.5535998028E-01    0.1673833384E+00
    0.1500000000E+05    0.3198278358E-01    0.1217474607E-02    0.6956022691E+00    0.5780522783E-01    0.1814072353E+00
    0.1700000000E+05    0.3177437983E-01    0.1212564744E-02    0.6956521018E+00    0.5974346387E-01    0.1941962140E+00
    0.1900000000E+05    0.3139261592E-01    0.1200846626E-02    0.6956914874E+00    0.6128803824E-01    0.2059679410E+00
    0.2100000000E+05    0.3089457165E-01    0.1184479735E-02    0.6957234039E+00    0.6252101118E-01    0.2168850738E+00
    0.2300000000E+05    0.3031953885E-01    0.1164960414E-02    0.6957497954E+00    0.6350333689E-01    0.2270723229E+00
    0.2500000000E+05    0.2969501144E-01    0.1143343454E-02    0.6957719846E+00    0.6428129706E-01    0.2366274395E+00
    0.2700000000E+05    0.2904047239E-01    0.1120382557E-02    0.6957909030E+00    0.6489070433E-01    0.2456285264E+00
    0.2900000000E+05    0.2836985544E-01    0.1096621912E-02    0.6958072257E+00    0.6535973032E-01    0.2541390438E+00
    0.3100000000E+05    0.2769318429E-01    0.1072457344E-02    0.6958214535E+00    0.6571085735E-01    0.2622113225E+00
    0.3300000000E+05    0.2701768732E-01    0.1048178046E-02    0.6958339664E+00    0.6596225633E-01    0.2698890853E+00
    0.3500000000E+05    0.2634856976E-01    0.1023995576E-02    0.6958450575E+00    0.6612877920E-01    0.2772092918E+00
    0.3700000000E+05    0.2568955735E-01    0.1000064356E-02    0.6958549566E+00    0.6622268672E-01    0.2842035125E+00
    0.3900000000E+05    0.2504328461E-01    0.9764963624E-03    0.6958638467E+00    0.6625419095E-01    0.2908989686E+00
    0.4100000000E+05    0.2441157568E-01    0.9533718015E-03    0.6958718749E+00    0.6623186554E-01    0.2973193301E+00
    0.4300000000E+05    0.2379564977E-01    0.9307469523E-03    0.6958791610E+00    0.6616296025E-01    0.3034853372E+00
    0.4500000000E+05    0.2319627295E-01    0.9086599890E-03    0.6958858038E+00    0.6605364492E-01    0.3094152883E+00
    0.4700000000E+05    0.2261387125E-01    0.8871353427E-03    0.6958918850E+00    0.6590920093E-01    0.3151254301E+00
    0.4900000000E+05    0.2204861560E-01    0.8661869950E-03    0.6958974732E+00    0.6573417295E-01    0.3206302697E+00
    0.1000000000E+05    0.3107424886E-01    0.1174793706E-02    0.6953909976E+00    0.5036853856E-01    0.1433419350E+00
    0.3000000000E+05    0.2803176974E-01    0.1084569934E-02    0.6958145753E+00    0.6554880763E-01    0.2582270528E+00
    0.5000000000E+05    0.2177241734E-01    0.8559310746E-03    0.6959001008E+00    0.6563643911E-01    0.3233098226E+00
    0.7000000000E+05    0.1708760458E-01    0.6800927330E-03    0.6959369841E+00    0.6279502860E-01    0.3686924705E+00
    0.9000000000E+05    0.1369887623E-01    0.5507567662E-03    0.6959575789E+00    0.5927612619E-01    0.4028898219E+00
    0.1100000000E+06    0.1120480089E-01    0.4543655112E-03    0.6959707421E+00    0.5574022704E-01    0.4298117749E+00
    0.1300000000E+06    0.9325793098E-02    0.3810040262E-03    0.6959798907E+00    0.5240533444E-01    0.4516431899E+00
    0.1500000000E+06    0.7878417432E-02    0.3240075451E-03    0.6959866237E+00    0.4933631590E-01    0.4697407529E+00
    0.1700000000E+06    0.6741302230E-02    0.2788940403E-03    0.6959917893E+00    0.4653987980E-01    0.4850049963E+00
    0.1900000000E+06    0.5832356072E-02    0.2425943750E-03    0.6959958799E+00    0.4400049508E-01    0.4980623731E+00
    0.2100000000E+06    0.5094710496E-02    0.2129610066E-03    0.6959992009E+00    0.4169506890E-01    0.5093643779E+00
    0.2300000000E+06    0.4488061731E-02    0.1884589889E-03    0.6960019518E+00    0.3959913573E-01    0.5192456656E+00
    0.2500000000E+06    0.3983243413E-02    0.1679693458E-03    0.6960042685E+00    0.3768942147E-01    0.5279600570E+00
    0.2700000000E+06    0.3558747253E-02    0.1506615235E-03    0.6960062468E+00    0.3594479964E-01    0.5357038201E+00
    0.2900000000E+06    0.3198440765E-02    0.1359089126E-03    0.6960079562E+00    0.3434652677E-01    0.5426312522E+00
    0.3100000000E+06    0.2890037109E-02    0.1232317400E-03    0.6960094484E+00    0.3287816248E-01    0.5488654125E+00
    0.3300000000E+06    0.2624048145E-02    0.1122577141E-03    0.6960107626E+00    0.3152536346E-01    0.5545056958E+00
    0.3500000000E+06    0.2393054567E-02    0.1026944133E-03    0.6960119290E+00    0.3027563990E-01    0.5596332893E+00
    0.3700000000E+06    0.2191188305E-02    0.9430959252E-04    0.6960129713E+00    0.2911811475E-01    0.5643151783E+00
    0.3900000000E+06    0.2013759634E-02    0.8691692134E-04    0.6960139086E+00    0.2804330271E-01    0.5686071331E+00
    0.4100000000E+06    0.1856984653E-02    0.8036551096E-04    0.6960147560E+00    0.2704291501E-01    0.5725559700E+00
    0.4300000000E+06    0.1717783435E-02    0.7453212331E-04    0.6960155259E+00    0.2610969008E-01    0.5762012837E+00
    0.4500000000E+06    0.1593628717E-02    0.6931530607E-04    0.6960162287E+00    0.2523724864E-01    0.5795767920E+00
    0.4700000000E+06    0.1482431159E-02    0.6463092882E-04    0.6960168727E+00    0.2441997009E-01    0.5827113892E+00
    0.4900000000E+06    0.1382451438E-02    0.6040875058E-04    0.6960174652E+00    0.2365288772E-01    0.5856299809E+00
    0.1000000000E+06    0.1236020295E-01    0.4991525041E-03    0.6959648120E+00    0.5749124101E-01    0.4170977302E+00
    0.3000000000E+06    0.3038399891E-02    0.1293363140E-03    0.6960087268E+00    0.3359704885E-01    0.5458282969E+00
    0.5000000000E+06    0.1336203378E-02    0.5845216545E-04    0.6960177440E+00    0.2328677458E-01    0.5870151337E+00
    0.7000000000E+06    0.7466373658E-03    0.3327186878E-04    0.6960216741E+00    0.1775919441E-01    0.6073576735E+00
    0.9000000000E+06    0.4756615011E-03    0.2149472570E-04    0.6960238858E+00    0.1433290042E-01    0.6194817316E+00
    0.1100000000E+07    0.3292209257E-03    0.1504436664E-04    0.6960253079E+00    0.1200588343E-01    0.6275282857E+00
    0.1300000000E+07    0.2412748405E-03    0.1112821995E-04    0.6960263011E+00    0.1032397218E-01    0.6332567475E+00
    0.1500000000E+07    0.1843789585E-03    0.8571419470E-05    0.6960270347E+00    0.9052340087E-02    0.6375418417E+00
    0.1700000000E+07    0.1454760748E-03    0.6809330532E-05    0.6960275993E+00    0.8057586184E-02    0.6408675185E+00
    0.1900000000E+07    0.1177123721E-03    0.5543022914E-05    0.6960280473E+00    0.7258390802E-02    0.6435232141E+00
    0.2100000000E+07    0.9721054223E-04    0.4602122400E-05    0.6960284117E+00    0.6602390654E-02    0.6456926339E+00
    0.2300000000E+07    0.8164372637E-04    0.3883706717E-05    0.6960287139E+00    0.6054358132E-02    0.6474979802E+00
    0.2500000000E+07    0.6954713909E-04    0.3322600184E-05    0.6960289685E+00    0.5589729054E-02    0.6490236957E+00
    0.2700000000E+07    0.5996149295E-04    0.2875889292E-05    0.6960291860E+00    0.5190855586E-02    0.6503299978E+00
    0.2900000000E+07    0.5223730581E-04    0.2514376361E-05    0.6960293740E+00    0.4844734302E-02    0.6514609820E+00
    0.3100000000E+07    0.4592219185E-04    0.2217631835E-05    0.6960295380E+00    0.4541573986E-02    0.6524496769E+00
    0.3300000000E+07    0.4069323356E-04    0.1971011451E-05    0.6960296823E+00    0.4273862285E-02    0.6533213099E+00
    0.3500000000E+07    0.3631494926E-04    0.1763794204E-05    0.6960298102E+00    0.4035739711E-02    0.6540954815E+00
    0.3700000000E+07    0.3261235693E-04    0.1587984222E-05    0.6960299244E+00    0.3822569135E-02    0.6547876505E+00
    0.3900000000E+07    0.2945324255E-04    0.1437519045E-05    0.6960300269E+00    0.3630633088E-02    0.6554101725E+00
    0.4100000000E+07    0.2673620666E-04    0.1307734003E-05    0.6960301194E+00    0.3456916723E-02    0.6559730415E+00
    0.4300000000E+07    0.2438243377E-04    0.1194992168E-05    0.6960302033E+00    0.3298949429E-02    0.6564844277E+00
    0.4500000000E+07    0.2232991634E-04    0.1096423829E-05    0.6960302797E+00    0.3154687428E-02    0.6569510758E+00
    0.4700000000E+07    0.2052933107E-04    0.1009739951E-05    0.6960303495E+00    0.3022425479E-02    0.6573786020E+00
    0.4900000000E+07    0.1894104888E-04    0.9330965092E-06    0.6960304135E+00    0.2900729628E-02    0.6577717213E+00
    0.1000000000E+07    0.3924046964E-03    0.1783678513E-04    0.6960246663E+00    0.1306772014E-01    0.6238744975E+00
    0.3000000000E+07    0.4892624604E-04    0.2358933010E-05    0.6960294587E+00    0.4688298453E-02    0.6519713856E+00
    0.5000000000E+07    0.1821623465E-04    0.8980602041E-06    0.6960304436E+00    0.2843457051E-02    0.6579566488E+00
    0.7000000000E+07    0.9539753687E-05    0.4750132693E-06    0.6960308602E+00    0.2036792011E-02    0.6605560100E+00
    0.9000000000E+07    0.5921355515E-05    0.2958170696E-06    0.6960310835E+00    0.1585076519E-02    0.6620077704E+00
    0.1100000000E+08    0.4071576910E-05    0.2032083978E-06    0.6960312180E+00    0.1296526306E-02    0.6629340054E+00
    0.1300000000E+08    0.2998402103E-05    0.1490547716E-06    0.6960313045E+00    0.1096369658E-02    0.6635761208E+00
    0.1500000000E+08    0.2319445398E-05    0.1145948091E-06    0.6960313622E+00    0.9494411206E-03    0.6640473515E+00
    0.1700000000E+08    0.1861881973E-05    0.9127330541E-07    0.6960314015E+00    0.8370323328E-03    0.6644078403E+00
    0.1900000000E+08    0.1538298652E-05    0.7473134229E-07    0.6960314281E+00    0.7482766686E-03    0.6646924827E+00
    0.2100000000E+08    0.1300602389E-05    0.6255594558E-07    0.6960314460E+00    0.6764319174E-03    0.6649229136E+00
    0.2300000000E+08    0.1120543968E-05    0.5332233369E-07    0.6960314573E+00    0.6170939248E-03    0.6651132580E+00
    0.2500000000E+08    0.9806368903E-06    0.4614458396E-07    0.6960314639E+00    0.5672644177E-03    0.6652731283E+00
    0.2700000000E+08    0.8695812383E-06    0.4044797953E-07    0.6960314668E+00    0.5248317518E-03    0.6654092929E+00
