  Pressure (Pa) 22mC5-500 (mol/kg) 23mC5-500 (mol/kg) 24mC5-500 (mol/kg) 2mC6-500 (mol/kg) 3mC6-500 (mol/kg)
    0.1000000000E+01    0.2640420778E-04    0.9581837879E-06    0.1266337135E+00    0.1092133253E-04    0.2605322045E-04
    0.3000000000E+01    0.6308364230E-04    0.2292665147E-05    0.2785308278E+00    0.2717793853E-04    0.7814637478E-04
    0.5000000000E+01    0.9044167935E-04    0.3292376142E-05    0.3664416746E+00    0.4050626703E-04    0.1302219789E-03
    0.7000000000E+01    0.1138532374E-03    0.4151292303E-05    0.4237643000E+00    0.5277066017E-04    0.1822801207E-03
    0.9000000000E+01    0.1353352308E-03    0.4941884739E-05    0.4640980442E+00    0.6460465852E-04    0.2343208445E-03
    0.1100000000E+02    0.1557839535E-03    0.5696205393E-05    0.4940210575E+00    0.7625940512E-04    0.2863441782E-03
    0.1300000000E+02    0.1756447742E-03    0.6430097975E-05    0.5171035423E+00    0.8784413419E-04    0.3383501424E-03
    0.1500000000E+02    0.1951571720E-03    0.7152032937E-05    0.5354506712E+00    0.9940889100E-04    0.3903387537E-03
    0.1700000000E+02    0.2144576141E-03    0.7866806293E-05    0.5503841438E+00    0.1109769693E-03    0.4423100271E-03
    0.1900000000E+02    0.2336273339E-03    0.8577252229E-05    0.5627756435E+00    0.1225588887E-03    0.4942639758E-03
    0.2100000000E+02    0.2527163046E-03    0.9285099699E-05    0.5732233446E+00    0.1341588546E-03    0.5462006127E-03
    0.2300000000E+02    0.2717560282E-03    0.9991427856E-05    0.5821513848E+00    0.1457779040E-03    0.5981199498E-03
    0.2500000000E+02    0.2907667057E-03    0.1069692046E-04    0.5898688687E+00    0.1574154975E-03    0.6500219990E-03
    0.2700000000E+02    0.3097614246E-03    0.1140201391E-04    0.5966063908E+00    0.1690703472E-03    0.7019067717E-03
    0.2900000000E+02    0.3287486902E-03    0.1210698634E-04    0.6025394736E+00    0.1807408521E-03    0.7537742793E-03
    0.3100000000E+02    0.3477340002E-03    0.1281201282E-04    0.6078040826E+00    0.1924253283E-03    0.8056245329E-03
    0.3300000000E+02    0.3667208490E-03    0.1351720036E-04    0.6125071755E+00    0.2041221282E-03    0.8574575437E-03
    0.3500000000E+02    0.3857113815E-03    0.1422261065E-04    0.6167340465E+00    0.2158296983E-03    0.9092733226E-03
    0.3700000000E+02    0.4047068263E-03    0.1492827494E-04    0.6205535469E+00    0.2275466047E-03    0.9610718805E-03
    0.3900000000E+02    0.4237077878E-03    0.1563420410E-04    0.6240218654E+00    0.2392715402E-03    0.1012853228E-02
    0.4100000000E+02    0.4427144449E-03    0.1634039537E-04    0.6271853109E+00    0.2510033216E-03    0.1064617377E-02
    0.4300000000E+02    0.4617266881E-03    0.1704683699E-04    0.6300823928E+00    0.2627408829E-03    0.1116364337E-02
    0.4500000000E+02    0.4807442146E-03    0.1775351137E-04    0.6327453967E+00    0.2744832650E-03    0.1168094118E-02
    0.4700000000E+02    0.4997665952E-03    0.1846039731E-04    0.6352015929E+00    0.2862296066E-03    0.1219806733E-02
    0.4900000000E+02    0.5187933207E-03    0.1916747153E-04    0.6374741738E+00    0.2979791337E-03    0.1271502191E-02
    0.1000000000E+02    0.1456542613E-03    0.5322350168E-05    0.4800915738E+00    0.7044562946E-04    0.2603346838E-03
    0.3000000000E+02    0.3382413333E-03    0.1245948485E-04    0.6052480712E+00    0.1865814485E-03    0.7797015622E-03
    0.5000000000E+02    0.5283081402E-03    0.1952107166E-04    0.6385479253E+00    0.3038548715E-03    0.1297343490E-02
    0.7000000000E+02    0.7186937110E-03    0.2659716715E-04    0.6539704050E+00    0.4214011837E-03    0.1813271342E-02
    0.9000000000E+02    0.9089210765E-03    0.3366811615E-04    0.6628658104E+00    0.5387867781E-03    0.2327495654E-02
    0.1100000000E+03    0.1098657821E-02    0.4072117757E-04    0.6686542194E+00    0.6558392140E-03    0.2840026832E-02
    0.1300000000E+03    0.1287709812E-02    0.4774906419E-04    0.6727215333E+00    0.7724793281E-03    0.3350875176E-02
    0.1500000000E+03    0.1475960791E-02    0.5474746107E-04    0.6757360701E+00    0.8886668442E-03    0.3860050899E-02
    0.1700000000E+03    0.1663338474E-02    0.6171370608E-04    0.6780597740E+00    0.1004379922E-02    0.4367564121E-02
    0.1900000000E+03    0.1849796572E-02    0.6864610500E-04    0.6799057280E+00    0.1119606358E-02    0.4873424878E-02
    0.2100000000E+03    0.2035304918E-02    0.7554355966E-04    0.6814075500E+00    0.1234339373E-02    0.5377643122E-02
    0.2300000000E+03    0.2219843765E-02    0.8240535515E-04    0.6826532776E+00    0.1348575430E-02    0.5880228721E-02
    0.2500000000E+03    0.2403400347E-02    0.8923103226E-04    0.6837032774E+00    0.1462313019E-02    0.6381191463E-02
    0.2700000000E+03    0.2585966721E-02    0.9602030778E-04    0.6846003242E+00    0.1575551952E-02    0.6880541053E-02
    0.2900000000E+03    0.2767538361E-02    0.1027730228E-03    0.6853755745E+00    0.1688292923E-02    0.7378287117E-02
    0.3100000000E+03    0.2948113219E-02    0.1094891082E-03    0.6860522604E+00    0.1800537233E-02    0.7874439201E-02
    0.3300000000E+03    0.3127691071E-02    0.1161685611E-03    0.6866480582E+00    0.1912286614E-02    0.8369006774E-02
    0.3500000000E+03    0.3306273068E-02    0.1228114280E-03    0.6871766558E+00    0.2023543099E-02    0.8861999227E-02
    0.3700000000E+03    0.3483861399E-02    0.1294177929E-03    0.6876488175E+00    0.2134308941E-02    0.9353425875E-02
    0.3900000000E+03    0.3660459056E-02    0.1359877686E-03    0.6880731248E+00    0.2244586554E-02    0.9843295956E-02
    0.4100000000E+03    0.3836069652E-02    0.1425214902E-03    0.6884565034E+00    0.2354378468E-02    0.1033161863E-01
    0.4300000000E+03    0.4010697285E-02    0.1490191101E-03    0.6888046039E+00    0.2463687298E-02    0.1081840300E-01
    0.4500000000E+03    0.4184346435E-02    0.1554807945E-03    0.6891220823E+00    0.2572515722E-02    0.1130365807E-01
    0.4700000000E+03    0.4357021883E-02    0.1619067202E-03    0.6894128100E+00    0.2680866461E-02    0.1178739278E-01
    0.4900000000E+03    0.4528728647E-02    0.1682970724E-03    0.6896800319E+00    0.2788742265E-02    0.1226961601E-01
    0.1000000000E+03    0.1003865292E-02    0.3719742993E-04    0.6660369055E+00    0.5973608781E-03    0.2583972239E-02
    0.3000000000E+03    0.2857950438E-02    0.1061356457E-03    0.6857250244E+00    0.1744477061E-02    0.7626561813E-02
    0.5000000000E+03    0.4614220395E-02    0.1714789682E-03    0.6898057016E+00    0.2842502933E-02    0.1251016357E-01
    0.7000000000E+03    0.6274537745E-02    0.2332984943E-03    0.6915702104E+00    0.3893463695E-02    0.1724387651E-01
    0.9000000000E+03    0.7844436327E-02    0.2917974295E-03    0.6925547376E+00    0.4900098746E-02    0.2183609642E-01
    0.1100000000E+04    0.9329552423E-02    0.3471820753E-03    0.6931829039E+00    0.5865023625E-02    0.2629458308E-01
    0.1300000000E+04    0.1073522309E-01    0.3996475941E-03    0.6936185735E+00    0.6790672675E-02    0.3062651969E-01
    0.1500000000E+04    0.1206641991E-01    0.4493757257E-03    0.6939384919E+00    0.7679301731E-02    0.3483856573E-01
    0.1700000000E+04    0.1332775212E-01    0.4965349513E-03    0.6941833909E+00    0.8533000394E-02    0.3893690412E-01
    0.1900000000E+04    0.1452348770E-01    0.5412812864E-03    0.6943768961E+00    0.9353705633E-02    0.4292728333E-01
    0.2100000000E+04    0.1565757899E-01    0.5837592227E-03    0.6945336543E+00    0.1014321481E-01    0.4681505517E-01
    0.2300000000E+04    0.1673368824E-01    0.6241026680E-03    0.6946632288E+00    0.1090319772E-01    0.5060520862E-01
    0.2500000000E+04    0.1775521192E-01    0.6624358317E-03    0.6947721290E+00    0.1163520745E-01    0.5430240030E-01
    0.2700000000E+04    0.1872530304E-01    0.6988740426E-03    0.6948649393E+00    0.1234069034E-01    0.5791098189E-01
    0.2900000000E+04    0.1964689165E-01    0.7335244954E-03    0.6949449818E+00    0.1302099487E-01    0.6143502493E-01
    0.3100000000E+04    0.2052270346E-01    0.7664869290E-03    0.6950147229E+00    0.1367737974E-01    0.6487834314E-01
    0.3300000000E+04    0.2135527667E-01    0.7978542425E-03    0.6950760319E+00    0.1431102114E-01    0.6824451276E-01
    0.3500000000E+04    0.2214697735E-01    0.8277130530E-03    0.6951303517E+00    0.1492301940E-01    0.7153689085E-01
    0.3700000000E+04    0.2290001327E-01    0.8561442022E-03    0.6951788136E+00    0.1551440497E-01    0.7475863207E-01
    0.3900000000E+04    0.2361644657E-01    0.8832232162E-03    0.6952223172E+00    0.1608614383E-01    0.7791270380E-01
    0.4100000000E+04    0.2429820517E-01    0.9090207224E-03    0.6952615869E+00    0.1663914243E-01    0.8100190000E-01
    0.4300000000E+04    0.2494709322E-01    0.9336028298E-03    0.6952972124E+00    0.1717425222E-01    0.8402885386E-01
    0.4500000000E+04    0.2556480055E-01    0.9570314740E-03    0.6953296788E+00    0.1769227371E-01    0.8699604932E-01
    0.4700000000E+04    0.2615291134E-01    0.9793647327E-03    0.6953593887E+00    0.1819396024E-01    0.8990583161E-01
    0.4900000000E+04    0.2671291199E-01    0.1000657113E-02    0.6953866792E+00    0.1868002136E-01    0.9276041695E-01
    0.1000000000E+04    0.8597250263E-02    0.3198665330E-03    0.6929000663E+00    0.5387618510E-02    0.2408159460E-01
    0.3000000000E+04    0.2009035681E-01    0.7502107549E-03    0.6949810115E+00    0.1335210190E-01    0.6316654578E-01
    0.5000000000E+04    0.2698281056E-01    0.1010929096E-02    0.6953995077E+00    0.1891740293E-01    0.9416767025E-01
    0.7000000000E+04    0.3120226698E-01    0.1172632712E-02    0.6955792587E+00    0.2298839220E-01    0.1198683209E+00
    0.9000000000E+04    0.3377261743E-01    0.1272925325E-02    0.6956792715E+00    0.2606495463E-01    0.1418580107E+00
    0.1100000000E+05    0.3527981925E-01    0.1333391030E-02    0.6957429930E+00    0.2844558164E-01    0.1611155941E+00
    0.1300000000E+05    0.3607903601E-01    0.1367155741E-02    0.6957871535E+00    0.3031959452E-01    0.1782802273E+00
    0.1500000000E+05    0.3639548980E-01    0.1382573369E-02    0.6958195676E+00    0.3181300049E-01    0.1937893073E+00
    0.1700000000E+05    0.3637726600E-01    0.1385158592E-02    0.6958443755E+00    0.3301303548E-01    0.2079539187E+00
    0.1900000000E+05    0.3612463542E-01    0.1378661787E-02    0.6958639758E+00    0.3398210585E-01    0.2210025653E+00
    0.2100000000E+05    0.3570714573E-01    0.1365696640E-02    0.6958798541E+00    0.3476610828E-01    0.2331077630E+00
    0.2300000000E+05    0.3517399739E-01    0.1348121862E-02    0.6958929799E+00    0.3539960490E-01    0.2444028749E+00
    0.2500000000E+05    0.3456056432E-01    0.1327281529E-02    0.6959040126E+00    0.3590915867E-01    0.2549931425E+00
    0.2700000000E+05    0.3389261549E-01    0.1304161020E-02    0.6959134166E+00    0.3631554986E-01    0.2649631309E+00
    0.2900000000E+05    0.3318911941E-01    0.1279490831E-02    0.6959215283E+00    0.3663528907E-01    0.2743818873E+00
    0.3100000000E+05    0.3246415001E-01    0.1253817296E-02    0.6959285973E+00    0.3688167486E-01    0.2833065958E+00
    0.3300000000E+05    0.3172820755E-01    0.1227551727E-02    0.6959348128E+00    0.3706554864E-01    0.2917852221E+00
    0.3500000000E+05    0.3098915066E-01    0.1201005173E-02    0.6959403208E+00    0.3719584388E-01    0.2998584605E+00
    0.3700000000E+05    0.3025286420E-01    0.1174413411E-02    0.6959452359E+00    0.3727999244E-01    0.3075611923E+00
    0.3900000000E+05    0.2952374459E-01    0.1147955148E-02    0.6959496490E+00    0.3732422991E-01    0.3149235942E+00
    0.4100000000E+05    0.2880505700E-01    0.1121765470E-02    0.6959536335E+00    0.3733382826E-01    0.3219719925E+00
    0.4300000000E+05    0.2809920114E-01    0.1095945877E-02    0.6959572490E+00    0.3731327539E-01    0.3287295285E+00
    0.4500000000E+05    0.2740791099E-01    0.1070571862E-02    0.6959605446E+00    0.3726641540E-01    0.3352166850E+00
    0.4700000000E+05    0.2673240639E-01    0.1045698670E-02    0.6959635611E+00    0.3719655925E-01    0.3414517046E+00
    0.4900000000E+05    0.2607350884E-01    0.1021365733E-02    0.6959663326E+00    0.3710657308E-01    0.3474509281E+00
    0.1000000000E+05    0.3463301045E-01    0.1307172936E-02    0.6957143096E+00    0.2732854885E-01    0.1517824384E+00
    0.3000000000E+05    0.3282859131E-01    0.1266751075E-02    0.6959251801E+00    0.3676692323E-01    0.2789028092E+00
    0.5000000000E+05    0.2575045791E-01    0.1009410715E-02    0.6959676356E+00    0.3705482303E-01    0.3503667713E+00
    0.7000000000E+05    0.2018587958E-01    0.8011388201E-03    0.6959859113E+00    0.3542352585E-01    0.3992254747E+00
    0.9000000000E+05    0.1609695840E-01    0.6454287573E-03    0.6959961008E+00    0.3331943681E-01    0.4351978133E+00
    0.1100000000E+06    0.1307617400E-01    0.5289054341E-03    0.6960026052E+00    0.3118576994E-01    0.4628524990E+00
    0.1300000000E+06    0.1080420782E-01    0.4403522299E-03    0.6960071205E+00    0.2917306519E-01    0.4847695441E+00
    0.1500000000E+06    0.9061771963E-02    0.3718410116E-03    0.6960104400E+00    0.2732740417E-01    0.5025509338E+00
    0.1700000000E+06    0.7700567572E-02    0.3179117727E-03    0.6960129843E+00    0.2565447670E-01    0.5172524152E+00
    0.1900000000E+06    0.6619230955E-02    0.2747822429E-03    0.6960149971E+00    0.2414438866E-01    0.5295999721E+00
    0.2100000000E+06    0.5747243745E-02    0.2397929136E-03    0.6960166298E+00    0.2278193105E-01    0.5401095306E+00
    0.2300000000E+06    0.5034600739E-02    0.2110410669E-03    0.6960179811E+00    0.2155092912E-01    0.5491576923E+00
    0.2500000000E+06    0.4445176886E-02    0.1871415866E-03    0.6960191181E+00    0.2043603753E-01    0.5570256167E+00
    0.2700000000E+06    0.3952414967E-02    0.1670693512E-03    0.6960200883E+00    0.1942339979E-01    0.5639273059E+00
    0.2900000000E+06    0.3536474222E-02    0.1500538962E-03    0.6960209260E+00    0.1850080078E-01    0.5700284144E+00
    0.3100000000E+06    0.3182310804E-02    0.1355078610E-03    0.6960216567E+00    0.1765759997E-01    0.5754590915E+00
    0.3300000000E+06    0.2878362437E-02    0.1229775806E-03    0.6960222997E+00    0.1688457963E-01    0.5803229529E+00
    0.3500000000E+06    0.2615631728E-02    0.1121084186E-03    0.6960228701E+00    0.1617376969E-01    0.5847034735E+00
    0.3700000000E+06    0.2387037064E-02    0.1026200720E-03    0.6960233794E+00    0.1551827727E-01    0.5886686258E+00
    0.3900000000E+06    0.2186946108E-02    0.9428872561E-04    0.6960238371E+00    0.1491213193E-01    0.5922742978E+00
    0.4100000000E+06    0.2010835855E-02    0.8693398517E-04    0.6960242506E+00    0.1435015032E-01    0.5955668495E+00
    0.4300000000E+06    0.1855041711E-02    0.8040918711E-04    0.6960246261E+00    0.1382781990E-01    0.5985850495E+00
    0.4500000000E+06    0.1716570059E-02    0.7459413029E-04    0.6960249686E+00    0.1334120022E-01    0.6013615591E+00
    0.4700000000E+06    0.1592956681E-02    0.6938956428E-04    0.6960252823E+00    0.1288683953E-01    0.6039240840E+00
    0.4900000000E+06    0.1482158702E-02    0.6471296737E-04    0.6960255707E+00    0.1246170440E-01    0.6062962749E+00
    0.1000000000E+06    0.1447566054E-01    0.5830535048E-03    0.6959996759E+00    0.3224321309E-01    0.4498732048E+00
    0.3000000000E+06    0.3352462281E-02    0.1425032242E-03    0.6960213034E+00    0.1806988302E-01    0.5728205441E+00
    0.5000000000E+06    0.1431021406E-02    0.6255062456E-04    0.6960257063E+00    0.1225924810E-01    0.6074174555E+00
    0.7000000000E+06    0.7864173268E-03    0.3503198931E-04    0.6960276134E+00    0.9238494686E-02    0.6235356747E+00
    0.9000000000E+06    0.4956962530E-03    0.2240010364E-04    0.6960286807E+00    0.7400346800E-02    0.6328300871E+00
    0.1100000000E+07    0.3405291948E-03    0.1556635327E-04    0.6960293636E+00    0.6167070464E-02    0.6388693421E+00
    0.1300000000E+07    0.2481613358E-03    0.1145347608E-04    0.6960298382E+00    0.5283343132E-02    0.6431059236E+00
    0.1500000000E+07    0.1887979649E-03    0.8785647478E-05    0.6960301871E+00    0.4619462239E-02    0.6462409414E+00
    0.1700000000E+07    0.1484159237E-03    0.6956298020E-05    0.6960304545E+00    0.4102699067E-02    0.6486539962E+00
    0.1900000000E+07    0.1197152693E-03    0.5646952107E-05    0.6960306657E+00    0.3689160248E-02    0.6505683954E+00
    0.2100000000E+07    0.9859347616E-04    0.4677288424E-05    0.6960308368E+00    0.3350805164E-02    0.6521240349E+00
    0.2300000000E+07    0.8260172324E-04    0.3938958598E-05    0.6960309780E+00    0.3068890460E-02    0.6534129966E+00
    0.2500000000E+07    0.7020531841E-04    0.3363655859E-05    0.6960310965E+00    0.2830415956E-02    0.6544983563E+00
    0.2700000000E+07    0.6040297893E-04    0.2906573937E-05    0.6960311973E+00    0.2626083706E-02    0.6554247658E+00
    0.2900000000E+07    0.5251897949E-04    0.2537325339E-05    0.6960312840E+00    0.2449068952E-02    0.6562247186E+00
    0.3100000000E+07    0.4608397416E-04    0.2234707212E-05    0.6960313593E+00    0.2294249844E-02    0.6569224225E+00
    0.3300000000E+07    0.4076376233E-04    0.1983558032E-05    0.6960314252E+00    0.2157707968E-02    0.6575362811E+00
    0.3500000000E+07    0.3631516419E-04    0.1772802004E-05    0.6960314835E+00    0.2036394807E-02    0.6580805342E+00
    0.3700000000E+07    0.3255782780E-04    0.1594194481E-05    0.6960315352E+00    0.1927903240E-02    0.6585663719E+00
    0.3900000000E+07    0.2935571912E-04    0.1441495119E-05    0.6960315814E+00    0.1830307425E-02    0.6590027091E+00
    0.4100000000E+07    0.2660467336E-04    0.1309909820E-05    0.6960316230E+00    0.1742048341E-02    0.6593967359E+00
    0.4300000000E+07    0.2422384163E-04    0.1195705996E-05    0.6960316604E+00    0.1661850489E-02    0.6597543146E+00
    0.4500000000E+07    0.2214969995E-04    0.1095942235E-05    0.6960316944E+00    0.1588660295E-02    0.6600802734E+00
    0.4700000000E+07    0.2033177970E-04    0.1008275063E-05    0.6960317253E+00    0.1521599893E-02    0.6603786239E+00
    0.4900000000E+07    0.1872957661E-04    0.9308186415E-06    0.6960317535E+00    0.1459931990E-02    0.6606527274E+00
    0.1000000000E+07    0.4072857583E-03    0.1851635618E-04    0.6960290559E+00    0.6728301433E-02    0.6361398231E+00
    0.3000000000E+07    0.4914379238E-04    0.2378749429E-05    0.6960313229E+00    0.2369153512E-02    0.6565850878E+00
    0.5000000000E+07    0.1799886474E-04    0.8954292735E-06    0.6960317666E+00    0.1430921476E-02    0.6607815907E+00
    0.7000000000E+07    0.9279861124E-05    0.4692317330E-06    0.6960319448E+00    0.1023111644E-02    0.6625877293E+00
    0.9000000000E+07    0.5666934154E-05    0.2895659156E-06    0.6960320344E+00    0.7953937206E-03    0.6635923987E+00
    0.1100000000E+08    0.3830378559E-05    0.1970689502E-06    0.6960320841E+00    0.6501733939E-03    0.6642319511E+00
    0.1300000000E+08    0.2770707774E-05    0.1431663726E-06    0.6960321126E+00    0.5495506726E-03    0.6646747075E+00
    0.1500000000E+08    0.2103989691E-05    0.1089787465E-06    0.6960321288E+00    0.4757447762E-03    0.6649993345E+00
    0.1700000000E+08    0.1657206268E-05    0.8591645298E-07    0.6960321372E+00    0.4193121666E-03    0.6652475132E+00
    0.1900000000E+08    0.1343077292E-05    0.6961144016E-07    0.6960321404E+00    0.3747744403E-03    0.6654433852E+00
    0.2100000000E+08    0.1113702473E-05    0.5764983578E-07    0.6960321400E+00    0.3387357535E-03    0.6656018990E+00
    0.2300000000E+08    0.9410138556E-06    0.4860860253E-07    0.6960321371E+00    0.3089795427E-03    0.6657328042E+00
    0.2500000000E+08    0.8076786405E-06    0.4160424543E-07    0.6960321325E+00    0.2839977336E-03    0.6658427309E+00
    0.2700000000E+08    0.7025229451E-06    0.3606446437E-07    0.6960321265E+00    0.2627287492E-03    0.6659363441E+00
