  Pressure (Pa) 22mC5-500 (mol/kg) 23mC5-500 (mol/kg) 24mC5-500 (mol/kg) 2mC6-500 (mol/kg) 3mC6-500 (mol/kg)
    0.1000000000E+01    0.2971648148E-04    0.2155831380E-05    0.3665984320E-01    0.3634842323E-04    0.1563176184E-04
    0.3000000000E+01    0.8216369831E-04    0.5962352483E-05    0.9948516591E-01    0.1014540737E-03    0.4688621447E-04
    0.5000000000E+01    0.1274791298E-03    0.9253711182E-05    0.1513660627E+00    0.1589752917E-03    0.7812859498E-04
    0.7000000000E+01    0.1675200468E-03    0.1216457625E-04    0.1949340466E+00    0.2110423922E-03    0.1093589255E-03
    0.9000000000E+01    0.2035698493E-03    0.1478792852E-04    0.2320395148E+00    0.2591025938E-03    0.1405772244E-03
    0.1100000000E+02    0.2365408902E-03    0.1718980932E-04    0.2640215595E+00    0.3041660870E-03    0.1717835073E-03
    0.1300000000E+02    0.2670975172E-03    0.1941826440E-04    0.2918731681E+00    0.3469543397E-03    0.2029777883E-03
    0.1500000000E+02    0.2957335638E-03    0.2150897426E-04    0.3163462605E+00    0.3879928018E-03    0.2341600802E-03
    0.1700000000E+02    0.3228227370E-03    0.2348891376E-04    0.3380206616E+00    0.4276706848E-03    0.2653303947E-03
    0.1900000000E+02    0.3486523010E-03    0.2537879744E-04    0.3573506749E+00    0.4662805611E-03    0.2964887430E-03
    0.2100000000E+02    0.3734461464E-03    0.2719475331E-04    0.3746973072E+00    0.5040452159E-03    0.3276351359E-03
    0.2300000000E+02    0.3973809282E-03    0.2894949334E-04    0.3903510500E+00    0.5411362358E-03    0.3587695835E-03
    0.2500000000E+02    0.4205975727E-03    0.3065314746E-04    0.4045482971E+00    0.5776871139E-03    0.3898920960E-03
    0.2700000000E+02    0.4432096207E-03    0.3231386806E-04    0.4174833782E+00    0.6138026423E-03    0.4210026831E-03
    0.2900000000E+02    0.4653093711E-03    0.3393827479E-04    0.4293175173E+00    0.6495657412E-03    0.4521013542E-03
    0.3100000000E+02    0.4869724665E-03    0.3553178639E-04    0.4401855958E+00    0.6850424933E-03    0.4831881189E-03
    0.3300000000E+02    0.5082613596E-03    0.3709887140E-04    0.4502013214E+00    0.7202858973E-03    0.5142629864E-03
    0.3500000000E+02    0.5292279637E-03    0.3864323974E-04    0.4594612271E+00    0.7553386995E-03    0.5453259658E-03
    0.3700000000E+02    0.5499157000E-03    0.4016799055E-04    0.4680477957E+00    0.7902355498E-03    0.5763770663E-03
    0.3900000000E+02    0.5703610954E-03    0.4167572759E-04    0.4760319270E+00    0.8250046596E-03    0.6074162968E-03
    0.4100000000E+02    0.5905950398E-03    0.4316864990E-04    0.4834749020E+00    0.8596690868E-03    0.6384436662E-03
    0.4300000000E+02    0.6106437838E-03    0.4464862375E-04    0.4904299609E+00    0.8942477403E-03    0.6694591835E-03
    0.4500000000E+02    0.6305297368E-03    0.4611724013E-04    0.4969435804E+00    0.9287561699E-03    0.7004628575E-03
    0.4700000000E+02    0.6502721097E-03    0.4757586101E-04    0.5030565143E+00    0.9632071929E-03    0.7314546969E-03
    0.4900000000E+02    0.6698874358E-03    0.4902565684E-04    0.5088046488E+00    0.9976113931E-03    0.7624347105E-03
    0.1000000000E+02    0.2203939547E-03    0.1601320627E-04    0.2486022426E+00    0.2819583587E-03    0.1561818669E-03
    0.3000000000E+02    0.4761913227E-03    0.3473859341E-04    0.4348647629E+00    0.6673363285E-03    0.4676462243E-03
    0.5000000000E+02    0.6796519970E-03    0.4974756639E-04    0.5115519758E+00    0.1014798732E-02    0.7779202853E-03
    0.7000000000E+02    0.8708726809E-03    0.6390564202E-04    0.5533923791E+00    0.1357541685E-02    0.1087013045E-02
    0.9000000000E+02    0.1057929552E-02    0.7778094020E-04    0.5797448848E+00    0.1699843903E-02    0.1394933083E-02
    0.1100000000E+03    0.1243112483E-02    0.9153117465E-04    0.5978680246E+00    0.2042125862E-02    0.1701688813E-02
    0.1300000000E+03    0.1427175446E-02    0.1052066016E-03    0.6110969782E+00    0.2384164848E-02    0.2007288537E-02
    0.1500000000E+03    0.1610374186E-02    0.1188232295E-03    0.6211789704E+00    0.2725673170E-02    0.2311740464E-02
    0.1700000000E+03    0.1792783941E-02    0.1323849662E-03    0.6291178855E+00    0.3066407464E-02    0.2615052716E-02
    0.1900000000E+03    0.1974411479E-02    0.1458913116E-03    0.6355316026E+00    0.3406179787E-02    0.2917233331E-02
    0.2100000000E+03    0.2155238320E-02    0.1593402675E-03    0.6408212687E+00    0.3744848759E-02    0.3218290268E-02
    0.2300000000E+03    0.2335238299E-02    0.1727294854E-03    0.6452586739E+00    0.4082308726E-02    0.3518231407E-02
    0.2500000000E+03    0.2514384776E-02    0.1860567167E-03    0.6490345068E+00    0.4418480754E-02    0.3817064551E-02
    0.2700000000E+03    0.2692653486E-02    0.1993199748E-03    0.6522865086E+00    0.4753305825E-02    0.4114797426E-02
    0.2900000000E+03    0.2870023484E-02    0.2125175751E-03    0.6551166581E+00    0.5086739848E-02    0.4411437683E-02
    0.3100000000E+03    0.3046477258E-02    0.2256481255E-03    0.6576020723E+00    0.5418750011E-02    0.4706992901E-02
    0.3300000000E+03    0.3222000514E-02    0.2387104976E-03    0.6598021479E+00    0.5749312117E-02    0.5001470585E-02
    0.3500000000E+03    0.3396581823E-02    0.2517037941E-03    0.6617633753E+00    0.6078408608E-02    0.5294878168E-02
    0.3700000000E+03    0.3570212262E-02    0.2646273153E-03    0.6635226639E+00    0.6406027098E-02    0.5587223013E-02
    0.3900000000E+03    0.3742885060E-02    0.2774805305E-03    0.6651096894E+00    0.6732159266E-02    0.5878512410E-02
    0.4100000000E+03    0.3914595292E-02    0.2902630523E-03    0.6665485831E+00    0.7056800012E-02    0.6168753583E-02
    0.4300000000E+03    0.4085339608E-02    0.3029746147E-03    0.6678591697E+00    0.7379946810E-02    0.6457953686E-02
    0.4500000000E+03    0.4255115999E-02    0.3156150545E-03    0.6690578865E+00    0.7701599201E-02    0.6746119806E-02
    0.4700000000E+03    0.4423923600E-02    0.3281842962E-03    0.6701584777E+00    0.8021758401E-02    0.7033258963E-02
    0.4900000000E+03    0.4591762524E-02    0.3406823384E-03    0.6711725240E+00    0.8340426989E-02    0.7319378111E-02
    0.1000000000E+03    0.1150690104E-02    0.8466730143E-04    0.5895736893E+00    0.1870997075E-02    0.1548455965E-02
    0.3000000000E+03    0.2958365864E-02    0.2190913078E-03    0.6563983948E+00    0.5252924600E-02    0.4559350451E-02
    0.5000000000E+03    0.4675318999E-02    0.3469046768E-03    0.6716502231E+00    0.8499203419E-02    0.7462057337E-02
    0.7000000000E+03    0.6296165031E-02    0.4676542529E-03    0.6784130889E+00    0.1159779361E-01    0.1026374138E-01
    0.9000000000E+03    0.7824207062E-02    0.5815786189E-03    0.6822325675E+00    0.1455501732E-01    0.1297092506E-01
    0.1100000000E+04    0.9264804326E-02    0.6890703327E-03    0.6846873237E+00    0.1737928413E-01    0.1558956013E-01
    0.1300000000E+04    0.1062360683E-01    0.7905434648E-03    0.6863981899E+00    0.2007896731E-01    0.1812508946E-01
    0.1500000000E+04    0.1190607398E-01    0.8863980487E-03    0.6876589645E+00    0.2266196415E-01    0.2058250090E-01
    0.1700000000E+04    0.1311733144E-01    0.9770096098E-03    0.6886267060E+00    0.2513560560E-01    0.2296637441E-01
    0.1900000000E+04    0.1426213691E-01    0.1062726700E-02    0.6893929996E+00    0.2750666113E-01    0.2528092346E-01
    0.2100000000E+04    0.1534488544E-01    0.1143871314E-02    0.6900148576E+00    0.2978137232E-01    0.2753003144E-01
    0.2300000000E+04    0.1636962946E-01    0.1220740370E-02    0.6905296283E+00    0.3196549426E-01    0.2971728372E-01
    0.2500000000E+04    0.1734010381E-01    0.1293607550E-02    0.6909628018E+00    0.3406433741E-01    0.3184599617E-01
    0.2700000000E+04    0.1825975160E-01    0.1362725199E-02    0.6913323705E+00    0.3608280716E-01    0.3391924031E-01
    0.2900000000E+04    0.1913174919E-01    0.1428326156E-02    0.6916513979E+00    0.3802544028E-01    0.3593986576E-01
    0.3100000000E+04    0.1995902957E-01    0.1490625459E-02    0.6919295978E+00    0.3989643803E-01    0.3791052022E-01
    0.3300000000E+04    0.2074430375E-01    0.1549821913E-02    0.6921743440E+00    0.4169969605E-01    0.3983366729E-01
    0.3500000000E+04    0.2149008035E-01    0.1606099526E-02    0.6923913348E+00    0.4343883136E-01    0.4171160250E-01
    0.3700000000E+04    0.2219868334E-01    0.1659628796E-02    0.6925850433E+00    0.4511720655E-01    0.4354646759E-01
    0.3900000000E+04    0.2287226803E-01    0.1710567889E-02    0.6927590300E+00    0.4673795169E-01    0.4534026341E-01
    0.4100000000E+04    0.2351283561E-01    0.1759063694E-02    0.6929161645E+00    0.4830398396E-01    0.4709486151E-01
    0.4300000000E+04    0.2412224620E-01    0.1805252783E-02    0.6930587851E+00    0.4981802539E-01    0.4881201461E-01
    0.4500000000E+04    0.2470223074E-01    0.1849262273E-02    0.6931888164E+00    0.5128261888E-01    0.5049336603E-01
    0.4700000000E+04    0.2525440162E-01    0.1891210607E-02    0.6933078569E+00    0.5270014270E-01    0.5214045830E-01
    0.4900000000E+04    0.2578026242E-01    0.1931208265E-02    0.6934172456E+00    0.5407282355E-01    0.5375474086E-01
    0.1000000000E+04    0.8555081708E-02    0.6361025699E-03    0.6835803063E+00    0.1598323815E-01    0.1429095973E-01
    0.3000000000E+04    0.1955080463E-01    0.1459875726E-02    0.6917950946E+00    0.3896964327E-01    0.3693128127E-01
    0.5000000000E+04    0.2603376883E-01    0.1950508096E-02    0.6934686806E+00    0.5474300523E-01    0.5455000775E-01
    0.7000000000E+04    0.3001795846E-01    0.2255814125E-02    0.6941904148E+00    0.6623554835E-01    0.6902459655E-01
    0.9000000000E+04    0.3250964380E-01    0.2449847104E-02    0.6945929415E+00    0.7497258695E-01    0.8136761192E-01
    0.1100000000E+05    0.3405891517E-01    0.2573214089E-02    0.6948498460E+00    0.8182618416E-01    0.9217852927E-01
    0.1300000000E+05    0.3498801852E-01    0.2649782763E-02    0.6950281313E+00    0.8733184322E-01    0.1018378589E+00
    0.1500000000E+05    0.3549610379E-01    0.2694356778E-02    0.6951591456E+00    0.9183718329E-01    0.1106005507E+00
    0.1700000000E+05    0.3571157687E-01    0.2716518037E-02    0.6952595183E+00    0.9557811402E-01    0.1186449801E+00
    0.1900000000E+05    0.3572011442E-01    0.2722686421E-02    0.6953388933E+00    0.9872066274E-01    0.1261004460E+00
    0.2100000000E+05    0.3558051048E-01    0.2717287043E-02    0.6954032489E+00    0.1013852698E+00    0.1330634804E+00
    0.2300000000E+05    0.3533406117E-01    0.2703442881E-02    0.6954564893E+00    0.1036615735E+00    0.1396079746E+00
    0.2500000000E+05    0.3501034097E-01    0.2683401990E-02    0.6955012721E+00    0.1056177683E+00    0.1457917130E+00
    0.2700000000E+05    0.3463087704E-01    0.2658809827E-02    0.6955394696E+00    0.1073067294E+00    0.1516607284E+00
    0.2900000000E+05    0.3421155351E-01    0.2630887867E-02    0.6955724391E+00    0.1087701405E+00    0.1572522911E+00
    0.3100000000E+05    0.3376422404E-01    0.2600553678E-02    0.6956011881E+00    0.1100413460E+00    0.1625970096E+00
    0.3300000000E+05    0.3329781695E-01    0.2568503418E-02    0.6956264810E+00    0.1111473673E+00    0.1677203417E+00
    0.3500000000E+05    0.3281910729E-01    0.2535269617E-02    0.6956489076E+00    0.1121103560E+00    0.1726437011E+00
    0.3700000000E+05    0.3233326531E-01    0.2501262342E-02    0.6956689307E+00    0.1129486610E+00    0.1773852834E+00
    0.3900000000E+05    0.3184425215E-01    0.2466798974E-02    0.6956869184E+00    0.1136776238E+00    0.1819606911E+00
    0.4100000000E+05    0.3135510918E-01    0.2432126044E-02    0.6957031672E+00    0.1143101803E+00    0.1863834145E+00
    0.4300000000E+05    0.3086817212E-01    0.2397435452E-02    0.6957179186E+00    0.1148573221E+00    0.1906652051E+00
    0.4500000000E+05    0.3038523135E-01    0.2362876639E-02    0.6957313714E+00    0.1153284545E+00    0.1948163707E+00
    0.4700000000E+05    0.2990765304E-01    0.2328565826E-02    0.6957436903E+00    0.1157316772E+00    0.1988460090E+00
    0.4900000000E+05    0.2943647157E-01    0.2294593077E-02    0.6957550137E+00    0.1160740066E+00    0.2027621967E+00
    0.1000000000E+05    0.3337818825E-01    0.2518596054E-02    0.6947341566E+00    0.7859569569E-01    0.8693706437E-01
    0.3000000000E+05    0.3399077329E-01    0.2615974376E-02    0.6955872886E+00    0.1094279512E+00    0.1599538086E+00
    0.5000000000E+05    0.2920353002E-01    0.2277755840E-02    0.6957603392E+00    0.1162242773E+00    0.2046800293E+00
    0.7000000000E+05    0.2498107921E-01    0.1968557350E-02    0.6958351792E+00    0.1171703941E+00    0.2384875435E+00
    0.9000000000E+05    0.2157728040E-01    0.1714729636E-02    0.6958770625E+00    0.1158914192E+00    0.2660068778E+00
    0.1100000000E+06    0.1883887681E-01    0.1507904156E-02    0.6959038847E+00    0.1136275570E+00    0.2892815715E+00
    0.1300000000E+06    0.1660972136E-01    0.1337850026E-02    0.6959225592E+00    0.1109145900E+00    0.3094394674E+00
    0.1500000000E+06    0.1477027453E-01    0.1196355331E-02    0.6959363247E+00    0.1080150629E+00    0.3271869695E+00
    0.1700000000E+06    0.1323283994E-01    0.1077244749E-02    0.6959469016E+00    0.1050672850E+00    0.3430037643E+00
    0.1900000000E+06    0.1193298706E-01    0.9759058322E-03    0.6959552891E+00    0.1021469663E+00    0.3572342797E+00
    0.2100000000E+06    0.1082276903E-01    0.8888633806E-03    0.6959621075E+00    0.9929598566E-01    0.3701361048E+00
    0.2300000000E+06    0.9865950067E-02    0.8134646961E-03    0.6959677625E+00    0.9653702338E-01    0.3819079463E+00
    0.2500000000E+06    0.9034720869E-02    0.7476568289E-03    0.6959725306E+00    0.9388149497E-01    0.3927068685E+00
    0.2700000000E+06    0.8307429551E-02    0.6898297548E-03    0.6959766071E+00    0.9133406623E-01    0.4026594841E+00
    0.2900000000E+06    0.7666994367E-02    0.6387051223E-03    0.6959801335E+00    0.8889532014E-01    0.4118695261E+00
    0.3100000000E+06    0.7099776468E-02    0.5932563541E-03    0.6959832151E+00    0.8656337770E-01    0.4204231463E+00
    0.3300000000E+06    0.6594766822E-02    0.5526504804E-03    0.6959859319E+00    0.8433490438E-01    0.4283927301E+00
    0.3500000000E+06    0.6142990894E-02    0.5162052095E-03    0.6959883456E+00    0.8220574448E-01    0.4358397083E+00
    0.3700000000E+06    0.5737066550E-02    0.4833568267E-03    0.6959905049E+00    0.8017132470E-01    0.4428166731E+00
    0.3900000000E+06    0.5370871429E-02    0.4536358909E-03    0.6959924483E+00    0.7822691151E-01    0.4493689983E+00
    0.4100000000E+06    0.5039289609E-02    0.4266486215E-03    0.6959942071E+00    0.7636777456E-01    0.4555360999E+00
    0.4300000000E+06    0.4738016493E-02    0.4020624896E-03    0.6959958066E+00    0.7458928889E-01    0.4613524297E+00
    0.4500000000E+06    0.4463406974E-02    0.3795949525E-03    0.6959972679E+00    0.7288699689E-01    0.4668482679E+00
    0.4700000000E+06    0.4212356130E-02    0.3590045633E-03    0.6959986082E+00    0.7125664381E-01    0.4720503630E+00
    0.4900000000E+06    0.3982204665E-02    0.3400838956E-03    0.6959998423E+00    0.6969419570E-01    0.4769824523E+00
    0.1000000000E+06    0.2013548108E-01    0.1606118598E-02    0.6958917951E+00    0.1148398928E+00    0.2780909486E+00
    0.3000000000E+06    0.7374975102E-02    0.6153272885E-03    0.6959817244E+00    0.8771618158E-01    0.4162235791E+00
    0.5000000000E+06    0.3874238101E-02    0.3311927686E-03    0.6960004234E+00    0.6893723753E-01    0.4793539464E+00
    0.7000000000E+06    0.2395691290E-02    0.2082935130E-03    0.6960086470E+00    0.5655732555E-01    0.5167074161E+00
    0.9000000000E+06    0.1629651155E-02    0.1435468430E-03    0.6960133108E+00    0.4788126515E-01    0.5415730593E+00
    0.1100000000E+07    0.1180890867E-02    0.1051236273E-03    0.6960163308E+00    0.4148429194E-01    0.5593608687E+00
    0.1300000000E+07    0.8952444808E-03    0.8040661635E-04    0.6960184538E+00    0.3657951730E-01    0.5727304005E+00
    0.1500000000E+07    0.7021421374E-03    0.6354742414E-04    0.6960200319E+00    0.3270224983E-01    0.5831510388E+00
    0.1700000000E+07    0.5654840711E-03    0.5152341099E-04    0.6960212537E+00    0.2956166232E-01    0.5915034762E+00
    0.1900000000E+07    0.4652190037E-03    0.4264095514E-04    0.6960222291E+00    0.2696682325E-01    0.5983486062E+00
    0.2100000000E+07    0.3894767711E-03    0.3588980487E-04    0.6960230270E+00    0.2478734300E-01    0.6040609507E+00
    0.2300000000E+07    0.3308631631E-03    0.3063640509E-04    0.6960236925E+00    0.2293120246E-01    0.6089002786E+00
    0.2500000000E+07    0.2845759466E-03    0.2646679853E-04    0.6960242565E+00    0.2133163563E-01    0.6130524950E+00
    0.2700000000E+07    0.2473857206E-03    0.2310108057E-04    0.6960247410E+00    0.1993903843E-01    0.6166541835E+00
    0.2900000000E+07    0.2170556550E-03    0.2034440378E-04    0.6960251619E+00    0.1871579603E-01    0.6198079604E+00
    0.3100000000E+07    0.1919965692E-03    0.1805769664E-04    0.6960255313E+00    0.1763287212E-01    0.6225924242E+00
    0.3300000000E+07    0.1710542150E-03    0.1613951627E-04    0.6960258581E+00    0.1666749841E-01    0.6250687978E+00
    0.3500000000E+07    0.1533738486E-03    0.1451444211E-04    0.6960261495E+00    0.1580157194E-01    0.6272854804E+00
    0.3700000000E+07    0.1383115761E-03    0.1312544596E-04    0.6960264110E+00    0.1502051973E-01    0.6292812394E+00
    0.3900000000E+07    0.1253748768E-03    0.1192875303E-04    0.6960266471E+00    0.1431247929E-01    0.6310874933E+00
    0.4100000000E+07    0.1141818212E-03    0.1089030516E-04    0.6960268614E+00    0.1366769708E-01    0.6327299744E+00
    0.4300000000E+07    0.1044325561E-03    0.9983279320E-05    0.6960270567E+00    0.1307808030E-01    0.6342299597E+00
    0.4500000000E+07    0.9588901383E-04    0.9186316010E-05    0.6960272356E+00    0.1253685815E-01    0.6356051949E+00
    0.4700000000E+07    0.8836024201E-04    0.8482234349E-05    0.6960274001E+00    0.1203832276E-01    0.6368705982E+00
    0.4900000000E+07    0.8169164187E-04    0.7857086773E-05    0.6960275518E+00    0.1157762865E-01    0.6380388015E+00
    0.1000000000E+07    0.1378172424E-02    0.1220692143E-03    0.6960149658E+00    0.4445716645E-01    0.5511466233E+00
    0.3000000000E+07    0.2039477020E-03    0.1914936592E-04    0.6960253524E+00    0.1815834266E-01    0.6212421842E+00
    0.5000000000E+07    0.7863952269E-04    0.7570461574E-05    0.6960276234E+00    0.1136015439E-01    0.6385898811E+00
    0.7000000000E+07    0.4161769490E-04    0.4062237599E-05    0.6960286432E+00    0.8251290577E-02    0.6464420402E+00
    0.9000000000E+07    0.2586655682E-04    0.2544801936E-05    0.6960292262E+00    0.6472134457E-02    0.6509152902E+00
    0.1100000000E+08    0.1772839309E-04    0.1751304398E-05    0.6960296038E+00    0.5320847101E-02    0.6538026619E+00
    0.1300000000E+08    0.1297879458E-04    0.1283915783E-05    0.6960298677E+00    0.4515352500E-02    0.6558196755E+00
    0.1500000000E+08    0.9964223175E-05    0.9851013047E-06    0.6960300618E+00    0.3920430382E-02    0.6573078759E+00
    0.1700000000E+08    0.7929663146E-05    0.7822529855E-06    0.6960302099E+00    0.3463184916E-02    0.6584508673E+00
    0.1900000000E+08    0.6490483607E-05    0.6380913043E-06    0.6960303260E+00    0.3100861116E-02    0.6593561223E+00
    0.2100000000E+08    0.5433963252E-05    0.5318604120E-06    0.6960304190E+00    0.2806732587E-02    0.6600907233E+00
    0.2300000000E+08    0.4634671049E-05    0.4512504056E-06    0.6960304946E+00    0.2563237266E-02    0.6606987006E+00
    0.2500000000E+08    0.4014741958E-05    0.3885805106E-06    0.6960305569E+00    0.2358361409E-02    0.6612101474E+00
    0.2700000000E+08    0.3523752434E-05    0.3388543419E-06    0.6960306088E+00    0.2183609986E-02    0.6616463277E+00
