  Pressure (Pa) 22mC5-500 (mol/kg) 23mC5-500 (mol/kg) 24mC5-500 (mol/kg) 2mC6-500 (mol/kg) 3mC6-500 (mol/kg)
    0.1000000000E+01    0.2869583666E-04    0.9257930206E-06    0.1514043673E+00    0.1590492003E-04    0.1042141771E-04
    0.3000000000E+01    0.6662867949E-04    0.2153774023E-05    0.3164957589E+00    0.3885211615E-04    0.3125973631E-04
    0.5000000000E+01    0.9485395745E-04    0.3072451105E-05    0.4047702414E+00    0.5790355397E-04    0.5209211106E-04
    0.7000000000E+01    0.1194838240E-03    0.3877586673E-05    0.4597243960E+00    0.7578855970E-04    0.7291857816E-04
    0.9000000000E+01    0.1425236594E-03    0.4633036100E-05    0.4972293975E+00    0.9328883402E-04    0.9373915379E-04
    0.1100000000E+02    0.1647846599E-03    0.5364462580E-05    0.5244576790E+00    0.1106730406E-03    0.1145538475E-03
    0.1300000000E+02    0.1866407345E-03    0.6083609168E-05    0.5451243522E+00    0.1280421217E-03    0.1353626659E-03
    0.1500000000E+02    0.2082800807E-03    0.6796337050E-05    0.5613463507E+00    0.1454345306E-03    0.1561656143E-03
    0.1700000000E+02    0.2298034096E-03    0.7505751847E-05    0.5744183773E+00    0.1628635171E-03    0.1769626973E-03
    0.1900000000E+02    0.2512669539E-03    0.8213566780E-05    0.5851767764E+00    0.1803317610E-03    0.1977539190E-03
    0.2100000000E+02    0.2727029876E-03    0.8920750167E-05    0.5941858824E+00    0.1978375323E-03    0.2185392833E-03
    0.2300000000E+02    0.2941302921E-03    0.9627854091E-05    0.6018402906E+00    0.2153774013E-03    0.2393187937E-03
    0.2500000000E+02    0.3155597855E-03    0.1033519023E-04    0.6084242120E+00    0.2329474542E-03    0.2600924540E-03
    0.2700000000E+02    0.3369976817E-03    0.1104292801E-04    0.6141475496E+00    0.2505438337E-03    0.2808602675E-03
    0.2900000000E+02    0.3584473284E-03    0.1175115129E-04    0.6191686942E+00    0.2681629639E-03    0.3016222376E-03
    0.3100000000E+02    0.3799103058E-03    0.1245989203E-04    0.6236094129E+00    0.2858016278E-03    0.3223783677E-03
    0.3300000000E+02    0.4013870992E-03    0.1316915073E-04    0.6275648563E+00    0.3034569753E-03    0.3431286610E-03
    0.3500000000E+02    0.4228775198E-03    0.1387890910E-04    0.6311104544E+00    0.3211265011E-03    0.3638731210E-03
    0.3700000000E+02    0.4443809697E-03    0.1458913792E-04    0.6343067738E+00    0.3388080109E-03    0.3846117507E-03
    0.3900000000E+02    0.4658966121E-03    0.1529980208E-04    0.6372030070E+00    0.3564995846E-03    0.4053445535E-03
    0.4100000000E+02    0.4874234809E-03    0.1601086367E-04    0.6398395227E+00    0.3741995414E-03    0.4260715326E-03
    0.4300000000E+02    0.5089605506E-03    0.1672228404E-04    0.6422497595E+00    0.3919064075E-03    0.4467926912E-03
    0.4500000000E+02    0.5305067819E-03    0.1743402495E-04    0.6444616516E+00    0.4096188883E-03    0.4675080325E-03
    0.4700000000E+02    0.5520611499E-03    0.1814604942E-04    0.6464987168E+00    0.4273358434E-03    0.4882175597E-03
    0.4900000000E+02    0.5736226620E-03    0.1885832207E-04    0.6483808963E+00    0.4450562660E-03    0.5089212760E-03
    0.1000000000E+02    0.1537219971E-03    0.5000823186E-05    0.5118447018E+00    0.1019869614E-03    0.1041472354E-03
    0.3000000000E+02    0.3691771006E-03    0.1210545639E-04    0.6214551289E+00    0.2769800407E-03    0.3120010324E-03
    0.5000000000E+02    0.5844057982E-03    0.1921454093E-04    0.6492693216E+00    0.4539174951E-03    0.5192709560E-03
    0.7000000000E+02    0.8002400433E-03    0.2634487554E-04    0.6619687450E+00    0.6311543505E-03    0.7259602571E-03
    0.9000000000E+02    0.1016007095E-02    0.3347318513E-04    0.6692419014E+00    0.8081506598E-03    0.9320720812E-03
    0.1100000000E+03    0.1231350209E-02    0.4058755441E-04    0.6739545687E+00    0.9847081218E-03    0.1137609536E-02
    0.1300000000E+03    0.1446077218E-02    0.4768165685E-04    0.6772565618E+00    0.1160739090E-02    0.1342575700E-02
    0.1500000000E+03    0.1660077434E-02    0.5475188084E-04    0.6796988666E+00    0.1336200003E-02    0.1546973628E-02
    0.1700000000E+03    0.1873283492E-02    0.6179604320E-04    0.6815785747E+00    0.1511067642E-02    0.1750806350E-02
    0.1900000000E+03    0.2085652757E-02    0.6881276995E-04    0.6830700218E+00    0.1685329230E-02    0.1954076875E-02
    0.2100000000E+03    0.2297157561E-02    0.7580117440E-04    0.6842822546E+00    0.1858977793E-02    0.2156788186E-02
    0.2300000000E+03    0.2507779754E-02    0.8276067820E-04    0.6852869784E+00    0.2032009787E-02    0.2358943248E-02
    0.2500000000E+03    0.2717507482E-02    0.8969090631E-04    0.6861332806E+00    0.2204423804E-02    0.2560545001E-02
    0.2700000000E+03    0.2926333199E-02    0.9659162227E-04    0.6868558969E+00    0.2376219810E-02    0.2761596364E-02
    0.2900000000E+03    0.3134252390E-02    0.1034626869E-03    0.6874800994E+00    0.2547398695E-02    0.2962100236E-02
    0.3100000000E+03    0.3341262723E-02    0.1103040309E-03    0.6880247138E+00    0.2717961975E-02    0.3162059493E-02
    0.3300000000E+03    0.3547363472E-02    0.1171156363E-03    0.6885040518E+00    0.2887911612E-02    0.3361476990E-02
    0.3500000000E+03    0.3752555109E-02    0.1238975232E-03    0.6889291876E+00    0.3057249877E-02    0.3560355564E-02
    0.3700000000E+03    0.3956839020E-02    0.1306497408E-03    0.6893088243E+00    0.3225979272E-02    0.3758698027E-02
    0.3900000000E+03    0.4160217289E-02    0.1373723604E-03    0.6896498964E+00    0.3394102460E-02    0.3956507175E-02
    0.4100000000E+03    0.4362692541E-02    0.1440654705E-03    0.6899579969E+00    0.3561622226E-02    0.4153785782E-02
    0.4300000000E+03    0.4564267830E-02    0.1507291732E-03    0.6902376876E+00    0.3728541444E-02    0.4350536600E-02
    0.4500000000E+03    0.4764946543E-02    0.1573635809E-03    0.6904927254E+00    0.3894863051E-02    0.4546762364E-02
    0.4700000000E+03    0.4964732333E-02    0.1639688144E-03    0.6907262329E+00    0.4060590029E-02    0.4742465789E-02
    0.4900000000E+03    0.5163629063E-02    0.1705450014E-03    0.6909408266E+00    0.4225725392E-02    0.4937649570E-02
    0.1000000000E+03    0.1123746226E-02    0.3703259382E-04    0.6718256243E+00    0.8964912040E-03    0.1034912412E-02
    0.3000000000E+03    0.3237871241E-02    0.1068870762E-03    0.6877613722E+00    0.2632757172E-02    0.3062147762E-02
    0.5000000000E+03    0.5262745286E-02    0.1738222437E-03    0.6910417348E+00    0.4308072168E-02    0.5035047430E-02
    0.7000000000E+03    0.7199439948E-02    0.2378764653E-03    0.6924578029E+00    0.5924694841E-02    0.6956367595E-02
    0.9000000000E+03    0.9052310277E-02    0.2991923656E-03    0.6932472916E+00    0.7485634277E-02    0.8828673948E-02
    0.1100000000E+04    0.1082586909E-01    0.3579170827E-03    0.6937507837E+00    0.8993781852E-02    0.1065435815E-01
    0.1300000000E+04    0.1252443744E-01    0.4141913223E-03    0.6940998788E+00    0.1045185076E-01    0.1243565254E-01
    0.1500000000E+04    0.1415208045E-01    0.4681473936E-03    0.6943561692E+00    0.1186237650E-01    0.1417464333E-01
    0.1700000000E+04    0.1571260237E-01    0.5199090954E-03    0.6945523293E+00    0.1322772744E-01    0.1587328257E-01
    0.1900000000E+04    0.1720955786E-01    0.5695921007E-03    0.6947073047E+00    0.1455011696E-01    0.1753339884E-01
    0.2100000000E+04    0.1864626772E-01    0.6173044784E-03    0.6948328375E+00    0.1583161538E-01    0.1915670704E-01
    0.2300000000E+04    0.2002583557E-01    0.6631472381E-03    0.6949365932E+00    0.1707416105E-01    0.2074481719E-01
    0.2500000000E+04    0.2135116397E-01    0.7072148568E-03    0.6950237883E+00    0.1827957059E-01    0.2229924243E-01
    0.2700000000E+04    0.2262496963E-01    0.7495957730E-03    0.6950980963E+00    0.1944954823E-01    0.2382140633E-01
    0.2900000000E+04    0.2384979745E-01    0.7903728444E-03    0.6951621788E+00    0.2058569432E-01    0.2531264949E-01
    0.3100000000E+04    0.2502803348E-01    0.8296237679E-03    0.6952180116E+00    0.2168951317E-01    0.2677423561E-01
    0.3300000000E+04    0.2616191681E-01    0.8674214660E-03    0.6952670922E+00    0.2276242006E-01    0.2820735698E-01
    0.3500000000E+04    0.2725355043E-01    0.9038344400E-03    0.6953105762E+00    0.2380574781E-01    0.2961313958E-01
    0.3700000000E+04    0.2830491121E-01    0.9389270933E-03    0.6953493698E+00    0.2482075268E-01    0.3099264764E-01
    0.3900000000E+04    0.2931785903E-01    0.9727600278E-03    0.6953841935E+00    0.2580861977E-01    0.3234688794E-01
    0.4100000000E+04    0.3029414513E-01    0.1005390315E-02    0.6954156272E+00    0.2677046803E-01    0.3367681368E-01
    0.4300000000E+04    0.3123541982E-01    0.1036871747E-02    0.6954441434E+00    0.2770735482E-01    0.3498332803E-01
    0.4500000000E+04    0.3214323946E-01    0.1067255062E-02    0.6954701305E+00    0.2862028010E-01    0.3626728747E-01
    0.4700000000E+04    0.3301907301E-01    0.1096588156E-02    0.6954939108E+00    0.2951019027E-01    0.3752950478E-01
    0.4900000000E+04    0.3386430790E-01    0.1124916277E-02    0.6955157543E+00    0.3037798173E-01    0.3877075190E-01
    0.1000000000E+04    0.9948727826E-02    0.3288696391E-03    0.6935241042E+00    0.8246133215E-02    0.9747200724E-02
    0.3000000000E+04    0.2444459619E-01    0.8101844093E-03    0.6951910235E+00    0.2114155419E-01    0.2604707355E-01
    0.5000000000E+04    0.3427586350E-01    0.1138716931E-02    0.6955260222E+00    0.3080385020E-01    0.3938374231E-01
    0.7000000000E+04    0.4118369362E-01    0.1371208137E-02    0.6956698873E+00    0.3834458423E-01    0.5070292514E-01
    0.9000000000E+04    0.4615721908E-01    0.1539948987E-02    0.6957499281E+00    0.4441331419E-01    0.6057240792E-01
    0.1100000000E+05    0.4979618092E-01    0.1664555979E-02    0.6958009232E+00    0.4941555571E-01    0.6935571198E-01
    0.1300000000E+05    0.5248338060E-01    0.1757575132E-02    0.6958362633E+00    0.5361795387E-01    0.7729760444E-01
    0.1500000000E+05    0.5447345319E-01    0.1827369516E-02    0.6958622030E+00    0.5720332949E-01    0.8456971637E-01
    0.1700000000E+05    0.5594161955E-01    0.1879706633E-02    0.6958820557E+00    0.6030142491E-01    0.9129648204E-01
    0.1900000000E+05    0.5701191529E-01    0.1918678552E-02    0.6958977410E+00    0.6300701275E-01    0.9757067641E-01
    0.2100000000E+05    0.5777427260E-01    0.1947259312E-02    0.6959104478E+00    0.6539104365E-01    0.1034631341E+00
    0.2300000000E+05    0.5829524943E-01    0.1967655433E-02    0.6959209518E+00    0.6750777015E-01    0.1090290556E+00
    0.2500000000E+05    0.5862498723E-01    0.1981533491E-02    0.6959297809E+00    0.6939944765E-01    0.1143122299E+00
    0.2700000000E+05    0.5880184968E-01    0.1990172021E-02    0.6959373067E+00    0.7109952399E-01    0.1193479400E+00
    0.2900000000E+05    0.5885559121E-01    0.1994565415E-02    0.6959437983E+00    0.7263485697E-01    0.1241650103E+00
    0.3100000000E+05    0.5880956801E-01    0.1995496506E-02    0.6959494554E+00    0.7402728969E-01    0.1287872800E+00
    0.3300000000E+05    0.5868231055E-01    0.1993588270E-02    0.6959544297E+00    0.7529479120E-01    0.1332346838E+00
    0.3500000000E+05    0.5848866116E-01    0.1989341268E-02    0.6959588377E+00    0.7645229693E-01    0.1375240579E+00
    0.3700000000E+05    0.5824060961E-01    0.1983161196E-02    0.6959627713E+00    0.7751233736E-01    0.1416697500E+00
    0.3900000000E+05    0.5794791549E-01    0.1975379430E-02    0.6959663032E+00    0.7848551512E-01    0.1456840873E+00
    0.4100000000E+05    0.5761857768E-01    0.1966268546E-02    0.6959694920E+00    0.7938087154E-01    0.1495777412E+00
    0.4300000000E+05    0.5725919240E-01    0.1956054174E-02    0.6959723856E+00    0.8020617174E-01    0.1533600123E+00
    0.4500000000E+05    0.5687522942E-01    0.1944924161E-02    0.6959750233E+00    0.8096812865E-01    0.1570390587E+00
    0.4700000000E+05    0.5647124694E-01    0.1933035706E-02    0.6959774375E+00    0.8167258078E-01    0.1606220775E+00
    0.4900000000E+05    0.5605106048E-01    0.1920520976E-02    0.6959796556E+00    0.8232463466E-01    0.1641154526E+00
    0.1000000000E+05    0.4811581575E-01    0.1606861806E-02    0.6957779686E+00    0.4702863082E-01    0.6508241426E-01
    0.3000000000E+05    0.5884379401E-01    0.1995421562E-02    0.6959467207E+00    0.7334773306E-01    0.1264991683E+00
    0.5000000000E+05    0.5583591352E-01    0.1914064332E-02    0.6959806985E+00    0.8263243666E-01    0.1658303265E+00
    0.7000000000E+05    0.5123715543E-01    0.1771551227E-02    0.6959953265E+00    0.8688815533E-01    0.1965288677E+00
    0.9000000000E+05    0.4673712814E-01    0.1627594851E-02    0.6960034834E+00    0.8885353285E-01    0.2222250968E+00
    0.1100000000E+06    0.4266117725E-01    0.1494897711E-02    0.6960086908E+00    0.8956357651E-01    0.2444930739E+00
    0.1300000000E+06    0.3904398495E-01    0.1375676285E-02    0.6960123064E+00    0.8951538771E-01    0.2641916426E+00
    0.1500000000E+06    0.3584849916E-01    0.1269335027E-02    0.6960149649E+00    0.8898343115E-01    0.2818578227E+00
    0.1700000000E+06    0.3302286910E-01    0.1174548930E-02    0.6960170028E+00    0.8813340632E-01    0.2978586163E+00
    0.1900000000E+06    0.3051672972E-01    0.1089902493E-02    0.6960186153E+00    0.8707160578E-01    0.3124607336E+00
    0.2100000000E+06    0.2828556780E-01    0.1014088428E-02    0.6960199235E+00    0.8586919324E-01    0.3258667812E+00
    0.2300000000E+06    0.2629133098E-01    0.9459589601E-03    0.6960210064E+00    0.8457530461E-01    0.3382358359E+00
    0.2500000000E+06    0.2450187520E-01    0.8845262739E-03    0.6960219178E+00    0.8322463347E-01    0.3496959971E+00
    0.2700000000E+06    0.2289012676E-01    0.8289464913E-03    0.6960226956E+00    0.8184207103E-01    0.3603524883E+00
    0.2900000000E+06    0.2143325535E-01    0.7784998441E-03    0.6960233673E+00    0.8044567137E-01    0.3702931306E+00
    0.3100000000E+06    0.2011194826E-01    0.7325716447E-03    0.6960239533E+00    0.7904861459E-01    0.3795921819E+00
    0.3300000000E+06    0.1890980211E-01    0.6906355229E-03    0.6960244691E+00    0.7766054480E-01    0.3883131162E+00
    0.3500000000E+06    0.1781282270E-01    0.6522391947E-03    0.6960249267E+00    0.7628850430E-01    0.3965106894E+00
    0.3700000000E+06    0.1680901720E-01    0.6169925812E-03    0.6960253354E+00    0.7493759903E-01    0.4042325095E+00
    0.3900000000E+06    0.1588806189E-01    0.5845579614E-03    0.6960257028E+00    0.7361148074E-01    0.4115202524E+00
    0.4100000000E+06    0.1504103137E-01    0.5546418266E-03    0.6960260348E+00    0.7231270145E-01    0.4184106206E+00
    0.4300000000E+06    0.1426017701E-01    0.5269881398E-03    0.6960263363E+00    0.7104297718E-01    0.4249361087E+00
    0.4500000000E+06    0.1353874504E-01    0.5013727453E-03    0.6960266114E+00    0.6980338641E-01    0.4311256225E+00
    0.4700000000E+06    0.1287082658E-01    0.4775987172E-03    0.6960268634E+00    0.6859452055E-01    0.4370049861E+00
    0.4900000000E+06    0.1225123333E-01    0.4554924765E-03    0.6960270951E+00    0.6741659907E-01    0.4425973600E+00
    0.1000000000E+06    0.4464107934E-01    0.1559590840E-02    0.6960063455E+00    0.8932707131E-01    0.2337236502E+00
    0.3000000000E+06    0.2075674331E-01    0.7550057276E-03    0.6960236699E+00    0.7974655201E-01    0.3750186623E+00
    0.5000000000E+06    0.1195810854E-01    0.4450161051E-03    0.6960272041E+00    0.6683923160E-01    0.4452925221E+00
    0.7000000000E+06    0.7768897102E-02    0.2938637434E-03    0.6960287385E+00    0.5681420516E-01    0.4882375109E+00
    0.9000000000E+06    0.5448956151E-02    0.2087494798E-03    0.6960295996E+00    0.4918803373E-01    0.5172809506E+00
    0.1100000000E+07    0.4030967164E-02    0.1560500574E-03    0.6960301521E+00    0.4327806100E-01    0.5382424916E+00
    0.1300000000E+07    0.3101484194E-02    0.1211391025E-03    0.6960305373E+00    0.3859223096E-01    0.5540833823E+00
    0.1500000000E+07    0.2459486407E-02    0.9680920560E-04    0.6960308215E+00    0.3479767870E-01    0.5664742509E+00
    0.1700000000E+07    0.1997642818E-02    0.7917013847E-04    0.6960310400E+00    0.3166776718E-01    0.5764301190E+00
    0.1900000000E+07    0.1654399907E-02    0.6597042392E-04    0.6960312133E+00    0.2904485071E-01    0.5846034831E+00
    0.2100000000E+07    0.1392404096E-02    0.5583294023E-04    0.6960313542E+00    0.2681662307E-01    0.5914329365E+00
    0.2300000000E+07    0.1187922500E-02    0.4787662206E-04    0.6960314710E+00    0.2490122588E-01    0.5972241809E+00
    0.2500000000E+07    0.1025291126E-02    0.4151633237E-04    0.6960315694E+00    0.2323773195E-01    0.6021968045E+00
    0.2700000000E+07    0.8938342575E-03    0.3635102735E-04    0.6960316535E+00    0.2177993114E-01    0.6065125992E+00
    0.2900000000E+07    0.7860734063E-03    0.3209832551E-04    0.6960317261E+00    0.2049217959E-01    0.6102933944E+00
    0.3100000000E+07    0.6966438597E-03    0.2855470156E-04    0.6960317896E+00    0.1934656535E-01    0.6136326724E+00
    0.3300000000E+07    0.6216165046E-03    0.2557044071E-04    0.6960318454E+00    0.1832093301E-01    0.6166033556E+00
    0.3500000000E+07    0.5580605095E-03    0.2303341110E-04    0.6960318949E+00    0.1739748057E-01    0.6192631610E+00
    0.3700000000E+07    0.5037538534E-03    0.2085827505E-04    0.6960319391E+00    0.1656174536E-01    0.6216583652E+00
    0.3900000000E+07    0.4569872264E-03    0.1897915033E-04    0.6960319789E+00    0.1580185953E-01    0.6238265033E+00
    0.4100000000E+07    0.4164284098E-03    0.1734451529E-04    0.6960320148E+00    0.1510799529E-01    0.6257983388E+00
    0.4300000000E+07    0.3810267234E-03    0.1591360631E-04    0.6960320474E+00    0.1447194620E-01    0.6275993236E+00
    0.4500000000E+07    0.3499445643E-03    0.1465382792E-04    0.6960320771E+00    0.1388680713E-01    0.6292506965E+00
    0.4700000000E+07    0.3225076039E-03    0.1353886259E-04    0.6960321042E+00    0.1334672690E-01    0.6307703196E+00
    0.4900000000E+07    0.2981680495E-03    0.1254727232E-04    0.6960321292E+00    0.1284671517E-01    0.6321733234E+00
    0.1000000000E+07    0.4660294457E-02    0.1795134404E-03    0.6960299029E+00    0.4605370385E-01    0.5285452579E+00
    0.3000000000E+07    0.7393404161E-03    0.3024827411E-04    0.6960317589E+00    0.1990310623E-01    0.6120132557E+00
    0.5000000000E+07    0.2870163138E-03    0.1209211428E-04    0.6960321409E+00    0.1261037275E-01    0.6328352004E+00
    0.7000000000E+07    0.1511324918E-03    0.6492752366E-05    0.6960323047E+00    0.9210446913E-02    0.6422680670E+00
    0.9000000000E+07    0.9298560846E-04    0.4053479729E-05    0.6960323944E+00    0.7247065215E-02    0.6476430814E+00
    0.1100000000E+08    0.6289558883E-04    0.2773868667E-05    0.6960324500E+00    0.5969845324E-02    0.6511128534E+00
    0.1300000000E+08    0.4534534930E-04    0.2019239038E-05    0.6960324871E+00    0.5073138410E-02    0.6535368396E+00
    0.1500000000E+08    0.3422825629E-04    0.1536765764E-05    0.6960325131E+00    0.4409220435E-02    0.6553253798E+00
    0.1700000000E+08    0.2674716009E-04    0.1209481939E-05    0.6960325319E+00    0.3898010895E-02    0.6566990833E+00
    0.1900000000E+08    0.2147449357E-04    0.9771835742E-06    0.6960325458E+00    0.3492350708E-02    0.6577870912E+00
    0.2100000000E+08    0.1761998828E-04    0.8062960951E-06    0.6960325562E+00    0.3162669685E-02    0.6586700138E+00
    0.2300000000E+08    0.1471751048E-04    0.6768857166E-06    0.6960325641E+00    0.2889489994E-02    0.6594007621E+00
    0.2500000000E+08    0.1247773307E-04    0.5765066214E-06    0.6960325700E+00    0.2659461259E-02    0.6600154993E+00
    0.2700000000E+08    0.1071338736E-04    0.4970600260E-06    0.6960325744E+00    0.2463128038E-02    0.6605397793E+00
