  Pressure (Pa) 22mC5-500 (mol/kg) 23mC5-500 (mol/kg) 24mC5-500 (mol/kg) 2mC6-500 (mol/kg) 3mC6-500 (mol/kg)
    0.1000000000E+01    0.3343175943E-04    0.5389694584E-05    0.3666024944E-01    0.1817461403E-04    0.1042139558E-04
    0.3000000000E+01    0.9244002053E-04    0.1490682995E-04    0.9948802523E-01    0.5073036439E-04    0.3125946471E-04
    0.5000000000E+01    0.1434291066E-03    0.2313672186E-04    0.1513723929E+00    0.7949631398E-04    0.5209125103E-04
    0.7000000000E+01    0.1884879052E-03    0.3041595541E-04    0.1949440940E+00    0.1055373720E-03    0.7291676712E-04
    0.9000000000E+01    0.2290599955E-03    0.3697694337E-04    0.2320531490E+00    0.1295770436E-03    0.9373602302E-04
    0.1100000000E+02    0.2661716732E-03    0.4298477314E-04    0.2640384768E+00    0.1521203883E-03    0.1145490270E-03
    0.1300000000E+02    0.3005703007E-03    0.4855955450E-04    0.2918929972E+00    0.1735281353E-03    0.1353557864E-03
    0.1500000000E+02    0.3328114452E-03    0.5379048961E-04    0.3163686177E+00    0.1940630188E-03    0.1561563073E-03
    0.1700000000E+02    0.3633155468E-03    0.5874501892E-04    0.3380451782E+00    0.2139196586E-03    0.1769505955E-03
    0.1900000000E+02    0.3924058035E-03    0.6347493287E-04    0.3573770104E+00    0.2332443559E-03    0.1977386564E-03
    0.2100000000E+02    0.4203341176E-03    0.6802055569E-04    0.3747251540E+00    0.2521485169E-03    0.2185204949E-03
    0.2300000000E+02    0.4472992502E-03    0.7241367113E-04    0.3903801349E+00    0.2707179471E-03    0.2392961157E-03
    0.2500000000E+02    0.4734597642E-03    0.7667960743E-04    0.4045783788E+00    0.2890194028E-03    0.2600655234E-03
    0.2700000000E+02    0.4989434112E-03    0.8083874845E-04    0.4175142455E+00    0.3071052880E-03    0.2808287222E-03
    0.2900000000E+02    0.5238540425E-03    0.8490764569E-04    0.4293489862E+00    0.3250170691E-03    0.3015857163E-03
    0.3100000000E+02    0.5482767680E-03    0.8889984797E-04    0.4402175062E+00    0.3427877920E-03    0.3223365100E-03
    0.3300000000E+02    0.5722818569E-03    0.9282652817E-04    0.4502335345E+00    0.3604439595E-03    0.3430811073E-03
    0.3500000000E+02    0.5959277190E-03    0.9669696223E-04    0.4594936228E+00    0.3780069468E-03    0.3638195120E-03
    0.3700000000E+02    0.6192632089E-03    0.1005188990E-03    0.4680802703E+00    0.3954940803E-03    0.3845517282E-03
    0.3900000000E+02    0.6423294235E-03    0.1042988484E-03    0.4760643911E+00    0.4129194663E-03    0.4052777597E-03
    0.4100000000E+02    0.6651611165E-03    0.1080423085E-03    0.4835072785E+00    0.4302946336E-03    0.4259976104E-03
    0.4300000000E+02    0.6877878214E-03    0.1117539451E-03    0.4904621837E+00    0.4476290361E-03    0.4467112839E-03
    0.4500000000E+02    0.7102347494E-03    0.1154377359E-03    0.4969755927E+00    0.4649304478E-03    0.4674187841E-03
    0.4700000000E+02    0.7325235123E-03    0.1190970857E-03    0.5030882678E+00    0.4822052757E-03    0.4881201148E-03
    0.4900000000E+02    0.7546727091E-03    0.1227349204E-03    0.5088361020E+00    0.4994588104E-03    0.5088152795E-03
    0.1000000000E+02    0.2479963460E-03    0.4004163705E-04    0.2486175623E+00    0.1410104725E-03    0.1041433061E-03
    0.3000000000E+02    0.5361216925E-03    0.8691258594E-04    0.4348964712E+00    0.3339182716E-03    0.3119618880E-03
    0.5000000000E+02    0.7657000781E-03    0.1245465721E-03    0.5115832654E+00    0.5080789906E-03    0.5191605509E-03
    0.7000000000E+02    0.9818439589E-03    0.1601079595E-03    0.5534193671E+00    0.6800913398E-03    0.7257431639E-03
    0.9000000000E+02    0.1193635868E-02    0.1950165253E-03    0.5797671385E+00    0.8520922748E-03    0.9317133465E-03
    0.1100000000E+03    0.1403647417E-02    0.2296658216E-03    0.5978859670E+00    0.1024289243E-02    0.1137074636E-02
    0.1300000000E+03    0.1612722139E-02    0.2641807283E-03    0.6111111931E+00    0.1196568107E-02    0.1341830522E-02
    0.1500000000E+03    0.1821143106E-02    0.2986005138E-03    0.6211900113E+00    0.1368782304E-02    0.1545984458E-02
    0.1700000000E+03    0.2028990402E-02    0.3329342083E-03    0.6291262298E+00    0.1540807493E-02    0.1749539867E-02
    0.1900000000E+03    0.2236267166E-02    0.3671798366E-03    0.6355376491E+00    0.1712547094E-02    0.1952500142E-02
    0.2100000000E+03    0.2442948221E-02    0.4013316911E-03    0.6408253478E+00    0.1883927856E-02    0.2154868648E-02
    0.2300000000E+03    0.2648999807E-02    0.4353832002E-03    0.6452610587E+00    0.2054894429E-02    0.2356648722E-02
    0.2500000000E+03    0.2854387709E-02    0.4693280538E-03    0.6490354245E+00    0.2225404863E-02    0.2557843676E-02
    0.2700000000E+03    0.3059080446E-02    0.5031606068E-03    0.6522861485E+00    0.2395427200E-02    0.2758456794E-02
    0.2900000000E+03    0.3263050330E-02    0.5368759796E-03    0.6551151794E+00    0.2564936982E-02    0.2958491335E-02
    0.3100000000E+03    0.3466273605E-02    0.5704700334E-03    0.6575996096E+00    0.2733915422E-02    0.3157950533E-02
    0.3300000000E+03    0.3668730183E-02    0.6039392987E-03    0.6597988157E+00    0.2902348073E-02    0.3356837596E-02
    0.3500000000E+03    0.3870403265E-02    0.6372808916E-03    0.6617592716E+00    0.3070223842E-02    0.3555155707E-02
    0.3700000000E+03    0.4071278919E-02    0.6704924326E-03    0.6635178730E+00    0.3237534251E-02    0.3752908025E-02
    0.3900000000E+03    0.4271345695E-02    0.7035719726E-03    0.6651042842E+00    0.3404272884E-02    0.3950097684E-02
    0.4100000000E+03    0.4470594268E-02    0.7365179297E-03    0.6665426272E+00    0.3570434969E-02    0.4146727794E-02
    0.4300000000E+03    0.4669017140E-02    0.7693290337E-03    0.6678527185E+00    0.3736017046E-02    0.4342801442E-02
    0.4500000000E+03    0.4866608370E-02    0.8020042802E-03    0.6690509887E+00    0.3901016721E-02    0.4538321690E-02
    0.4700000000E+03    0.5063363358E-02    0.8345428914E-03    0.6701511761E+00    0.4065432466E-02    0.4733291578E-02
    0.4900000000E+03    0.5259278651E-02    0.8669442832E-03    0.6711648566E+00    0.4229263461E-02    0.4927714121E-02
    0.1000000000E+03    0.1298791180E-02    0.2123626573E-03    0.5895937169E+00    0.9381712600E-03    0.1034469884E-02
    0.3000000000E+03    0.3364756631E-02    0.5536884030E-03    0.6563964086E+00    0.2649493611E-02    0.3058292651E-02
    0.5000000000E+03    0.5356920606E-02    0.8830933854E-03    0.6716423857E+00    0.4310959583E-02    0.5024721075E-02
    0.7000000000E+03    0.7265482206E-02    0.1198837579E-02    0.6784030714E+00    0.5914348043E-02    0.6936844525E-02
    0.9000000000E+03    0.9090894994E-02    0.1500988152E-02    0.6822216205E+00    0.7460892059E-02    0.8797525673E-02
    0.1100000000E+04    0.1083633586E-01    0.1790063628E-02    0.6846759794E+00    0.8953103100E-02    0.1060942145E-01
    0.1300000000E+04    0.1250566288E-01    0.2066693660E-02    0.6863867057E+00    0.1039367771E-01    0.1237500150E-01
    0.1500000000E+04    0.1410282638E-01    0.2331522479E-02    0.6876474751E+00    0.1178525099E-01    0.1409656456E-01
    0.1700000000E+04    0.1563166749E-01    0.2585176188E-02    0.6886152850E+00    0.1313032856E-01    0.1577625329E-01
    0.1900000000E+04    0.1709584515E-01    0.2828251006E-02    0.6893816879E+00    0.1443126948E-01    0.1741606736E-01
    0.2100000000E+04    0.1849881245E-01    0.3061309511E-02    0.6900036779E+00    0.1569028623E-01    0.1901787547E-01
    0.2300000000E+04    0.1984381365E-01    0.3284880225E-02    0.6905185925E+00    0.1690945087E-01    0.2058342595E-01
    0.2500000000E+04    0.2113389040E-01    0.3499458652E-02    0.6909519152E+00    0.1809070351E-01    0.2211435651E-01
    0.2700000000E+04    0.2237189185E-01    0.3705508951E-02    0.6913216346E+00    0.1923586123E-01    0.2361220295E-01
    0.2900000000E+04    0.2356048627E-01    0.3903465849E-02    0.6916408114E+00    0.2034662686E-01    0.2507840709E-01
    0.3100000000E+04    0.2470217305E-01    0.4093736592E-02    0.6919191582E+00    0.2142459739E-01    0.2651432396E-01
    0.3300000000E+04    0.2579929440E-01    0.4276702858E-02    0.6921640478E+00    0.2247127176E-01    0.2792122836E-01
    0.3500000000E+04    0.2685404651E-01    0.4452722570E-02    0.6923811780E+00    0.2348805809E-01    0.2930032078E-01
    0.3700000000E+04    0.2786848998E-01    0.4622131606E-02    0.6925750215E+00    0.2447628034E-01    0.3065273285E-01
    0.3900000000E+04    0.2884455963E-01    0.4785245384E-02    0.6927491390E+00    0.2543718445E-01    0.3197953228E-01
    0.4100000000E+04    0.2978407351E-01    0.4942360330E-02    0.6929063998E+00    0.2637194397E-01    0.3328172736E-01
    0.4300000000E+04    0.3068874125E-01    0.5093755236E-02    0.6930491423E+00    0.2728166517E-01    0.3456027118E-01
    0.4500000000E+04    0.3156017176E-01    0.5239692512E-02    0.6931792914E+00    0.2816739185E-01    0.3581606535E-01
    0.4700000000E+04    0.3239988032E-01    0.5380419340E-02    0.6932984457E+00    0.2903010961E-01    0.3704996354E-01
    0.4900000000E+04    0.3320929509E-01    0.5516168728E-02    0.6934079441E+00    0.2987074990E-01    0.3826277468E-01
    0.1000000000E+04    0.9973376855E-02    0.1647121902E-02    0.6835691166E+00    0.8213620671E-02    0.9709413194E-02
    0.3000000000E+04    0.2413704317E-01    0.3999537558E-02    0.6917845820E+00    0.2088961562E-01    0.2580006995E-01
    0.5000000000E+04    0.3360306629E-01    0.5582246067E-02    0.6934594326E+00    0.3028306817E-01    0.3886151389E-01
    0.7000000000E+04    0.4017761540E-01    0.6689745024E-02    0.6941820700E+00    0.3756089310E-01    0.4989610977E-01
    0.9000000000E+04    0.4486754587E-01    0.7486477207E-02    0.6945852681E+00    0.4339046580E-01    0.5949228306E-01
    0.1100000000E+05    0.4827252897E-01    0.8070575044E-02    0.6948426956E+00    0.4818126240E-01    0.6802054293E-01
    0.1300000000E+05    0.5076980696E-01    0.8503901210E-02    0.6950214033E+00    0.5219892605E-01    0.7572720341E-01
    0.1500000000E+05    0.5260736818E-01    0.8827211973E-02    0.6951527682E+00    0.5562366056E-01    0.8278326788E-01
    0.1700000000E+05    0.5395420158E-01    0.9068344092E-02    0.6952534385E+00    0.5858226200E-01    0.8931173599E-01
    0.1900000000E+05    0.5492895671E-01    0.9246888975E-02    0.6953330701E+00    0.6116670888E-01    0.9540372751E-01
    0.2100000000E+05    0.5561706570E-01    0.9376988325E-02    0.6953976503E+00    0.6344546752E-01    0.1011284502E+00
    0.2300000000E+05    0.5608138071E-01    0.9469073130E-02    0.6954510894E+00    0.6547064337E-01    0.1065396046E+00
    0.2500000000E+05    0.5636900798E-01    0.9530982242E-02    0.6954960498E+00    0.6728265952E-01    0.1116796372E+00
    0.2700000000E+05    0.5651582697E-01    0.9568703036E-02    0.6955344075E+00    0.6891340764E-01    0.1165826466E+00
    0.2900000000E+05    0.5654955538E-01    0.9586874388E-02    0.6955675222E+00    0.7038842480E-01    0.1212764193E+00
    0.3100000000E+05    0.5649187444E-01    0.9589135925E-02    0.6955964039E+00    0.7172843135E-01    0.1257838871E+00
    0.3300000000E+05    0.5635993208E-01    0.9578375383E-02    0.6956218186E+00    0.7295043914E-01    0.1301241911E+00
    0.3500000000E+05    0.5616742485E-01    0.9556906905E-02    0.6956443575E+00    0.7406856457E-01    0.1343134721E+00
    0.3700000000E+05    0.5592538922E-01    0.9526601615E-02    0.6956644848E+00    0.7509463448E-01    0.1383654669E+00
    0.3900000000E+05    0.5564278838E-01    0.9488984623E-02    0.6956825694E+00    0.7603864454E-01    0.1422919647E+00
    0.4100000000E+05    0.5532695337E-01    0.9445308033E-02    0.6956989087E+00    0.7690911033E-01    0.1461031608E+00
    0.4300000000E+05    0.5498391840E-01    0.9396606544E-02    0.6957137448E+00    0.7771333971E-01    0.1498079338E+00
    0.4500000000E+05    0.5461867863E-01    0.9343740252E-02    0.6957272771E+00    0.7845764629E-01    0.1534140657E+00
    0.4700000000E+05    0.5423539027E-01    0.9287427937E-02    0.6957396710E+00    0.7914751857E-01    0.1569284175E+00
    0.4900000000E+05    0.5383752732E-01    0.9228273178E-02    0.6957510651E+00    0.7978775515E-01    0.1603570718E+00
    0.1000000000E+05    0.4670324279E-01    0.7800613079E-02    0.6947267596E+00    0.4589659640E-01    0.6387231177E-01
    0.3000000000E+05    0.5653097745E-01    0.9589798142E-02    0.6955824395E+00    0.7107416495E-01    0.1235521665E+00
    0.5000000000E+05    0.5363406050E-01    0.9197792180E-02    0.6957564245E+00    0.8009059823E-01    0.1620409793E+00
    0.7000000000E+05    0.4930312473E-01    0.8527755130E-02    0.6958317942E+00    0.8434056237E-01    0.1922739046E+00
    0.9000000000E+05    0.4507225698E-01    0.7851831696E-02    0.6958740318E+00    0.8639838921E-01    0.2177059441E+00
    0.1100000000E+06    0.4123415280E-01    0.7227656245E-02    0.6959011132E+00    0.8723969298E-01    0.2398329576E+00
    0.1300000000E+06    0.3781944709E-01    0.6665359508E-02    0.6959199885E+00    0.8733600274E-01    0.2594715711E+00
    0.1500000000E+06    0.3479434544E-01    0.6162337782E-02    0.6959339155E+00    0.8694972023E-01    0.2771331874E+00
    0.1700000000E+06    0.3211176031E-01    0.5712657156E-02    0.6959446263E+00    0.8624065801E-01    0.2931680761E+00
    0.1900000000E+06    0.2972591054E-01    0.5309941381E-02    0.6959531272E+00    0.8531229938E-01    0.3078314789E+00
    0.2100000000E+06    0.2759624399E-01    0.4948275977E-02    0.6959600434E+00    0.8423461629E-01    0.3213178835E+00
    0.2300000000E+06    0.2568799796E-01    0.4622447280E-02    0.6959657838E+00    0.8305642704E-01    0.3337804913E+00
    0.2500000000E+06    0.2397171777E-01    0.4327950870E-02    0.6959706275E+00    0.8181258191E-01    0.3453430847E+00
    0.2700000000E+06    0.2242251657E-01    0.4060924221E-02    0.6959747715E+00    0.8052837971E-01    0.3561076833E+00
    0.2900000000E+06    0.2101934148E-01    0.3818060889E-02    0.6959783586E+00    0.7922240524E-01    0.3661597156E+00
    0.3100000000E+06    0.1974432749E-01    0.3596527236E-02    0.6959814953E+00    0.7790841838E-01    0.3755716477E+00
    0.3300000000E+06    0.1858225431E-01    0.3393888579E-02    0.6959842623E+00    0.7659664944E-01    0.3844056127E+00
    0.3500000000E+06    0.1752009854E-01    0.3208046165E-02    0.6959867222E+00    0.7529470908E-01    0.3927153660E+00
    0.3700000000E+06    0.1654666737E-01    0.3037184318E-02    0.6959889240E+00    0.7400824074E-01    0.4005477748E+00
    0.3900000000E+06    0.1565229937E-01    0.2879726454E-02    0.6959909069E+00    0.7274139646E-01    0.4079439738E+00
    0.4100000000E+06    0.1482861980E-01    0.2734298563E-02    0.6959927023E+00    0.7149718909E-01    0.4149402770E+00
    0.4300000000E+06    0.1406833986E-01    0.2599698872E-02    0.6959943361E+00    0.7027775621E-01    0.4215689087E+00
    0.4500000000E+06    0.1336509147E-01    0.2474872601E-02    0.6959958293E+00    0.6908456003E-01    0.4278585955E+00
    0.4700000000E+06    0.1271329050E-01    0.2358890889E-02    0.6959971998E+00    0.6791854023E-01    0.4338350526E+00
    0.4900000000E+06    0.1210802323E-01    0.2250933141E-02    0.6959984622E+00    0.6678023168E-01    0.4395213856E+00
    0.1000000000E+06    0.4309959230E-01    0.7532146880E-02    0.6958889030E+00    0.8693475823E-01    0.2291217784E+00
    0.3000000000E+06    0.2036682192E-01    0.3704788579E-02    0.6959799777E+00    0.7856570341E-01    0.3709415943E+00
    0.5000000000E+06    0.1182146386E-01    0.2199732721E-02    0.6959990568E+00    0.6622154850E-01    0.4422623465E+00
    0.7000000000E+06    0.7710628449E-02    0.1458204139E-02    0.6960074903E+00    0.5645635393E-01    0.4859682780E+00
    0.9000000000E+06    0.5420987908E-02    0.1038236198E-02    0.6960122929E+00    0.4896351067E-01    0.5155360708E+00
    0.1100000000E+07    0.4016595275E-02    0.7772925469E-03    0.6960154141E+00    0.4312834754E-01    0.5368650733E+00
    0.1300000000E+07    0.3093895066E-02    0.6040300519E-03    0.6960176153E+00    0.3848755686E-01    0.5529707528E+00
    0.1500000000E+07    0.2455556905E-02    0.4830879090E-03    0.6960192565E+00    0.3472168096E-01    0.5655577588E+00
    0.1700000000E+07    0.1995808799E-02    0.3953038088E-03    0.6960205306E+00    0.3161087157E-01    0.5756625592E+00
    0.1900000000E+07    0.1653821712E-02    0.3295558937E-03    0.6960215505E+00    0.2900116107E-01    0.5839514952E+00
    0.2100000000E+07    0.1392605194E-02    0.2790270845E-03    0.6960223868E+00    0.2678235083E-01    0.5908723459E+00
    0.2300000000E+07    0.1188619894E-02    0.2393488806E-03    0.6960230861E+00    0.2487384810E-01    0.5967370729E+00
    0.2500000000E+07    0.1026310343E-02    0.2076164105E-03    0.6960236801E+00    0.2321551652E-01    0.6017696368E+00
    0.2700000000E+07    0.8950643307E-03    0.1818367298E-03    0.6960241914E+00    0.2176165727E-01    0.6061349528E+00
    0.2900000000E+07    0.7874418990E-03    0.1606054368E-03    0.6960246367E+00    0.2047696694E-01    0.6099571265E+00
    0.3100000000E+07    0.6981024524E-03    0.1429096404E-03    0.6960250283E+00    0.1933376626E-01    0.6133313294E+00
    0.3300000000E+07    0.6231323828E-03    0.1280038361E-03    0.6960253754E+00    0.1831006242E-01    0.6163317579E+00
    0.3500000000E+07    0.5596110620E-03    0.1153294020E-03    0.6960256856E+00    0.1738816942E-01    0.6190171045E+00
    0.3700000000E+07    0.5053233205E-03    0.1044610307E-03    0.6960259645E+00    0.1655370884E-01    0.6214344019E+00
    0.3900000000E+07    0.4585645322E-03    0.9507026433E-04    0.6960262168E+00    0.1579487500E-01    0.6236217795E+00
    0.4100000000E+07    0.4180057294E-03    0.8690016355E-04    0.6960264462E+00    0.1510188671E-01    0.6256104718E+00
    0.4300000000E+07    0.3825985193E-03    0.7974738657E-04    0.6960266558E+00    0.1446657287E-01    0.6274263091E+00
    0.4500000000E+07    0.3515069271E-03    0.7344929939E-04    0.6960268480E+00    0.1388205550E-01    0.6290908361E+00
    0.4700000000E+07    0.3240577943E-03    0.6787456501E-04    0.6960270251E+00    0.1334250456E-01    0.6306221646E+00
    0.4900000000E+07    0.2997041767E-03    0.6291617795E-04    0.6960271888E+00    0.1284294626E-01    0.6320356306E+00
    0.1000000000E+07    0.4640363787E-02    0.8935610047E-03    0.6960140020E+00    0.4587157912E-01    0.5269997531E+00
    0.3000000000E+07    0.7407588752E-03    0.1513673563E-03    0.6960248386E+00    0.1988916984E-01    0.6116951692E+00
    0.5000000000E+07    0.2885449006E-03    0.6064001628E-04    0.6960272661E+00    0.1260680631E-01    0.6327023269E+00
    0.7000000000E+07    0.1524969352E-03    0.3262782940E-04    0.6960283769E+00    0.9209042942E-02    0.6421954563E+00
    0.9000000000E+07    0.9421348392E-04    0.2041551401E-04    0.6960290233E+00    0.7246374608E-02    0.6475973978E+00
    0.1100000000E+08    0.6401855069E-04    0.1400465537E-04    0.6960294492E+00    0.5969455983E-02    0.6510815131E+00
    0.1300000000E+08    0.4638605625E-04    0.1022132584E-04    0.6960297521E+00    0.5072897738E-02    0.6535140481E+00
    0.1500000000E+08    0.3520263205E-04    0.7800707269E-05    0.6960299789E+00    0.4409061455E-02    0.6553080985E+00
    0.1700000000E+08    0.2766669856E-04    0.6157455273E-05    0.6960301552E+00    0.3897900486E-02    0.6566855648E+00
    0.1900000000E+08    0.2234775321E-04    0.4990196932E-05    0.6960302962E+00    0.3492270972E-02    0.6577762593E+00
    0.2100000000E+08    0.1845352428E-04    0.4130813360E-05    0.6960304114E+00    0.3162610267E-02    0.6586611690E+00
    0.2300000000E+08    0.1551646729E-04    0.3479460402E-05    0.6960305071E+00    0.2889444562E-02    0.6593934298E+00
    0.2500000000E+08    0.1324623254E-04    0.2973781146E-05    0.6960305879E+00    0.2659425769E-02    0.6600093463E+00
    0.2700000000E+08    0.1145479104E-04    0.2573186284E-05    0.6960306568E+00    0.2463099807E-02    0.6605345644E+00
