  Pressure (Pa) 22mC5-500 (mol/kg) 23mC5-500 (mol/kg) 24mC5-500 (mol/kg) 2mC6-500 (mol/kg) 3mC6-500 (mol/kg)
    0.1000000000E+01    0.3343163370E-04    0.3233804228E-05    0.3666057918E-01    0.1211634129E-04    0.2605311225E-04
    0.3000000000E+01    0.9243842327E-04    0.8943940300E-05    0.9949038502E-01    0.3381947542E-04    0.7814527266E-04
    0.5000000000E+01    0.1434237348E-03    0.1388150493E-04    0.1513777058E+00    0.5299510418E-04    0.1302187169E-03
    0.7000000000E+01    0.1884760180E-03    0.1824840703E-04    0.1949526704E+00    0.7035302982E-04    0.1822734798E-03
    0.9000000000E+01    0.2290386441E-03    0.2218407431E-04    0.2320649864E+00    0.8637552854E-04    0.2343095898E-03
    0.1100000000E+02    0.2661378178E-03    0.2578755052E-04    0.2640534168E+00    0.1013992834E-03    0.2863270711E-03
    0.1300000000E+02    0.3005208695E-03    0.2913089854E-04    0.2919108097E+00    0.1156647757E-03    0.3383259450E-03
    0.1500000000E+02    0.3327433651E-03    0.3226763959E-04    0.3163890462E+00    0.1293471654E-03    0.3903062306E-03
    0.1700000000E+02    0.3632257580E-03    0.3523823929E-04    0.3380679646E+00    0.1425762065E-03    0.4422679457E-03
    0.1900000000E+02    0.3922912660E-03    0.3807377384E-04    0.3574019071E+00    0.1554494419E-03    0.4942111069E-03
    0.2100000000E+02    0.4201918141E-03    0.4079843998E-04    0.3747519305E+00    0.1680411515E-03    0.5461357299E-03
    0.2300000000E+02    0.4471261854E-03    0.4343131013E-04    0.3904085797E+00    0.1804085472E-03    0.5980418299E-03
    0.2500000000E+02    0.4732529643E-03    0.4598758331E-04    0.4046083005E+00    0.1925961411E-03    0.6499294214E-03
    0.2700000000E+02    0.4986999222E-03    0.4847949174E-04    0.4175454715E+00    0.2046388761E-03    0.7017985187E-03
    0.2900000000E+02    0.5235709283E-03    0.5091696807E-04    0.4293813617E+00    0.2165644025E-03    0.7536491358E-03
    0.3100000000E+02    0.5479511091E-03    0.5330814318E-04    0.4402508926E+00    0.2283947565E-03    0.8054812861E-03
    0.3300000000E+02    0.5719107485E-03    0.5565972223E-04    0.4502678082E+00    0.2401476113E-03    0.8572949833E-03
    0.3500000000E+02    0.5955082695E-03    0.5797727207E-04    0.4595286733E+00    0.2518372215E-03    0.9090902405E-03
    0.3700000000E+02    0.6187925390E-03    0.6026544314E-04    0.4681159989E+00    0.2634751417E-03    0.9608670709E-03
    0.3900000000E+02    0.6418046647E-03    0.6252814250E-04    0.4761007098E+00    0.2750707797E-03    0.1012625487E-02
    0.4100000000E+02    0.6645794103E-03    0.6476866991E-04    0.4835441087E+00    0.2866318243E-03    0.1064365503E-02
    0.4300000000E+02    0.6871463184E-03    0.6698982579E-04    0.4904994551E+00    0.2981645811E-03    0.1116087130E-02
    0.4500000000E+02    0.7095306084E-03    0.6919399746E-04    0.4970132425E+00    0.3096742351E-03    0.1167790382E-02
    0.4700000000E+02    0.7317538999E-03    0.7138322858E-04    0.5031262397E+00    0.3211650602E-03    0.1219475271E-02
    0.4900000000E+02    0.7538347990E-03    0.7355927540E-04    0.5088743458E+00    0.3326405855E-03    0.1271141810E-02
    0.1000000000E+02    0.2479691256E-03    0.2402231699E-04    0.2486309767E+00    0.9399539329E-04    0.2603206577E-03
    0.3000000000E+02    0.5358176700E-03    0.5211789453E-04    0.4349293685E+00    0.2224902815E-03    0.7795675184E-03
    0.5000000000E+02    0.7648269615E-03    0.7464283641E-04    0.5116216279E+00    0.3383735433E-03    0.1296968202E-02
    0.7000000000E+02    0.9801197571E-03    0.9589675503E-04    0.5534584592E+00    0.4527143312E-03    0.1812535698E-02
    0.9000000000E+02    0.1190783788E-02    0.1167320171E-03    0.5798053517E+00    0.5669389300E-03    0.2326282330E-02
    0.1100000000E+03    0.1399394502E-02    0.1373851243E-03    0.5979227642E+00    0.6811869343E-03    0.2838220177E-02
    0.1300000000E+03    0.1606798879E-02    0.1579313379E-03    0.6111464388E+00    0.7953834696E-03    0.3348361161E-02
    0.1500000000E+03    0.1813283294E-02    0.1783945392E-03    0.6212237277E+00    0.9094320220E-03    0.3856717074E-02
    0.1700000000E+03    0.2018931070E-02    0.1987804601E-03    0.6291584998E+00    0.1023250879E-02    0.4363299594E-02
    0.1900000000E+03    0.2223748538E-02    0.2190882251E-03    0.6355685755E+00    0.1136776825E-02    0.4868120285E-02
    0.2100000000E+03    0.2427713672E-02    0.2393147153E-03    0.6408550358E+00    0.1249962186E-02    0.5371190605E-02
    0.2300000000E+03    0.2630795833E-02    0.2594562903E-03    0.6452896082E+00    0.1362771211E-02    0.5872521908E-02
    0.2500000000E+03    0.2832963886E-02    0.2795094630E-03    0.6490629276E+00    0.1475177068E-02    0.6372125445E-02
    0.2700000000E+03    0.3034189397E-02    0.2994711420E-03    0.6523126886E+00    0.1587159577E-02    0.6870012365E-02
    0.2900000000E+03    0.3234447692E-02    0.3193386917E-03    0.6551408317E+00    0.1698703542E-02    0.7366193718E-02
    0.3100000000E+03    0.3433717988E-02    0.3391099174E-03    0.6576244414E+00    0.1809797539E-02    0.7860680456E-02
    0.3300000000E+03    0.3631983140E-02    0.3587830229E-03    0.6598228873E+00    0.1920433021E-02    0.8353483432E-02
    0.3500000000E+03    0.3829229255E-02    0.3783565598E-03    0.6617826372E+00    0.2030603665E-02    0.8844613407E-02
    0.3700000000E+03    0.4025445272E-02    0.3978293789E-03    0.6635405813E+00    0.2140304879E-02    0.9334081043E-02
    0.3900000000E+03    0.4220622578E-02    0.4172005861E-03    0.6651263789E+00    0.2249533434E-02    0.9821896910E-02
    0.4100000000E+03    0.4414754652E-02    0.4364695041E-03    0.6665641479E+00    0.2358287184E-02    0.1030807149E-01
    0.4300000000E+03    0.4607836762E-02    0.4556356395E-03    0.6678737009E+00    0.2466564846E-02    0.1079261516E-01
    0.4500000000E+03    0.4799865706E-02    0.4746986551E-03    0.6690714654E+00    0.2574365834E-02    0.1127553822E-01
    0.4700000000E+03    0.4990839585E-02    0.4936583464E-03    0.6701711767E+00    0.2681690127E-02    0.1175685087E-01
    0.4900000000E+03    0.5180757615E-02    0.5125146221E-03    0.6711844081E+00    0.2788538167E-02    0.1223656324E-01
    0.1000000000E+03    0.1295272582E-02    0.1270747638E-03    0.5896312556E+00    0.6240632663E-03    0.2582476603E-02
    0.3000000000E+03    0.3334207492E-02    0.3292364661E-03    0.6564216427E+00    0.1754307380E-02    0.7613648233E-02
    0.5000000000E+03    0.5275320708E-02    0.5219039773E-03    0.6716617220E+00    0.2841783835E-02    0.1247582246E-01
    0.7000000000E+03    0.7111584673E-02    0.7043023625E-03    0.6784190808E+00    0.3882036319E-02    0.1717939801E-01
    0.9000000000E+03    0.8845910612E-02    0.8767104109E-03    0.6822354671E+00    0.4876796743E-02    0.2173390954E-01
    0.1100000000E+04    0.1048365488E-01    0.1039650763E-02    0.6846882911E+00    0.5828548246E-02    0.2614811669E-01
    0.1300000000E+04    0.1203061106E-01    0.1193689092E-02    0.6863978626E+00    0.6739808690E-02    0.3043008188E-01
    0.1500000000E+04    0.1349245090E-01    0.1339379067E-02    0.6876577262E+00    0.7612977056E-02    0.3458723877E-01
    0.1700000000E+04    0.1487454863E-01    0.1477245227E-02    0.6886248032E+00    0.8450297435E-02    0.3862645276E-01
    0.1900000000E+04    0.1618193040E-01    0.1607778099E-02    0.6893905986E+00    0.9253855673E-02    0.4255407473E-01
    0.2100000000E+04    0.1741927004E-01    0.1731433830E-02    0.6900120752E+00    0.1002558639E-01    0.4637598866E-01
    0.2300000000E+04    0.1859090309E-01    0.1848635576E-02    0.6905265491E+00    0.1076728325E-01    0.5009765415E-01
    0.2500000000E+04    0.1970084772E-01    0.1959775560E-02    0.6909594884E+00    0.1148060988E-01    0.5372414429E-01
    0.2700000000E+04    0.2075282778E-01    0.2065217325E-02    0.6913288708E+00    0.1216711054E-01    0.5726017958E-01
    0.2900000000E+04    0.2175029578E-01    0.2165297981E-02    0.6916477484E+00    0.1282822010E-01    0.6071015835E-01
    0.3100000000E+04    0.2269645479E-01    0.2260330336E-02    0.6919258275E+00    0.1346527317E-01    0.6407818399E-01
    0.3300000000E+04    0.2359427887E-01    0.2350604894E-02    0.6921704758E+00    0.1407951253E-01    0.6736808958E-01
    0.3500000000E+04    0.2444653197E-01    0.2436391685E-02    0.6923873871E+00    0.1467209674E-01    0.7058345999E-01
    0.3700000000E+04    0.2525578513E-01    0.2517941955E-02    0.6925810311E+00    0.1524410705E-01    0.7372765188E-01
    0.3900000000E+04    0.2602443232E-01    0.2595489693E-02    0.6927549656E+00    0.1579655366E-01    0.7680381176E-01
    0.4100000000E+04    0.2675470475E-01    0.2669253033E-02    0.6929120580E+00    0.1633038144E-01    0.7981489243E-01
    0.4300000000E+04    0.2744868396E-01    0.2739435527E-02    0.6930546448E+00    0.1684647504E-01    0.8276366780E-01
    0.4500000000E+04    0.2810831371E-01    0.2806227297E-02    0.6931846494E+00    0.1734566365E-01    0.8565274643E-01
    0.4700000000E+04    0.2873541078E-01    0.2869806095E-02    0.6933036692E+00    0.1782872521E-01    0.8848458381E-01
    0.4900000000E+04    0.2933167487E-01    0.2930338255E-02    0.6934130421E+00    0.1829639032E-01    0.9126149364E-01
    0.1000000000E+04    0.9676494074E-02    0.9593287629E-03    0.6835821366E+00    0.5357889302E-02    0.2395803176E-01
    0.3000000000E+04    0.2222959789E-01    0.2213426539E-02    0.6917913816E+00    0.1314967396E-01    0.6240416968E-01
    0.5000000000E+04    0.2961874591E-01    0.2959510922E-02    0.6934644708E+00    0.1852466544E-01    0.9263003749E-01
    0.7000000000E+04    0.3407842127E-01    0.3416022189E-02    0.6941862140E+00    0.2242853543E-01    0.1175865701E+00
    0.9000000000E+04    0.3676297633E-01    0.3696102326E-02    0.6945888535E+00    0.2536880075E-01    0.1389101695E+00
    0.1100000000E+05    0.3831820337E-01    0.3863241751E-02    0.6948458916E+00    0.2764199178E-01    0.1575874174E+00
    0.1300000000E+05    0.3912877121E-01    0.3955388049E-02    0.6950243087E+00    0.2943315989E-01    0.1742523788E+00
    0.1500000000E+05    0.3943533838E-01    0.3996371474E-02    0.6951554466E+00    0.3086396537E-01    0.1893337115E+00
    0.1700000000E+05    0.3939447236E-01    0.4001759361E-02    0.6952559332E+00    0.3201784517E-01    0.2031333851E+00
    0.1900000000E+05    0.3911130435E-01    0.3982051866E-02    0.6953354125E+00    0.3295405732E-01    0.2158715275E+00
    0.2100000000E+05    0.3865827251E-01    0.3944519519E-02    0.6953998638E+00    0.3371594206E-01    0.2277133155E+00
    0.2300000000E+05    0.3808635594E-01    0.3894306661E-02    0.6954531919E+00    0.3433599991E-01    0.2387858072E+00
    0.2500000000E+05    0.3743205918E-01    0.3835118881E-02    0.6954980556E+00    0.3483913225E-01    0.2491888649E+00
    0.2700000000E+05    0.3672189301E-01    0.3769664984E-02    0.6955363279E+00    0.3524477716E-01    0.2590024710E+00
    0.2900000000E+05    0.3597532838E-01    0.3699949012E-02    0.6955693666E+00    0.3556835710E-01    0.2682917597E+00
    0.3100000000E+05    0.3520679021E-01    0.3627467846E-02    0.6955981801E+00    0.3582228478E-01    0.2771105635E+00
    0.3300000000E+05    0.3442703178E-01    0.3553347758E-02    0.6956235330E+00    0.3601667748E-01    0.2855039654E+00
    0.3500000000E+05    0.3364409945E-01    0.3478440532E-02    0.6956460159E+00    0.3615987442E-01    0.2935101692E+00
    0.3700000000E+05    0.3286402131E-01    0.3403392271E-02    0.6956660918E+00    0.3625881804E-01    0.3011618959E+00
    0.3900000000E+05    0.3209130571E-01    0.3328693369E-02    0.6956841292E+00    0.3631933961E-01    0.3084874401E+00
    0.4100000000E+05    0.3132930709E-01    0.3254715302E-02    0.6957004248E+00    0.3634637623E-01    0.3155114822E+00
    0.4300000000E+05    0.3058049754E-01    0.3181738027E-02    0.6957152205E+00    0.3634413787E-01    0.3222557189E+00
    0.4500000000E+05    0.2984667050E-01    0.3109970617E-02    0.6957287151E+00    0.3631623761E-01    0.3287393608E+00
    0.4700000000E+05    0.2912909499E-01    0.3039566943E-02    0.6957410739E+00    0.3626579421E-01    0.3349795271E+00
    0.4900000000E+05    0.2842863344E-01    0.2970637709E-02    0.6957524351E+00    0.3619551387E-01    0.3409915634E+00
    0.1000000000E+05    0.3765335535E-01    0.3790991009E-02    0.6947301347E+00    0.2657532050E-01    0.1485338789E+00
    0.3000000000E+05    0.3559306077E-01    0.3663976286E-02    0.6955842489E+00    0.3570334819E-01    0.2727569741E+00
    0.5000000000E+05    0.2808500147E-01    0.2936751130E-02    0.6957577788E+00    0.3615368414E-01    0.3439164077E+00
    0.7000000000E+05    0.2214096655E-01    0.2343821349E-02    0.6958329103E+00    0.3471403329E-01    0.3931890362E+00
    0.9000000000E+05    0.1773729705E-01    0.1896806388E-02    0.6958749953E+00    0.3276740440E-01    0.4297628652E+00
    0.1100000000E+06    0.1446103712E-01    0.1559898075E-02    0.6959019680E+00    0.3075407595E-01    0.4580277241E+00
    0.1300000000E+06    0.1198279320E-01    0.1302378023E-02    0.6959207606E+00    0.2883190581E-01    0.4805035614E+00
    0.1500000000E+06    0.1007337867E-01    0.1102214457E-02    0.6959346219E+00    0.2705451393E-01    0.4987765962E+00
    0.1700000000E+06    0.8576161275E-02    0.9440621105E-03    0.6959452786E+00    0.2543352947E-01    0.5139034915E+00
    0.1900000000E+06    0.7383159137E-02    0.8171943531E-03    0.6959537339E+00    0.2396341496E-01    0.5266169185E+00
    0.2100000000E+06    0.6418718439E-02    0.7140129890E-03    0.6959606109E+00    0.2263209108E-01    0.5374408800E+00
    0.2300000000E+06    0.5628878575E-02    0.6290489207E-03    0.6959663172E+00    0.2142562637E-01    0.5467597395E+00
    0.2500000000E+06    0.4974466855E-02    0.5583007226E-03    0.6959711308E+00    0.2033029274E-01    0.5548615198E+00
    0.2700000000E+06    0.4426567509E-02    0.4987944146E-03    0.6959752478E+00    0.1933341050E-01    0.5619660693E+00
    0.2900000000E+06    0.3963502665E-02    0.4482868036E-03    0.6959788107E+00    0.1842363002E-01    0.5682439333E+00
    0.3100000000E+06    0.3568786775E-02    0.4050625865E-03    0.6959819253E+00    0.1759095457E-01    0.5738293203E+00
    0.3300000000E+06    0.3229717204E-02    0.3677934315E-03    0.6959846722E+00    0.1682665065E-01    0.5788292056E+00
    0.3500000000E+06    0.2936387360E-02    0.3354386135E-03    0.6959871135E+00    0.1612311634E-01    0.5833298459E+00
    0.3700000000E+06    0.2680985042E-02    0.3071739286E-03    0.6959892982E+00    0.1547374159E-01    0.5874015214E+00
    0.3900000000E+06    0.2457286380E-02    0.2823401380E-03    0.6959912651E+00    0.1487277540E-01    0.5911020410E+00
    0.4100000000E+06    0.2260285939E-02    0.2604050914E-03    0.6959930457E+00    0.1431520623E-01    0.5944793698E+00
    0.4300000000E+06    0.2085922934E-02    0.2409355623E-03    0.6959946655E+00    0.1379665728E-01    0.5975736225E+00
    0.4500000000E+06    0.1930876227E-02    0.2235760685E-03    0.6959961457E+00    0.1331329620E-01    0.6004185954E+00
    0.4700000000E+06    0.1792409153E-02    0.2080327752E-03    0.6959975038E+00    0.1286175799E-01    0.6030429540E+00
    0.4900000000E+06    0.1668250852E-02    0.1940611413E-03    0.6959987545E+00    0.1243907940E-01    0.6054711651E+00
    0.1000000000E+06    0.1598145467E-01    0.1716726131E-02    0.6958898081E+00    0.3175558631E-01    0.4447475704E+00
    0.3000000000E+06    0.3758470447E-02    0.4258550322E-03    0.6959804185E+00    0.1799822817E-01    0.5711159488E+00
    0.5000000000E+06    0.1610932236E-02    0.1875993557E-03    0.6959993436E+00    0.1223773242E-01    0.6066183975E+00
    0.7000000000E+06    0.8875485331E-03    0.1052704788E-03    0.6960076886E+00    0.9229421577E-02    0.6230768763E+00
    0.9000000000E+06    0.5607064469E-03    0.6741574445E-04    0.6960124298E+00    0.7395714669E-02    0.6325333417E+00
    0.1100000000E+07    0.3860614833E-03    0.4691655833E-04    0.6960155043E+00    0.6164398780E-02    0.6386619737E+00
    0.1300000000E+07    0.2820064391E-03    0.3457045570E-04    0.6960176676E+00    0.5281666368E-02    0.6429529597E+00
    0.1500000000E+07    0.2150793750E-03    0.2655745571E-04    0.6960192770E+00    0.4618342705E-02    0.6461235198E+00
    0.1700000000E+07    0.1695181749E-03    0.2106000422E-04    0.6960205237E+00    0.4101915403E-02    0.6485610610E+00
    0.1900000000E+07    0.1371127165E-03    0.1712328346E-04    0.6960215193E+00    0.3688590866E-02    0.6504930423E+00
    0.2100000000E+07    0.1132467396E-03    0.1420644813E-04    0.6960223339E+00    0.3350378826E-02    0.6520617315E+00
    0.2300000000E+07    0.9516364267E-04    0.1198441348E-04    0.6960230134E+00    0.3068563207E-02    0.6533606450E+00
    0.2500000000E+07    0.8113521194E-04    0.1025217426E-04    0.6960235893E+00    0.2830159478E-02    0.6544537678E+00
    0.2700000000E+07    0.7003352106E-04    0.8875220815E-05    0.6960240839E+00    0.2625879110E-02    0.6553863501E+00
    0.2900000000E+07    0.6109713131E-04    0.7762307145E-05    0.6960245136E+00    0.2448903241E-02    0.6561912925E+00
    0.3100000000E+07    0.5379699532E-04    0.6849752009E-05    0.6960248905E+00    0.2294113845E-02    0.6568930874E+00
    0.3300000000E+07    0.4775628500E-04    0.6092008978E-05    0.6960252239E+00    0.2157595053E-02    0.6575103424E+00
    0.3500000000E+07    0.4270071837E-04    0.5455798473E-05    0.6960255210E+00    0.2036300095E-02    0.6580574465E+00
    0.3700000000E+07    0.3842681420E-04    0.4916342561E-05    0.6960257875E+00    0.1927823071E-02    0.6585457008E+00
    0.3900000000E+07    0.3478104509E-04    0.4454883079E-05    0.6960260279E+00    0.1830239013E-02    0.6589841048E+00
    0.4100000000E+07    0.3164581443E-04    0.4057006270E-05    0.6960262460E+00    0.1741989535E-02    0.6593799128E+00
    0.4300000000E+07    0.2892981913E-04    0.3711487586E-05    0.6960264447E+00    0.1661799605E-02    0.6597390379E+00
    0.4500000000E+07    0.2656129823E-04    0.3409479884E-05    0.6960266266E+00    0.1588616002E-02    0.6600663479E+00
    0.4700000000E+07    0.2448322041E-04    0.3143933036E-05    0.6960267937E+00    0.1521561127E-02    0.6603658862E+00
    0.4900000000E+07    0.2264979934E-04    0.2909172501E-05    0.6960269477E+00    0.1459897891E-02    0.6606410396E+00
    0.1000000000E+07    0.4612184415E-03    0.5576765825E-04    0.6960141142E+00    0.6724826991E-02    0.6358937190E+00
    0.3000000000E+07    0.5726895849E-04    0.7284174756E-05    0.6960247080E+00    0.2369003621E-02    0.6565538053E+00
    0.5000000000E+07    0.2181295745E-04    0.2801861837E-05    0.6960270202E+00    0.1430889441E-02    0.6607703827E+00
    0.7000000000E+07    0.1177687543E-04    0.1505769753E-05    0.6960280498E+00    0.1023100626E-02    0.6625823147E+00
    0.9000000000E+07    0.7564285272E-05    0.9554342026E-06    0.6960286312E+00    0.7953890262E-03    0.6635894519E+00
    0.1100000000E+08    0.5391774656E-05    0.6698344630E-06    0.6960290021E+00    0.6501711802E-03    0.6642302976E+00
    0.1300000000E+08    0.4118369055E-05    0.5019563118E-06    0.6960292567E+00    0.5495496002E-03    0.6646738269E+00
    0.1500000000E+08    0.3303555266E-05    0.3944938156E-06    0.6960294401E+00    0.4757442869E-03    0.6649989605E+00
    0.1700000000E+08    0.2747726239E-05    0.3212936773E-06    0.6960295768E+00    0.4193119970E-03    0.6652474947E+00
    0.1900000000E+08    0.2349597607E-05    0.2690126857E-06    0.6960296810E+00    0.3747744548E-03    0.6654436301E+00
    0.2100000000E+08    0.2053237815E-05    0.2302517258E-06    0.6960297620E+00    0.3387358774E-03    0.6656023473E+00
    0.2300000000E+08    0.1825658516E-05    0.2006331302E-06    0.6960298255E+00    0.3089797325E-03    0.6657334154E+00
    0.2500000000E+08    0.1646349134E-05    0.1774288310E-06    0.6960298758E+00    0.2839979633E-03    0.6658434762E+00
    0.2700000000E+08    0.1501993122E-05    0.1588648060E-06    0.6960299158E+00    0.2627290024E-03    0.6659372027E+00
