  Pressure (Pa) 22mC5-500 (mol/kg) 23mC5-500 (mol/kg) 24mC5-500 (mol/kg) 2mC6-500 (mol/kg) 3mC6-500 (mol/kg)
    0.1000000000E+01    0.3343187816E-04    0.5389713576E-05    0.3666048558E-01    0.1211644503E-04    0.1563207750E-04
    0.3000000000E+01    0.9244075123E-04    0.1490694652E-04    0.9948970761E-01    0.3382045209E-04    0.4688905421E-04
    0.5000000000E+01    0.1434304596E-03    0.2313693688E-04    0.1513761638E+00    0.5299790297E-04    0.7813647983E-04
    0.7000000000E+01    0.1884895763E-03    0.3041621928E-04    0.1949501542E+00    0.7035863912E-04    0.1093743733E-03
    0.9000000000E+01    0.2290615322E-03    0.3697718283E-04    0.2320614768E+00    0.8638495454E-04    0.1406027499E-03
    0.1100000000E+02    0.2661725591E-03    0.4298490472E-04    0.2640489416E+00    0.1014135393E-03    0.1718216221E-03
    0.1300000000E+02    0.3005699972E-03    0.4855949130E-04    0.2919054205E+00    0.1156848763E-03    0.2030310007E-03
    0.1500000000E+02    0.3328094129E-03    0.5379014468E-04    0.3163828051E+00    0.1293741243E-03    0.2342308954E-03
    0.1700000000E+02    0.3633112560E-03    0.5874430689E-04    0.3380609370E+00    0.1426110350E-03    0.2654213149E-03
    0.1900000000E+02    0.3923987377E-03    0.6347377059E-04    0.3573941576E+00    0.1554931483E-03    0.2966022672E-03
    0.2100000000E+02    0.4203237758E-03    0.6801886244E-04    0.3747435210E+00    0.1680947411E-03    0.3277737599E-03
    0.2300000000E+02    0.4472851456E-03    0.7241136859E-04    0.3903995681E+00    0.1804730222E-03    0.3589358001E-03
    0.2500000000E+02    0.4734414242E-03    0.7667661949E-04    0.4045987404E+00    0.1926725008E-03    0.3900883947E-03
    0.2700000000E+02    0.4989203753E-03    0.8083500100E-04    0.4175354121E+00    0.2047281169E-03    0.4212315504E-03
    0.2900000000E+02    0.5238258613E-03    0.8490306641E-04    0.4293708480E+00    0.2166675185E-03    0.4523652735E-03
    0.3100000000E+02    0.5482430020E-03    0.8889436608E-04    0.4402399657E+00    0.2285127392E-03    0.4834895704E-03
    0.3300000000E+02    0.5722420751E-03    0.9282007429E-04    0.4502565053E+00    0.2402814501E-03    0.5146044472E-03
    0.3500000000E+02    0.5958814977E-03    0.9668946815E-04    0.4595170283E+00    0.2519879036E-03    0.5457099100E-03
    0.3700000000E+02    0.6192101309E-03    0.1005102975E-03    0.4681040427E+00    0.2636436525E-03    0.5768059648E-03
    0.3900000000E+02    0.6422690772E-03    0.1042890733E-03    0.4760884702E+00    0.2752581026E-03    0.6078926175E-03
    0.4100000000E+02    0.6650930953E-03    0.1080312942E-03    0.4835316113E+00    0.2868389410E-03    0.6389698739E-03
    0.4300000000E+02    0.6877117229E-03    0.1117416269E-03    0.4904867231E+00    0.2983924715E-03    0.6700377398E-03
    0.4500000000E+02    0.7101501748E-03    0.1154240495E-03    0.4970002970E+00    0.3099238777E-03    0.7010962209E-03
    0.4700000000E+02    0.7324300663E-03    0.1190819674E-03    0.5031131000E+00    0.3214374319E-03    0.7321453230E-03
    0.4900000000E+02    0.7545699990E-03    0.1227183070E-03    0.5088610294E+00    0.3329366617E-03    0.7631850518E-03
    0.1000000000E+02    0.2479976240E-03    0.4004183332E-04    0.2486269790E+00    0.9400710739E-04    0.1562133733E-03
    0.3000000000E+02    0.5360907734E-03    0.8690756410E-04    0.4349186433E+00    0.2226007071E-03    0.4679285998E-03
    0.5000000000E+02    0.7655925896E-03    0.1245291875E-03    0.5116082292E+00    0.3386818370E-03    0.7787014029E-03
    0.7000000000E+02    0.9816207601E-03    0.1600719056E-03    0.5534440393E+00    0.4533178498E-03    0.1088537692E-02
    0.9000000000E+02    0.1193259318E-02    0.1949557330E-03    0.5797906113E+00    0.5679337245E-03    0.1397443000E-02
    0.1100000000E+03    0.1403080466E-02    0.2295743146E-03    0.5979080263E+00    0.6826678804E-03    0.1705422736E-02
    0.1300000000E+03    0.1611928101E-02    0.2640525881E-03    0.6111318597E+00    0.7974443096E-03    0.2012482238E-02
    0.1500000000E+03    0.1820085601E-02    0.2984298706E-03    0.6212093837E+00    0.9121653856E-03    0.2318626787E-02
    0.1700000000E+03    0.2027633344E-02    0.3327152390E-03    0.6291444259E+00    0.1026748299E-02    0.2623861619E-02
    0.1900000000E+03    0.2234574761E-02    0.3669067649E-03    0.6355547852E+00    0.1141128750E-02    0.2928191921E-02
    0.2100000000E+03    0.2440884964E-02    0.4009987873E-03    0.6408415304E+00    0.1255257993E-02    0.3231622841E-02
    0.2300000000E+03    0.2646530489E-02    0.4349847817E-03    0.6452763827E+00    0.1369099220E-02    0.3534159483E-02
    0.2500000000E+03    0.2851477414E-02    0.4688584851E-03    0.6490499735E+00    0.1482624554E-02    0.3835806910E-02
    0.2700000000E+03    0.3055694550E-02    0.5026142995E-03    0.6522999957E+00    0.1595812782E-02    0.4136570146E-02
    0.2900000000E+03    0.3259154506E-02    0.5362473925E-03    0.6551283889E+00    0.1708647688E-02    0.4436454174E-02
    0.3100000000E+03    0.3461833814E-02    0.5697536719E-03    0.6576122375E+00    0.1821116839E-02    0.4735463939E-02
    0.3300000000E+03    0.3663712679E-02    0.6031297149E-03    0.6598109115E+00    0.1933210695E-02    0.5033604347E-02
    0.3500000000E+03    0.3864774589E-02    0.6363726839E-03    0.6617708788E+00    0.2044921948E-02    0.5330880265E-02
    0.3700000000E+03    0.4065005900E-02    0.6694802452E-03    0.6635290302E+00    0.2156245036E-02    0.5627296524E-02
    0.3900000000E+03    0.4264395444E-02    0.7024504958E-03    0.6651150256E+00    0.2267175771E-02    0.5922857916E-02
    0.4100000000E+03    0.4462934182E-02    0.7352818987E-03    0.6665529833E+00    0.2377711057E-02    0.6217569196E-02
    0.4300000000E+03    0.4660614892E-02    0.7679732288E-03    0.6678627167E+00    0.2487848677E-02    0.6511435084E-02
    0.4500000000E+03    0.4857431915E-02    0.8005235263E-03    0.6690606535E+00    0.2597587120E-02    0.6804460262E-02
    0.4700000000E+03    0.5053380924E-02    0.8329320577E-03    0.6701605297E+00    0.2706925453E-02    0.7096649376E-02
    0.4900000000E+03    0.5248458740E-02    0.8651982827E-03    0.6711739190E+00    0.2815863213E-02    0.7388007039E-02
    0.1000000000E+03    0.1298324036E-02    0.2122872507E-03    0.5896164894E+00    0.6252893486E-03    0.1551548229E-02
    0.3000000000E+03    0.3360593060E-02    0.5530166126E-03    0.6564093208E+00    0.1764928639E-02    0.4586068032E-02
    0.5000000000E+03    0.5345670231E-02    0.8812779075E-03    0.6716513093E+00    0.2870181843E-02    0.7533375508E-02
    0.7000000000E+03    0.7244033860E-02    0.1195375910E-02    0.6784099205E+00    0.3935654842E-02    0.1039819427E-01
    0.9000000000E+03    0.9056394603E-02    0.1495419045E-02    0.6822271971E+00    0.4962249526E-02    0.1318490026E-01
    0.1100000000E+04    0.1078616446E-01    0.1781963570E-02    0.6846806938E+00    0.5951713323E-02    0.1589755383E-01
    0.1300000000E+04    0.1243741654E-01    0.2055673649E-02    0.6863907961E+00    0.6905910908E-02    0.1853992810E-01
    0.1500000000E+04    0.1401429797E-01    0.2317225109E-02    0.6876510922E+00    0.7826660423E-02    0.2111553417E-01
    0.1700000000E+04    0.1552083021E-01    0.2567273001E-02    0.6886185304E+00    0.8715688672E-02    0.2362764370E-01
    0.1900000000E+04    0.1696083757E-01    0.2806440103E-02    0.6893846334E+00    0.9574620164E-02    0.2607930923E-01
    0.2100000000E+04    0.1833792495E-01    0.3035313374E-02    0.6900063760E+00    0.1040497753E-01    0.2847338242E-01
    0.2300000000E+04    0.1965547615E-01    0.3254443745E-02    0.6905210830E+00    0.1120818603E-01    0.3081253050E-01
    0.2500000000E+04    0.2091666111E-01    0.3464347335E-02    0.6909542288E+00    0.1198557950E-01    0.3309925112E-01
    0.2700000000E+04    0.2212444710E-01    0.3665507284E-02    0.6913237956E+00    0.1273840664E-01    0.3533588578E-01
    0.2900000000E+04    0.2328161124E-01    0.3858375810E-02    0.6916428394E+00    0.1346783713E-01    0.3752463201E-01
    0.3100000000E+04    0.2439075327E-01    0.4043376292E-02    0.6919210692E+00    0.1417496745E-01    0.3966755440E-01
    0.3300000000E+04    0.2545430802E-01    0.4220905298E-02    0.6921658551E+00    0.1486082635E-01    0.4176659463E-01
    0.3500000000E+04    0.2647455718E-01    0.4391334509E-02    0.6923828926E+00    0.1552637983E-01    0.4382358063E-01
    0.3700000000E+04    0.2745364043E-01    0.4555012518E-02    0.6925766529E+00    0.1617253580E-01    0.4584023489E-01
    0.3900000000E+04    0.2839356571E-01    0.4712266507E-02    0.6927506950E+00    0.1680014832E-01    0.4781818207E-01
    0.4100000000E+04    0.2929621871E-01    0.4863403793E-02    0.6929078874E+00    0.1741002146E-01    0.4975895594E-01
    0.4300000000E+04    0.3016337175E-01    0.5008713257E-02    0.6930505675E+00    0.1800291295E-01    0.5166400576E-01
    0.4500000000E+04    0.3099669179E-01    0.5148466661E-02    0.6931806593E+00    0.1857953738E-01    0.5353470211E-01
    0.4700000000E+04    0.3179774795E-01    0.5282919858E-02    0.6932997609E+00    0.1914056929E-01    0.5537234221E-01
    0.4900000000E+04    0.3256801835E-01    0.5412313907E-02    0.6934092108E+00    0.1968664586E-01    0.5717815488E-01
    0.1000000000E+04    0.9931354444E-02    0.1640338030E-02    0.6835742244E+00    0.5461506109E-02    0.1455024135E-01
    0.3000000000E+04    0.2384202912E-01    0.3951834166E-02    0.6917865497E+00    0.1382412399E-01    0.3860169706E-01
    0.5000000000E+04    0.3294204749E-01    0.5475185292E-02    0.6934606763E+00    0.1995426545E-01    0.5806949236E-01
    0.7000000000E+04    0.3910554180E-01    0.6515826659E-02    0.6941829860E+00    0.2465167868E-01    0.7447853802E-01
    0.9000000000E+04    0.4337143849E-01    0.7243380670E-02    0.6945859957E+00    0.2837192098E-01    0.8872098022E-01
    0.1100000000E+05    0.4635516411E-01    0.7758539012E-02    0.6948433002E+00    0.3139348157E-01    0.1013567066E+00
    0.1300000000E+05    0.4844178919E-01    0.8124448362E-02    0.6950219210E+00    0.3389643133E-01    0.1127567615E+00
    0.1500000000E+05    0.4988308731E-01    0.8382496917E-02    0.6951532211E+00    0.3600256797E-01    0.1231779924E+00
    0.1700000000E+05    0.5084970000E-01    0.8560808123E-02    0.6952538410E+00    0.3779737377E-01    0.1328046540E+00
    0.1900000000E+05    0.5146078219E-01    0.8679073310E-02    0.6953334323E+00    0.3934272323E-01    0.1417729191E+00
    0.2100000000E+05    0.5180165156E-01    0.8751432335E-02    0.6953979796E+00    0.4068459025E-01    0.1501859969E+00
    0.2300000000E+05    0.5193471647E-01    0.8788259485E-02    0.6954513911E+00    0.4185791081E-01    0.1581238254E+00
    0.2500000000E+05    0.5190647292E-01    0.8797308495E-02    0.6954963282E+00    0.4288975644E-01    0.1656494947E+00
    0.2700000000E+05    0.5175211632E-01    0.8784468290E-02    0.6955346657E+00    0.4380146666E-01    0.1728136257E+00
    0.2900000000E+05    0.5149865902E-01    0.8754274602E-02    0.6955677629E+00    0.4461011899E-01    0.1796574323E+00
    0.3100000000E+05    0.5116708525E-01    0.8710264137E-02    0.6955966293E+00    0.4532956530E-01    0.1862149080E+00
    0.3300000000E+05    0.5077387027E-01    0.8655224644E-02    0.6956220303E+00    0.4597117729E-01    0.1925144200E+00
    0.3500000000E+05    0.5033207047E-01    0.8591374644E-02    0.6956445571E+00    0.4654439238E-01    0.1985798910E+00
    0.3700000000E+05    0.4985211809E-01    0.8520494661E-02    0.6956646735E+00    0.4705711998E-01    0.2044316889E+00
    0.3900000000E+05    0.4934240882E-01    0.8444024430E-02    0.6956827482E+00    0.4751604816E-01    0.2100873064E+00
    0.4100000000E+05    0.4880974205E-01    0.8363135853E-02    0.6956990785E+00    0.4792687845E-01    0.2155618871E+00
    0.4300000000E+05    0.4825965454E-01    0.8278788393E-02    0.6957139064E+00    0.4829450761E-01    0.2208686370E+00
    0.4500000000E+05    0.4769667615E-01    0.8191771601E-02    0.6957274312E+00    0.4862316996E-01    0.2260191504E+00
    0.4700000000E+05    0.4712452769E-01    0.8102738097E-02    0.6957398182E+00    0.4891655013E-01    0.2310236700E+00
    0.4900000000E+05    0.4654627545E-01    0.8012229366E-02    0.6957512059E+00    0.4917787295E-01    0.2358912971E+00
    0.1000000000E+05    0.4499554356E-01    0.7522916283E-02    0.6947274199E+00    0.2995706652E-01    0.9521315924E-01
    0.3000000000E+05    0.5134151580E-01    0.8733807065E-02    0.6955826723E+00    0.4498023124E-01    0.1829700722E+00
    0.5000000000E+05    0.4625567014E-01    0.7966565716E-02    0.6957565623E+00    0.4929741304E-01    0.2382763505E+00
    0.7000000000E+05    0.4054534534E-01    0.7052180660E-02    0.6958318884E+00    0.5054392223E-01    0.2803817893E+00
    0.9000000000E+05    0.3546264935E-01    0.6219319672E-02    0.6958741004E+00    0.5045747177E-01    0.3145440496E+00
    0.1100000000E+06    0.3113268580E-01    0.5499181326E-02    0.6959011648E+00    0.4970029033E-01    0.3431468459E+00
    0.1300000000E+06    0.2747722100E-01    0.4884346438E-02    0.6959200276E+00    0.4858898699E-01    0.3675600014E+00
    0.1500000000E+06    0.2438805461E-01    0.4359976877E-02    0.6959339451E+00    0.4729406972E-01    0.3886803789E+00
    0.1700000000E+06    0.2176577085E-01    0.3911378456E-02    0.6959446483E+00    0.4591368091E-01    0.4071425353E+00
    0.1900000000E+06    0.1952715788E-01    0.3525803788E-02    0.6959531428E+00    0.4450640115E-01    0.4234180473E+00
    0.2100000000E+06    0.1760460741E-01    0.3192660089E-02    0.6959600536E+00    0.4310774840E-01    0.4378691619E+00
    0.2300000000E+06    0.1594367348E-01    0.2903277495E-02    0.6959657895E+00    0.4173920767E-01    0.4507807997E+00
    0.2500000000E+06    0.1450053127E-01    0.2650588896E-02    0.6959706292E+00    0.4041347689E-01    0.4623810902E+00
    0.2700000000E+06    0.1323979153E-01    0.2428828351E-02    0.6959747695E+00    0.3913764929E-01    0.4728552823E+00
    0.2900000000E+06    0.1213273625E-01    0.2233275877E-02    0.6959783535E+00    0.3791520659E-01    0.4823555548E+00
    0.3100000000E+06    0.1115592886E-01    0.2060050323E-02    0.6959814872E+00    0.3674729715E-01    0.4910081525E+00
    0.3300000000E+06    0.1029012936E-01    0.1905944189E-02    0.6959842516E+00    0.3563357032E-01    0.4989187024E+00
    0.3500000000E+06    0.9519448772E-02    0.1768292780E-02    0.6959867091E+00    0.3457272792E-01    0.5061762512E+00
    0.3700000000E+06    0.8830688846E-02    0.1644870671E-02    0.6959889086E+00    0.3356289180E-01    0.5128563791E+00
    0.3900000000E+06    0.8212824345E-02    0.1533809656E-02    0.6959908894E+00    0.3260184999E-01    0.5190236337E+00
    0.4100000000E+06    0.7656595198E-02    0.1433533500E-02    0.6959926828E+00    0.3168722151E-01    0.5247334535E+00
    0.4300000000E+06    0.7154183407E-02    0.1342705828E-02    0.6959943147E+00    0.3081656616E-01    0.5300337035E+00
    0.4500000000E+06    0.6698955685E-02    0.1260188332E-02    0.6959958062E+00    0.2998745696E-01    0.5349659108E+00
    0.4700000000E+06    0.6285257280E-02    0.1185007065E-02    0.6959971750E+00    0.2919752689E-01    0.5395662677E+00
    0.4900000000E+06    0.5908245887E-02    0.1116325136E-02    0.6959984358E+00    0.2844449812E-01    0.5438664512E+00
    0.1000000000E+06    0.3320687093E-01    0.5845282580E-02    0.6958889624E+00    0.5013815649E-01    0.3294398996E+00
    0.3000000000E+06    0.1162934150E-01    0.2144086810E-02    0.6959799711E+00    0.3732442955E-01    0.4867807806E+00
    0.5000000000E+06    0.5732173110E-02    0.1084191812E-02    0.6959990297E+00    0.2808113869E-01    0.5459128109E+00
    0.7000000000E+06    0.3382516620E-02    0.6512516591E-03    0.6960074509E+00    0.2228800610E-01    0.5763259244E+00
    0.9000000000E+06    0.2223870202E-02    0.4340435489E-03    0.6960122445E+00    0.1841301810E-01    0.5947033301E+00
    0.1100000000E+07    0.1570827890E-02    0.3099818240E-03    0.6960153583E+00    0.1566053963E-01    0.6069636039E+00
    0.1300000000E+07    0.1167555692E-02    0.2325370779E-03    0.6960175532E+00    0.1361162387E-01    0.6157080926E+00
    0.1500000000E+07    0.9014516015E-03    0.1809658405E-03    0.6960191889E+00    0.1202996056E-01    0.6222519943E+00
    0.1700000000E+07    0.7168003894E-03    0.1448967794E-03    0.6960204581E+00    0.1077342534E-01    0.6273295033E+00
    0.1900000000E+07    0.5835119615E-03    0.1186791516E-03    0.6960214734E+00    0.9751817031E-02    0.6313819031E+00
    0.2100000000E+07    0.4841919044E-03    0.9902138527E-04    0.6960223056E+00    0.8905284426E-02    0.6346900501E+00
    0.2300000000E+07    0.4082228157E-03    0.8390075950E-04    0.6960230009E+00    0.8192617522E-02    0.6374410480E+00
    0.2500000000E+07    0.3488289329E-03    0.7201861532E-04    0.6960235912E+00    0.7584545072E-02    0.6397642790E+00
    0.2700000000E+07    0.3015226412E-03    0.6251013361E-04    0.6960240990E+00    0.7059718706E-02    0.6417520286E+00
    0.2900000000E+07    0.2632368990E-03    0.5478129787E-04    0.6960245410E+00    0.6602210585E-02    0.6434718704E+00
    0.3100000000E+07    0.2318182828E-03    0.4841311567E-04    0.6960249293E+00    0.6199900440E-02    0.6449744059E+00
    0.3300000000E+07    0.2057190750E-03    0.4310316014E-04    0.6960252734E+00    0.5843404797E-02    0.6462982705E+00
    0.3500000000E+07    0.1838038881E-03    0.3862869111E-04    0.6960255807E+00    0.5525347522E-02    0.6474734685E+00
    0.3700000000E+07    0.1652246233E-03    0.3482270848E-04    0.6960258567E+00    0.5239851413E-02    0.6485236530E+00
    0.3900000000E+07    0.1493375090E-03    0.3155800233E-04    0.6960261063E+00    0.4982176582E-02    0.6494677194E+00
    0.4100000000E+07    0.1356467882E-03    0.2873628680E-04    0.6960263330E+00    0.4748458536E-02    0.6503209437E+00
    0.4300000000E+07    0.1237657053E-03    0.2628064617E-04    0.6960265400E+00    0.4535515343E-02    0.6510958078E+00
    0.4500000000E+07    0.1133889779E-03    0.2413018746E-04    0.6960267298E+00    0.4340703552E-02    0.6518026105E+00
    0.4700000000E+07    0.1042730473E-03    0.2223619217E-04    0.6960269044E+00    0.4161809074E-02    0.6524499236E+00
    0.4900000000E+07    0.9622169441E-04    0.2055930530E-04    0.6960270657E+00    0.3996963541E-02    0.6530449396E+00
    0.1000000000E+07    0.1855218174E-02    0.3641877496E-03    0.6960139498E+00    0.1692847388E-01    0.6013920093E+00
    0.3000000000E+07    0.2467774442E-03    0.5144824754E-04    0.6960247412E+00    0.6394796518E-02    0.6442476517E+00
    0.5000000000E+07    0.9254418795E-04    0.1979201582E-04    0.6960271418E+00    0.3919303532E-02    0.6533247734E+00
    0.7000000000E+07    0.4835509376E-04    0.1048838700E-04    0.6960282318E+00    0.2820056574E-02    0.6572533137E+00
    0.9000000000E+07    0.2983428780E-04    0.6523606886E-05    0.6960288606E+00    0.2200100981E-02    0.6594432548E+00
    0.1100000000E+08    0.2035045072E-04    0.4468675901E-05    0.6960292711E+00    0.1802440408E-02    0.6608387895E+00
    0.1300000000E+08    0.1484848739E-04    0.3265423251E-05    0.6960295601E+00    0.1525849949E-02    0.6618054615E+00
    0.1500000000E+08    0.1137131513E-04    0.2499405363E-05    0.6960297743E+00    0.1322424960E-02    0.6625144576E+00
    0.1700000000E+08    0.9032092967E-05    0.1981053739E-05    0.6960299388E+00    0.1166571261E-02    0.6630565942E+00
    0.1900000000E+08    0.7381561891E-05    0.1613582109E-05    0.6960300688E+00    0.1043376671E-02    0.6634845170E+00
    0.2100000000E+08    0.6172328866E-05    0.1343335857E-05    0.6960301736E+00    0.9435671273E-03    0.6638308431E+00
    0.2300000000E+08    0.5259018726E-05    0.1138602532E-05    0.6960302595E+00    0.8610733808E-03    0.6641168554E+00
    0.2500000000E+08    0.4551637642E-05    0.9796503917E-06    0.6960303309E+00    0.7917573916E-03    0.6643570313E+00
    0.2700000000E+08    0.3992043106E-05    0.8536736235E-06    0.6960303909E+00    0.7327011820E-03    0.6645615602E+00
