  Pressure (Pa) 22mC5-500 (mol/kg) 23mC5-500 (mol/kg) 24mC5-500 (mol/kg) 2mC6-500 (mol/kg) 3mC6-500 (mol/kg)
    0.1000000000E+01    0.3561590268E-04    0.3100989001E-05    0.6965141911E-01    0.2334273002E-04    0.5210691740E-05
    0.3000000000E+01    0.9257684962E-04    0.8065592840E-05    0.1740896780E+00    0.6188616096E-04    0.1562968474E-04
    0.5000000000E+01    0.1378309058E-03    0.1201731972E-04    0.2486617118E+00    0.9404564979E-04    0.2604550616E-04
    0.7000000000E+01    0.1761721142E-03    0.1537268171E-04    0.3045775096E+00    0.1226647518E-03    0.3645816770E-04
    0.9000000000E+01    0.2101650394E-03    0.1835407748E-04    0.3480606197E+00    0.1492052071E-03    0.4686767684E-04
    0.1100000000E+02    0.2412899152E-03    0.2108961827E-04    0.3828433112E+00    0.1744745483E-03    0.5727403891E-04
    0.1300000000E+02    0.2704520703E-03    0.2365749432E-04    0.4112997673E+00    0.1989437680E-03    0.6767725805E-04
    0.1500000000E+02    0.2982310704E-03    0.2610765066E-04    0.4350123122E+00    0.2228993540E-03    0.7807733766E-04
    0.1700000000E+02    0.3250118691E-03    0.2847318476E-04    0.4550761472E+00    0.2465214184E-03    0.8847428069E-04
    0.1900000000E+02    0.3510580377E-03    0.3077670318E-04    0.4722734138E+00    0.2699261937E-03    0.9886808979E-04
    0.2100000000E+02    0.3765546797E-03    0.3303404209E-04    0.4871775961E+00    0.2931902463E-03    0.1092587674E-03
    0.2300000000E+02    0.4016346160E-03    0.3525653457E-04    0.5002187546E+00    0.3163648162E-03    0.1196463159E-03
    0.2500000000E+02    0.4263949199E-03    0.3745244037E-04    0.5117257260E+00    0.3394845910E-03    0.1300307374E-03
    0.2700000000E+02    0.4509076706E-03    0.3962787451E-04    0.5219542511E+00    0.3625732264E-03    0.1404120340E-03
    0.2900000000E+02    0.4752271281E-03    0.4178742598E-04    0.5311062167E+00    0.3856469032E-03    0.1507902079E-03
    0.3100000000E+02    0.4993946290E-03    0.4393457920E-04    0.5393431232E+00    0.4087166674E-03    0.1611652610E-03
    0.3300000000E+02    0.5234419941E-03    0.4607200708E-04    0.5467957029E+00    0.4317899985E-03    0.1715371954E-03
    0.3500000000E+02    0.5473939424E-03    0.4820177816E-04    0.5535709145E+00    0.4548718762E-03    0.1819060129E-03
    0.3700000000E+02    0.5712698285E-03    0.5032550551E-04    0.5597571125E+00    0.4779655170E-03    0.1922717156E-03
    0.3900000000E+02    0.5950849109E-03    0.5244445531E-04    0.5654279238E+00    0.5010728875E-03    0.2026343053E-03
    0.4100000000E+02    0.6188512902E-03    0.5455962688E-04    0.5706451935E+00    0.5241950679E-03    0.2129937839E-03
    0.4300000000E+02    0.6425786101E-03    0.5667181252E-04    0.5754612516E+00    0.5473325093E-03    0.2233501534E-03
    0.4500000000E+02    0.6662745884E-03    0.5878164270E-04    0.5799206746E+00    0.5704852195E-03    0.2337034156E-03
    0.4700000000E+02    0.6899454221E-03    0.6088962044E-04    0.5840616709E+00    0.5936528957E-03    0.2440535723E-03
    0.4900000000E+02    0.7135960993E-03    0.6299614776E-04    0.5879171784E+00    0.6168350219E-03    0.2544006255E-03
    0.1000000000E+02    0.2260196393E-03    0.1974684600E-04    0.3663676843E+00    0.1619637240E-03    0.5207125098E-04
    0.3000000000E+02    0.4873276936E-03    0.4286236906E-04    0.5353302529E+00    0.3971817377E-03    0.1559781244E-03
    0.5000000000E+02    0.7254151681E-03    0.6404897068E-04    0.5897469456E+00    0.6284313017E-03    0.2595729888E-03
    0.7000000000E+02    0.9613782911E-03    0.8507953900E-04    0.6166176381E+00    0.8609263182E-03    0.3628577683E-03
    0.9000000000E+02    0.1197103953E-02    0.1061009109E-03    0.6326353929E+00    0.1093998026E-02    0.4658342891E-03
    0.1100000000E+03    0.1432669226E-02    0.1271132987E-03    0.6432713845E+00    0.1327106685E-02    0.5685043462E-03
    0.1300000000E+03    0.1667915871E-02    0.1481000320E-03    0.6508481775E+00    0.1559931713E-02    0.6708697148E-03
    0.1500000000E+03    0.1902683912E-02    0.1690457370E-03    0.6565198949E+00    0.1792281640E-02    0.7729321537E-03
    0.1700000000E+03    0.2136845874E-02    0.1899385333E-03    0.6609249292E+00    0.2024037924E-02    0.8746934062E-03
    0.1900000000E+03    0.2370305366E-02    0.2107695812E-03    0.6644450774E+00    0.2255124571E-02    0.9761552010E-03
    0.2100000000E+03    0.2602990303E-02    0.2315323380E-03    0.6673226945E+00    0.2485491480E-02    0.1077319253E-02
    0.2300000000E+03    0.2834846725E-02    0.2522219423E-03    0.6697190295E+00    0.2715104951E-02    0.1178187262E-02
    0.2500000000E+03    0.3065834074E-02    0.2728347612E-03    0.6717455358E+00    0.2943942051E-02    0.1278760917E-02
    0.2700000000E+03    0.3295921767E-02    0.2933680682E-03    0.6734817164E+00    0.3171987129E-02    0.1379041889E-02
    0.2900000000E+03    0.3525086710E-02    0.3138198133E-03    0.6749858078E+00    0.3399229603E-02    0.1479031840E-02
    0.3100000000E+03    0.3753311511E-02    0.3341884582E-03    0.6763014454E+00    0.3625662495E-02    0.1578732417E-02
    0.3300000000E+03    0.3980583161E-02    0.3544728569E-03    0.6774619700E+00    0.3851281445E-02    0.1678145253E-02
    0.3500000000E+03    0.4206892068E-02    0.3746721678E-03    0.6784932947E+00    0.4076084028E-02    0.1777271970E-02
    0.3700000000E+03    0.4432231324E-02    0.3947857877E-03    0.6794158642E+00    0.4300069269E-02    0.1876114176E-02
    0.3900000000E+03    0.4656596159E-02    0.4148133027E-03    0.6802460255E+00    0.4523237300E-02    0.1974673468E-02
    0.4100000000E+03    0.4879983516E-02    0.4347544504E-03    0.6809970050E+00    0.4745589100E-02    0.2072951428E-02
    0.4300000000E+03    0.5102391723E-02    0.4546090901E-03    0.6816796199E+00    0.4967126309E-02    0.2170949628E-02
    0.4500000000E+03    0.5323820235E-02    0.4743771806E-03    0.6823028023E+00    0.5187851083E-02    0.2268669626E-02
    0.4700000000E+03    0.5544269431E-02    0.4940587618E-03    0.6828739933E+00    0.5407765986E-02    0.2366112969E-02
    0.4900000000E+03    0.5763740456E-02    0.5136539405E-03    0.6833994412E+00    0.5626873907E-02    0.2463281192E-02
    0.1000000000E+03    0.1314915522E-02    0.1166092308E-03    0.6384410026E+00    0.1210571705E-02    0.5172075142E-03
    0.3000000000E+03    0.3639317531E-02    0.3240146029E-03    0.6756648973E+00    0.3512547571E-02    0.1528918198E-02
    0.5000000000E+03    0.5873109688E-02    0.5234191777E-03    0.6836466956E+00    0.5736126224E-02    0.2511762610E-02
    0.7000000000E+03    0.8009818905E-02    0.7142487146E-03    0.6871283226E+00    0.7879666893E-02    0.3467313365E-02
    0.9000000000E+03    0.1005282900E-01    0.8968048742E-03    0.6890792035E+00    0.9946842110E-02    0.4397025970E-02
    0.1100000000E+04    0.1200688426E-01    0.1071506908E-02    0.6903271563E+00    0.1194167100E-01    0.5302249769E-02
    0.1300000000E+04    0.1387684616E-01    0.1238783347E-02    0.6911942126E+00    0.1386802984E-01    0.6184237609E-02
    0.1500000000E+04    0.1566739586E-01    0.1399046395E-02    0.6918317335E+00    0.1572956576E-01    0.7044154452E-02
    0.1700000000E+04    0.1738295249E-01    0.1552684985E-02    0.6923202524E+00    0.1752968693E-01    0.7883085069E-02
    0.1900000000E+04    0.1902765633E-01    0.1700063428E-02    0.6927065674E+00    0.1927157223E-01    0.8702040939E-02
    0.2100000000E+04    0.2060537486E-01    0.1841521997E-02    0.6930197329E+00    0.2095818619E-01    0.9501966435E-02
    0.2300000000E+04    0.2211971687E-01    0.1977378208E-02    0.6932787415E+00    0.2259229493E-01    0.1028374439E-01
    0.2500000000E+04    0.2357404949E-01    0.2107928324E-02    0.6934965330E+00    0.2417648153E-01    0.1104820114E-01
    0.2700000000E+04    0.2497151549E-01    0.2233448894E-02    0.6936822280E+00    0.2571316050E-01    0.1179611100E-01
    0.2900000000E+04    0.2631505013E-01    0.2354198233E-02    0.6938424404E+00    0.2720459106E-01    0.1252820041E-01
    0.3100000000E+04    0.2760739694E-01    0.2470417813E-02    0.6939820832E+00    0.2865288927E-01    0.1324515165E-01
    0.3300000000E+04    0.2885112243E-01    0.2582333554E-02    0.6941048821E+00    0.3006003917E-01    0.1394760618E-01
    0.3500000000E+04    0.3004862959E-01    0.2690157014E-02    0.6942137143E+00    0.3142790288E-01    0.1463616772E-01
    0.3700000000E+04    0.3120217036E-01    0.2794086483E-02    0.6943108366E+00    0.3275822985E-01    0.1531140503E-01
    0.3900000000E+04    0.3231385699E-01    0.2894307977E-02    0.6943980443E+00    0.3405266524E-01    0.1597385448E-01
    0.4100000000E+04    0.3338567247E-01    0.2990996160E-02    0.6944767834E+00    0.3531275762E-01    0.1662402233E-01
    0.4300000000E+04    0.3441948007E-01    0.3084315176E-02    0.6945482317E+00    0.3653996596E-01    0.1726238689E-01
    0.4500000000E+04    0.3541703210E-01    0.3174419420E-02    0.6946133582E+00    0.3773566608E-01    0.1788940045E-01
    0.4700000000E+04    0.3637997787E-01    0.3261454235E-02    0.6946729674E+00    0.3890115650E-01    0.1850549105E-01
    0.4900000000E+04    0.3730987105E-01    0.3345556563E-02    0.6947277326E+00    0.4003766381E-01    0.1911106415E-01
    0.1000000000E+04    0.1104066968E-01    0.9851106421E-03    0.6897649373E+00    0.1095305259E-01    0.4852618511E-02
    0.3000000000E+04    0.2696745762E-01    0.2412859773E-02    0.6939145769E+00    0.2793400473E-01    0.1288852729E-01
    0.5000000000E+04    0.3776288395E-01    0.3386548685E-02    0.6947534798E+00    0.4059541368E-01    0.1941002753E-01
    0.7000000000E+04    0.4540247241E-01    0.4080179070E-02    0.6951145151E+00    0.5047940428E-01    0.2492067996E-01
    0.9000000000E+04    0.5097969781E-01    0.4590227467E-02    0.6953156590E+00    0.5846329225E-01    0.2971491814E-01
    0.1100000000E+05    0.5514474962E-01    0.4974168158E-02    0.6954439473E+00    0.6508418662E-01    0.3397773826E-01
    0.1300000000E+05    0.5830672976E-01    0.5268235592E-02    0.6955329321E+00    0.7069018064E-01    0.3783199974E-01
    0.1500000000E+05    0.6073491468E-01    0.5496328457E-02    0.6955982979E+00    0.7551732983E-01    0.4136297068E-01
    0.1700000000E+05    0.6261317383E-01    0.5674799769E-02    0.6956483603E+00    0.7973173900E-01    0.4463199123E-01
    0.1900000000E+05    0.6407094215E-01    0.5815186161E-02    0.6956879390E+00    0.8345393688E-01    0.4768452220E-01
    0.2100000000E+05    0.6520170522E-01    0.5925838614E-02    0.6957200212E+00    0.8677367977E-01    0.5055511290E-01
    0.2300000000E+05    0.6607448047E-01    0.6012936494E-02    0.6957465569E+00    0.8975930864E-01    0.5327058989E-01
    0.2500000000E+05    0.6674119466E-01    0.6081139911E-02    0.6957688730E+00    0.9246386823E-01    0.5585217335E-01
    0.2700000000E+05    0.6724156565E-01    0.6134021914E-02    0.6957879044E+00    0.9492922791E-01    0.5831692276E-01
    0.2900000000E+05    0.6760641620E-01    0.6174362224E-02    0.6958043283E+00    0.9718892890E-01    0.6067874952E-01
    0.3100000000E+05    0.6785997455E-01    0.6204351425E-02    0.6958186478E+00    0.9927019618E-01    0.6294914209E-01
    0.3300000000E+05    0.6802150377E-01    0.6225735757E-02    0.6958312441E+00    0.1011953890E+00    0.6513769552E-01
    0.3500000000E+05    0.6810647641E-01    0.6239921630E-02    0.6958424115E+00    0.1029830655E+00    0.6725250500E-01
    0.3700000000E+05    0.6812743486E-01    0.6248052295E-02    0.6958523810E+00    0.1046487762E+00    0.6930046288E-01
    0.3900000000E+05    0.6809463084E-01    0.6251064885E-02    0.6958613359E+00    0.1062056651E+00    0.7128748620E-01
    0.4100000000E+05    0.6801650678E-01    0.6249733434E-02    0.6958694243E+00    0.1076649303E+00    0.7321869300E-01
    0.4300000000E+05    0.6790006270E-01    0.6244701695E-02    0.6958767666E+00    0.1090361807E+00    0.7509854087E-01
    0.4500000000E+05    0.6775113878E-01    0.6236508453E-02    0.6958834618E+00    0.1103277171E+00    0.7693093668E-01
    0.4700000000E+05    0.6757463519E-01    0.6225607256E-02    0.6958895922E+00    0.1115467538E+00    0.7871932459E-01
    0.4900000000E+05    0.6737468474E-01    0.6212381924E-02    0.6958952266E+00    0.1126995968E+00    0.8046675714E-01
    0.1000000000E+05    0.5320902545E-01    0.4795330616E-02    0.6953861854E+00    0.6191906159E-01    0.3190397990E-01
    0.3000000000E+05    0.6774580217E-01    0.6190532544E-02    0.6958117249E+00    0.9825036929E-01    0.6182473618E-01
    0.5000000000E+05    0.6726703288E-01    0.6205001667E-02    0.6958978763E+00    0.1132529537E+00    0.8132597649E-01
    0.7000000000E+05    0.6450058766E-01    0.5993340138E-02    0.6959350995E+00    0.1218936102E+00    0.9688820639E-01
    0.9000000000E+05    0.6135490352E-01    0.5735356283E-02    0.6959559166E+00    0.1275478463E+00    0.1102382349E+00
    0.1100000000E+06    0.5828577390E-01    0.5476478957E-02    0.6959692404E+00    0.1314871568E+00    0.1221126926E+00
    0.1300000000E+06    0.5541393723E-01    0.5230116419E-02    0.6959785125E+00    0.1343229484E+00    0.1329043209E+00
    0.1500000000E+06    0.5276249229E-01    0.4999911174E-02    0.6959853442E+00    0.1363952295E+00    0.1428520952E+00
    0.1700000000E+06    0.5032334191E-01    0.4786149327E-02    0.6959905915E+00    0.1379122554E+00    0.1521147229E+00
    0.1900000000E+06    0.4807888742E-01    0.4587934533E-02    0.6959947512E+00    0.1390106499E+00    0.1608043564E+00
    0.2100000000E+06    0.4600970010E-01    0.4404000342E-02    0.6959981316E+00    0.1397847503E+00    0.1690040015E+00
    0.2300000000E+06    0.4409726310E-01    0.4233027957E-02    0.6960009343E+00    0.1403023202E+00    0.1767773257E+00
    0.2500000000E+06    0.4232485537E-01    0.4073769149E-02    0.6960032969E+00    0.1406135843E+00    0.1841745689E+00
    0.2700000000E+06    0.4067771517E-01    0.3925088515E-02    0.6960053163E+00    0.1407567257E+00    0.1912362993E+00
    0.2900000000E+06    0.3914293075E-01    0.3785971756E-02    0.6960070627E+00    0.1407613879E+00    0.1979959052E+00
    0.3100000000E+06    0.3770924100E-01    0.3655519982E-02    0.6960085885E+00    0.1406509920E+00    0.2044813095E+00
    0.3300000000E+06    0.3636682046E-01    0.3532938867E-02    0.6960099334E+00    0.1404443206E+00    0.2107161841E+00
    0.3500000000E+06    0.3510707812E-01    0.3417526566E-02    0.6960111280E+00    0.1401566298E+00    0.2167208343E+00
    0.3700000000E+06    0.3392247955E-01    0.3308662064E-02    0.6960121964E+00    0.1398004485E+00    0.2225128556E+00
    0.3900000000E+06    0.3280639412E-01    0.3205794622E-02    0.6960131579E+00    0.1393861658E+00    0.2281076319E+00
    0.4100000000E+06    0.3175296517E-01    0.3108434485E-02    0.6960140279E+00    0.1389224689E+00    0.2335187201E+00
    0.4300000000E+06    0.3075700075E-01    0.3016144850E-02    0.6960148190E+00    0.1384166762E+00    0.2387581511E+00
    0.4500000000E+06    0.2981388141E-01    0.2928534956E-02    0.6960155415E+00    0.1378749941E+00    0.2438366685E+00
    0.4700000000E+06    0.2891948270E-01    0.2845254169E-02    0.6960162042E+00    0.1373027163E+00    0.2487639205E+00
    0.4900000000E+06    0.2807010966E-01    0.2765986932E-02    0.6960168143E+00    0.1367043820E+00    0.2535486161E+00
    0.1000000000E+06    0.5979956591E-01    0.5604831951E-02    0.6959632358E+00    0.1296846954E+00    0.1163304306E+00
    0.3000000000E+06    0.3841409432E-01    0.3719714701E-02    0.6960078505E+00    0.1407193045E+00    0.2012713151E+00
    0.5000000000E+06    0.2766125673E-01    0.2727768295E-02    0.6960171015E+00    0.1363966873E+00    0.2558900018E+00
    0.7000000000E+06    0.2119574505E-01    0.2117751318E-02    0.6960211640E+00    0.1295848520E+00    0.2968206679E+00
    0.9000000000E+06    0.1689243606E-01    0.1705371450E-02    0.6960234657E+00    0.1224944470E+00    0.3293790448E+00
    0.1100000000E+07    0.1384103498E-01    0.1409425704E-02    0.6960249552E+00    0.1157314417E+00    0.3561833319E+00
    0.1300000000E+07    0.1158017563E-01    0.1187984755E-02    0.6960260019E+00    0.1094669680E+00    0.3787690383E+00
    0.1500000000E+07    0.9849433949E-02    0.1017045159E-02    0.6960267798E+00    0.1037272815E+00    0.3981292695E+00
    0.1700000000E+07    0.8490345861E-02    0.8818336764E-03    0.6960273819E+00    0.9848711085E-01    0.4149483155E+00
    0.1900000000E+07    0.7400963855E-02    0.7727543121E-03    0.6960278627E+00    0.9370410344E-01    0.4297192365E+00
    0.2100000000E+07    0.6512803430E-02    0.6833071444E-03    0.6960282561E+00    0.8933241359E-01    0.4428094033E+00
    0.2300000000E+07    0.5778236626E-02    0.6089386133E-03    0.6960285842E+00    0.8532810002E-01    0.4544998031E+00
    0.2500000000E+07    0.5163181850E-02    0.5463689371E-03    0.6960288624E+00    0.8165110012E-01    0.4650099498E+00
    0.2700000000E+07    0.4642659696E-02    0.4931800352E-03    0.6960291014E+00    0.7826573301E-01    0.4745143700E+00
    0.2900000000E+07    0.4197983657E-02    0.4475532299E-03    0.6960293092E+00    0.7514057714E-01    0.4831538981E+00
    0.3100000000E+07    0.3814925095E-02    0.4080968347E-03    0.6960294916E+00    0.7224810222E-01    0.4910436418E+00
    0.3300000000E+07    0.3482480516E-02    0.3737296683E-03    0.6960296532E+00    0.6956422734E-01    0.4982787345E+00
    0.3500000000E+07    0.3192023130E-02    0.3436004575E-03    0.6960297972E+00    0.6706788259E-01    0.5049385773E+00
    0.3700000000E+07    0.2936706365E-02    0.3170308995E-03    0.6960299266E+00    0.6474060567E-01    0.5110900218E+00
    0.3900000000E+07    0.2711036573E-02    0.2934746869E-03    0.6960300435E+00    0.6256618465E-01    0.5167897973E+00
    0.4100000000E+07    0.2510561774E-02    0.2724875357E-03    0.6960301497E+00    0.6053034763E-01    0.5220863850E+00
    0.4300000000E+07    0.2331641496E-02    0.2537049328E-03    0.6960302466E+00    0.5862049604E-01    0.5270214857E+00
    0.4500000000E+07    0.2171274266E-02    0.2368253949E-03    0.6960303353E+00    0.5682547685E-01    0.5316311794E+00
    0.4700000000E+07    0.2026966703E-02    0.2215977202E-03    0.6960304170E+00    0.5513538825E-01    0.5359468528E+00
    0.4900000000E+07    0.1896633056E-02    0.2078111720E-03    0.6960304925E+00    0.5354141422E-01    0.5399959459E+00
    0.1000000000E+07    0.1524557201E-01    0.1546040264E-02    0.6960242821E+00    0.1190560984E+00    0.3433877264E+00
    0.3000000000E+07    0.3999504070E-02    0.4271274986E-03    0.6960294033E+00    0.7366683520E-01    0.4871861348E+00
    0.5000000000E+07    0.1836146584E-02    0.2014016154E-03    0.6960305281E+00    0.5277797689E-01    0.5419281727E+00
    0.7000000000E+07    0.1051973122E-02    0.1175167396E-03    0.6960310377E+00    0.4103144346E-01    0.5711238091E+00
    0.9000000000E+07    0.6809506143E-03    0.7713583558E-04    0.6960313325E+00    0.3352865831E-01    0.5893011105E+00
    0.1100000000E+08    0.4764602162E-03    0.5458173315E-04    0.6960315260E+00    0.2832866994E-01    0.6017101694E+00
    0.1300000000E+08    0.3519046205E-03    0.4069432640E-04    0.6960316632E+00    0.2451510802E-01    0.6107200761E+00
    0.1500000000E+08    0.2704661397E-03    0.3153085897E-04    0.6960317659E+00    0.2160006719E-01    0.6175583460E+00
    0.1700000000E+08    0.2143227150E-03    0.2516338725E-04    0.6960318457E+00    0.1930020822E-01    0.6229249285E+00
    0.1900000000E+08    0.1739922373E-03    0.2055730076E-04    0.6960319095E+00    0.1743983045E-01    0.6272482040E+00
    0.2100000000E+08    0.1440521019E-03    0.1711648072E-04    0.6960319617E+00    0.1590423927E-01    0.6308050557E+00
    0.2300000000E+08    0.1212190622E-03    0.1447758896E-04    0.6960320051E+00    0.1461540615E-01    0.6337823982E+00
    0.2500000000E+08    0.1034109179E-03    0.1240882229E-04    0.6960320418E+00    0.1351841321E-01    0.6363109697E+00
    0.2700000000E+08    0.8925546887E-04    0.1075658999E-04    0.6960320732E+00    0.1257349374E-01    0.6384849570E+00
