  Pressure (Pa) 22mC5-500 (mol/kg) 23mC5-500 (mol/kg) 24mC5-500 (mol/kg) 2mC6-500 (mol/kg) 3mC6-500 (mol/kg)
    0.1000000000E+01    0.3424347660E-04    0.3975903761E-05    0.9949983325E-01    0.1127557399E-04    0.5210753862E-05
    0.3000000000E+01    0.8488206611E-04    0.9865771721E-05    0.2321135054E+00    0.2881055002E-04    0.1563025258E-04
    0.5000000000E+01    0.1233720229E-03    0.1435681015E-04    0.3164746358E+00    0.4316390996E-04    0.2604709695E-04
    0.7000000000E+01    0.1558747688E-03    0.1816167836E-04    0.3748664263E+00    0.5610435039E-04    0.3646130170E-04
    0.9000000000E+01    0.1851003242E-03    0.2159287754E-04    0.4176815440E+00    0.6835918646E-04    0.4687287466E-04
    0.1100000000E+02    0.2123984569E-03    0.2480554331E-04    0.4504198106E+00    0.8026433606E-04    0.5728182077E-04
    0.1300000000E+02    0.2385029782E-03    0.2788371998E-04    0.4762644412E+00    0.9198770372E-04    0.6768814352E-04
    0.1500000000E+02    0.2638396249E-03    0.3087598438E-04    0.4971855908E+00    0.1036179562E-03    0.7809184561E-04
    0.1700000000E+02    0.2886680583E-03    0.3381184444E-04    0.5144679429E+00    0.1152036948E-03    0.8849292929E-04
    0.1900000000E+02    0.3131530132E-03    0.3670993908E-04    0.5289849771E+00    0.1267721625E-03    0.9889139654E-04
    0.2100000000E+02    0.3374023545E-03    0.3958241494E-04    0.5413513060E+00    0.1383387465E-03    0.1092872491E-03
    0.2300000000E+02    0.3614885391E-03    0.4243738910E-04    0.5520119611E+00    0.1499120484E-03    0.1196804888E-03
    0.2500000000E+02    0.3854612617E-03    0.4528039670E-04    0.5612971071E+00    0.1614966988E-03    0.1300711170E-03
    0.2700000000E+02    0.4093551832E-03    0.4811527366E-04    0.5694568569E+00    0.1730949710E-03    0.1404591353E-03
    0.2900000000E+02    0.4331948056E-03    0.5094471186E-04    0.5766841473E+00    0.1847077307E-03    0.1508445452E-03
    0.3100000000E+02    0.4569976299E-03    0.5377061803E-04    0.5831301944E+00    0.1963350057E-03    0.1612273481E-03
    0.3300000000E+02    0.4807762504E-03    0.5659435094E-04    0.5889151926E+00    0.2079763339E-03    0.1716075453E-03
    0.3500000000E+02    0.5045397725E-03    0.5941688159E-04    0.5941358818E+00    0.2196309779E-03    0.1819851384E-03
    0.3700000000E+02    0.5282947897E-03    0.6223890323E-04    0.5988710027E+00    0.2312980578E-03    0.1923601286E-03
    0.3900000000E+02    0.5520460680E-03    0.6506090815E-04    0.6031852967E+00    0.2429766334E-03    0.2027325174E-03
    0.4100000000E+02    0.5757970314E-03    0.6788324202E-04    0.6071324849E+00    0.2546657554E-03    0.2131023059E-03
    0.4300000000E+02    0.5995501113E-03    0.7070614281E-04    0.6107575174E+00    0.2663644951E-03    0.2234694957E-03
    0.4500000000E+02    0.6233070008E-03    0.7352976902E-04    0.6140982931E+00    0.2780719629E-03    0.2338340880E-03
    0.4700000000E+02    0.6470688412E-03    0.7635422028E-04    0.6171869901E+00    0.2897873171E-03    0.2441960840E-03
    0.4900000000E+02    0.6708363599E-03    0.7917955253E-04    0.6200511062E+00    0.3015097690E-03    0.2545554852E-03
    0.1000000000E+02    0.1989348025E-03    0.2322016194E-04    0.4350740128E+00    0.7434243605E-04    0.5207767583E-04
    0.3000000000E+02    0.4450999346E-03    0.5235801086E-04    0.5799966880E+00    0.1905195742E-03    0.1560362724E-03
    0.5000000000E+02    0.6827223888E-03    0.8059255742E-04    0.6214064653E+00    0.3073734248E-03    0.2597342132E-03
    0.7000000000E+02    0.9207490477E-03    0.1088952321E-03    0.6410251645E+00    0.4248679737E-03    0.3631728591E-03
    0.9000000000E+02    0.1159127723E-02    0.1372454688E-03    0.6524713793E+00    0.5425128956E-03    0.4663534997E-03
    0.1100000000E+03    0.1397497113E-02    0.1655966209E-03    0.6599718015E+00    0.6600785586E-03    0.5692774043E-03
    0.1300000000E+03    0.1635593244E-02    0.1939161676E-03    0.6652669754E+00    0.7774503833E-03    0.6719458296E-03
    0.1500000000E+03    0.1873240186E-02    0.2221828392E-03    0.6692049310E+00    0.8945660995E-03    0.7743600224E-03
    0.1700000000E+03    0.2110319970E-02    0.2503825295E-03    0.6722482682E+00    0.1011389507E-02    0.8765212198E-03
    0.1900000000E+03    0.2346751752E-02    0.2785056452E-03    0.6746707928E+00    0.1127898494E-02    0.9784306505E-03
    0.2100000000E+03    0.2582478895E-02    0.3065455056E-03    0.6766449137E+00    0.1244079085E-02    0.1080089534E-02
    0.2300000000E+03    0.2817460986E-02    0.3344973666E-03    0.6782846044E+00    0.1359922262E-02    0.1181499083E-02
    0.2500000000E+03    0.3051668783E-02    0.3623578106E-03    0.6796682272E+00    0.1475422164E-02    0.1282660499E-02
    0.2700000000E+03    0.3285080931E-02    0.3901243524E-03    0.6808514341E+00    0.1590575018E-02    0.1383574979E-02
    0.2900000000E+03    0.3517681778E-02    0.4177951779E-03    0.6818748387E+00    0.1705378474E-02    0.1484243708E-02
    0.3100000000E+03    0.3749459877E-02    0.4453689665E-03    0.6827687743E+00    0.1819831177E-02    0.1584667866E-02
    0.3300000000E+03    0.3980406935E-02    0.4728447666E-03    0.6835563535E+00    0.1933932485E-02    0.1684848624E-02
    0.3500000000E+03    0.4210517064E-02    0.5002219072E-03    0.6842554960E+00    0.2047682277E-02    0.1784787146E-02
    0.3700000000E+03    0.4439786239E-02    0.5274999342E-03    0.6848803095E+00    0.2161080818E-02    0.1884484587E-02
    0.3900000000E+03    0.4668211891E-02    0.5546785629E-03    0.6854420522E+00    0.2274128663E-02    0.1983942094E-02
    0.4100000000E+03    0.4895792605E-02    0.5817576419E-03    0.6859498178E+00    0.2386826587E-02    0.2083160808E-02
    0.4300000000E+03    0.5122527887E-02    0.6087371269E-03    0.6864110318E+00    0.2499175537E-02    0.2182141862E-02
    0.4500000000E+03    0.5348417988E-02    0.6356170593E-03    0.6868318172E+00    0.2611176592E-02    0.2280886380E-02
    0.4700000000E+03    0.5573463764E-02    0.6623975504E-03    0.6872172682E+00    0.2722830932E-02    0.2379395481E-02
    0.4900000000E+03    0.5797666564E-02    0.6890787682E-03    0.6875716575E+00    0.2834139821E-02    0.2477670275E-02
    0.1000000000E+03    0.1278332534E-02    0.1514232838E-03    0.6565752457E+00    0.6013144918E-03    0.5178474652E-03
    0.3000000000E+03    0.3633674254E-02    0.4315942688E-03    0.6823364040E+00    0.1762648724E-02    0.1534486285E-02
    0.5000000000E+03    0.5909452383E-02    0.7023822152E-03    0.6877383546E+00    0.2889665133E-02    0.2526720151E-02
    0.7000000000E+03    0.8101497539E-02    0.9633096581E-03    0.6900812689E+00    0.3982381602E-02    0.3495682548E-02
    0.9000000000E+03    0.1021257442E-01    0.1214706420E-02    0.6913904917E+00    0.5042243423E-02    0.4442434761E-02
    0.1100000000E+04    0.1224629330E-01    0.1456998147E-02    0.6922266081E+00    0.6070761139E-02    0.5367971685E-02
    0.1300000000E+04    0.1420632259E-01    0.1690616057E-02    0.6928068837E+00    0.7069387664E-02    0.6273227030E-02
    0.1500000000E+04    0.1609620568E-01    0.1915976170E-02    0.6932331996E+00    0.8039497827E-02    0.7159078028E-02
    0.1700000000E+04    0.1791931054E-01    0.2133473699E-02    0.6935596751E+00    0.8982386874E-02    0.8026349713E-02
    0.1900000000E+04    0.1967881895E-01    0.2343481910E-02    0.6938177217E+00    0.9899273726E-02    0.8875818805E-02
    0.2100000000E+04    0.2137772944E-01    0.2546352531E-02    0.6940268228E+00    0.1079130551E-01    0.9708217261E-02
    0.2300000000E+04    0.2301886544E-01    0.2742416746E-02    0.6941997050E+00    0.1165956231E-01    0.1052423550E-01
    0.2500000000E+04    0.2460488523E-01    0.2931986371E-02    0.6943450340E+00    0.1250506176E-01    0.1132452538E-01
    0.2700000000E+04    0.2613829226E-01    0.3115355080E-02    0.6944689147E+00    0.1332876339E-01    0.1210970287E-01
    0.2900000000E+04    0.2762144533E-01    0.3292799599E-02    0.6945757719E+00    0.1413157265E-01    0.1288035055E-01
    0.3100000000E+04    0.2905656821E-01    0.3464580839E-02    0.6946688916E+00    0.1491434467E-01    0.1363701988E-01
    0.3300000000E+04    0.3044575880E-01    0.3630944968E-02    0.6947507648E+00    0.1567788764E-01    0.1438023330E-01
    0.3500000000E+04    0.3179099757E-01    0.3792124398E-02    0.6948233145E+00    0.1642296604E-01    0.1511048613E-01
    0.3700000000E+04    0.3309415543E-01    0.3948338713E-02    0.6948880488E+00    0.1715030355E-01    0.1582824834E-01
    0.3900000000E+04    0.3435700102E-01    0.4099795522E-02    0.6949461670E+00    0.1786058573E-01    0.1653396621E-01
    0.4100000000E+04    0.3558120752E-01    0.4246691247E-02    0.6949986350E+00    0.1855446251E-01    0.1722806380E-01
    0.4300000000E+04    0.3676835882E-01    0.4389211857E-02    0.6950462394E+00    0.1923255049E-01    0.1791094438E-01
    0.4500000000E+04    0.3791995533E-01    0.4527533541E-02    0.6950896270E+00    0.1989543509E-01    0.1858299168E-01
    0.4700000000E+04    0.3903741937E-01    0.4661823341E-02    0.6951293350E+00    0.2054367245E-01    0.1924457109E-01
    0.4900000000E+04    0.4012210005E-01    0.4792239721E-02    0.6951658128E+00    0.2117779129E-01    0.1989603078E-01
    0.1000000000E+04    0.1123887249E-01    0.1336963227E-02    0.6918500611E+00    0.5560327739E-02    0.4907795401E-02
    0.3000000000E+04    0.2834487657E-01    0.3379382410E-02    0.6946238778E+00    0.1452541174E-01    0.1326039920E-01
    0.5000000000E+04    0.4065254936E-01    0.4856042688E-02    0.6951829612E+00    0.2148971441E-01    0.2021807008E-01
    0.7000000000E+04    0.4981931408E-01    0.5961522180E-02    0.6954233370E+00    0.2709705881E-01    0.2620060403E-01
    0.9000000000E+04    0.5682841400E-01    0.6811406904E-02    0.6955571781E+00    0.3173793434E-01    0.3146850406E-01
    0.1100000000E+05    0.6229755912E-01    0.7478419642E-02    0.6956425036E+00    0.3566344114E-01    0.3619294364E-01
    0.1300000000E+05    0.6663326626E-01    0.8010492645E-02    0.6957016668E+00    0.3904274350E-01    0.4049161397E-01
    0.1500000000E+05    0.7011338118E-01    0.8440437960E-02    0.6957451133E+00    0.4199420523E-01    0.4444846832E-01
    0.1700000000E+05    0.7293385871E-01    0.8791433854E-02    0.6957783790E+00    0.4460328831E-01    0.4812524800E-01
    0.1900000000E+05    0.7523660107E-01    0.9080292517E-02    0.6958046722E+00    0.4693335482E-01    0.5156854024E-01
    0.2100000000E+05    0.7712671396E-01    0.9319487375E-02    0.6958259804E+00    0.4903245746E-01    0.5481427678E-01
    0.2300000000E+05    0.7868358104E-01    0.9518455329E-02    0.6958436010E+00    0.5093775882E-01    0.5789070053E-01
    0.2500000000E+05    0.7996818717E-01    0.9684458667E-02    0.6958584169E+00    0.5267849489E-01    0.6082038032E-01
    0.2700000000E+05    0.8102808899E-01    0.9823170613E-02    0.6958710496E+00    0.5427801466E-01    0.6362161457E-01
    0.2900000000E+05    0.8190086666E-01    0.9939082345E-02    0.6958819497E+00    0.5575521635E-01    0.6630943143E-01
    0.3100000000E+05    0.8261657023E-01    0.1003579172E-01    0.6958914515E+00    0.5712557951E-01    0.6889631569E-01
    0.3300000000E+05    0.8319948491E-01    0.1011621181E-01    0.6958998085E+00    0.5840192030E-01    0.7139274658E-01
    0.3500000000E+05    0.8366942588E-01    0.1018272407E-01    0.6959072165E+00    0.5959495307E-01    0.7380760207E-01
    0.3700000000E+05    0.8404270205E-01    0.1023729234E-01    0.6959138287E+00    0.6071371430E-01    0.7614846717E-01
    0.3900000000E+05    0.8433284290E-01    0.1028154902E-01    0.6959197672E+00    0.6176588676E-01    0.7842187209E-01
    0.4100000000E+05    0.8455115349E-01    0.1031686089E-01    0.6959251303E+00    0.6275805053E-01    0.8063347849E-01
    0.4300000000E+05    0.8470714287E-01    0.1034437997E-01    0.6959299981E+00    0.6369587943E-01    0.8278822668E-01
    0.4500000000E+05    0.8480885825E-01    0.1036508322E-01    0.6959344362E+00    0.6458429643E-01    0.8489045310E-01
    0.4700000000E+05    0.8486314800E-01    0.1037980386E-01    0.6959384994E+00    0.6542759766E-01    0.8694398498E-01
    0.4900000000E+05    0.8487587062E-01    0.1038925624E-01    0.6959422335E+00    0.6622955230E-01    0.8895221731E-01
    0.1000000000E+05    0.5972632405E-01    0.7164336095E-02    0.6956040898E+00    0.3377806657E-01    0.3389033170E-01
    0.3000000000E+05    0.8227671684E-01    0.9989641226E-02    0.6958868580E+00    0.5645289668E-01    0.6761479346E-01
    0.5000000000E+05    0.8486824620E-01    0.1039220254E-01    0.6959439893E+00    0.6661607871E-01    0.8994030462E-01
    0.7000000000E+05    0.8344580986E-01    0.1028653305E-01    0.6959686423E+00    0.7280857329E-01    0.1079115335E+00
    0.9000000000E+05    0.8086426834E-01    0.1002397933E-01    0.6959824155E+00    0.7707088151E-01    0.1234474063E+00
    0.1100000000E+06    0.7794711197E-01    0.9708950738E-02    0.6959912231E+00    0.8019051193E-01    0.1373618157E+00
    0.1300000000E+06    0.7498840878E-01    0.9380230427E-02    0.6959973474E+00    0.8255282069E-01    0.1500840889E+00
    0.1500000000E+06    0.7210397481E-01    0.9053995354E-02    0.6960018567E+00    0.8437564913E-01    0.1618727171E+00
    0.1700000000E+06    0.6933981793E-01    0.8737318482E-02    0.6960053178E+00    0.8579470738E-01    0.1728978539E+00
    0.1900000000E+06    0.6671194033E-01    0.8433217072E-02    0.6960080599E+00    0.8690063895E-01    0.1832789455E+00
    0.2100000000E+06    0.6422275458E-01    0.8142780372E-02    0.6960102869E+00    0.8775722767E-01    0.1931040168E+00
    0.2300000000E+06    0.6186842922E-01    0.7866146773E-02    0.6960121324E+00    0.8841120300E-01    0.2024404483E+00
    0.2500000000E+06    0.5964236614E-01    0.7602981587E-02    0.6960136873E+00    0.8889791060E-01    0.2113414117E+00
    0.2700000000E+06    0.5753690705E-01    0.7352721437E-02    0.6960150155E+00    0.8924478387E-01    0.2198499255E+00
    0.2900000000E+06    0.5554418392E-01    0.7114703092E-02    0.6960161637E+00    0.8947357046E-01    0.2280015208E+00
    0.3100000000E+06    0.5365653926E-01    0.6888232497E-02    0.6960171664E+00    0.8960181665E-01    0.2358260614E+00
    0.3300000000E+06    0.5186672381E-01    0.6672621721E-02    0.6960180498E+00    0.8964388998E-01    0.2433490218E+00
    0.3500000000E+06    0.5016797757E-01    0.6467208286E-02    0.6960188341E+00    0.8961170384E-01    0.2505924108E+00
    0.3700000000E+06    0.4855404935E-01    0.6271364616E-02    0.6960195354E+00    0.8951524342E-01    0.2575754528E+00
    0.3900000000E+06    0.4701918476E-01    0.6084501937E-02    0.6960201661E+00    0.8936295574E-01    0.2643151017E+00
    0.4100000000E+06    0.4555809855E-01    0.5906071037E-02    0.6960207366E+00    0.8916204434E-01    0.2708264345E+00
    0.4300000000E+06    0.4416594047E-01    0.5735561313E-02    0.6960212552E+00    0.8891869554E-01    0.2771229576E+00
    0.4500000000E+06    0.4283825905E-01    0.5572498895E-02    0.6960217287E+00    0.8863825495E-01    0.2832168497E+00
    0.4700000000E+06    0.4157096631E-01    0.5416444354E-02    0.6960221628E+00    0.8832536676E-01    0.2891191553E+00
    0.4900000000E+06    0.4036030424E-01    0.5266990242E-02    0.6960225622E+00    0.8798408514E-01    0.2948399420E+00
    0.1000000000E+06    0.7942293801E-01    0.9869805083E-02    0.6959872547E+00    0.7874393843E-01    0.1305749623E+00
    0.3000000000E+06    0.5458769077E-01    0.7000067754E-02    0.6960166814E+00    0.8954929829E-01    0.2319529902E+00
    0.5000000000E+06    0.3977511794E-01    0.5194619160E-02    0.6960227502E+00    0.8780392489E-01    0.2976351768E+00
    0.7000000000E+06    0.3033643461E-01    0.4015339525E-02    0.6960254056E+00    0.8337599842E-01    0.3458995559E+00
    0.9000000000E+06    0.2391175253E-01    0.3199040549E-02    0.6960269056E+00    0.7836525946E-01    0.3831742841E+00
    0.1100000000E+07    0.1932989771E-01    0.2609369420E-02    0.6960278739E+00    0.7344846056E-01    0.4128751975E+00
    0.1300000000E+07    0.1594494928E-01    0.2169172660E-02    0.6960285528E+00    0.6885671214E-01    0.4370935676E+00
    0.1500000000E+07    0.1337314269E-01    0.1831766100E-02    0.6960290562E+00    0.6465486395E-01    0.4572067795E+00
    0.1700000000E+07    0.1137364843E-01    0.1567436853E-02    0.6960294453E+00    0.6084190913E-01    0.4741655574E+00
    0.1900000000E+07    0.9788766721E-02    0.1356503940E-02    0.6960297553E+00    0.5739138018E-01    0.4886489765E+00
    0.2100000000E+07    0.8511609906E-02    0.1185498590E-02    0.6960300086E+00    0.5426853287E-01    0.5011553510E+00
    0.2300000000E+07    0.7467615543E-02    0.1044947014E-02    0.6960302195E+00    0.5143775463E-01    0.5120585962E+00
    0.2500000000E+07    0.6603479397E-02    0.9280269753E-03    0.6960303980E+00    0.4886564112E-01    0.5216446572E+00
    0.2700000000E+07    0.5880277013E-02    0.8297242722E-03    0.6960305512E+00    0.4652210435E-01    0.5301358340E+00
    0.2900000000E+07    0.5269050727E-02    0.7462867713E-03    0.6960306842E+00    0.4438058708E-01    0.5377074682E+00
    0.3100000000E+07    0.4747899922E-02    0.6748616324E-03    0.6960308008E+00    0.4241788681E-01    0.5444996536E+00
    0.3300000000E+07    0.4300016002E-02    0.6132486278E-03    0.6960309039E+00    0.4061382802E-01    0.5506256203E+00
    0.3500000000E+07    0.3912326981E-02    0.5597289352E-03    0.6960309958E+00    0.3895089498E-01    0.5561778430E+00
    0.3700000000E+07    0.3574544740E-02    0.5129441176E-03    0.6960310782E+00    0.3741387643E-01    0.5612325618E+00
    0.3900000000E+07    0.3278483848E-02    0.4718091525E-03    0.6960311525E+00    0.3598954286E-01    0.5658531757E+00
    0.4100000000E+07    0.3017567004E-02    0.4354489888E-03    0.6960312200E+00    0.3466636331E-01    0.5700928222E+00
    0.4300000000E+07    0.2786460894E-02    0.4031516302E-03    0.6960312814E+00    0.3343426099E-01    0.5739963618E+00
    0.4500000000E+07    0.2580804637E-02    0.3743330028E-03    0.6960313377E+00    0.3228440481E-01    0.5776019214E+00
    0.4700000000E+07    0.2397004867E-02    0.3485103439E-03    0.6960313894E+00    0.3120903228E-01    0.5809421055E+00
    0.4900000000E+07    0.2232079417E-02    0.3252818293E-03    0.6960314371E+00    0.3020129952E-01    0.5840449565E+00
    0.1000000000E+07    0.2143903373E-01    0.2881641549E-02    0.6960274366E+00    0.7587488277E-01    0.3988192366E+00
    0.3000000000E+07    0.4998367517E-02    0.7092231656E-03    0.6960307444E+00    0.4337821245E-01    0.5411933662E+00
    0.5000000000E+07    0.2155899541E-02    0.3145329867E-03    0.6960314596E+00    0.2972087888E-01    0.5855150899E+00
    0.7000000000E+07    0.1191722726E-02    0.1771837580E-03    0.6960317802E+00    0.2251245804E-01    0.6069098132E+00
    0.9000000000E+07    0.7538599315E-03    0.1137010344E-03    0.6960319639E+00    0.1808891794E-01    0.6194706194E+00
    0.1100000000E+08    0.5190983002E-03    0.7920184373E-04    0.6960320834E+00    0.1510524920E-01    0.6277204654E+00
    0.1300000000E+08    0.3789073283E-03    0.5837289925E-04    0.6960321676E+00    0.1295949786E-01    0.6335489009E+00
    0.1500000000E+08    0.2886002357E-03    0.4483079165E-04    0.6960322300E+00    0.1134332019E-01    0.6378833587E+00
    0.1700000000E+08    0.2270607116E-03    0.3552845402E-04    0.6960322781E+00    0.1008279603E-01    0.6412318390E+00
    0.1900000000E+08    0.1832628101E-03    0.2886113196E-04    0.6960323163E+00    0.9072499438E-02    0.6438957415E+00
    0.2100000000E+08    0.1509951197E-03    0.2391801444E-04    0.6960323472E+00    0.8244851834E-02    0.6460651190E+00
    0.2300000000E+08    0.1265428285E-03    0.2015076122E-04    0.6960323728E+00    0.7554559162E-02    0.6478657104E+00
    0.2500000000E+08    0.1075741303E-03    0.1721312346E-04    0.6960323942E+00    0.6970136799E-02    0.6493840038E+00
    0.2700000000E+08    0.9256565384E-04    0.1487767189E-04    0.6960324124E+00    0.6469025263E-02    0.6506814324E+00
