  Pressure (Pa) 22mC5-500 (mol/kg) 23mC5-500 (mol/kg) 24mC5-500 (mol/kg) 2mC6-500 (mol/kg) 3mC6-500 (mol/kg)
    0.1000000000E+01    0.3300532480E-04    0.9581857484E-06    0.1266327721E+00    0.1092136702E-04    0.1563206016E-04
    0.3000000000E+01    0.7885601288E-04    0.2292708096E-05    0.2785265388E+00    0.2717850528E-04    0.4688897557E-04
    0.5000000000E+01    0.1130571181E-03    0.3292523249E-05    0.3664346325E+00    0.4050810914E-04    0.7813638266E-04
    0.7000000000E+01    0.1423272894E-03    0.4151606709E-05    0.4237553153E+00    0.5277451001E-04    0.1093743332E-03
    0.9000000000E+01    0.1691876076E-03    0.4942427766E-05    0.4640877159E+00    0.6461122681E-04    0.1406028529E-03
    0.1100000000E+02    0.1947583947E-03    0.5697037046E-05    0.4940097989E+00    0.7626938883E-04    0.1718219572E-03
    0.1300000000E+02    0.2195963326E-03    0.6431277421E-05    0.5170916384E+00    0.8785822231E-04    0.2030316577E-03
    0.1500000000E+02    0.2440007515E-03    0.7153618805E-05    0.5354383212E+00    0.9942776780E-04    0.2342319633E-03
    0.1700000000E+02    0.2681422230E-03    0.7868856858E-05    0.5503714894E+00    0.1110013161E-03    0.2654228819E-03
    0.1900000000E+02    0.2921222803E-03    0.8579825519E-05    0.5627627871E+00    0.1225893849E-03    0.2966044205E-03
    0.2100000000E+02    0.3160033835E-03    0.9288253562E-05    0.5732103611E+00    0.1341961783E-03    0.3277765859E-03
    0.2300000000E+02    0.3398249054E-03    0.9995220000E-05    0.5821383298E+00    0.1458227320E-03    0.3589393843E-03
    0.2500000000E+02    0.3636120931E-03    0.1070140848E-04    0.5898557840E+00    0.1574685059E-03    0.3900928217E-03
    0.2700000000E+02    0.3873813028E-03    0.1140725531E-04    0.5965933077E+00    0.1691322113E-03    0.4212369041E-03
    0.2900000000E+02    0.4111431630E-03    0.1211303853E-04    0.6025264160E+00    0.1808122464E-03    0.4523716373E-03
    0.3100000000E+02    0.4349045433E-03    0.1281893314E-04    0.6077910685E+00    0.1925069268E-03    0.4834970269E-03
    0.3300000000E+02    0.4586698091E-03    0.1352504608E-04    0.6124942187E+00    0.2042146040E-03    0.5146130787E-03
    0.3500000000E+02    0.4824416391E-03    0.1423143896E-04    0.6167211575E+00    0.2159337240E-03    0.5457197982E-03
    0.3700000000E+02    0.5062215669E-03    0.1493814297E-04    0.6205407336E+00    0.2276628523E-03    0.5768171910E-03
    0.3900000000E+02    0.5300103457E-03    0.1564516893E-04    0.6240091336E+00    0.2394006810E-03    0.6079052626E-03
    0.4100000000E+02    0.5538081969E-03    0.1635251400E-04    0.6271726649E+00    0.2511460263E-03    0.6389840185E-03
    0.4300000000E+02    0.5776149814E-03    0.1706016635E-04    0.6300698357E+00    0.2628978213E-03    0.6700534642E-03
    0.4500000000E+02    0.6014303187E-03    0.1776810835E-04    0.6327329307E+00    0.2746551067E-03    0.7011136051E-03
    0.4700000000E+02    0.6252536699E-03    0.1847631872E-04    0.6351892193E+00    0.2864170202E-03    0.7321644466E-03
    0.4900000000E+02    0.6490843967E-03    0.1918477412E-04    0.6374618934E+00    0.2981827873E-03    0.7632059942E-03
    0.1000000000E+02    0.1820910825E-03    0.5323030069E-05    0.4800807379E+00    0.7045381893E-04    0.1562135812E-03
    0.3000000000E+02    0.4230235928E-03    0.1246596395E-04    0.6052350334E+00    0.1866578607E-03    0.4679354997E-03
    0.5000000000E+02    0.6610023095E-03    0.1953908611E-04    0.6385356916E+00    0.3040668954E-03    0.7787232845E-03
    0.7000000000E+02    0.8995736009E-03    0.2663238340E-04    0.6539590696E+00    0.4218155266E-03    0.1088582474E-02
    0.9000000000E+02    0.1138139147E-02    0.3372613946E-04    0.6628552470E+00    0.5394694879E-03    0.1397518416E-02
    0.1100000000E+03    0.1376281331E-02    0.4080755236E-04    0.6686443018E+00    0.6568556745E-03    0.1705536388E-02
    0.1300000000E+03    0.1613755407E-02    0.4786927440E-04    0.6727121597E+00    0.7738942626E-03    0.2012641618E-02
    0.1500000000E+03    0.1850413986E-02    0.5490693067E-04    0.6757271602E+00    0.8905443204E-03    0.2318839290E-02
    0.1700000000E+03    0.2086164666E-02    0.6191779964E-04    0.6780512647E+00    0.1006783359E-02    0.2624134544E-02
    0.1900000000E+03    0.2320947565E-02    0.6890012835E-04    0.6798975690E+00    0.1122598533E-02    0.2928532480E-02
    0.2100000000E+03    0.2554722972E-02    0.7585276047E-04    0.6813997003E+00    0.1237982427E-02    0.3232038156E-02
    0.2300000000E+03    0.2787464223E-02    0.8277492360E-04    0.6826457037E+00    0.1352930876E-02    0.3534656591E-02
    0.2500000000E+03    0.3019153402E-02    0.8966610169E-04    0.6836959512E+00    0.1467441751E-02    0.3836392765E-02
    0.2700000000E+03    0.3249778644E-02    0.9652595525E-04    0.6845932222E+00    0.1581514246E-02    0.4137251619E-02
    0.2900000000E+03    0.3479332378E-02    0.1033542698E-03    0.6853686766E+00    0.1695148448E-02    0.4437238056E-02
    0.3100000000E+03    0.3707810149E-02    0.1101509212E-03    0.6860455494E+00    0.1808345059E-02    0.4736356940E-02
    0.3300000000E+03    0.3935209806E-02    0.1169158522E-03    0.6866415192E+00    0.1921105214E-02    0.5034613099E-02
    0.3500000000E+03    0.4161530936E-02    0.1236490555E-03    0.6871702757E+00    0.2033430358E-02    0.5332011322E-02
    0.3700000000E+03    0.4386774444E-02    0.1303505620E-03    0.6876425848E+00    0.2145322164E-02    0.5628556363E-02
    0.3900000000E+03    0.4610942260E-02    0.1370204318E-03    0.6880670294E+00    0.2256782470E-02    0.5924252939E-02
    0.4100000000E+03    0.4834037108E-02    0.1436587480E-03    0.6884505362E+00    0.2367813237E-02    0.6219105730E-02
    0.4300000000E+03    0.5056062341E-02    0.1502656118E-03    0.6887987568E+00    0.2478416517E-02    0.6513119381E-02
    0.4500000000E+03    0.5277021809E-02    0.1568411382E-03    0.6891163482E+00    0.2588594430E-02    0.6806298503E-02
    0.4700000000E+03    0.5496919754E-02    0.1633854539E-03    0.6894071822E+00    0.2698349148E-02    0.7098647670E-02
    0.4900000000E+03    0.5715760740E-02    0.1698986944E-03    0.6896745045E+00    0.2807682878E-02    0.7390171422E-02
    0.1000000000E+03    0.1257281435E-02    0.3726893972E-04    0.6660266793E+00    0.5982023317E-03    0.1551641820E-02
    0.3000000000E+03    0.3593705940E-02    0.1067565583E-03    0.6857182220E+00    0.1751801390E-02    0.4586905639E-02
    0.5000000000E+03    0.5824786369E-02    0.1731437057E-03    0.6898002223E+00    0.2862192569E-02    0.7535625176E-02
    0.7000000000E+03    0.7951077357E-02    0.2364499635E-03    0.6915654825E+00    0.3930837338E-02    0.1040244987E-01
    0.9000000000E+03    0.9977908472E-02    0.2968324143E-03    0.6925505107E+00    0.4959969443E-02    0.1319169001E-01
    0.1100000000E+04    0.1191090172E-01    0.3544560061E-03    0.6931790421E+00    0.5951750129E-02    0.1590734758E-01
    0.1300000000E+04    0.1375545059E-01    0.4094787696E-03    0.6936149933E+00    0.6908204944E-02    0.1855314357E-01
    0.1500000000E+04    0.1551662085E-01    0.4620490582E-03    0.6939351375E+00    0.7831221300E-02    0.2113254256E-01
    0.1700000000E+04    0.1719913999E-01    0.5123052947E-03    0.6941802230E+00    0.8722556288E-02    0.2364877457E-01
    0.1900000000E+04    0.1880741111E-01    0.5603763992E-03    0.6943738857E+00    0.9583846344E-02    0.2610485487E-01
    0.2100000000E+04    0.2034553376E-01    0.6063824100E-03    0.6945307792E+00    0.1041661685E-01    0.2850360168E-01
    0.2300000000E+04    0.2181732627E-01    0.6504351414E-03    0.6946604716E+00    0.1122229113E-01    0.3084765224E-01
    0.2500000000E+04    0.2322634746E-01    0.6926388211E-03    0.6947694757E+00    0.1200219867E-01    0.3313947723E-01
    0.2700000000E+04    0.2457591708E-01    0.7330906881E-03    0.6948623787E+00    0.1275758268E-01    0.3538139392E-01
    0.2900000000E+04    0.2586913467E-01    0.7718815454E-03    0.6949425044E+00    0.1348960692E-01    0.3757557803E-01
    0.3100000000E+04    0.2710889688E-01    0.8090962658E-03    0.6950123208E+00    0.1419936193E-01    0.3972407448E-01
    0.3300000000E+04    0.2829791334E-01    0.8448142551E-03    0.6950736985E+00    0.1488787068E-01    0.4182880725E-01
    0.3500000000E+04    0.2943872110E-01    0.8791098747E-03    0.6951280811E+00    0.1555609370E-01    0.4389158830E-01
    0.3700000000E+04    0.3053369782E-01    0.9120528267E-03    0.6951766007E+00    0.1620493382E-01    0.4591412570E-01
    0.3900000000E+04    0.3158507381E-01    0.9437085055E-03    0.6952201578E+00    0.1683524036E-01    0.4789803109E-01
    0.4100000000E+04    0.3259494306E-01    0.9741383193E-03    0.6952594771E+00    0.1744781310E-01    0.4984482650E-01
    0.4300000000E+04    0.3356527323E-01    0.1003399983E-02    0.6952951488E+00    0.1804340583E-01    0.5175595055E-01
    0.4500000000E+04    0.3449791489E-01    0.1031547786E-02    0.6953276584E+00    0.1862272959E-01    0.5363276422E-01
    0.4700000000E+04    0.3539460989E-01    0.1058632839E-02    0.6953574089E+00    0.1918645568E-01    0.5547655606E-01
    0.4900000000E+04    0.3625699910E-01    0.1084703299E-02    0.6953847375E+00    0.1973521839E-01    0.5728854705E-01
    0.1000000000E+04    0.1095579050E-01    0.3259789758E-03    0.6928960349E+00    0.5460398819E-02    0.1455847777E-01
    0.3000000000E+04    0.2649552414E-01    0.7906808368E-03    0.6949785727E+00    0.1384720262E-01    0.3865541423E-01
    0.5000000000E+04    0.3667581593E-01    0.1097372349E-02    0.6953975842E+00    0.2000417721E-01    0.5818298140E-01
    0.7000000000E+04    0.4358329602E-01    0.1307242814E-02    0.6955776149E+00    0.2472745787E-01    0.7465397065E-01
    0.9000000000E+04    0.4837213116E-01    0.1454203886E-02    0.6956778105E+00    0.2847113013E-01    0.8895616854E-01
    0.1100000000E+05    0.5172710502E-01    0.1558419061E-02    0.6957416635E+00    0.3151338210E-01    0.1016479887E+00
    0.1300000000E+05    0.5407742607E-01    0.1632555343E-02    0.6957859247E+00    0.3403441188E-01    0.1131001338E+00
    0.1500000000E+05    0.5570416232E-01    0.1684927861E-02    0.6958184192E+00    0.3615627967E-01    0.1235695564E+00
    0.1700000000E+05    0.5679806813E-01    0.1721194350E-02    0.6958432932E+00    0.3796475314E-01    0.1332407814E+00
    0.1900000000E+05    0.5749250099E-01    0.1745320847E-02    0.6958629492E+00    0.3952197390E-01    0.1422502965E+00
    0.2100000000E+05    0.5788304824E-01    0.1760158194E-02    0.6958788752E+00    0.4087415197E-01    0.1507016214E+00
    0.2300000000E+05    0.5803969601E-01    0.1767799945E-02    0.6958920425E+00    0.4205642699E-01    0.1586749802E+00
    0.2500000000E+05    0.5801463031E-01    0.1769812113E-02    0.6959031118E+00    0.4309604435E-01    0.1662337192E+00
    0.2700000000E+05    0.5784738431E-01    0.1767384966E-02    0.6959125484E+00    0.4401449157E-01    0.1734286857E+00
    0.2900000000E+05    0.5756832143E-01    0.1761435899E-02    0.6959206893E+00    0.4482897216E-01    0.1803012918E+00
    0.3100000000E+05    0.5720104492E-01    0.1752680700E-02    0.6959277847E+00    0.4555344562E-01    0.1868857051E+00
    0.3300000000E+05    0.5676409804E-01    0.1741683914E-02    0.6959340242E+00    0.4619937592E-01    0.1932104456E+00
    0.3500000000E+05    0.5627218487E-01    0.1728895065E-02    0.6959395543E+00    0.4677627991E-01    0.1992995703E+00
    0.3700000000E+05    0.5573706094E-01    0.1714675121E-02    0.6959444897E+00    0.4729213569E-01    0.2051735658E+00
    0.3900000000E+05    0.5516819217E-01    0.1699316112E-02    0.6959489216E+00    0.4775369108E-01    0.2108500303E+00
    0.4100000000E+05    0.5457324888E-01    0.1683055856E-02    0.6959529235E+00    0.4816669973E-01    0.2163442012E+00
    0.4300000000E+05    0.5395848037E-01    0.1666089157E-02    0.6959565552E+00    0.4853610410E-01    0.2216693686E+00
    0.4500000000E+05    0.5332900217E-01    0.1648576394E-02    0.6959598660E+00    0.4886617881E-01    0.2268372023E+00
    0.4700000000E+05    0.5268901840E-01    0.1630650193E-02    0.6959628967E+00    0.4916064406E-01    0.2318580133E+00
    0.4900000000E+05    0.5204199548E-01    0.1612420646E-02    0.6959656815E+00    0.4942275630E-01    0.2367409648E+00
    0.1000000000E+05    0.5019762488E-01    0.1510733839E-02    0.6957129192E+00    0.3006696104E-01    0.9547688916E-01
    0.3000000000E+05    0.5739444855E-01    0.1757370718E-02    0.6959243546E+00    0.4520169203E-01    0.1836276232E+00
    0.5000000000E+05    0.5171676020E-01    0.1603221391E-02    0.6959669909E+00    0.4954258916E-01    0.2391333356E+00
    0.7000000000E+05    0.4532059251E-01    0.1418851167E-02    0.6959853650E+00    0.5078486876E-01    0.2813457767E+00
    0.9000000000E+05    0.3962412774E-01    0.1250820062E-02    0.6959956191E+00    0.5068374235E-01    0.3155611233E+00
    0.1100000000E+06    0.3477163149E-01    0.1105541774E-02    0.6960021701E+00    0.4990824360E-01    0.3441828947E+00
    0.1300000000E+06    0.3067631736E-01    0.9815466190E-03    0.6960067214E+00    0.4877799689E-01    0.3685928977E+00
    0.1500000000E+06    0.2721687081E-01    0.8758398895E-03    0.6960100697E+00    0.4746488887E-01    0.3896957858E+00
    0.1700000000E+06    0.2428158106E-01    0.7854483948E-03    0.6960126378E+00    0.4606765938E-01    0.4081313454E+00
    0.1900000000E+06    0.2177688297E-01    0.7077910632E-03    0.6960146709E+00    0.4464509637E-01    0.4243747125E+00
    0.2100000000E+06    0.1962675020E-01    0.6407229465E-03    0.6960163210E+00    0.4323272947E-01    0.4387905680E+00
    0.2300000000E+06    0.1776996973E-01    0.5824888688E-03    0.6960176875E+00    0.4185196040E-01    0.4516654942E+00
    0.2500000000E+06    0.1615728678E-01    0.5316586567E-03    0.6960188380E+00    0.4051536232E-01    0.4632287477E+00
    0.2700000000E+06    0.1474894405E-01    0.4870659748E-03    0.6960198202E+00    0.3922989061E-01    0.4736663319E+00
    0.2900000000E+06    0.1351269356E-01    0.4477565214E-03    0.6960206688E+00    0.3799889056E-01    0.4831309200E+00
    0.3100000000E+06    0.1242223025E-01    0.4129459750E-03    0.6960214094E+00    0.3682338287E-01    0.4917490691E+00
    0.3300000000E+06    0.1145596931E-01    0.3819864619E-03    0.6960220615E+00    0.3570290097E-01    0.4996265917E+00
    0.3500000000E+06    0.1059609342E-01    0.3543399998E-03    0.6960226402E+00    0.3463604334E-01    0.5068526313E+00
    0.3700000000E+06    0.9827808957E-02    0.3295574948E-03    0.6960231572E+00    0.3362084080E-01    0.5135028043E+00
    0.3900000000E+06    0.9138763166E-02    0.3072621023E-03    0.6960236221E+00    0.3265500167E-01    0.5196416532E+00
    0.4100000000E+06    0.8518585089E-02    0.2871360013E-03    0.6960240423E+00    0.3173607551E-01    0.5253245834E+00
    0.4300000000E+06    0.7958522126E-02    0.2689098396E-03    0.6960244241E+00    0.3086156173E-01    0.5305994090E+00
    0.4500000000E+06    0.7451150642E-02    0.2523542686E-03    0.6960247724E+00    0.3002898086E-01    0.5355075949E+00
    0.4700000000E+06    0.6990144243E-02    0.2372731229E-03    0.6960250917E+00    0.2923592033E-01    0.5400852654E+00
    0.4900000000E+06    0.6570087184E-02    0.2234978964E-03    0.6960253853E+00    0.2848006269E-01    0.5443640264E+00
    0.1000000000E+06    0.3709598417E-01    0.1175358739E-02    0.6959992192E+00    0.5035548140E-01    0.3304698502E+00
    0.3000000000E+06    0.1295068587E-01    0.4298322334E-03    0.6960210513E+00    0.3740420204E-01    0.4875387530E+00
    0.5000000000E+06    0.6373933460E-02    0.2170537838E-03    0.6960255234E+00    0.2811539096E-01    0.5464001265E+00
    0.7000000000E+06    0.3757762792E-02    0.1302783696E-03    0.6960274699E+00    0.2230552840E-01    0.5766582341E+00
    0.9000000000E+06    0.2468819955E-02    0.8677942472E-04    0.6960285643E+00    0.1842313959E-01    0.5949433914E+00
    0.1100000000E+07    0.1742737958E-02    0.6194711301E-04    0.6960292676E+00    0.1566690998E-01    0.6071450631E+00
    0.1300000000E+07    0.1294537354E-02    0.4645116564E-04    0.6960297585E+00    0.1361589463E-01    0.6158501550E+00
    0.1500000000E+07    0.9988779715E-03    0.3613499413E-04    0.6960301210E+00    0.1203296510E-01    0.6223663265E+00
    0.1700000000E+07    0.7937718845E-03    0.2892138344E-04    0.6960303998E+00    0.1077562074E-01    0.6274235785E+00
    0.1900000000E+07    0.6457530870E-03    0.2367896690E-04    0.6960306212E+00    0.9753470985E-02    0.6314607240E+00
    0.2100000000E+07    0.5354808251E-03    0.1974889052E-04    0.6960308012E+00    0.8906562195E-02    0.6347570904E+00
    0.2300000000E+07    0.4511522011E-03    0.1672636022E-04    0.6960309504E+00    0.8193625653E-02    0.6374987957E+00
    0.2500000000E+07    0.3852362401E-03    0.1435152628E-04    0.6960310763E+00    0.7585354793E-02    0.6398145630E+00
    0.2700000000E+07    0.3327459082E-03    0.1245137004E-04    0.6960311837E+00    0.7060379119E-02    0.6417962242E+00
    0.2900000000E+07    0.2902732953E-03    0.1090706444E-04    0.6960312766E+00    0.6602756442E-02    0.6435110317E+00
    0.3100000000E+07    0.2554259384E-03    0.9634802898E-05    0.6960313577E+00    0.6200356907E-02    0.6450093550E+00
    0.3300000000E+07    0.2264845078E-03    0.8574099764E-05    0.6960314291E+00    0.5843790466E-02    0.6463296581E+00
    0.3500000000E+07    0.2021878548E-03    0.7680410547E-05    0.6960314924E+00    0.5525676376E-02    0.6475018166E+00
    0.3700000000E+07    0.1815940338E-03    0.6920340480E-05    0.6960315490E+00    0.5240134132E-02    0.6485493853E+00
    0.3900000000E+07    0.1639881045E-03    0.6268453437E-05    0.6960315997E+00    0.4982421441E-02    0.6494911837E+00
    0.4100000000E+07    0.1488195542E-03    0.5705098124E-05    0.6960316456E+00    0.4748672027E-02    0.6503424278E+00
    0.4300000000E+07    0.1356589497E-03    0.5214897018E-05    0.6960316872E+00    0.4535702620E-02    0.6511155525E+00
    0.4500000000E+07    0.1241673507E-03    0.4785676741E-05    0.6960317251E+00    0.4340868747E-02    0.6518208184E+00
    0.4700000000E+07    0.1140743697E-03    0.4407698376E-05    0.6960317597E+00    0.4161955535E-02    0.6524667668E+00
    0.4900000000E+07    0.1051621919E-03    0.4073095260E-05    0.6960317916E+00    0.3997094001E-02    0.6530605651E+00
    0.1000000000E+07    0.2058896299E-02    0.7279577754E-04    0.6960289504E+00    0.1693643109E-01    0.6015996912E+00
    0.3000000000E+07    0.2720167103E-03    0.1024115280E-04    0.6960313185E+00    0.6395295000E-02    0.6442846160E+00
    0.5000000000E+07    0.1010922438E-03    0.3920008316E-05    0.6960318065E+00    0.3919426862E-02    0.6533398386E+00
    0.7000000000E+07    0.5224326344E-04    0.2065023711E-05    0.6960320145E+00    0.2820104370E-02    0.6572613882E+00
    0.9000000000E+07    0.3182849208E-04    0.1275824136E-05    0.6960321273E+00    0.2200124143E-02    0.6594481916E+00
    0.1100000000E+08    0.2140890031E-04    0.8675330269E-06    0.6960321962E+00    0.1802453224E-02    0.6608420333E+00
    0.1300000000E+08    0.1538583117E-04    0.6289360168E-06    0.6960322414E+00    0.1525857684E-02    0.6618076785E+00
    0.1500000000E+08    0.1159421804E-04    0.4773640718E-06    0.6960322723E+00    0.1322429916E-02    0.6625159991E+00
    0.1700000000E+08    0.9054170162E-05    0.3750306682E-06    0.6960322941E+00    0.1166574576E-02    0.6630576635E+00
    0.1900000000E+08    0.7269938976E-05    0.3026578530E-06    0.6960323096E+00    0.1043378957E-02    0.6634852405E+00
    0.2100000000E+08    0.5968909839E-05    0.2495670319E-06    0.6960323206E+00    0.9435687393E-03    0.6638313036E+00
    0.2300000000E+08    0.4991121481E-05    0.2094518174E-06    0.6960323284E+00    0.8610745339E-03    0.6641171097E+00
    0.2500000000E+08    0.4237703220E-05    0.1783916788E-06    0.6960323337E+00    0.7917582229E-03    0.6643571196E+00
    0.2700000000E+08    0.3644880491E-05    0.1538444709E-06    0.6960323372E+00    0.7327017821E-03    0.6645615120E+00
