  Pressure (Pa) 22mC5-500 (mol/kg) 23mC5-500 (mol/kg) 24mC5-500 (mol/kg) 2mC6-500 (mol/kg) 3mC6-500 (mol/kg)
    0.1000000000E+01    0.3424300859E-04    0.1987924648E-05    0.9949893723E-01    0.2255083786E-04    0.5210694396E-05
    0.3000000000E+01    0.8487885681E-04    0.4932698750E-05    0.2321091208E+00    0.5761888757E-04    0.1562971757E-04
    0.5000000000E+01    0.1233643531E-03    0.7177957145E-05    0.3164672520E+00    0.8632236003E-04    0.2604561133E-04
    0.7000000000E+01    0.1558609847E-03    0.9080033119E-05    0.3748569763E+00    0.1121986581E-03    0.3645839088E-04
    0.9000000000E+01    0.1850786997E-03    0.1079517303E-04    0.4176707755E+00    0.1367023605E-03    0.4686806456E-04
    0.1100000000E+02    0.2123672018E-03    0.1240094098E-04    0.4504082526E+00    0.1605052647E-03    0.5727463779E-04
    0.1300000000E+02    0.2384602597E-03    0.1393935666E-04    0.4762524556E+00    0.1839431570E-03    0.6767811455E-04
    0.1500000000E+02    0.2637835836E-03    0.1543470696E-04    0.4971734234E+00    0.2071933585E-03    0.7807849803E-04
    0.1700000000E+02    0.2885968191E-03    0.1690174495E-04    0.5144557599E+00    0.2303530652E-03    0.8847579098E-04
    0.1900000000E+02    0.3130646919E-03    0.1834978957E-04    0.5289728904E+00    0.2534767603E-03    0.9886999585E-04
    0.2100000000E+02    0.3372950619E-03    0.1978491387E-04    0.5413393908E+00    0.2765952173E-03    0.1092611149E-03
    0.2300000000E+02    0.3613603841E-03    0.2121117628E-04    0.5520002667E+00    0.2997256397E-03    0.1196491503E-03
    0.2500000000E+02    0.3853103524E-03    0.2263134434E-04    0.5612856649E+00    0.3228772897E-03    0.1300341042E-03
    0.2700000000E+02    0.4091796283E-03    0.2404733603E-04    0.5694456860E+00    0.3460547157E-03    0.1404159784E-03
    0.2900000000E+02    0.4329927152E-03    0.2546049740E-04    0.5766732580E+00    0.3692596503E-03    0.1507947750E-03
    0.3100000000E+02    0.4567671155E-03    0.2687178189E-04    0.5831195909E+00    0.3924921509E-03    0.1611704959E-03
    0.3300000000E+02    0.4805154257E-03    0.2828186901E-04    0.5889048748E+00    0.4157512955E-03    0.1715431429E-03
    0.3500000000E+02    0.5042467532E-03    0.2969124440E-04    0.5941258465E+00    0.4390356108E-03    0.1819127180E-03
    0.3700000000E+02    0.5279676939E-03    0.3110025480E-04    0.5988612447E+00    0.4623433388E-03    0.1922792229E-03
    0.3900000000E+02    0.5516830161E-03    0.3250914650E-04    0.6031758094E+00    0.4856726014E-03    0.2026426596E-03
    0.4100000000E+02    0.5753961461E-03    0.3391809247E-04    0.6071232609E+00    0.5090215012E-03    0.2130030298E-03
    0.4300000000E+02    0.5991095177E-03    0.3532721185E-04    0.6107485486E+00    0.5323881830E-03    0.2233603353E-03
    0.4500000000E+02    0.6228248266E-03    0.3673658402E-04    0.6140895711E+00    0.5557708691E-03    0.2337145780E-03
    0.4700000000E+02    0.6465432162E-03    0.3814625893E-04    0.6171785066E+00    0.5791678783E-03    0.2440657597E-03
    0.4900000000E+02    0.6702654164E-03    0.3955626470E-04    0.6200428527E+00    0.6025776346E-03    0.2544138821E-03
    0.1000000000E+02    0.1989085896E-03    0.1160854610E-04    0.4350627951E+00    0.1486653420E-03    0.5207173846E-04
    0.3000000000E+02    0.4448838681E-03    0.2616632645E-04    0.5799859415E+00    0.3808724956E-03    0.1559830198E-03
    0.5000000000E+02    0.6821280865E-03    0.4026139590E-04    0.6213983237E+00    0.6142868298E-03    0.2595867966E-03
    0.7000000000E+02    0.9195900916E-03    0.5437958592E-04    0.6410188722E+00    0.8488379863E-03    0.3628849116E-03
    0.9000000000E+02    0.1157220002E-02    0.6851074842E-04    0.6524663745E+00    0.1083546979E-02    0.4658791307E-03
    0.1100000000E+03    0.1394658730E-02    0.8263168952E-04    0.6599677263E+00    0.1317956138E-02    0.5685711945E-03
    0.1300000000E+03    0.1631644459E-02    0.9672627488E-04    0.6652635964E+00    0.1551837865E-02    0.6709628258E-03
    0.1500000000E+03    0.1868003377E-02    0.1107839935E-03    0.6692020896E+00    0.1785069152E-02    0.7730557323E-03
    0.1700000000E+03    0.2103619601E-02    0.1247979142E-03    0.6722458530E+00    0.2017579114E-02    0.8748516072E-03
    0.1900000000E+03    0.2338414344E-02    0.1387633607E-03    0.6746687222E+00    0.2249325025E-02    0.9763521302E-03
    0.2100000000E+03    0.2572333003E-02    0.1526771115E-03    0.6766431270E+00    0.2480280412E-02    0.1077558967E-02
    0.2300000000E+03    0.2805337172E-02    0.1665369120E-03    0.6782830550E+00    0.2710428699E-02    0.1178473771E-02
    0.2500000000E+03    0.3037399591E-02    0.1803411693E-03    0.6796668786E+00    0.2939759613E-02    0.1279098181E-02
    0.2700000000E+03    0.3268500869E-02    0.1940887556E-03    0.6808502573E+00    0.3168267034E-02    0.1379433825E-02
    0.2900000000E+03    0.3498627290E-02    0.2077788772E-03    0.6818738102E+00    0.3395947675E-02    0.1479482316E-02
    0.3100000000E+03    0.3727769322E-02    0.2214109857E-03    0.6827678751E+00    0.3622800223E-02    0.1579245256E-02
    0.3300000000E+03    0.3955920565E-02    0.2349847161E-03    0.6835555677E+00    0.3848824778E-02    0.1678724234E-02
    0.3500000000E+03    0.4183077003E-02    0.2484998423E-03    0.6842548103E+00    0.4074022462E-02    0.1777920827E-02
    0.3700000000E+03    0.4409236459E-02    0.2619562454E-03    0.6848797127E+00    0.4298395156E-02    0.1876836600E-02
    0.3900000000E+03    0.4634398194E-02    0.2753538901E-03    0.6854415348E+00    0.4521945304E-02    0.1975473104E-02
    0.4100000000E+03    0.4858562600E-02    0.2886928064E-03    0.6859493718E+00    0.4744675781E-02    0.2073831881E-02
    0.4300000000E+03    0.5081730970E-02    0.3019730766E-03    0.6864106500E+00    0.4966589784E-02    0.2171914459E-02
    0.4500000000E+03    0.5303905322E-02    0.3151948249E-03    0.6868314935E+00    0.5187690764E-02    0.2269722355E-02
    0.4700000000E+03    0.5525088257E-02    0.3283582089E-03    0.6872169973E+00    0.5407982360E-02    0.2367257074E-02
    0.4900000000E+03    0.5745282850E-02    0.3414634136E-03    0.6875714348E+00    0.5627468361E-02    0.2464520111E-02
    0.1000000000E+03    0.1275982083E-02    0.7557366542E-04    0.6565707412E+00    0.1200806654E-02    0.5172628240E-03
    0.3000000000E+03    0.3613321818E-02    0.2146022096E-03    0.6823354423E+00    0.3509477482E-02    0.1529399380E-02
    0.5000000000E+03    0.5855010589E-02    0.3479942629E-03    0.6877381544E+00    0.5736910480E-02    0.2513050212E-02
    0.7000000000E+03    0.7998669238E-02    0.4756158116E-03    0.6900813699E+00    0.7884450059E-02    0.3469745477E-02
    0.9000000000E+03    0.1004865921E-01    0.5977251881E-03    0.6913907428E+00    0.9956158334E-02    0.4400902988E-02
    0.1100000000E+04    0.1201001701E-01    0.7146186795E-03    0.6922269436E+00    0.1195610670E-01    0.5307838549E-02
    0.1300000000E+04    0.1388768657E-01    0.8265865533E-03    0.6928072699E+00    0.1388814386E-01    0.6191775119E-02
    0.1500000000E+04    0.1568635327E-01    0.9339036823E-03    0.6932336177E+00    0.1575586701E-01    0.7053850981E-02
    0.1700000000E+04    0.1741040872E-01    0.1036827616E-02    0.6935601137E+00    0.1756262936E-01    0.7895127070E-02
    0.1900000000E+04    0.1906395305E-01    0.1135598780E-02    0.6938181734E+00    0.1931155592E-01    0.8716593533E-02
    0.2100000000E+04    0.2065080951E-01    0.1230441362E-02    0.6940272826E+00    0.2100556071E-01    0.9519175637E-02
    0.2300000000E+04    0.2217454277E-01    0.1321564395E-02    0.6942001698E+00    0.2264736342E-01    0.1030373909E-01
    0.2500000000E+04    0.2363847783E-01    0.1409162874E-02    0.6943455014E+00    0.2423950496E-01    0.1107109481E-01
    0.2700000000E+04    0.2504571827E-01    0.1493418827E-02    0.6944693830E+00    0.2578436170E-01    0.1182200334E-01
    0.2900000000E+04    0.2639916340E-01    0.1574502326E-02    0.6945762400E+00    0.2728415849E-01    0.1255717867E-01
    0.3100000000E+04    0.2770152410E-01    0.1652572408E-02    0.6946693585E+00    0.2874098055E-01    0.1327729189E-01
    0.3300000000E+04    0.2895533744E-01    0.1727777937E-02    0.6947512300E+00    0.3015678421E-01    0.1398297440E-01
    0.3500000000E+04    0.3016297998E-01    0.1800258379E-02    0.6948237774E+00    0.3153340678E-01    0.1467482083E-01
    0.3700000000E+04    0.3132668004E-01    0.1870144521E-02    0.6948885091E+00    0.3287257544E-01    0.1535339177E-01
    0.3900000000E+04    0.3244852881E-01    0.1937559123E-02    0.6949466245E+00    0.3417591545E-01    0.1601921619E-01
    0.4100000000E+04    0.3353049059E-01    0.2002617513E-02    0.6949990895E+00    0.3544495756E-01    0.1667279370E-01
    0.4300000000E+04    0.3457441208E-01    0.2065428133E-02    0.6950466907E+00    0.3668114481E-01    0.1731459658E-01
    0.4500000000E+04    0.3558203093E-01    0.2126093040E-02    0.6950900752E+00    0.3788583880E-01    0.1794507170E-01
    0.4700000000E+04    0.3655498357E-01    0.2184708360E-02    0.6951297799E+00    0.3906032532E-01    0.1856464220E-01
    0.4900000000E+04    0.3749481233E-01    0.2241364709E-02    0.6951662544E+00    0.4020581965E-01    0.1917370908E-01
    0.1000000000E+04    0.1104010298E-01    0.6568054668E-03    0.6918503599E+00    0.1096485610E-01    0.4857320002E-02
    0.3000000000E+04    0.2705656682E-01    0.1613904511E-02    0.6946243453E+00    0.2801781619E-01    0.1291907769E-01
    0.5000000000E+04    0.3795276314E-01    0.2268985175E-02    0.6951834012E+00    0.4076805642E-01    0.1947442331E-01
    0.7000000000E+04    0.4568558047E-01    0.2736936900E-02    0.6954237456E+00    0.5073939773E-01    0.2502004055E-01
    0.9000000000E+04    0.5134348712E-01    0.3081774793E-02    0.6955575600E+00    0.5880341605E-01    0.2984791670E-01
    0.1100000000E+05    0.5557652126E-01    0.3341800791E-02    0.6956428633E+00    0.6549594068E-01    0.3414224137E-01
    0.1300000000E+05    0.5879512160E-01    0.3541246264E-02    0.6957020079E+00    0.7116535536E-01    0.3802570766E-01
    0.1500000000E+05    0.6127021100E-01    0.3696138162E-02    0.6957454385E+00    0.7604851137E-01    0.4158366800E-01
    0.1700000000E+05    0.6318721565E-01    0.3817468533E-02    0.6957786905E+00    0.8031241146E-01    0.4487763723E-01
    0.1900000000E+05    0.6467692201E-01    0.3913006972E-02    0.6958049717E+00    0.8407843536E-01    0.4795327360E-01
    0.2100000000E+05    0.6583394890E-01    0.3988386835E-02    0.6958262692E+00    0.8743709527E-01    0.5084531847E-01
    0.2300000000E+05    0.6672825020E-01    0.4047782411E-02    0.6958438803E+00    0.9045738487E-01    0.5358077432E-01
    0.2500000000E+05    0.6741252263E-01    0.4094345524E-02    0.6958586876E+00    0.9319290554E-01    0.5618101798E-01
    0.2700000000E+05    0.6792711687E-01    0.4130495334E-02    0.6958713126E+00    0.9568599926E-01    0.5866324656E-01
    0.2900000000E+05    0.6830337690E-01    0.4158115634E-02    0.6958822056E+00    0.9797060823E-01    0.6104149166E-01
    0.3100000000E+05    0.6856596184E-01    0.4178692192E-02    0.6958917008E+00    0.1000742983E+00    0.6332734653E-01
    0.3300000000E+05    0.6873449242E-01    0.4193410274E-02    0.6959000519E+00    0.1020197195E+00    0.6553049760E-01
    0.3500000000E+05    0.6882473941E-01    0.4203225119E-02    0.6959074542E+00    0.1038256787E+00    0.6765911989E-01
    0.3700000000E+05    0.6884949501E-01    0.4208913689E-02    0.6959140612E+00    0.1055079402E+00    0.6972017570E-01
    0.3900000000E+05    0.6881922114E-01    0.4211113217E-02    0.6959199949E+00    0.1070798327E+00    0.7171964352E-01
    0.4100000000E+05    0.6874253789E-01    0.4210350286E-02    0.6959253535E+00    0.1085527141E+00    0.7366269561E-01
    0.4300000000E+05    0.6862659609E-01    0.4207063046E-02    0.6959302170E+00    0.1099363327E+00    0.7555383750E-01
    0.4500000000E+05    0.6847736437E-01    0.4201618358E-02    0.6959346512E+00    0.1112391110E+00    0.7739701866E-01
    0.4700000000E+05    0.6829985282E-01    0.4194325159E-02    0.6959387106E+00    0.1124683701E+00    0.7919572118E-01
    0.4900000000E+05    0.6809828862E-01    0.4185444984E-02    0.6959424411E+00    0.1136305099E+00    0.8095303154E-01
    0.1000000000E+05    0.5360832505E-01    0.3220631749E-02    0.6956044601E+00    0.6229606438E-01    0.3205301660E-01
    0.3000000000E+05    0.6844755013E-01    0.4169204192E-02    0.6958871105E+00    0.9904355144E-01    0.6219532297E-01
    0.5000000000E+05    0.6798962855E-01    0.4180480638E-02    0.6959441952E+00    0.1141881945E+00    0.8181703562E-01
    0.7000000000E+05    0.6518591774E-01    0.4037404485E-02    0.6959688213E+00    0.1228826526E+00    0.9745798943E-01
    0.9000000000E+05    0.6199030731E-01    0.3862595632E-02    0.6959825762E+00    0.1285530405E+00    0.1108644165E+00
    0.1100000000E+06    0.5887084694E-01    0.3687103308E-02    0.6959913704E+00    0.1324896965E+00    0.1227812930E+00
    0.1300000000E+06    0.5595192241E-01    0.3520105242E-02    0.6959974844E+00    0.1353125985E+00    0.1336057123E+00
    0.1500000000E+06    0.5325757526E-01    0.3364099809E-02    0.6960019853E+00    0.1373661808E+00    0.1435792254E+00
    0.1700000000E+06    0.5077972122E-01    0.3219287590E-02    0.6960054394E+00    0.1388611880E+00    0.1528622039E+00
    0.1900000000E+06    0.4850045685E-01    0.3085058945E-02    0.6960081756E+00    0.1399357286E+00    0.1615679449E+00
    0.2100000000E+06    0.4639995944E-01    0.2960550254E-02    0.6960103975E+00    0.1406850635E+00    0.1697802795E+00
    0.2300000000E+06    0.4445931658E-01    0.2844861646E-02    0.6960122386E+00    0.1411775470E+00    0.1775634927E+00
    0.2500000000E+06    0.4266144228E-01    0.2737141267E-02    0.6960137895E+00    0.1414637888E+00    0.1849682991E+00
    0.2700000000E+06    0.4099125003E-01    0.2636614292E-02    0.6960151142E+00    0.1415822247E+00    0.1920356403E+00
    0.2900000000E+06    0.3943554385E-01    0.2542588637E-02    0.6960162593E+00    0.1415626639E+00    0.1987992042E+00
    0.3100000000E+06    0.3798281566E-01    0.2454451089E-02    0.6960172591E+00    0.1414286343E+00    0.2052871573E+00
    0.3300000000E+06    0.3662302598E-01    0.2371659899E-02    0.6960181399E+00    0.1411989852E+00    0.2115233728E+00
    0.3500000000E+06    0.3534739834E-01    0.2293736518E-02    0.6960189218E+00    0.1408890115E+00    0.2175283235E+00
    0.3700000000E+06    0.3414823735E-01    0.2220257635E-02    0.6960196208E+00    0.1405112615E+00    0.2233197459E+00
    0.3900000000E+06    0.3301877230E-01    0.2150847948E-02    0.6960202496E+00    0.1400761299E+00    0.2289131435E+00
    0.4100000000E+06    0.3195302437E-01    0.2085173821E-02    0.6960208182E+00    0.1395922996E+00    0.2343221755E+00
    0.4300000000E+06    0.3094569470E-01    0.2022937779E-02    0.6960213350E+00    0.1390670787E+00    0.2395589607E+00
    0.4500000000E+06    0.2999207001E-01    0.1963873786E-02    0.6960218068E+00    0.1385066578E+00    0.2446343186E+00
    0.4700000000E+06    0.2908794324E-01    0.1907743201E-02    0.6960222393E+00    0.1379163123E+00    0.2495579634E+00
    0.4900000000E+06    0.2822954647E-01    0.1854331322E-02    0.6960226373E+00    0.1373005610E+00    0.2543386615E+00
    0.1000000000E+06    0.6040952777E-01    0.3774115606E-02    0.6959874082E+00    0.1306902390E+00    0.1169792398E+00
    0.3000000000E+06    0.3869696688E-01    0.2497819288E-02    0.6960167755E+00    0.1415086849E+00    0.2020760512E+00
    0.5000000000E+06    0.2781642530E-01    0.1828583611E-02    0.6960228246E+00    0.1369843950E+00    0.2566779181E+00
    0.7000000000E+06    0.2129020610E-01    0.1418053381E-02    0.6960254692E+00    0.1300319027E+00    0.2975549090E+00
    0.9000000000E+06    0.1695398838E-01    0.1141014424E-02    0.6960269622E+00    0.1228425040E+00    0.3300522141E+00
    0.1100000000E+07    0.1388314370E-01    0.9424507537E-03    0.6960279254E+00    0.1160079975E+00    0.3567972025E+00
    0.1300000000E+07    0.1161006602E-01    0.7940199244E-03    0.6960286003E+00    0.1096905656E+00    0.3793283416E+00
    0.1500000000E+07    0.9871278134E-02    0.6795266533E-03    0.6960291007E+00    0.1039107772E+00    0.3986394543E+00
    0.1700000000E+07    0.8506691008E-02    0.5890183532E-03    0.6960294872E+00    0.9863965136E-01    0.4154146945E+00
    0.1900000000E+07    0.7413435160E-02    0.5160383121E-03    0.6960297951E+00    0.9383234688E-01    0.4301466772E+00
    0.2100000000E+07    0.6522475824E-02    0.4562175390E-03    0.6960300465E+00    0.8944130519E-01    0.4432022419E+00
    0.2300000000E+07    0.5785842768E-02    0.4064979659E-03    0.6960302558E+00    0.8542137842E-01    0.4548618515E+00
    0.2500000000E+07    0.5169234034E-02    0.3646785877E-03    0.6960304329E+00    0.8173163643E-01    0.4653445393E+00
    0.2700000000E+07    0.4647524115E-02    0.3291376949E-03    0.6960305849E+00    0.7833576311E-01    0.4748244057E+00
    0.2900000000E+07    0.4201927163E-02    0.2986562368E-03    0.6960307167E+00    0.7520186417E-01    0.4834419144E+00
    0.3100000000E+07    0.3818145477E-02    0.2723018136E-03    0.6960308323E+00    0.7230205225E-01    0.4913118523E+00
    0.3300000000E+07    0.3485126608E-02    0.2493503561E-03    0.6960309345E+00    0.6961197325E-01    0.4985290772E+00
    0.3500000000E+07    0.3194208458E-02    0.2292319726E-03    0.6960310255E+00    0.6711034564E-01    0.5051727533E+00
    0.3700000000E+07    0.2938518586E-02    0.2114927132E-03    0.6960311071E+00    0.6477854147E-01    0.5113095289E+00
    0.3900000000E+07    0.2712544127E-02    0.1957670698E-03    0.6960311807E+00    0.6260021779E-01    0.5169959575E+00
    0.4100000000E+07    0.2511818638E-02    0.1817578689E-03    0.6960312475E+00    0.6056099814E-01    0.5222803693E+00
    0.4300000000E+07    0.2332690638E-02    0.1692213499E-03    0.6960313084E+00    0.5864819980E-01    0.5272043341E+00
    0.4500000000E+07    0.2172150181E-02    0.1579559438E-03    0.6960313641E+00    0.5685060144E-01    0.5318038185E+00
    0.4700000000E+07    0.2027697304E-02    0.1477937303E-03    0.6960314152E+00    0.5515824549E-01    0.5361101103E+00
    0.4900000000E+07    0.1897241094E-02    0.1385938627E-03    0.6960314624E+00    0.5356227003E-01    0.5401505634E+00
    0.1000000000E+07    0.1529621716E-01    0.1034084775E-02    0.6960274904E+00    0.1193656240E+00    0.3440307607E+00
    0.3000000000E+07    0.4003064732E-02    0.2850125546E-03    0.6960307764E+00    0.7372429671E-01    0.4874639897E+00
    0.5000000000E+07    0.1836700560E-02    0.1343169146E-03    0.6960314847E+00    0.5279791957E-01    0.5420787243E+00
    0.7000000000E+07    0.1051992679E-02    0.7835423025E-04    0.6960318015E+00    0.4104061399E-01    0.5712179164E+00
    0.9000000000E+07    0.6808310007E-03    0.5142266295E-04    0.6960319828E+00    0.3353361744E-01    0.5893654721E+00
    0.1100000000E+08    0.4762988574E-03    0.3638288856E-04    0.6960321006E+00    0.2833165098E-01    0.6017569679E+00
    0.1300000000E+08    0.3517318670E-03    0.2712327208E-04    0.6960321834E+00    0.2451703879E-01    0.6107556448E+00
    0.1500000000E+08    0.2702927638E-03    0.2101384075E-04    0.6960322447E+00    0.2160138905E-01    0.6175862995E+00
    0.1700000000E+08    0.2141527464E-03    0.1676877628E-04    0.6960322920E+00    0.1930115286E-01    0.6229474795E+00
    0.1900000000E+08    0.1738271188E-03    0.1369812901E-04    0.6960323294E+00    0.1744052896E-01    0.6272667827E+00
    0.2100000000E+08    0.1438922160E-03    0.1140439524E-04    0.6960323597E+00    0.1590477035E-01    0.6308206276E+00
    0.2300000000E+08    0.1210643453E-03    0.9645307486E-05    0.6960323848E+00    0.1461581939E-01    0.6337956389E+00
    0.2500000000E+08    0.1032611238E-03    0.8266310255E-05    0.6960324057E+00    0.1351874109E-01    0.6363223660E+00
    0.2700000000E+08    0.8911028618E-04    0.7165000100E-05    0.6960324235E+00    0.1257375827E-01    0.6384948687E+00
