  Pressure (Pa) 22mC5-500 (mol/kg) 23mC5-500 (mol/kg) 24mC5-500 (mol/kg) 2mC6-500 (mol/kg) 3mC6-500 (mol/kg)
    0.1000000000E+01    0.3714638979E-04    0.4311754405E-05    0.3666037062E-01    0.1211639882E-04    0.1563203637E-04
    0.3000000000E+01    0.1027108481E-03    0.1192542949E-04    0.9948887474E-01    0.3382008967E-04    0.4688868422E-04
    0.5000000000E+01    0.1593644851E-03    0.1850923609E-04    0.1513742658E+00    0.5299700340E-04    0.7813545250E-04
    0.7000000000E+01    0.2094281108E-03    0.2433242195E-04    0.1949470540E+00    0.7035703147E-04    0.1093723606E-03
    0.9000000000E+01    0.2545056242E-03    0.2958090837E-04    0.2320571480E+00    0.8638249158E-04    0.1405994241E-03
    0.1100000000E+02    0.2957373250E-03    0.3438676195E-04    0.2640434162E+00    0.1014100842E-03    0.1718166559E-03
    0.1300000000E+02    0.3339536099E-03    0.3884606991E-04    0.2918987600E+00    0.1156802962E-03    0.2030240674E-03
    0.1500000000E+02    0.3697717814E-03    0.4303019465E-04    0.3163750843E+00    0.1293682865E-03    0.2342216685E-03
    0.1700000000E+02    0.4036590056E-03    0.4699308973E-04    0.3380522349E+00    0.1426038058E-03    0.2654094683E-03
    0.1900000000E+02    0.4359744026E-03    0.5077618886E-04    0.3573845529E+00    0.1554843921E-03    0.2965874753E-03
    0.2100000000E+02    0.4669978760E-03    0.5441175280E-04    0.3747330889E+00    0.1680843201E-03    0.3277556974E-03
    0.2300000000E+02    0.4969502822E-03    0.5792520981E-04    0.3903883794E+00    0.1804607967E-03    0.3589141422E-03
    0.2500000000E+02    0.5260078121E-03    0.6133682364E-04    0.4045868606E+00    0.1926583291E-03    0.3900628170E-03
    0.2700000000E+02    0.5543124208E-03    0.6466290237E-04    0.4175229016E+00    0.2047118556E-03    0.4212017288E-03
    0.2900000000E+02    0.5819795060E-03    0.6791668811E-04    0.4293577619E+00    0.2166490228E-03    0.4523308844E-03
    0.3100000000E+02    0.6091036413E-03    0.7110902066E-04    0.4402263544E+00    0.2284918629E-03    0.4834502906E-03
    0.3300000000E+02    0.6357629091E-03    0.7424883902E-04    0.4502424149E+00    0.2402580460E-03    0.5145599538E-03
    0.3500000000E+02    0.6620222145E-03    0.7734356451E-04    0.4595025005E+00    0.2519618237E-03    0.5456598806E-03
    0.3700000000E+02    0.6879358446E-03    0.8039939668E-04    0.4680891155E+00    0.2636147478E-03    0.5767500773E-03
    0.3900000000E+02    0.7135494665E-03    0.8342154398E-04    0.4760731784E+00    0.2752262236E-03    0.6078305503E-03
    0.4100000000E+02    0.7389016988E-03    0.8641440521E-04    0.4835159864E+00    0.2868039378E-03    0.6389013057E-03
    0.4300000000E+02    0.7640253596E-03    0.8938171342E-04    0.4904707939E+00    0.2983541937E-03    0.6699623498E-03
    0.4500000000E+02    0.7889484639E-03    0.9232665095E-04    0.4969840897E+00    0.3098821744E-03    0.7010136886E-03
    0.4700000000E+02    0.8136950271E-03    0.9525194195E-04    0.5030966385E+00    0.3213921522E-03    0.7320553284E-03
    0.4900000000E+02    0.8382857170E-03    0.9815992744E-04    0.5088443356E+00    0.3328876544E-03    0.7630872752E-03
    0.1000000000E+02    0.2755443798E-03    0.3203247156E-04    0.2486220455E+00    0.9400416515E-04    0.1562092682E-03
    0.3000000000E+02    0.5956042188E-03    0.6951993778E-04    0.4349052886E+00    0.2225810394E-03    0.4678918058E-03
    0.5000000000E+02    0.8505282855E-03    0.9960807269E-04    0.5115914269E+00    0.3386309092E-03    0.7785996155E-03
    0.7000000000E+02    0.1090445274E-02    0.1280287986E-03    0.5534258511E+00    0.4532205633E-03    0.1088339003E-02
    0.9000000000E+02    0.1325448277E-02    0.1559180966E-03    0.5797719271E+00    0.5677750027E-03    0.1397115894E-02
    0.1100000000E+03    0.1558395573E-02    0.1835909163E-03    0.5978892655E+00    0.6824328098E-03    0.1704936083E-02
    0.1300000000E+03    0.1790225272E-02    0.2111472608E-03    0.6111132314E+00    0.7971181727E-03    0.2011805291E-02
    0.1500000000E+03    0.2021252741E-02    0.2386186426E-03    0.6211909940E+00    0.9117336672E-03    0.2317729176E-02
    0.1700000000E+03    0.2251567803E-02    0.2660123841E-03    0.6291263278E+00    0.1026196685E-02    0.2622713345E-02
    0.1900000000E+03    0.2481174791E-02    0.2933270033E-03    0.6355370026E+00    0.1140443125E-02    0.2926763357E-02
    0.2100000000E+03    0.2710046566E-02    0.3205580319E-03    0.6408240710E+00    0.1254424438E-02    0.3229884720E-02
    0.2300000000E+03    0.2938146457E-02    0.3477003100E-03    0.6452592450E+00    0.1368104006E-02    0.3532082898E-02
    0.2500000000E+03    0.3165437271E-02    0.3747488860E-03    0.6490331507E+00    0.1481454144E-02    0.3833363309E-02
    0.2700000000E+03    0.3391884854E-02    0.4016993398E-03    0.6522834782E+00    0.1594453824E-02    0.4133731327E-02
    0.2900000000E+03    0.3617459257E-02    0.4285478624E-03    0.6551121659E+00    0.1707087014E-02    0.4433192283E-02
    0.3100000000E+03    0.3842134886E-02    0.4552912366E-03    0.6575962973E+00    0.1819341463E-02    0.4731751461E-02
    0.3300000000E+03    0.4065890222E-02    0.4819267799E-03    0.6597952422E+00    0.1931207808E-02    0.5029414106E-02
    0.3500000000E+03    0.4288707385E-02    0.5084522768E-03    0.6617554691E+00    0.2042678919E-02    0.5326185420E-02
    0.3700000000E+03    0.4510571678E-02    0.5348659146E-03    0.6635138688E+00    0.2153749407E-02    0.5622070561E-02
    0.3900000000E+03    0.4731471148E-02    0.5611662242E-03    0.6651001019E+00    0.2264415254E-02    0.5917074648E-02
    0.4100000000E+03    0.4951396196E-02    0.5873520284E-03    0.6665382872E+00    0.2374673537E-02    0.6211202758E-02
    0.4300000000E+03    0.5170339245E-02    0.6134223992E-03    0.6678482385E+00    0.2484522202E-02    0.6504459928E-02
    0.4500000000E+03    0.5388294439E-02    0.6393766197E-03    0.6690463841E+00    0.2593959905E-02    0.6796851154E-02
    0.4700000000E+03    0.5605257404E-02    0.6652141536E-03    0.6701464605E+00    0.2702985875E-02    0.7088381394E-02
    0.4900000000E+03    0.5821225030E-02    0.6909346184E-03    0.6711600420E+00    0.2811599810E-02    0.7379055564E-02
    0.1000000000E+03    0.1442097715E-02    0.1697728201E-03    0.5895977312E+00    0.6250943046E-03    0.1551145217E-02
    0.3000000000E+03    0.3729910854E-02    0.4419328725E-03    0.6563932406E+00    0.1763262226E-02    0.4582584265E-02
    0.5000000000E+03    0.5928834921E-02    0.7037508669E-03    0.6716375255E+00    0.2865752278E-02    0.7524073150E-02
    0.7000000000E+03    0.8028733909E-02    0.9539226180E-03    0.6783976756E+00    0.3927337902E-02    0.1038065389E-01
    0.9000000000E+03    0.1003078421E-01    0.1192580208E-02    0.6822160599E+00    0.4949067984E-02    0.1315698457E-01
    0.1100000000E+04    0.1193911500E-01    0.1420208293E-02    0.6846704007E+00    0.5932819341E-02    0.1585737600E-01
    0.1300000000E+04    0.1375854782E-01    0.1637372916E-02    0.6863811737E+00    0.6880570716E-02    0.1848582387E-01
    0.1500000000E+04    0.1549394978E-01    0.1844645164E-02    0.6876420194E+00    0.7794240930E-02    0.2104603736E-01
    0.1700000000E+04    0.1715001637E-01    0.2042575761E-02    0.6886099186E+00    0.8675645741E-02    0.2354146466E-01
    0.1900000000E+04    0.1873119611E-01    0.2231686342E-02    0.6893764157E+00    0.9526488317E-02    0.2597531575E-01
    0.2100000000E+04    0.2024166929E-01    0.2412467028E-02    0.6899985005E+00    0.1034836090E-01    0.2835058292E-01
    0.2300000000E+04    0.2168534910E-01    0.2585376609E-02    0.6905135081E+00    0.1114275040E-01    0.3067005910E-01
    0.2500000000E+04    0.2306589236E-01    0.2750843829E-02    0.6909469210E+00    0.1191104530E-01    0.3293635442E-01
    0.2700000000E+04    0.2438671418E-01    0.2909269113E-02    0.6913167270E+00    0.1265454269E-01    0.3515191107E-01
    0.2900000000E+04    0.2565100388E-01    0.3061026447E-02    0.6916359869E+00    0.1337445520E-01    0.3731901685E-01
    0.3100000000E+04    0.2686174091E-01    0.3206465249E-02    0.6919144132E+00    0.1407191740E-01    0.3943981726E-01
    0.3300000000E+04    0.2802171022E-01    0.3345912166E-02    0.6921593786E+00    0.1474799180E-01    0.4151632660E-01
    0.3500000000E+04    0.2913351670E-01    0.3479672771E-02    0.6923765811E+00    0.1540367436E-01    0.4355043797E-01
    0.3700000000E+04    0.3019959861E-01    0.3608033134E-02    0.6925704938E+00    0.1603989956E-01    0.4554393238E-01
    0.3900000000E+04    0.3122224010E-01    0.3731261288E-02    0.6927446772E+00    0.1665754496E-01    0.4749848708E-01
    0.4100000000E+04    0.3220358266E-01    0.3849608565E-02    0.6929020011E+00    0.1725743552E-01    0.4941568308E-01
    0.4300000000E+04    0.3314563569E-01    0.3963310839E-02    0.6930448040E+00    0.1784034739E-01    0.5129701207E-01
    0.4500000000E+04    0.3405028617E-01    0.4072589651E-02    0.6931750108E+00    0.1840701149E-01    0.5314388277E-01
    0.4700000000E+04    0.3491930761E-01    0.4177653261E-02    0.6932942204E+00    0.1895811675E-01    0.5495762669E-01
    0.4900000000E+04    0.3575436817E-01    0.4278697593E-02    0.6934037720E+00    0.1949431307E-01    0.5673950344E-01
    0.1000000000E+04    0.1099636852E-01    0.1307738178E-02    0.6835635354E+00    0.5445566862E-02    0.1451641592E-01
    0.3000000000E+04    0.2626288803E-01    0.3134514735E-02    0.6917797977E+00    0.1372592456E-01    0.3838507638E-01
    0.5000000000E+04    0.3615965749E-01    0.4327770602E-02    0.6934552862E+00    0.1975701347E-01    0.5761886680E-01
    0.7000000000E+04    0.4281865835E-01    0.5137725230E-02    0.6941783490E+00    0.2436053002E-01    0.7379167245E-01
    0.9000000000E+04    0.4740405938E-01    0.5701265499E-02    0.6945818550E+00    0.2799798441E-01    0.8781206088E-01
    0.1100000000E+05    0.5059782685E-01    0.6098753971E-02    0.6948395187E+00    0.3094860643E-01    0.1002446657E+00
    0.1300000000E+05    0.5282300718E-01    0.6380159247E-02    0.6950184154E+00    0.3339153590E-01    0.1114609116E+00
    0.1500000000E+05    0.5435432289E-01    0.6578011404E-02    0.6951499362E+00    0.3544720461E-01    0.1217164351E+00
    0.1700000000E+05    0.5537694484E-01    0.6714294423E-02    0.6952507380E+00    0.3719972970E-01    0.1311937899E+00
    0.1900000000E+05    0.5601958891E-01    0.6804332260E-02    0.6953304827E+00    0.3870976284E-01    0.1400273998E+00
    0.2100000000E+05    0.5637407219E-01    0.6859087966E-02    0.6953951615E+00    0.4002222869E-01    0.1483188458E+00
    0.2300000000E+05    0.5650734538E-01    0.6886580155E-02    0.6954486877E+00    0.4117117922E-01    0.1561466129E+00
    0.2500000000E+05    0.5646915569E-01    0.6892786334E-02    0.6954937258E+00    0.4218294613E-01    0.1635725185E+00
    0.2700000000E+05    0.5629707432E-01    0.6882236408E-02    0.6955321532E+00    0.4307825056E-01    0.1706460783E+00
    0.2900000000E+05    0.5601988148E-01    0.6858412884E-02    0.6955653312E+00    0.4387365211E-01    0.1774075483E+00
    0.3100000000E+05    0.5565989800E-01    0.6824026947E-02    0.6955942706E+00    0.4458256750E-01    0.1838900917E+00
    0.3300000000E+05    0.5523462406E-01    0.6781212814E-02    0.6956197381E+00    0.4521600120E-01    0.1901213540E+00
    0.3500000000E+05    0.5475791191E-01    0.6731667031E-02    0.6956423259E+00    0.4578307936E-01    0.1961246285E+00
    0.3700000000E+05    0.5424081864E-01    0.6676749951E-02    0.6956624982E+00    0.4629144620E-01    0.2019197319E+00
    0.3900000000E+05    0.5369223546E-01    0.6617560735E-02    0.6956806248E+00    0.4674756296E-01    0.2075236724E+00
    0.4100000000E+05    0.5311935821E-01    0.6554993540E-02    0.6956970032E+00    0.4715693614E-01    0.2129511656E+00
    0.4300000000E+05    0.5252804336E-01    0.6489780104E-02    0.6957118759E+00    0.4752429415E-01    0.2182150381E+00
    0.4500000000E+05    0.5192308041E-01    0.6422522396E-02    0.6957254425E+00    0.4785372539E-01    0.2233265460E+00
    0.4700000000E+05    0.5130840229E-01    0.6353717889E-02    0.6957378687E+00    0.4814878750E-01    0.2282956298E+00
    0.4900000000E+05    0.5068724962E-01    0.6283779316E-02    0.6957492934E+00    0.4841259441E-01    0.2331311194E+00
    0.1000000000E+05    0.4914403178E-01    0.5917123250E-02    0.6947234718E+00    0.2954621892E-01    0.9420023106E-01
    0.3000000000E+05    0.5584904742E-01    0.6842395157E-02    0.6955802780E+00    0.4423818331E-01    0.1806818439E+00
    0.5000000000E+05    0.5037510105E-01    0.6248494465E-02    0.6957546674E+00    0.4853364651E-01    0.2355012636E+00
    0.7000000000E+05    0.4423860733E-01    0.5541483375E-02    0.6958302645E+00    0.4983434706E-01    0.2774332818E+00
    0.9000000000E+05    0.3876500741E-01    0.4896005705E-02    0.6958726535E+00    0.4982097108E-01    0.3115763105E+00
    0.1100000000E+06    0.3408961532E-01    0.4336336601E-02    0.6958998452E+00    0.4913752701E-01    0.3402423162E+00
    0.1300000000E+06    0.3013218788E-01    0.3857217462E-02    0.6959188055E+00    0.4809433419E-01    0.3647630965E+00
    0.1500000000E+06    0.2677975364E-01    0.3447585461E-02    0.6959328008E+00    0.4686001888E-01    0.3860137084E+00
    0.1700000000E+06    0.2392779812E-01    0.3096369082E-02    0.6959435680E+00    0.4553259834E-01    0.4046157483E+00
    0.1900000000E+06    0.2148839589E-01    0.2793901188E-02    0.6959521164E+00    0.4417121815E-01    0.4210330072E+00
    0.2100000000E+06    0.1938979949E-01    0.2532107722E-02    0.6959590734E+00    0.4281219230E-01    0.4356230977E+00
    0.2300000000E+06    0.1757400868E-01    0.2304351887E-02    0.6959648494E+00    0.4147783173E-01    0.4486682656E+00
    0.2500000000E+06    0.1599417845E-01    0.2105203521E-02    0.6959697244E+00    0.4018160525E-01    0.4603951987E+00
    0.2700000000E+06    0.1461236503E-01    0.1930217601E-02    0.6959738963E+00    0.3893129101E-01    0.4709884800E+00
    0.2900000000E+06    0.1339769283E-01    0.1775744754E-02    0.6959775084E+00    0.3773096360E-01    0.4806001075E+00
    0.3100000000E+06    0.1232490228E-01    0.1638776304E-02    0.6959806677E+00    0.3658227733E-01    0.4893564428E+00
    0.3300000000E+06    0.1137321064E-01    0.1516819954E-02    0.6959834554E+00    0.3548530991E-01    0.4973634068E+00
    0.3500000000E+06    0.1052542041E-01    0.1407800807E-02    0.6959859341E+00    0.3443912436E-01    0.5047104380E+00
    0.3700000000E+06    0.9767220482E-02    0.1309982718E-02    0.6959881532E+00    0.3344214669E-01    0.5114735562E+00
    0.3900000000E+06    0.9086636296E-02    0.1221905719E-02    0.6959901520E+00    0.3249242100E-01    0.5177177648E+00
    0.4100000000E+06    0.8473595431E-02    0.1142336095E-02    0.6959919622E+00    0.3158778212E-01    0.5234989534E+00
    0.4300000000E+06    0.7919582493E-02    0.1070226396E-02    0.6959936098E+00    0.3072597209E-01    0.5288654216E+00
    0.4500000000E+06    0.7417363526E-02    0.1004683266E-02    0.6959951159E+00    0.2990471813E-01    0.5338591079E+00
    0.4700000000E+06    0.6960764742E-02    0.9449414474E-03    0.6959964984E+00    0.2912178404E-01    0.5385165890E+00
    0.4900000000E+06    0.6544493893E-02    0.8903426666E-03    0.6959977720E+00    0.2837500327E-01    0.5428698982E+00
    0.1000000000E+06    0.3633083955E-01    0.4605509981E-02    0.6958875838E+00    0.4953898824E-01    0.3264963454E+00
    0.3000000000E+06    0.1284495469E-01    0.1705239080E-02    0.6959791391E+00    0.3715013119E-01    0.4850781390E+00
    0.5000000000E+06    0.6350032415E-02    0.8647911528E-03    0.6959983721E+00    0.2801451756E-01    0.5449414249E+00
    0.7000000000E+06    0.3751668523E-02    0.5200859107E-03    0.6960068876E+00    0.2225645682E-01    0.5757137394E+00
    0.9000000000E+06    0.2468072750E-02    0.3468328732E-03    0.6960117427E+00    0.1839581010E-01    0.5942861742E+00
    0.1100000000E+07    0.1743921275E-02    0.2477827594E-03    0.6960149008E+00    0.1565018979E-01    0.6066624929E+00
    0.1300000000E+07    0.1296488350E-02    0.1859168184E-03    0.6960171296E+00    0.1360493997E-01    0.6154811307E+00
    0.1500000000E+07    0.1001139709E-02    0.1447050186E-03    0.6960187923E+00    0.1202540509E-01    0.6220751036E+00
    0.1700000000E+07    0.7961465443E-03    0.1158744599E-03    0.6960200837E+00    0.1077018673E-01    0.6271879324E+00
    0.1900000000E+07    0.6481495304E-03    0.9491475383E-04    0.6960211178E+00    0.9749435275E-02    0.6312661374E+00
    0.2100000000E+07    0.5378557297E-03    0.7919738644E-04    0.6960219659E+00    0.8903483450E-02    0.6345936897E+00
    0.2300000000E+07    0.4534850652E-03    0.6710656057E-04    0.6960226752E+00    0.8191223735E-02    0.6373596356E+00
    0.2500000000E+07    0.3875179550E-03    0.5760461958E-04    0.6960232777E+00    0.7583444992E-02    0.6396946178E+00
    0.2700000000E+07    0.3349732192E-03    0.5000042281E-04    0.6960237965E+00    0.7058835671E-02    0.6416917680E+00
    0.2900000000E+07    0.2924459922E-03    0.4381917704E-04    0.6960242483E+00    0.6601491327E-02    0.6434192444E+00
    0.3100000000E+07    0.2575453784E-03    0.3872594463E-04    0.6960246454E+00    0.6199307031E-02    0.6449280625E+00
    0.3300000000E+07    0.2285528201E-03    0.3447894573E-04    0.6960249976E+00    0.5842909650E-02    0.6462571578E+00
    0.3500000000E+07    0.2042075051E-03    0.3090009305E-04    0.6960253122E+00    0.5524930193E-02    0.6474367559E+00
    0.3700000000E+07    0.1835675847E-03    0.2785585629E-04    0.6960255951E+00    0.5239496494E-02    0.6484906759E+00
    0.3900000000E+07    0.1659180852E-03    0.2524451502E-04    0.6960258509E+00    0.4981872285E-02    0.6494379403E+00
    0.4100000000E+07    0.1507083923E-03    0.2298747351E-04    0.6960260834E+00    0.4748195722E-02    0.6502939228E+00
    0.4300000000E+07    0.1375089376E-03    0.2102322250E-04    0.6960262959E+00    0.4535286840E-02    0.6510711822E+00
    0.4500000000E+07    0.1259806331E-03    0.1930306437E-04    0.6960264907E+00    0.4340503668E-02    0.6517800779E+00
    0.4700000000E+07    0.1158529413E-03    0.1778803653E-04    0.6960266701E+00    0.4161633247E-02    0.6524292304E+00
    0.4900000000E+07    0.1069079024E-03    0.1644666404E-04    0.6960268358E+00    0.3996808080E-02    0.6530258713E+00
    0.1000000000E+07    0.2059339613E-02    0.2910688302E-03    0.6960134718E+00    0.1691526485E-01    0.6010397766E+00
    0.3000000000E+07    0.2741625475E-03    0.4115344536E-04    0.6960244530E+00    0.6394144187E-02    0.6441983150E+00
    0.5000000000E+07    0.1028221741E-03    0.1583289136E-04    0.6960269141E+00    0.3919157089E-02    0.6533064474E+00
    0.7000000000E+07    0.5372664375E-04    0.8390515823E-05    0.6960280368E+00    0.2820002777E-02    0.6572439007E+00
    0.9000000000E+07    0.3314875464E-04    0.5218813398E-05    0.6960286869E+00    0.2200075678E-02    0.6594375609E+00
    0.1100000000E+08    0.2261140871E-04    0.3574908073E-05    0.6960291127E+00    0.1802426595E-02    0.6608349873E+00
    0.1300000000E+08    0.1649821540E-04    0.2612321748E-05    0.6960294135E+00    0.1525841618E-02    0.6618027485E+00
    0.1500000000E+08    0.1263473611E-04    0.1999514733E-05    0.6960296370E+00    0.1322419563E-02    0.6625124275E+00
    0.1700000000E+08    0.1003562348E-04    0.1584837174E-05    0.6960298093E+00    0.1166567572E-02    0.6630550198E+00
    0.1900000000E+08    0.8201712794E-05    0.1290861945E-05    0.6960299457E+00    0.1043374042E-02    0.6634832615E+00
    0.2100000000E+08    0.6858128022E-05    0.1074666169E-05    0.6960300561E+00    0.9435651891E-03    0.6638298191E+00
    0.2300000000E+08    0.5843343597E-05    0.9108802708E-06    0.6960301468E+00    0.8610719123E-03    0.6641160049E+00
    0.2500000000E+08    0.5057367594E-05    0.7837190515E-06    0.6960302225E+00    0.7917562532E-03    0.6643563139E+00
    0.2700000000E+08    0.4435597875E-05    0.6829379677E-06    0.6960302862E+00    0.7327002821E-03    0.6645609473E+00
