  Pressure (Pa) 22mC5-500 (mol/kg) 23mC5-500 (mol/kg) 24mC5-500 (mol/kg) 2mC6-500 (mol/kg) C7-500 (mol/kg)
    0.1000000000E+01    0.1799511722E-05    0.2580950110E-05    0.2321329463E+00    0.6913921624E-05    0.4166871880E-02
    0.3000000000E+01    0.2978992336E-05    0.4257056337E-05    0.4177349396E+00    0.1096259243E-04    0.4186975895E-02
    0.5000000000E+01    0.3416931818E-05    0.4876788067E-05    0.4972517773E+00    0.1267605290E-04    0.4193541235E-02
    0.7000000000E+01    0.3671456573E-05    0.5240053223E-05    0.5414213517E+00    0.1403739110E-04    0.4196973949E-02
    0.9000000000E+01    0.3866379795E-05    0.5522126254E-05    0.5695270316E+00    0.1536913966E-04    0.4199092207E-02
    0.1100000000E+02    0.4040085986E-05    0.5776554038E-05    0.5889838580E+00    0.1673397042E-04    0.4200521998E-02
    0.1300000000E+02    0.4206706979E-05    0.6022680092E-05    0.6032517308E+00    0.1813934490E-04    0.4201542486E-02
    0.1500000000E+02    0.4371938179E-05    0.6268092256E-05    0.6141622046E+00    0.1958024746E-04    0.4202298336E-02
    0.1700000000E+02    0.4538144166E-05    0.6515804951E-05    0.6227755890E+00    0.2104968675E-04    0.4202872462E-02
    0.1900000000E+02    0.4706263909E-05    0.6766912238E-05    0.6297482373E+00    0.2254133019E-04    0.4203315996E-02
    0.2100000000E+02    0.4876596931E-05    0.7021669511E-05    0.6355081914E+00    0.2405001245E-04    0.4203662278E-02
    0.2300000000E+02    0.5049151628E-05    0.7279965728E-05    0.6403465124E+00    0.2557166731E-04    0.4203934030E-02
    0.2500000000E+02    0.5223807354E-05    0.7541539043E-05    0.6444680165E+00    0.2710313151E-04    0.4204147301E-02
    0.2700000000E+02    0.5400392151E-05    0.7806077572E-05    0.6480210165E+00    0.2864194963E-04    0.4204313769E-02
    0.2900000000E+02    0.5578720388E-05    0.8073266388E-05    0.6511155492E+00    0.3018621193E-04    0.4204442144E-02
    0.3100000000E+02    0.5758610726E-05    0.8342808582E-05    0.6538349752E+00    0.3173442767E-04    0.4204539068E-02
    0.3300000000E+02    0.5939894176E-05    0.8614433619E-05    0.6562436002E+00    0.3328542833E-04    0.4204609693E-02
    0.3500000000E+02    0.6122417153E-05    0.8887899463E-05    0.6583918258E+00    0.3483829436E-04    0.4204658086E-02
    0.3700000000E+02    0.6306042012E-05    0.9162991752E-05    0.6603197144E+00    0.3639229961E-04    0.4204687502E-02
    0.3900000000E+02    0.6490646371E-05    0.9439521664E-05    0.6620595112E+00    0.3794686916E-04    0.4204700577E-02
    0.4100000000E+02    0.6676121885E-05    0.9717323316E-05    0.6636374621E+00    0.3950154705E-04    0.4204699473E-02
    0.4300000000E+02    0.6862372843E-05    0.9996251121E-05    0.6650751470E+00    0.4105597144E-04    0.4204685979E-02
    0.4500000000E+02    0.7049314758E-05    0.1027617729E-04    0.6663904725E+00    0.4260985544E-04    0.4204661589E-02
    0.4700000000E+02    0.7236873039E-05    0.1055698957E-04    0.6675984217E+00    0.4416297207E-04    0.4204627563E-02
    0.4900000000E+02    0.7424981786E-05    0.1083858924E-04    0.6687116272E+00    0.4571514258E-04    0.4204584969E-02
    0.1000000000E+02    0.3954704020E-05    0.5651170070E-05    0.5800662393E+00    0.1604642953E-04    0.4199871182E-02
    0.3000000000E+02    0.5668481198E-05    0.8207760884E-05    0.6525177547E+00    0.3095990524E-04    0.4204494186E-02
    0.5000000000E+02    0.7519224100E-05    0.1097965676E-04    0.6692361174E+00    0.4649082803E-04    0.4204560749E-02
    0.7000000000E+02    0.9421959909E-05    0.1382603477E-04    0.6766663236E+00    0.6193471776E-04    0.4203791555E-02
    0.9000000000E+02    0.1134232135E-04    0.1669611977E-04    0.6808659216E+00    0.7723977947E-04    0.4202710565E-02
    0.1100000000E+03    0.1326904673E-04    0.1957385952E-04    0.6835656083E+00    0.9242681992E-04    0.4201477081E-02
    0.1300000000E+03    0.1519822277E-04    0.2245393166E-04    0.6854471678E+00    0.1075233711E-03    0.4200156871E-02
    0.1500000000E+03    0.1712863940E-04    0.2533487284E-04    0.6868335488E+00    0.1225537283E-03    0.4198782172E-02
    0.1700000000E+03    0.1906017771E-04    0.2821673758E-04    0.6878974903E+00    0.1375379491E-03    0.4197370632E-02
    0.1900000000E+03    0.2099317616E-04    0.3110019315E-04    0.6887397566E+00    0.1524924490E-03    0.4195932680E-02
    0.2100000000E+03    0.2292815935E-04    0.3398613923E-04    0.6894230872E+00    0.1674307588E-03    0.4194474835E-02
    0.2300000000E+03    0.2486571572E-04    0.3687554024E-04    0.6899885873E+00    0.1823641634E-03    0.4193001338E-02
    0.2500000000E+03    0.2680644096E-04    0.3976935042E-04    0.6904643126E+00    0.1973021967E-03    0.4191515042E-02
    0.2700000000E+03    0.2875091230E-04    0.4266848153E-04    0.6908700670E+00    0.2122530151E-03    0.4190017905E-02
    0.2900000000E+03    0.3069967761E-04    0.4557379064E-04    0.6912202287E+00    0.2272236798E-03    0.4188511298E-02
    0.3100000000E+03    0.3265325183E-04    0.4848607763E-04    0.6915254890E+00    0.2422203716E-03    0.4186996187E-02
    0.3300000000E+03    0.3461211696E-04    0.5140608716E-04    0.6917939632E+00    0.2572485558E-03    0.4185473258E-02
    0.3500000000E+03    0.3657672379E-04    0.5433451266E-04    0.6920319218E+00    0.2723131104E-03    0.4183942997E-02
    0.3700000000E+03    0.3854749435E-04    0.5727200095E-04    0.6922442870E+00    0.2874184270E-03    0.4182405743E-02
    0.3900000000E+03    0.4052482453E-04    0.6021915703E-04    0.6924349765E+00    0.3025684909E-03    0.4180861728E-02
    0.4100000000E+03    0.4250908671E-04    0.6317654850E-04    0.6926071472E+00    0.3177669454E-03    0.4179311105E-02
    0.4300000000E+03    0.4450063224E-04    0.6614470975E-04    0.6927633712E+00    0.3330171439E-03    0.4177753966E-02
    0.4500000000E+03    0.4649979369E-04    0.6912414564E-04    0.6929057655E+00    0.3483221929E-03    0.4176190355E-02
    0.4700000000E+03    0.4850688693E-04    0.7211533482E-04    0.6930360884E+00    0.3636849867E-03    0.4174620283E-02
    0.4900000000E+03    0.5052221290E-04    0.7511873272E-04    0.6931558121E+00    0.3791082369E-03    0.4173043733E-02
    0.1000000000E+03    0.1230522733E-04    0.1813450098E-04    0.6823481094E+00    0.8484629334E-04    0.4202107620E-02
    0.3000000000E+03    0.3167583272E-04    0.4702901411E-04    0.6913779139E+00    0.2347184156E-03    0.4187754757E-02
    0.5000000000E+03    0.5153305355E-04    0.7662514653E-04    0.6932120952E+00    0.3868433367E-03    0.4172253016E-02
    0.7000000000E+03    0.7224665213E-04    0.1074917267E-03    0.6940008969E+00    0.5452777631E-03    0.4156081558E-02
    0.9000000000E+03    0.9405990547E-04    0.1399948991E-03    0.6944397439E+00    0.7120882050E-03    0.4139157531E-02
    0.1100000000E+04    0.1171738699E-03    0.1744355659E-03    0.6947191984E+00    0.8888805138E-03    0.4121360167E-02
    0.1300000000E+04    0.1417814907E-03    0.2111018636E-03    0.6949127269E+00    0.1077163121E-02    0.4102560505E-02
    0.1500000000E+04    0.1680830658E-03    0.2502926319E-03    0.6950546625E+00    0.1278489401E-02    0.4082621578E-02
    0.1700000000E+04    0.1962955852E-03    0.2923314803E-03    0.6951631987E+00    0.1494537039E-02    0.4061395056E-02
    0.1900000000E+04    0.2266600172E-03    0.3375777092E-03    0.6952488755E+00    0.1727167095E-02    0.4038717367E-02
    0.2100000000E+04    0.2594481772E-03    0.3864365786E-03    0.6953182208E+00    0.1978478330E-02    0.4014405560E-02
    0.2300000000E+04    0.2949700141E-03    0.4393701869E-03    0.6953754935E+00    0.2250864206E-02    0.3988252775E-02
    0.2500000000E+04    0.3335818677E-03    0.4969097909E-03    0.6954235903E+00    0.2547077174E-02    0.3960023109E-02
    0.2700000000E+04    0.3756961674E-03    0.5596702731E-03    0.6954645501E+00    0.2870304076E-02    0.3929445620E-02
    0.2900000000E+04    0.4217930510E-03    0.6283674717E-03    0.6954998496E+00    0.3224256446E-02    0.3896207239E-02
    0.3100000000E+04    0.4724344420E-03    0.7038391758E-03    0.6955305845E+00    0.3613279948E-02    0.3859944281E-02
    0.3300000000E+04    0.5282812117E-03    0.7870707232E-03    0.6955575848E+00    0.4042487883E-02    0.3820232239E-02
    0.3500000000E+04    0.5901141663E-03    0.8792263034E-03    0.6955814910E+00    0.4517924589E-02    0.3776573476E-02
    0.3700000000E+04    0.6588597141E-03    0.9816872434E-03    0.6956028051E+00    0.5046765479E-02    0.3728382436E-02
    0.3900000000E+04    0.7356211604E-03    0.1096098692E-02    0.6956219262E+00    0.5637561264E-02    0.3674967960E-02
    0.4100000000E+04    0.8217165876E-03    0.1224426134E-02    0.6956391752E+00    0.6300534012E-02    0.3615512408E-02
    0.4300000000E+04    0.9187240857E-03    0.1369022874E-02    0.6956548137E+00    0.7047931415E-02    0.3549047543E-02
    0.4500000000E+04    0.1028534498E-02    0.1532708753E-02    0.6956690565E+00    0.7894441079E-02    0.3474427682E-02
    0.4700000000E+04    0.1153410429E-02    0.1718858234E-02    0.6956820820E+00    0.8857655987E-02    0.3390301789E-02
    0.4900000000E+04    0.1296047358E-02    0.1931491662E-02    0.6956940394E+00    0.9958560076E-02    0.3295088346E-02
    0.1000000000E+04    0.1054422766E-03    0.1569550834E-03    0.6945934287E+00    0.7991422152E-03    0.4130375919E-02
    0.3000000000E+04    0.4465069230E-03    0.6651987212E-03    0.6955157305E+00    0.3414084469E-02    0.3878478805E-02
    0.5000000000E+04    0.1375000491E-02    0.2049193140E-02    0.6956996577E+00    0.1056823975E-01    0.3242762532E-02
    0.7000000000E+04    0.4670959405E-02    0.6964788692E-02    0.6957781590E+00    0.3619518708E-01    0.1254928865E-02
    0.9000000000E+04    0.7607245475E-02    0.1135264940E-01    0.6958215784E+00    0.5976865974E-01    0.1053627707E-03
    0.1100000000E+05    0.8768451866E-02    0.1309721341E-01    0.6958490824E+00    0.6989729695E-01    0.6144342493E-04
    0.1300000000E+05    0.9709328962E-02    0.1451506051E-01    0.6958680342E+00    0.7848705948E-01    0.6096937691E-04
    0.1500000000E+05    0.1052832551E-01    0.1575252330E-01    0.6958818655E+00    0.8626268604E-01    0.6142874460E-04
    0.1700000000E+05    0.1124626528E-01    0.1684025811E-01    0.6958923909E+00    0.9335261686E-01    0.6185709407E-04
    0.1900000000E+05    0.1187841579E-01    0.1780072626E-01    0.6959006592E+00    0.9984940538E-01    0.6224095619E-04
    0.2100000000E+05    0.1243718409E-01    0.1865219407E-01    0.6959073191E+00    0.1058290956E+00    0.6258839504E-04
    0.2300000000E+05    0.1293278033E-01    0.1940970547E-01    0.6959127927E+00    0.1113550354E+00    0.6290586245E-04
    0.2500000000E+05    0.1337367740E-01    0.2008575479E-01    0.6959173670E+00    0.1164804461E+00    0.6319823844E-04
    0.2700000000E+05    0.1376695966E-01    0.2069079738E-01    0.6959212433E+00    0.1212503816E+00    0.6346929279E-04
    0.2900000000E+05    0.1411859154E-01    0.2123364312E-01    0.6959245674E+00    0.1257032485E+00    0.6372199882E-04
    0.3100000000E+05    0.1443362658E-01    0.2172176277E-01    0.6959274472E+00    0.1298719979E+00    0.6395874371E-04
    0.3300000000E+05    0.1471637183E-01    0.2216152894E-01    0.6959299644E+00    0.1337850683E+00    0.6418147369E-04
    0.3500000000E+05    0.1497051809E-01    0.2255840724E-01    0.6959321818E+00    0.1374671392E+00    0.6439179670E-04
    0.3700000000E+05    0.1519924417E-01    0.2291710917E-01    0.6959341487E+00    0.1409397377E+00    0.6459105683E-04
    0.3900000000E+05    0.1540530080E-01    0.2324171541E-01    0.6959359041E+00    0.1442217310E+00    0.6478038923E-04
    0.4100000000E+05    0.1559107879E-01    0.2353577588E-01    0.6959374795E+00    0.1473297289E+00    0.6496076150E-04
    0.4300000000E+05    0.1575866470E-01    0.2380239154E-01    0.6959389002E+00    0.1502784152E+00    0.6513300519E-04
    0.4500000000E+05    0.1590988656E-01    0.2404428165E-01    0.6959401874E+00    0.1530808216E+00    0.6529784030E-04
    0.4700000000E+05    0.1604635174E-01    0.2426383945E-01    0.6959413583E+00    0.1557485566E+00    0.6545589446E-04
    0.4900000000E+05    0.1616947841E-01    0.2446317846E-01    0.6959424274E+00    0.1582919967E+00    0.6560771812E-04
    0.1000000000E+05    0.8235965451E-02    0.1229642307E-01    0.6958367214E+00    0.6518250584E-01    0.6694895476E-04
    0.3000000000E+05    0.1428039865E-01    0.2148412213E-01    0.6959260572E+00    0.1278212644E+00    0.6384223580E-04
    0.5000000000E+05    0.1622643781E-01    0.2455585957E-01    0.6959429277E+00    0.1595200521E+00    0.6568144748E-04
    0.7000000000E+05    0.1690446499E-01    0.2570537223E-01    0.6959497380E+00    0.1793756018E+00    0.6692159417E-04
    0.9000000000E+05    0.1707530956E-01    0.2607145067E-01    0.6959532862E+00    0.1932975853E+00    0.6786306992E-04
    0.1100000000E+06    0.1701539108E-01    0.2607246392E-01    0.6959553928E+00    0.2037651489E+00    0.6862430096E-04
    0.1300000000E+06    0.1684362824E-01    0.2589066630E-01    0.6959567454E+00    0.2120166407E+00    0.6926450572E-04
    0.1500000000E+06    0.1661699578E-01    0.2561464879E-01    0.6959576590E+00    0.2187465571E+00    0.6981765368E-04
    0.1700000000E+06    0.1636481861E-01    0.2529079987E-01    0.6959582974E+00    0.2243779957E+00    0.7030508005E-04
    0.1900000000E+06    0.1610291918E-01    0.2494468360E-01    0.6959587533E+00    0.2291852527E+00    0.7074108082E-04
    0.2100000000E+06    0.1584007488E-01    0.2459087079E-01    0.6959590834E+00    0.2333549840E+00    0.7113571302E-04
    0.2300000000E+06    0.1558120014E-01    0.2423782321E-01    0.6959593236E+00    0.2370192347E+00    0.7149632554E-04
    0.2500000000E+06    0.1532901114E-01    0.2389047151E-01    0.6959594979E+00    0.2402744331E+00    0.7182845476E-04
    0.2700000000E+06    0.1508493897E-01    0.2355164318E-01    0.6959596230E+00    0.2431928882E+00    0.7213637741E-04
    0.2900000000E+06    0.1484964993E-01    0.2322288527E-01    0.6959597105E+00    0.2458300520E+00    0.7242346711E-04
    0.3100000000E+06    0.1462335122E-01    0.2290495364E-01    0.6959597690E+00    0.2482292738E+00    0.7269243286E-04
    0.3300000000E+06    0.1440597493E-01    0.2259811168E-01    0.6959598047E+00    0.2504250100E+00    0.7294548349E-04
    0.3500000000E+06    0.1419729083E-01    0.2230231656E-01    0.6959598224E+00    0.2524450500E+00    0.7318444413E-04
    0.3700000000E+06    0.1399697650E-01    0.2201733723E-01    0.6959598257E+00    0.2543120951E+00    0.7341084050E-04
    0.3900000000E+06    0.1380466128E-01    0.2174283021E-01    0.6959598174E+00    0.2560449028E+00    0.7362596130E-04
    0.4100000000E+06    0.1361995385E-01    0.2147838857E-01    0.6959597998E+00    0.2576591303E+00    0.7383090506E-04
    0.4300000000E+06    0.1344245953E-01    0.2122357375E-01    0.6959597746E+00    0.2591679671E+00    0.7402661594E-04
    0.4500000000E+06    0.1327179087E-01    0.2097793622E-01    0.6959597432E+00    0.2605826160E+00    0.7421391148E-04
    0.4700000000E+06    0.1310757399E-01    0.2074102874E-01    0.6959597067E+00    0.2619126646E+00    0.7439350434E-04
    0.4900000000E+06    0.1294945224E-01    0.2051241471E-01    0.6959596661E+00    0.2631663739E+00    0.7456601961E-04
    0.1000000000E+06    0.1706466641E-01    0.2610303903E-01    0.6959544636E+00    0.1988680821E+00    0.6826169153E-04
    0.3000000000E+06    0.1473537616E-01    0.2306254076E-01    0.6959597429E+00    0.2470570736E+00    0.7256006726E-04
    0.5000000000E+06    0.1287257075E-01    0.2040108553E-01    0.6959596445E+00    0.2637668775E+00    0.7464979800E-04
    0.7000000000E+06    0.1158344519E-01    0.1851858742E-01    0.6959591194E+00    0.2730954114E+00    0.7605902728E-04
    0.9000000000E+06    0.1063076715E-01    0.1710961469E-01    0.6959585577E+00    0.2792844261E+00    0.7712891868E-04
    0.1100000000E+07    0.9889751378E-02    0.1600376919E-01    0.6959580268E+00    0.2837864449E+00    0.7799400446E-04
    0.1300000000E+07    0.9291513155E-02    0.1510473806E-01    0.6959575381E+00    0.2872559763E+00    0.7872156506E-04
    0.1500000000E+07    0.8794922937E-02    0.1435419128E-01    0.6959570901E+00    0.2900382662E+00    0.7935019740E-04
    0.1700000000E+07    0.8373769371E-02    0.1371457993E-01    0.6959566786E+00    0.2923353434E+00    0.7990414425E-04
    0.1900000000E+07    0.8010459942E-02    0.1316050586E-01    0.6959562989E+00    0.2942745126E+00    0.8039965042E-04
    0.2100000000E+07    0.7692686185E-02    0.1267408729E-01    0.6959559469E+00    0.2959405838E+00    0.8084814421E-04
    0.2300000000E+07    0.7411540155E-02    0.1224231410E-01    0.6959556190E+00    0.2973925668E+00    0.8125797669E-04
    0.2500000000E+07    0.7160391635E-02    0.1185545854E-01    0.6959553123E+00    0.2986729795E+00    0.8163543935E-04
    0.2700000000E+07    0.6934187972E-02    0.1150607769E-01    0.6959550242E+00    0.2998133487E+00    0.8198539227E-04
    0.2900000000E+07    0.6729000559E-02    0.1118836375E-01    0.6959547527E+00    0.3008376202E+00    0.8231166931E-04
    0.3100000000E+07    0.6541721386E-02    0.1089770721E-01    0.6959544959E+00    0.3017643568E+00    0.8261734905E-04
    0.3300000000E+07    0.6369854259E-02    0.1063039511E-01    0.6959542524E+00    0.3026082032E+00    0.8290494167E-04
    0.3500000000E+07    0.6211367607E-02    0.1038339745E-01    0.6959540209E+00    0.3033808911E+00    0.8317652131E-04
    0.3700000000E+07    0.6064588476E-02    0.1015421288E-01    0.6959538001E+00    0.3040919456E+00    0.8343382191E-04
    0.3900000000E+07    0.5928124735E-02    0.9940755148E-02    0.6959535892E+00    0.3047491923E+00    0.8367830800E-04
    0.4100000000E+07    0.5800806995E-02    0.9741268013E-02    0.6959533873E+00    0.3053591293E+00    0.8391122802E-04
    0.4300000000E+07    0.5681644621E-02    0.9554260694E-02    0.6959531936E+00    0.3059272036E+00    0.8413365497E-04
    0.4500000000E+07    0.5569791926E-02    0.9378458120E-02    0.6959530075E+00    0.3064580206E+00    0.8434651794E-04
    0.4700000000E+07    0.5464521891E-02    0.9212762176E-02    0.6959528284E+00    0.3069555043E+00    0.8455062689E-04
    0.4900000000E+07    0.5365205501E-02    0.9056221156E-02    0.6959526558E+00    0.3074230221E+00    0.8474669219E-04
    0.1000000000E+07    0.1023897956E-01    0.1652600486E-01    0.6959582871E+00    0.2816950056E+00    0.7758192194E-04
    0.3000000000E+07    0.6633290828E-02    0.1103990353E-01    0.6959546226E+00    0.3013121868E+00    0.8246691540E-04
    0.5000000000E+07    0.5317606041E-02    0.8981120282E-02    0.6959525718E+00    0.3076464684E+00    0.8484190718E-04
    0.7000000000E+07    0.4576246784E-02    0.7804826953E-02    0.6959511423E+00    0.3110770723E+00    0.8644351327E-04
    0.9000000000E+07    0.4083049218E-02    0.7014878894E-02    0.6959500405E+00    0.3133112297E+00    0.8765946003E-04
    0.1100000000E+08    0.3723976420E-02    0.6435625968E-02    0.6959491417E+00    0.3149157713E+00    0.8864264311E-04
    0.1300000000E+08    0.3447196522E-02    0.5986539977E-02    0.6959483815E+00    0.3161407737E+00    0.8946952706E-04
    0.1500000000E+08    0.3225253662E-02    0.5624679646E-02    0.6959477221E+00    0.3171160698E+00    0.9018397762E-04
    0.1700000000E+08    0.3042046126E-02    0.5324724594E-02    0.6959471392E+00    0.3179166875E+00    0.9081354698E-04
    0.1900000000E+08    0.2887415745E-02    0.5070627256E-02    0.6959466167E+00    0.3185894242E+00    0.9137669758E-04
    0.2100000000E+08    0.2754590942E-02    0.4851647374E-02    0.6959461429E+00    0.3191651924E+00    0.9188641784E-04
    0.2300000000E+08    0.2638858661E-02    0.4660283301E-02    0.6959457093E+00    0.3196653468E+00    0.9235219889E-04
    0.2500000000E+08    0.2536822627E-02    0.4491112196E-02    0.6959453094E+00    0.3201051790E+00    0.9278119109E-04
    0.2700000000E+08    0.2445964452E-02    0.4340101443E-02    0.6959449383E+00    0.3204959671E+00    0.9317891803E-04
