  Pressure (Pa) 22mC5-500 (mol/kg) 23mC5-500 (mol/kg) 24mC5-500 (mol/kg) 2mC6-500 (mol/kg) C7-500 (mol/kg)
    0.1000000000E+01    0.2364339120E-05    0.6111645821E-05    0.9949686434E-01    0.6135467998E-05    0.4204751392E-02
    0.3000000000E+01    0.5229444130E-05    0.1348499542E-04    0.2320964542E+00    0.1300662155E-04    0.4265843710E-02
    0.5000000000E+01    0.6857648109E-05    0.1765201549E-04    0.3164414936E+00    0.1658804578E-04    0.4303677721E-02
    0.7000000000E+01    0.7876848762E-05    0.2024762267E-04    0.3748181414E+00    0.1870552400E-04    0.4330082509E-02
    0.9000000000E+01    0.8562016723E-05    0.2198555688E-04    0.4176196251E+00    0.2010566203E-04    0.4349686667E-02
    0.1100000000E+02    0.9050110812E-05    0.2322017385E-04    0.4503457383E+00    0.2113402894E-04    0.4364880462E-02
    0.1300000000E+02    0.9415690365E-05    0.2414372450E-04    0.4761795277E+00    0.2196427613E-04    0.4377040332E-02
    0.1500000000E+02    0.9702105176E-05    0.2486758263E-04    0.4970909646E+00    0.2268886162E-04    0.4387018621E-02
    0.1700000000E+02    0.9935868809E-05    0.2545960545E-04    0.5143645671E+00    0.2335906405E-04    0.4395372653E-02
    0.1900000000E+02    0.1013386025E-04    0.2596281536E-04    0.5288736742E+00    0.2400411161E-04    0.4402482825E-02
    0.2100000000E+02    0.1030717759E-04    0.2640537599E-04    0.5412327822E+00    0.2464091827E-04    0.4408617987E-02
    0.2300000000E+02    0.1046331301E-04    0.2680621012E-04    0.5518868256E+00    0.2527929379E-04    0.4413973744E-02
    0.2500000000E+02    0.1060743538E-04    0.2717830540E-04    0.5611658892E+00    0.2592484696E-04    0.4418695940E-02
    0.2700000000E+02    0.1074317526E-04    0.2753073261E-04    0.5693200194E+00    0.2658065806E-04    0.4422895623E-02
    0.2900000000E+02    0.1087312059E-04    0.2786991710E-04    0.5765420972E+00    0.2724826869E-04    0.4426658910E-02
    0.3100000000E+02    0.1099913838E-04    0.2820046180E-04    0.5829832916E+00    0.2792828069E-04    0.4430053647E-02
    0.3300000000E+02    0.1112258844E-04    0.2852569259E-04    0.5887637573E+00    0.2862072496E-04    0.4433134055E-02
    0.3500000000E+02    0.1124446837E-04    0.2884802710E-04    0.5939802000E+00    0.2932529151E-04    0.4435944005E-02
    0.3700000000E+02    0.1136551364E-04    0.2916922886E-04    0.5987113313E+00    0.3004147431E-04    0.4438519397E-02
    0.3900000000E+02    0.1148626793E-04    0.2949058502E-04    0.6030218673E+00    0.3076866287E-04    0.4440889909E-02
    0.4100000000E+02    0.1160713315E-04    0.2981303261E-04    0.6069655072E+00    0.3150620013E-04    0.4443080299E-02
    0.4300000000E+02    0.1172840561E-04    0.3013724930E-04    0.6105871820E+00    0.3225341869E-04    0.4445111393E-02
    0.4500000000E+02    0.1185030229E-04    0.3046371930E-04    0.6139247737E+00    0.3300966319E-04    0.4447000846E-02
    0.4700000000E+02    0.1197298034E-04    0.3079278189E-04    0.6170104458E+00    0.3377430361E-04    0.4448763726E-02
    0.4900000000E+02    0.1209655148E-04    0.3112466730E-04    0.6198716829E+00    0.3454674272E-04    0.4450412981E-02
    0.1000000000E+02    0.8825060349E-05    0.2265122822E-04    0.4350058415E+00    0.2065286125E-04    0.4357732667E-02
    0.3000000000E+02    0.1093652551E-04    0.2803603663E-04    0.5798521692E+00    0.2758671242E-04    0.4428398683E-02
    0.5000000000E+02    0.1215869719E-04    0.3129171743E-04    0.6212256535E+00    0.3493571008E-04    0.4451198555E-02
    0.7000000000E+02    0.1345645600E-04    0.3479181002E-04    0.6408220045E+00    0.4300852080E-04    0.4463001272E-02
    0.9000000000E+02    0.1484857700E-04    0.3855425771E-04    0.6522525890E+00    0.5143294436E-04    0.4470348313E-02
    0.1100000000E+03    0.1631084639E-04    0.4250600757E-04    0.6597412273E+00    0.6003825967E-04    0.4475386064E-02
    0.1300000000E+03    0.1782381698E-04    0.4659250253E-04    0.6650270667E+00    0.6874447782E-04    0.4479045098E-02
    0.1500000000E+03    0.1937433428E-04    0.5077778084E-04    0.6689573638E+00    0.7751162980E-04    0.4481801284E-02
    0.1700000000E+03    0.2095360096E-04    0.5503814933E-04    0.6719942515E+00    0.8631878093E-04    0.4483926378E-02
    0.1900000000E+03    0.2255563555E-04    0.5935767015E-04    0.6744112334E+00    0.9515470243E-04    0.4485588392E-02
    0.2100000000E+03    0.2417628364E-04    0.6372536947E-04    0.6763805139E+00    0.1040133971E-03    0.4486897604E-02
    0.2300000000E+03    0.2581260087E-04    0.6813352906E-04    0.6780159218E+00    0.1128918100E-03    0.4487929872E-02
    0.2500000000E+03    0.2746246340E-04    0.7257662150E-04    0.6793957134E+00    0.1217885932E-03    0.4488739371E-02
    0.2700000000E+03    0.2912431677E-04    0.7705062966E-04    0.6805754618E+00    0.1307034101E-03    0.4489366007E-02
    0.2900000000E+03    0.3079700992E-04    0.8155260060E-04    0.6815957196E+00    0.1396365302E-03    0.4489839936E-02
    0.3100000000E+03    0.3247968317E-04    0.8608034597E-04    0.6824867728E+00    0.1485885853E-03    0.4490184456E-02
    0.3300000000E+03    0.3417169085E-04    0.9063223634E-04    0.6832716962E+00    0.1575604210E-03    0.4490417901E-02
    0.3500000000E+03    0.3587254688E-04    0.9520705717E-04    0.6839683788E+00    0.1665530039E-03    0.4490554934E-02
    0.3700000000E+03    0.3758188580E-04    0.9980390616E-04    0.6845909035E+00    0.1755673632E-03    0.4490607453E-02
    0.3900000000E+03    0.3929943447E-04    0.1044221189E-03    0.6851505080E+00    0.1846045543E-03    0.4490585230E-02
    0.4100000000E+03    0.4102499112E-04    0.1090612140E-03    0.6856562686E+00    0.1936656350E-03    0.4490496382E-02
    0.4300000000E+03    0.4275840975E-04    0.1137208528E-03    0.6861155964E+00    0.2027516517E-03    0.4490347718E-02
    0.4500000000E+03    0.4449958833E-04    0.1184008081E-03    0.6865346020E+00    0.2118636304E-03    0.4490145000E-02
    0.4700000000E+03    0.4624845974E-04    0.1231009415E-03    0.6869183689E+00    0.2210025719E-03    0.4489893143E-02
    0.4900000000E+03    0.4800498481E-04    0.1278211848E-03    0.6872711609E+00    0.2301694491E-03    0.4489596370E-02
    0.1000000000E+03    0.1557232691E-04    0.4051039461E-04    0.6563501905E+00    0.5571930724E-04    0.4473082220E-02
    0.3000000000E+03    0.3163714367E-04    0.8381336449E-04    0.6820558132E+00    0.1441101418E-03    0.4490027128E-02
    0.5000000000E+03    0.4888611151E-04    0.1301888420E-03    0.6874370893E+00    0.2347636598E-03    0.4489432302E-02
    0.7000000000E+03    0.6691461727E-04    0.1786153068E-03    0.6897677095E+00    0.3283297805E-03    0.4484466481E-02
    0.9000000000E+03    0.8575842886E-04    0.2292094639E-03    0.6910683065E+00    0.4256132318E-03    0.4477280917E-02
    0.1100000000E+04    0.1055004688E-03    0.2822023240E-03    0.6918978262E+00    0.5272659378E-03    0.4468589784E-02
    0.1300000000E+04    0.1262350902E-03    0.3378512930E-03    0.6924727826E+00    0.6338770924E-03    0.4458694312E-02
    0.1500000000E+04    0.1480636362E-03    0.3964306925E-03    0.6928946534E+00    0.7460235228E-03    0.4447731033E-02
    0.1700000000E+04    0.1710950185E-03    0.4582342429E-03    0.6932173173E+00    0.8642985198E-03    0.4435756030E-02
    0.1900000000E+04    0.1954473430E-03    0.5235798436E-03    0.6934720313E+00    0.9893311034E-03    0.4422779570E-02
    0.2100000000E+04    0.2212498408E-03    0.5928149609E-03    0.6936781741E+00    0.1121801162E-02    0.4408782122E-02
    0.2300000000E+04    0.2486449884E-03    0.6663224321E-03    0.6938483984E+00    0.1262453104E-02    0.4393722238E-02
    0.2500000000E+04    0.2777908482E-03    0.7445268108E-03    0.6939913154E+00    0.1412109477E-02    0.4377540451E-02
    0.2700000000E+04    0.3088636964E-03    0.8279014626E-03    0.6941129890E+00    0.1571685461E-02    0.4360160992E-02
    0.2900000000E+04    0.3420610219E-03    0.9169766385E-03    0.6942178126E+00    0.1742204969E-02    0.4341492187E-02
    0.3100000000E+04    0.3776049883E-03    0.1012348787E-02    0.6943090470E+00    0.1924818956E-02    0.4321425952E-02
    0.3300000000E+04    0.4157464671E-03    0.1114691392E-02    0.6943891636E+00    0.2120826589E-02    0.4299836599E-02
    0.3500000000E+04    0.4567697663E-03    0.1224767677E-02    0.6944600689E+00    0.2331699967E-02    0.4276579036E-02
    0.3700000000E+04    0.5009982009E-03    0.1343445569E-02    0.6945232578E+00    0.2559113184E-02    0.4251486383E-02
    0.3900000000E+04    0.5488006784E-03    0.1471715380E-02    0.6945799184E+00    0.2804976650E-02    0.4224366990E-02
    0.4100000000E+04    0.6005995051E-03    0.1610710775E-02    0.6946310074E+00    0.3071477777E-02    0.4195000782E-02
    0.4300000000E+04    0.6568796517E-03    0.1761733656E-02    0.6946773032E+00    0.3361129266E-02    0.4163134881E-02
    0.4500000000E+04    0.7181997614E-03    0.1926283719E-02    0.6947194460E+00    0.3676826508E-02    0.4128478368E-02
    0.4700000000E+04    0.7852052140E-03    0.2106093546E-02    0.6947579670E+00    0.4021915755E-02    0.4090696100E-02
    0.4900000000E+04    0.8586435991E-03    0.2303170161E-02    0.6947933105E+00    0.4400274933E-02    0.4049401449E-02
    0.1000000000E+04    0.9551144543E-04    0.2553903700E-03    0.6915243824E+00    0.4758558714E-03    0.4473099262E-02
    0.3000000000E+04    0.3595247201E-03    0.9638354427E-03    0.6942649586E+00    0.1831922699E-02    0.4331641172E-02
    0.5000000000E+04    0.8980411374E-03    0.2408897639E-02    0.6948099102E+00    0.4603311119E-02    0.4027300028E-02
    0.7000000000E+04    0.2348672099E-02    0.6302493056E-02    0.6950412403E+00    0.1210137136E-01    0.3238782378E-02
    0.9000000000E+04    0.6309894416E-02    0.1694090007E-01    0.6951684191E+00    0.3277396117E-01    0.1322541899E-02
    0.1100000000E+05    0.9026750135E-02    0.2425290815E-01    0.6952484670E+00    0.4744607029E-01    0.4777094403E-03
    0.1300000000E+05    0.1016731264E-01    0.2733792430E-01    0.6953032581E+00    0.5409937413E-01    0.4319035257E-03
    0.1500000000E+05    0.1108922547E-01    0.2983854207E-01    0.6953429709E+00    0.5970818636E-01    0.4332590373E-03
    0.1700000000E+05    0.1190530483E-01    0.3205707314E-01    0.6953729773E+00    0.6484062988E-01    0.4361944438E-03
    0.1900000000E+05    0.1263429918E-01    0.3404333351E-01    0.6953963776E+00    0.6957791023E-01    0.4389007929E-03
    0.2100000000E+05    0.1328822558E-01    0.3582916831E-01    0.6954150846E+00    0.7396928497E-01    0.4413538926E-03
    0.2300000000E+05    0.1387689941E-01    0.3744059861E-01    0.6954303416E+00    0.7805518589E-01    0.4435952023E-03
    0.2500000000E+05    0.1440853249E-01    0.3889940866E-01    0.6954429912E+00    0.8186977913E-01    0.4456590625E-03
    0.2700000000E+05    0.1489005126E-01    0.4022398527E-01    0.6954536243E+00    0.8544218251E-01    0.4475721661E-03
    0.2900000000E+05    0.1532733649E-01    0.4142995009E-01    0.6954626672E+00    0.8879737610E-01    0.4493555687E-03
    0.3100000000E+05    0.1572541119E-01    0.4253065553E-01    0.6954704351E+00    0.9195691963E-01    0.4510261699E-03
    0.3300000000E+05    0.1608858968E-01    0.4353757809E-01    0.6954771659E+00    0.9493952478E-01    0.4525977433E-03
    0.3500000000E+05    0.1642059675E-01    0.4446063300E-01    0.6954830426E+00    0.9776151576E-01    0.4540816650E-03
    0.3700000000E+05    0.1672466369E-01    0.4530842800E-01    0.6954882078E+00    0.1004372028E+00    0.4554874422E-03
    0.3900000000E+05    0.1700360635E-01    0.4608846943E-01    0.6954927747E+00    0.1029791873E+00    0.4568231023E-03
    0.4100000000E+05    0.1725988884E-01    0.4680733080E-01    0.6954968340E+00    0.1053986128E+00    0.4580954867E-03
    0.4300000000E+05    0.1749567602E-01    0.4747079143E-01    0.6955004592E+00    0.1077053726E+00    0.4593104737E-03
    0.4500000000E+05    0.1771287685E-01    0.4808395131E-01    0.6955037105E+00    0.1099082830E+00    0.4604731523E-03
    0.4700000000E+05    0.1791318058E-01    0.4865132669E-01    0.6955066378E+00    0.1120152279E+00    0.4615879580E-03
    0.4900000000E+05    0.1809808689E-01    0.4917693007E-01    0.6955092824E+00    0.1140332809E+00    0.4626587804E-03
    0.1000000000E+05    0.8083230814E-02    0.2170967023E-01    0.6952125558E+00    0.4222634872E-01    0.6684150027E-03
    0.3000000000E+05    0.1553099042E-01    0.4199270301E-01    0.6954666941E+00    0.9040037377E-01    0.4502040451E-03
    0.5000000000E+05    0.1818518918E-01    0.4942520022E-01    0.6955105098E+00    0.1150109875E+00    0.4631787857E-03
    0.7000000000E+05    0.1937626849E-01    0.5288781273E-01    0.6955263317E+00    0.1311515967E+00    0.4719243209E-03
    0.9000000000E+05    0.1992945952E-01    0.5459611570E-01    0.6955334641E+00    0.1429087433E+00    0.4785625215E-03
    0.1100000000E+06    0.2016298318E-01    0.5541169093E-01    0.6955369367E+00    0.1520460146E+00    0.4839293208E-03
    0.1300000000E+06    0.2022191390E-01    0.5573087115E-01    0.6955385952E+00    0.1594636881E+00    0.4884425735E-03
    0.1500000000E+06    0.2018012974E-01    0.5575745385E-01    0.6955392600E+00    0.1656759628E+00    0.4923419205E-03
    0.1700000000E+06    0.2007831209E-01    0.5560485814E-01    0.6955393433E+00    0.1710012001E+00    0.4957778504E-03
    0.1900000000E+06    0.1994018826E-01    0.5534001632E-01    0.6955390711E+00    0.1756488686E+00    0.4988511897E-03
    0.2100000000E+06    0.1978020865E-01    0.5500423127E-01    0.6955385756E+00    0.1797634902E+00    0.5016328620E-03
    0.2300000000E+06    0.1960746667E-01    0.5462388580E-01    0.6955379375E+00    0.1834486459E+00    0.5041746897E-03
    0.2500000000E+06    0.1942782642E-01    0.5421628984E-01    0.6955372084E+00    0.1867809254E+00    0.5065157116E-03
    0.2700000000E+06    0.1924513623E-01    0.5379303614E-01    0.6955364221E+00    0.1898184517E+00    0.5086860830E-03
    0.2900000000E+06    0.1906194983E-01    0.5336200742E-01    0.6955356011E+00    0.1926063137E+00    0.5107095904E-03
    0.3100000000E+06    0.1887996976E-01    0.5292861915E-01    0.6955347609E+00    0.1951801542E+00    0.5126053339E-03
    0.3300000000E+06    0.1870032813E-01    0.5249661222E-01    0.6955339122E+00    0.1975686107E+00    0.5143888864E-03
    0.3500000000E+06    0.1852376874E-01    0.5206857129E-01    0.6955330623E+00    0.1997950222E+00    0.5160731152E-03
    0.3700000000E+06    0.1835076785E-01    0.5164627135E-01    0.6955322164E+00    0.2018786492E+00    0.5176687769E-03
    0.3900000000E+06    0.1818161567E-01    0.5123091380E-01    0.6955313783E+00    0.2038355635E+00    0.5191849566E-03
    0.4100000000E+06    0.1801647224E-01    0.5082328997E-01    0.6955305503E+00    0.2056793100E+00    0.5206293987E-03
    0.4300000000E+06    0.1785540627E-01    0.5042389596E-01    0.6955297343E+00    0.2074214059E+00    0.5220087592E-03
    0.4500000000E+06    0.1769842241E-01    0.5003301446E-01    0.6955289313E+00    0.2090717231E+00    0.5233288014E-03
    0.4700000000E+06    0.1754548070E-01    0.4965077346E-01    0.6955281421E+00    0.2106387849E+00    0.5245945493E-03
    0.4900000000E+06    0.1739651033E-01    0.4927718895E-01    0.6955273671E+00    0.2121299995E+00    0.5258104092E-03
    0.1000000000E+06    0.2007473979E-01    0.5508432191E-01    0.6955355060E+00    0.1477361201E+00    0.4813729183E-03
    0.3000000000E+06    0.1897072738E-01    0.5314534228E-01    0.6955351827E+00    0.1939180555E+00    0.5116723876E-03
    0.5000000000E+06    0.1732348638E-01    0.4909362514E-01    0.6955269849E+00    0.2128492206E+00    0.5264008637E-03
    0.7000000000E+06    0.1604475993E-01    0.4583928538E-01    0.6955200692E+00    0.2244695775E+00    0.5363326622E-03
    0.9000000000E+06    0.1503791999E-01    0.4323250816E-01    0.6955143245E+00    0.2327021620E+00    0.5438726991E-03
    0.1100000000E+07    0.1421996919E-01    0.4109047102E-01    0.6955094467E+00    0.2389948471E+00    0.5499692495E-03
    0.1300000000E+07    0.1353757560E-01    0.3928811656E-01    0.6955052161E+00    0.2440390766E+00    0.5550965338E-03
    0.1500000000E+07    0.1295609546E-01    0.3774180765E-01    0.6955014826E+00    0.2482173062E+00    0.5595265921E-03
    0.1700000000E+07    0.1245215120E-01    0.3639408330E-01    0.6954981415E+00    0.2517624633E+00    0.5634302895E-03
    0.1900000000E+07    0.1200936424E-01    0.3520417196E-01    0.6954951175E+00    0.2548264557E+00    0.5669221195E-03
    0.2100000000E+07    0.1161587712E-01    0.3414226918E-01    0.6954923549E+00    0.2575135704E+00    0.5700826274E-03
    0.2300000000E+07    0.1126286213E-01    0.3318601237E-01    0.6954898116E+00    0.2598983250E+00    0.5729706703E-03
    0.2500000000E+07    0.1094358881E-01    0.3231824069E-01    0.6954874547E+00    0.2620357034E+00    0.5756305890E-03
    0.2700000000E+07    0.1065281996E-01    0.3152552628E-01    0.6954852583E+00    0.2639673610E+00    0.5780966360E-03
    0.2900000000E+07    0.1038640788E-01    0.3079718315E-01    0.6954832014E+00    0.2657255596E+00    0.5803958309E-03
    0.3100000000E+07    0.1014101697E-01    0.3012458061E-01    0.6954812671E+00    0.2673357591E+00    0.5825498703E-03
    0.3300000000E+07    0.9913928344E-02    0.2950065662E-01    0.6954794413E+00    0.2688183782E+00    0.5845764451E-03
    0.3500000000E+07    0.9702899303E-02    0.2891956563E-01    0.6954777122E+00    0.2701900237E+00    0.5864901727E-03
    0.3700000000E+07    0.9506060206E-02    0.2837641899E-01    0.6954760698E+00    0.2714643704E+00    0.5883032730E-03
    0.3900000000E+07    0.9321837571E-02    0.2786709036E-01    0.6954745057E+00    0.2726528016E+00    0.5900260673E-03
    0.4100000000E+07    0.9148895796E-02    0.2738806775E-01    0.6954730125E+00    0.2737648862E+00    0.5916673539E-03
    0.4300000000E+07    0.8986092397E-02    0.2693633939E-01    0.6954715840E+00    0.2748087384E+00    0.5932346946E-03
    0.4500000000E+07    0.8832443183E-02    0.2650930470E-01    0.6954702146E+00    0.2757912931E+00    0.5947346371E-03
    0.4700000000E+07    0.8687094865E-02    0.2610470401E-01    0.6954688996E+00    0.2767185203E+00    0.5961728894E-03
    0.4900000000E+07    0.8549303275E-02    0.2572056251E-01    0.6954676346E+00    0.2775955923E+00    0.5975544578E-03
    0.1000000000E+07    0.1460922069E-01    0.4211240767E-01    0.6955117929E+00    0.2360375640E+00    0.5470651786E-03
    0.3000000000E+07    0.1026126730E-01    0.3045438779E-01    0.6954822199E+00    0.2665477814E+00    0.5814898079E-03
    0.5000000000E+07    0.8483034163E-02    0.2553561345E-01    0.6954670197E+00    0.2780167520E+00    0.5982253859E-03
    0.7000000000E+07    0.7431315473E-02    0.2258241044E-01    0.6954566261E+00    0.2846490098E+00    0.6095108780E-03
    0.9000000000E+07    0.6710662925E-02    0.2053833879E-01    0.6954486840E+00    0.2891453632E+00    0.6180786857E-03
    0.1100000000E+08    0.6175040417E-02    0.1900750030E-01    0.6954422379E+00    0.2924668688E+00    0.6250062740E-03
    0.1300000000E+08    0.5755696677E-02    0.1780165703E-01    0.6954368031E+00    0.2950572266E+00    0.6308324835E-03
    0.1500000000E+08    0.5415271947E-02    0.1681774625E-01    0.6954320991E+00    0.2971546001E+00    0.6358664291E-03
    0.1700000000E+08    0.5131418453E-02    0.1599374164E-01    0.6954279486E+00    0.2989002475E+00    0.6403022640E-03
    0.1900000000E+08    0.4889810224E-02    0.1528967768E-01    0.6954242322E+00    0.3003841590E+00    0.6442700873E-03
    0.2100000000E+08    0.4680769357E-02    0.1467843641E-01    0.6954208657E+00    0.3016668389E+00    0.6478614234E-03
    0.2300000000E+08    0.4497483219E-02    0.1414085446E-01    0.6954177874E+00    0.3027907188E+00    0.6511431522E-03
    0.2500000000E+08    0.4334994170E-02    0.1366293815E-01    0.6954149507E+00    0.3037865841E+00    0.6541656588E-03
    0.2700000000E+08    0.4189594278E-02    0.1323418862E-01    0.6954123196E+00    0.3046774028E+00    0.6569678650E-03
