  Pressure (Pa) 22mC5-500 (mol/kg) 23mC5-500 (mol/kg) 24mC5-500 (mol/kg) 2mC6-500 (mol/kg) C7-500 (mol/kg)
    0.1000000000E+01    0.2017471291E-05    0.1157538152E-05    0.1741016138E+00    0.1026497571E-04    0.4216120134E-02
    0.3000000000E+01    0.3730553541E-05    0.2132807815E-05    0.3480977904E+00    0.1796015808E-04    0.4272261376E-02
    0.5000000000E+01    0.4441614379E-05    0.2534075599E-05    0.4350579000E+00    0.2093317053E-04    0.4300389682E-02
    0.7000000000E+01    0.4820908122E-05    0.2747331296E-05    0.4872224382E+00    0.2269729205E-04    0.4317678251E-02
    0.9000000000E+01    0.5064564438E-05    0.2884710439E-05    0.5219942029E+00    0.2412042187E-04    0.4329504950E-02
    0.1100000000E+02    0.5246184281E-05    0.2987958788E-05    0.5468290013E+00    0.2546788151E-04    0.4338169348E-02
    0.1300000000E+02    0.5397785330E-05    0.3075071983E-05    0.5654539348E+00    0.2682787002E-04    0.4344828068E-02
    0.1500000000E+02    0.5534701124E-05    0.3154576694E-05    0.5799393096E+00    0.2822857725E-04    0.4350129140E-02
    0.1700000000E+02    0.5664763348E-05    0.3230771617E-05    0.5915271768E+00    0.2967630445E-04    0.4354465095E-02
    0.1900000000E+02    0.5792142543E-05    0.3305908212E-05    0.6010078688E+00    0.3116927723E-04    0.4358088236E-02
    0.2100000000E+02    0.5919110713E-05    0.3381185846E-05    0.6089082408E+00    0.3270298901E-04    0.4361168498E-02
    0.2300000000E+02    0.6046909673E-05    0.3457239015E-05    0.6155930205E+00    0.3427232650E-04    0.4363824752E-02
    0.2500000000E+02    0.6176203279E-05    0.3534389337E-05    0.6213227172E+00    0.3587239914E-04    0.4366142796E-02
    0.2700000000E+02    0.6307323561E-05    0.3612781644E-05    0.6262883646E+00    0.3749882875E-04    0.4368186205E-02
    0.2900000000E+02    0.6440409480E-05    0.3692460026E-05    0.6306332337E+00    0.3914781304E-04    0.4370003159E-02
    0.3100000000E+02    0.6575487362E-05    0.3773411451E-05    0.6344668824E+00    0.4081609782E-04    0.4371630884E-02
    0.3300000000E+02    0.6712518529E-05    0.3855591286E-05    0.6378745203E+00    0.4250091673E-04    0.4373098633E-02
    0.3500000000E+02    0.6851427952E-05    0.3938938408E-05    0.6409234171E+00    0.4419992391E-04    0.4374429737E-02
    0.3700000000E+02    0.6992121649E-05    0.4023384214E-05    0.6436673876E+00    0.4591113019E-04    0.4375643052E-02
    0.3900000000E+02    0.7134497283E-05    0.4108857975E-05    0.6461499956E+00    0.4763284664E-04    0.4376753996E-02
    0.4100000000E+02    0.7278450589E-05    0.4195289962E-05    0.6484068836E+00    0.4936363622E-04    0.4377775312E-02
    0.4300000000E+02    0.7423879202E-05    0.4282613227E-05    0.6504674954E+00    0.5110227309E-04    0.4378717629E-02
    0.4500000000E+02    0.7570684865E-05    0.4370764538E-05    0.6523563669E+00    0.5284770869E-04    0.4379589895E-02
    0.4700000000E+02    0.7718774621E-05    0.4459684807E-05    0.6540941083E+00    0.5459904357E-04    0.4380399697E-02
    0.4900000000E+02    0.7868061358E-05    0.4549319205E-05    0.6556981586E+00    0.5635550401E-04    0.4381153519E-02
    0.1000000000E+02    0.5160565423E-05    0.2939156297E-05    0.5353670089E+00    0.2479594100E-04    0.4334143665E-02
    0.3000000000E+02    0.6507700725E-05    0.3732778872E-05    0.6326081508E+00    0.3997972640E-04    0.4370838687E-02
    0.5000000000E+02    0.7943128014E-05    0.4594388216E-05    0.6564547795E+00    0.5723544408E-04    0.4381511211E-02
    0.7000000000E+02    0.9490665728E-05    0.5522992678E-05    0.6672334676E+00    0.7498258331E-04    0.4386744192E-02
    0.9000000000E+02    0.1109660068E-04    0.6485552471E-05    0.6733754762E+00    0.9284990108E-04    0.4389780747E-02
    0.1100000000E+03    0.1273623855E-04    0.7467391655E-05    0.6773428813E+00    0.1107407661E-03    0.4391664492E-02
    0.1300000000E+03    0.1439761306E-04    0.8461529062E-05    0.6801167695E+00    0.1286308356E-03    0.4392848339E-02
    0.1500000000E+03    0.1607448772E-04    0.9464381795E-05    0.6821652240E+00    0.1465184037E-03    0.4393565675E-02
    0.1700000000E+03    0.1776343893E-04    0.1047401384E-04    0.6837398648E+00    0.1644093081E-03    0.4393951108E-02
    0.1900000000E+03    0.1946253037E-04    0.1148935064E-04    0.6849880084E+00    0.1823116972E-03    0.4394088736E-02
    0.2100000000E+03    0.2117065943E-04    0.1250979583E-04    0.6860016381E+00    0.2002340891E-03    0.4394034324E-02
    0.2300000000E+03    0.2288721273E-04    0.1353503081E-04    0.6868411532E+00    0.2181846476E-03    0.4393826599E-02
    0.2500000000E+03    0.2461187434E-04    0.1456490416E-04    0.6875478527E+00    0.2361709397E-03    0.4393493466E-02
    0.2700000000E+03    0.2634451429E-04    0.1559936770E-04    0.6881509325E+00    0.2541998888E-03    0.4393055642E-02
    0.2900000000E+03    0.2808512119E-04    0.1663843826E-04    0.6886716163E+00    0.2722778051E-03    0.4392528897E-02
    0.3100000000E+03    0.2983376047E-04    0.1768217405E-04    0.6891257024E+00    0.2904104449E-03    0.4391925487E-02
    0.3300000000E+03    0.3159054770E-04    0.1873065984E-04    0.6895251935E+00    0.3086030747E-03    0.4391255113E-02
    0.3500000000E+03    0.3335563130E-04    0.1978399727E-04    0.6898793718E+00    0.3268605343E-03    0.4390525566E-02
    0.3700000000E+03    0.3512918112E-04    0.2084229868E-04    0.6901955284E+00    0.3451872932E-03    0.4389743194E-02
    0.3900000000E+03    0.3691138082E-04    0.2190568294E-04    0.6904794699E+00    0.3635874998E-03    0.4388913223E-02
    0.4100000000E+03    0.3870242273E-04    0.2297427270E-04    0.6907358781E+00    0.3820650247E-03    0.4388040007E-02
    0.4300000000E+03    0.4050250435E-04    0.2404819257E-04    0.6909685696E+00    0.4006234977E-03    0.4387127199E-02
    0.4500000000E+03    0.4231182605E-04    0.2512756796E-04    0.6911806870E+00    0.4192663393E-03    0.4386177893E-02
    0.4700000000E+03    0.4413058943E-04    0.2621252422E-04    0.6913748410E+00    0.4379967881E-03    0.4385194729E-02
    0.4900000000E+03    0.4595899633E-04    0.2730318620E-04    0.6915532188E+00    0.4568179243E-03    0.4384179971E-02
    0.1000000000E+03    0.1191314127E-04    0.6974609749E-05    0.6755518259E+00    0.1017947453E-03    0.4390830945E-02
    0.3000000000E+03    0.2895843050E-04    0.1715971819E-04    0.6889061596E+00    0.2813369447E-03    0.4392236118E-02
    0.5000000000E+03    0.4687687906E-04    0.2785069563E-04    0.6916370800E+00    0.4662634243E-03    0.4383661366E-02
    0.7000000000E+03    0.6578949874E-04    0.3913020972E-04    0.6928125510E+00    0.6605961822E-03    0.4371987843E-02
    0.9000000000E+03    0.8589114679E-04    0.5111685228E-04    0.6934664287E+00    0.8668523384E-03    0.4358336999E-02
    0.1100000000E+04    0.1073737340E-03    0.6392595308E-04    0.6938825983E+00    0.1087179020E-02    0.4343024390E-02
    0.1300000000E+04    0.1304375017E-03    0.7767734212E-04    0.6941706024E+00    0.1323713939E-02    0.4326118514E-02
    0.1500000000E+04    0.1553009449E-03    0.9250154816E-04    0.6943816559E+00    0.1578747893E-02    0.4307577556E-02
    0.1700000000E+04    0.1822091075E-03    0.1085448471E-03    0.6945429033E+00    0.1854830592E-02    0.4287294074E-02
    0.1900000000E+04    0.2114416593E-03    0.1259741224E-03    0.6946700709E+00    0.2154862348E-02    0.4265110860E-02
    0.2100000000E+04    0.2433217033E-03    0.1449821396E-03    0.6947728987E+00    0.2482189040E-02    0.4240825256E-02
    0.2300000000E+04    0.2782260302E-03    0.1657936746E-03    0.6948577402E+00    0.2840710334E-02    0.4214187637E-02
    0.2500000000E+04    0.3165974941E-03    0.1886729034E-03    0.6949289164E+00    0.3235009150E-02    0.4184896127E-02
    0.2700000000E+04    0.3589602534E-03    0.2139324984E-03    0.6949894680E+00    0.3670510557E-02    0.4152588193E-02
    0.2900000000E+04    0.4059387693E-03    0.2419449669E-03    0.6950415970E+00    0.4153679621E-02    0.4116829104E-02
    0.3100000000E+04    0.4582816738E-03    0.2731568938E-03    0.6950869367E+00    0.4692269934E-02    0.4077096876E-02
    0.3300000000E+04    0.5168918971E-03    0.3081069206E-03    0.6951267243E+00    0.5295637476E-02    0.4032763023E-02
    0.3500000000E+04    0.5828647804E-03    0.3474484901E-03    0.6951619141E+00    0.5975137987E-02    0.3983068255E-02
    0.3700000000E+04    0.6575362482E-03    0.3919785964E-03    0.6951932539E+00    0.6744629789E-02    0.3927092056E-02
    0.3900000000E+04    0.7425433828E-03    0.4426739398E-03    0.6952213378E+00    0.7621106988E-02    0.3863715098E-02
    0.4100000000E+04    0.8398997019E-03    0.5007358627E-03    0.6952466440E+00    0.8625487918E-02    0.3791573727E-02
    0.4300000000E+04    0.9520865926E-03    0.5676449396E-03    0.6952695615E+00    0.9783575421E-02    0.3709006757E-02
    0.4500000000E+04    0.1082159674E-02    0.6452244953E-03    0.6952904101E+00    0.1112717859E-01    0.3613997350E-02
    0.4700000000E+04    0.1233862339E-02    0.7357084425E-03    0.6953094551E+00    0.1269531908E-01    0.3504118111E-02
    0.4900000000E+04    0.1411724637E-02    0.8418004285E-03    0.6953269184E+00    0.1453530073E-01    0.3376498429E-02
    0.1000000000E+04    0.9644763152E-04    0.5741129276E-04    0.6936953318E+00    0.9751253843E-03    0.4350880676E-02
    0.3000000000E+04    0.4313872591E-03    0.2571197310E-03    0.6950650305E+00    0.4415504128E-02    0.4097496159E-02
    0.5000000000E+04    0.1512107607E-02    0.9016795149E-03    0.6953351164E+00    0.1557441104E-01    0.3305022460E-02
    0.7000000000E+04    0.5420065754E-02    0.3234280637E-02    0.6954490367E+00    0.5644951273E-01    0.8492667175E-03
    0.9000000000E+04    0.7338770388E-02    0.4383736032E-02    0.6955112796E+00    0.7772709667E-01    0.3143304584E-03
    0.1100000000E+05    0.8324682516E-02    0.4977734510E-02    0.6955502112E+00    0.8964257178E-01    0.3099118124E-03
    0.1300000000E+05    0.9152942470E-02    0.5478372481E-02    0.6955766886E+00    0.1001435678E+00    0.3126992087E-03
    0.1500000000E+05    0.9862232164E-02    0.5908506999E-02    0.6955957531E+00    0.1095702363E+00    0.3151979304E-03
    0.1700000000E+05    0.1047291097E-01    0.6280116394E-02    0.6956100602E+00    0.1180864062E+00    0.3174008072E-03
    0.1900000000E+05    0.1100100885E-01    0.6602639144E-02    0.6956211392E+00    0.1258225244E+00    0.3193709513E-03
    0.2100000000E+05    0.1145940976E-01    0.6883668593E-02    0.6956299317E+00    0.1328849719E+00    0.3211539144E-03
    0.2300000000E+05    0.1185857561E-01    0.7129376607E-02    0.6956370487E+00    0.1393614135E+00    0.3227829902E-03
    0.2500000000E+05    0.1220707893E-01    0.7344825483E-02    0.6956429033E+00    0.1453247583E+00    0.3242832516E-03
    0.2700000000E+05    0.1251200232E-01    0.7534201886E-02    0.6956477848E+00    0.1508361530E+00    0.3256740605E-03
    0.2900000000E+05    0.1277924158E-01    0.7700994550E-02    0.6956519013E+00    0.1559472735E+00    0.3269706858E-03
    0.3100000000E+05    0.1301373866E-01    0.7848130827E-02    0.6956554064E+00    0.1607020996E+00    0.3281853859E-03
    0.3300000000E+05    0.1321966235E-01    0.7978082720E-02    0.6956584160E+00    0.1651383041E+00    0.3293281535E-03
    0.3500000000E+05    0.1340054992E-01    0.8092950026E-02    0.6956610188E+00    0.1692883509E+00    0.3304072442E-03
    0.3700000000E+05    0.1355941913E-01    0.8194526115E-02    0.6956632839E+00    0.1731803708E+00    0.3314295584E-03
    0.3900000000E+05    0.1369885752E-01    0.8284350408E-02    0.6956652661E+00    0.1768388655E+00    0.3324009235E-03
    0.4100000000E+05    0.1382109419E-01    0.8363750568E-02    0.6956670090E+00    0.1802852787E+00    0.3333263065E-03
    0.4300000000E+05    0.1392805782E-01    0.8433876656E-02    0.6956685480E+00    0.1835384618E+00    0.3342099759E-03
    0.4500000000E+05    0.1402142401E-01    0.8495728987E-02    0.6956699122E+00    0.1866150575E+00    0.3350556274E-03
    0.4700000000E+05    0.1410265405E-01    0.8550180968E-02    0.6956711253E+00    0.1895298158E+00    0.3358664826E-03
    0.4900000000E+05    0.1417302691E-01    0.8597997954E-02    0.6956722072E+00    0.1922958584E+00    0.3366453666E-03
    0.1000000000E+05    0.7856903855E-02    0.4695653858E-02    0.6955327760E+00    0.8391418933E-01    0.3090732295E-03
    0.3000000000E+05    0.1290030605E-01    0.7776855635E-02    0.6956537223E+00    0.1583667351E+00    0.3275876059E-03
    0.5000000000E+05    0.1420449834E-01    0.8619631855E-02    0.6956727042E+00    0.1936268215E+00    0.3370236096E-03
    0.7000000000E+05    0.1447473062E-01    0.8830587727E-02    0.6956786593E+00    0.2147103374E+00    0.3433855423E-03
    0.9000000000E+05    0.1437599664E-01    0.8809837028E-02    0.6956807486E+00    0.2289590253E+00    0.3482150762E-03
    0.1100000000E+06    0.1413195850E-01    0.8693988434E-02    0.6956812951E+00    0.2393451106E+00    0.3521198895E-03
    0.1300000000E+06    0.1383167516E-01    0.8538433922E-02    0.6956811265E+00    0.2473144252E+00    0.3554038213E-03
    0.1500000000E+06    0.1351426109E-01    0.8368072492E-02    0.6956805986E+00    0.2536604045E+00    0.3582411533E-03
    0.1700000000E+06    0.1319780447E-01    0.8194790024E-02    0.6956798834E+00    0.2588574065E+00    0.3607413422E-03
    0.1900000000E+06    0.1289075160E-01    0.8024407746E-02    0.6956790713E+00    0.2632078144E+00    0.3629777290E-03
    0.2100000000E+06    0.1259686425E-01    0.7859741030E-02    0.6956782123E+00    0.2669142435E+00    0.3650019071E-03
    0.2300000000E+06    0.1231754461E-01    0.7702051940E-02    0.6956773354E+00    0.2701179879E+00    0.3668515761E-03
    0.2500000000E+06    0.1205298790E-01    0.7551779780E-02    0.6956764575E+00    0.2729208526E+00    0.3685551372E-03
    0.2700000000E+06    0.1180277729E-01    0.7408924899E-02    0.6956755888E+00    0.2753982162E+00    0.3701345293E-03
    0.2900000000E+06    0.1156620005E-01    0.7273256955E-02    0.6956747353E+00    0.2776071933E+00    0.3716070582E-03
    0.3100000000E+06    0.1134241814E-01    0.7144430496E-02    0.6956739003E+00    0.2795919243E+00    0.3729866206E-03
    0.3300000000E+06    0.1113056066E-01    0.7022049913E-02    0.6956730859E+00    0.2813871129E+00    0.3742845471E-03
    0.3500000000E+06    0.1092977323E-01    0.6905705993E-02    0.6956722928E+00    0.2830204563E+00    0.3755101998E-03
    0.3700000000E+06    0.1073924328E-01    0.6794996214E-02    0.6956715213E+00    0.2845143544E+00    0.3766714052E-03
    0.3900000000E+06    0.1055821169E-01    0.6689535618E-02    0.6956707711E+00    0.2858871380E+00    0.3777747739E-03
    0.4100000000E+06    0.1038597689E-01    0.6588962159E-02    0.6956700418E+00    0.2871539667E+00    0.3788259408E-03
    0.4300000000E+06    0.1022189460E-01    0.6492938828E-02    0.6956693327E+00    0.2883274971E+00    0.3798297491E-03
    0.4500000000E+06    0.1006537537E-01    0.6401153927E-02    0.6956686433E+00    0.2894183871E+00    0.3807903922E-03
    0.4700000000E+06    0.9915881007E-02    0.6313320282E-02    0.6956679727E+00    0.2904356822E+00    0.3817115260E-03
    0.4900000000E+06    0.9772920489E-02    0.6229173907E-02    0.6956673201E+00    0.2913871140E+00    0.3825963566E-03
    0.1000000000E+06    0.1426484933E-01    0.8759289359E-02    0.6956811461E+00    0.2345231343E+00    0.3502598581E-03
    0.3000000000E+06    0.1145276408E-01    0.7208012619E-02    0.6956743153E+00    0.2786252322E+00    0.3723076999E-03
    0.5000000000E+06    0.9703748871E-02    0.6188406900E-02    0.6956670003E+00    0.2918402467E+00    0.3830260551E-03
    0.7000000000E+06    0.8573578613E-02    0.5517584746E-02    0.6956613803E+00    0.2986599098E+00    0.3902539101E-03
    0.9000000000E+06    0.7769805993E-02    0.5035147707E-02    0.6956568692E+00    0.3029506847E+00    0.3957412382E-03
    0.1100000000E+07    0.7160571830E-02    0.4666490562E-02    0.6956531069E+00    0.3059513994E+00    0.4001780961E-03
    0.1300000000E+07    0.6678026339E-02    0.4372617279E-02    0.6956498795E+00    0.3081935556E+00    0.4039095801E-03
    0.1500000000E+07    0.6283396291E-02    0.4131009642E-02    0.6956470525E+00    0.3099468524E+00    0.4071336603E-03
    0.1700000000E+07    0.5952731570E-02    0.3927649169E-02    0.6956445362E+00    0.3113641553E+00    0.4099746809E-03
    0.1900000000E+07    0.5670336971E-02    0.3753291636E-02    0.6956422680E+00    0.3125392271E+00    0.4125159629E-03
    0.2100000000E+07    0.5425439813E-02    0.3601559039E-02    0.6956402026E+00    0.3135330965E+00    0.4148161226E-03
    0.2300000000E+07    0.5210366242E-02    0.3467887766E-02    0.6956383059E+00    0.3143873707E+00    0.4169179928E-03
    0.2500000000E+07    0.5019480760E-02    0.3348913325E-02    0.6956365520E+00    0.3151314926E+00    0.4188538427E-03
    0.2700000000E+07    0.4848538217E-02    0.3242092495E-02    0.6956349204E+00    0.3157869441E+00    0.4206485996E-03
    0.2900000000E+07    0.4694271148E-02    0.3145461667E-02    0.6956333947E+00    0.3163698048E+00    0.4223219270E-03
    0.3100000000E+07    0.4554117685E-02    0.3057476902E-02    0.6956319618E+00    0.3168923755E+00    0.4238896148E-03
    0.3300000000E+07    0.4426036707E-02    0.2976904896E-02    0.6956306108E+00    0.3173642434E+00    0.4253645376E-03
    0.3500000000E+07    0.4308378985E-02    0.2902746748E-02    0.6956293326E+00    0.3177930031E+00    0.4267573335E-03
    0.3700000000E+07    0.4199795301E-02    0.2834183452E-02    0.6956281196E+00    0.3181847575E+00    0.4280768956E-03
    0.3900000000E+07    0.4099169630E-02    0.2770536145E-02    0.6956269652E+00    0.3185444726E+00    0.4293307354E-03
    0.4100000000E+07    0.4005569664E-02    0.2711236615E-02    0.6956258640E+00    0.3188762351E+00    0.4305252558E-03
    0.4300000000E+07    0.3918209609E-02    0.2655805067E-02    0.6956248112E+00    0.3191834422E+00    0.4316659603E-03
    0.4500000000E+07    0.3836421801E-02    0.2603833131E-02    0.6956238025E+00    0.3194689436E+00    0.4327576139E-03
    0.4700000000E+07    0.3759634771E-02    0.2554970702E-02    0.6956228343E+00    0.3197351496E+00    0.4338043707E-03
    0.4900000000E+07    0.3687356103E-02    0.2508915636E-02    0.6956219034E+00    0.3199841141E+00    0.4348098741E-03
    0.1000000000E+07    0.7446049136E-02    0.4839562084E-02    0.6956549103E+00    0.3045701526E+00    0.3980646099E-03
    0.3000000000E+07    0.4622568264E-02    0.3100471868E-02    0.6956326674E+00    0.3166379734E+00    0.4231181119E-03
    0.5000000000E+07    0.3652771746E-02    0.2486857516E-02    0.6956214511E+00    0.3201026915E+00    0.4352981750E-03
    0.7000000000E+07    0.3118784052E-02    0.2144418664E-02    0.6956138178E+00    0.3218895997E+00    0.4435117830E-03
    0.9000000000E+07    0.2768279872E-02    0.1917575211E-02    0.6956079979E+00    0.3230192356E+00    0.4497474993E-03
    0.1100000000E+08    0.2515407704E-02    0.1752770732E-02    0.6956032804E+00    0.3238138545E+00    0.4547894796E-03
    0.1300000000E+08    0.2321793155E-02    0.1625870666E-02    0.6955993065E+00    0.3244110915E+00    0.4590298828E-03
    0.1500000000E+08    0.2167346800E-02    0.1524160294E-02    0.6955958691E+00    0.3248807307E+00    0.4626936786E-03
    0.1700000000E+08    0.2040391703E-02    0.1440210846E-02    0.6955928375E+00    0.3252623622E+00    0.4659221695E-03
    0.1900000000E+08    0.1933613218E-02    0.1369348298E-02    0.6955901239E+00    0.3255803131E+00    0.4688100407E-03
    0.2100000000E+08    0.1842163584E-02    0.1308463080E-02    0.6955876666E+00    0.3258504531E+00    0.4714239030E-03
    0.2300000000E+08    0.1762685198E-02    0.1255394169E-02    0.6955854201E+00    0.3260836290E+00    0.4738124313E-03
    0.2500000000E+08    0.1692768657E-02    0.1208586098E-02    0.6955833503E+00    0.3262875361E+00    0.4760122958E-03
    0.2700000000E+08    0.1630633856E-02    0.1166886490E-02    0.6955814309E+00    0.3264678041E+00    0.4780518236E-03
