  Pressure (Pa) 22mC5-500 (mol/kg) 23mC5-500 (mol/kg) 24mC5-500 (mol/kg) 2mC6-500 (mol/kg) C7-500 (mol/kg)
    0.1000000000E+01    0.2355289585E-05    0.2705533804E-05    0.9949337853E-01    0.1522899643E-04    0.4223302844E-02
    0.3000000000E+01    0.5209090131E-05    0.5969154958E-05    0.2320780971E+00    0.3227132189E-04    0.4306189004E-02
    0.5000000000E+01    0.6827757210E-05    0.7809842509E-05    0.3164083152E+00    0.4111091543E-04    0.4358587288E-02
    0.7000000000E+01    0.7838366938E-05    0.8953246963E-05    0.3747727003E+00    0.4630185798E-04    0.4395284439E-02
    0.9000000000E+01    0.8515592973E-05    0.9716232936E-05    0.4175643713E+00    0.4970704371E-04    0.4422562301E-02
    0.1100000000E+02    0.8996235874E-05    0.1025610408E-04    0.4502826286E+00    0.5218852848E-04    0.4443712718E-02
    0.1300000000E+02    0.9354757838E-05    0.1065819015E-04    0.4761100637E+00    0.5417931930E-04    0.4460641481E-02
    0.1500000000E+02    0.9634444081E-05    0.1097191414E-04    0.4970162938E+00    0.5590982509E-04    0.4474531837E-02
    0.1700000000E+02    0.9861762808E-05    0.1122738115E-04    0.5142855726E+00    0.5750772904E-04    0.4486158654E-02
    0.1900000000E+02    0.1005355977E-04    0.1144367292E-04    0.5287910437E+00    0.5904572653E-04    0.4496051323E-02
    0.2100000000E+02    0.1022090790E-04    0.1163327684E-04    0.5411470575E+00    0.6056581854E-04    0.4504584250E-02
    0.2300000000E+02    0.1037127975E-04    0.1180457985E-04    0.5517984396E+00    0.6209230806E-04    0.4512029967E-02
    0.2500000000E+02    0.1050982860E-04    0.1196333574E-04    0.5610751914E+00    0.6363904022E-04    0.4518591750E-02
    0.2700000000E+02    0.1064017227E-04    0.1211356095E-04    0.5692272952E+00    0.6521357149E-04    0.4524424427E-02
    0.2900000000E+02    0.1076488824E-04    0.1225809877E-04    0.5764475824E+00    0.6681963628E-04    0.4529648082E-02
    0.3100000000E+02    0.1088583470E-04    0.1239898453E-04    0.5828871825E+00    0.6845863861E-04    0.4534357349E-02
    0.3300000000E+02    0.1100436401E-04    0.1253768755E-04    0.5886662190E+00    0.7013056992E-04    0.4538627861E-02
    0.3500000000E+02    0.1112146732E-04    0.1267527473E-04    0.5938813727E+00    0.7183458132E-04    0.4542520825E-02
    0.3700000000E+02    0.1123787455E-04    0.1281252327E-04    0.5986113343E+00    0.7356934344E-04    0.4546086335E-02
    0.3900000000E+02    0.1135412452E-04    0.1294999949E-04    0.6029208036E+00    0.7533327362E-04    0.4549365802E-02
    0.4100000000E+02    0.1147061485E-04    0.1308811474E-04    0.6068634659E+00    0.7712467931E-04    0.4552393776E-02
    0.4300000000E+02    0.1158763803E-04    0.1322716571E-04    0.6104842407E+00    0.7894184763E-04    0.4555199323E-02
    0.4500000000E+02    0.1170540766E-04    0.1336736358E-04    0.6138210004E+00    0.8078310044E-04    0.4557807082E-02
    0.4700000000E+02    0.1182407783E-04    0.1350885553E-04    0.6169059004E+00    0.8264682688E-04    0.4560238088E-02
    0.4900000000E+02    0.1194375751E-04    0.1365174060E-04    0.6197664184E+00    0.8453150155E-04    0.4562510410E-02
    0.1000000000E+02    0.8774856722E-05    0.1000759876E-04    0.4349464458E+00    0.5102969155E-04    0.4433762088E-02
    0.3000000000E+02    0.1082573824E-04    0.1232889528E-04    0.5797568348E+00    0.6763499567E-04    0.4532061902E-02
    0.5000000000E+02    0.1200400035E-04    0.1372372635E-04    0.6211200475E+00    0.8548124341E-04    0.4563592030E-02
    0.7000000000E+02    0.1326931343E-04    0.1524082816E-04    0.6407113002E+00    0.1052800240E-03    0.4579764426E-02
    0.9000000000E+02    0.1463878100E-04    0.1688619311E-04    0.6521386447E+00    0.1260810352E-03    0.4589710426E-02
    0.1100000000E+03    0.1608738134E-04    0.1862639440E-04    0.6596249374E+00    0.1474478009E-03    0.4596426502E-02
    0.1300000000E+03    0.1759521195E-04    0.2043664405E-04    0.6649089431E+00    0.1691748874E-03    0.4601211648E-02
    0.1500000000E+03    0.1914884427E-04    0.2230063381E-04    0.6688377347E+00    0.1911590986E-03    0.4604730000E-02
    0.1700000000E+03    0.2073931356E-04    0.2420763483E-04    0.6718733442E+00    0.2133461200E-03    0.4607360715E-02
    0.1900000000E+03    0.2236053968E-04    0.2615044679E-04    0.6742892147E+00    0.2357067415E-03    0.4609338114E-02
    0.2100000000E+03    0.2400831700E-04    0.2812413198E-04    0.6762575112E+00    0.2582254130E-03    0.4610815931E-02
    0.2300000000E+03    0.2567968438E-04    0.3012524057E-04    0.6778920357E+00    0.2808943629E-03    0.4611899851E-02
    0.2500000000E+03    0.2737252728E-04    0.3215132742E-04    0.6792710255E+00    0.3037104087E-03    0.4612665302E-02
    0.2700000000E+03    0.2908532102E-04    0.3420064300E-04    0.6804500395E+00    0.3266731491E-03    0.4613167795E-02
    0.2900000000E+03    0.3081696087E-04    0.3627193043E-04    0.6814696198E+00    0.3497839019E-03    0.4613449242E-02
    0.3100000000E+03    0.3256664718E-04    0.3836428896E-04    0.6823600440E+00    0.3730450615E-03    0.4613541979E-02
    0.3300000000E+03    0.3433380598E-04    0.4047708013E-04    0.6831443801E+00    0.3964597017E-03    0.4613471420E-02
    0.3500000000E+03    0.3611803297E-04    0.4260986189E-04    0.6838405122E+00    0.4200313242E-03    0.4613257858E-02
    0.3700000000E+03    0.3791905340E-04    0.4476234155E-04    0.6844625185E+00    0.4437636989E-03    0.4612917724E-02
    0.3900000000E+03    0.3973669283E-04    0.4693434166E-04    0.6850216332E+00    0.4676607607E-03    0.4612464487E-02
    0.4100000000E+03    0.4157085545E-04    0.4912577486E-04    0.6855269296E+00    0.4917265423E-03    0.4611909303E-02
    0.4300000000E+03    0.4342150795E-04    0.5133662507E-04    0.6859858162E+00    0.5159651320E-03    0.4611261502E-02
    0.4500000000E+03    0.4528866725E-04    0.5356693338E-04    0.6864044013E+00    0.5403806461E-03    0.4610528953E-02
    0.4700000000E+03    0.4717239107E-04    0.5581678719E-04    0.6867877667E+00    0.5649772124E-03    0.4609718343E-02
    0.4900000000E+03    0.4907277073E-04    0.5808631193E-04    0.6871401744E+00    0.5897589601E-03    0.4608835391E-02
    0.1000000000E+03    0.1535460733E-04    0.1774622389E-04    0.6562349924E+00    0.1367098984E-03    0.4593369419E-02
    0.3000000000E+03    0.3168958863E-04    0.3731552098E-04    0.6819293933E+00    0.3613955012E-03    0.4613517473E-02
    0.5000000000E+03    0.5002924280E-04    0.5922849887E-04    0.6873059167E+00    0.6022205665E-03    0.4608368351E-02
    0.7000000000E+03    0.7007358101E-04    0.8315608814E-04    0.6896334499E+00    0.8621838593E-03    0.4596125096E-02
    0.9000000000E+03    0.9202367026E-04    0.1093473739E-03    0.6909317517E+00    0.1145438020E-02    0.4579597205E-02
    0.1100000000E+04    0.1161779685E-03    0.1381621411E-03    0.6917594419E+00    0.1456397689E-02    0.4559553500E-02
    0.1300000000E+04    0.1429031889E-03    0.1700396805E-03    0.6923328762E+00    0.1800052779E-02    0.4536138295E-02
    0.1500000000E+04    0.1726426693E-03    0.2055098639E-03    0.6927534430E+00    0.2182261314E-02    0.4509203752E-02
    0.1700000000E+04    0.2059352497E-03    0.2452160844E-03    0.6930749659E+00    0.2610059119E-02    0.4478410015E-02
    0.1900000000E+04    0.2434417885E-03    0.2899470798E-03    0.6933286654E+00    0.3092030944E-02    0.4443250995E-02
    0.2100000000E+04    0.2859806439E-03    0.3406793615E-03    0.6935338946E+00    0.3638783782E-02    0.4403047066E-02
    0.2300000000E+04    0.3345750628E-03    0.3986338120E-03    0.6937032878E+00    0.4263568907E-02    0.4356916793E-02
    0.2500000000E+04    0.3905167868E-03    0.4653516162E-03    0.6938454424E+00    0.4983112284E-02    0.4303730050E-02
    0.2700000000E+04    0.4554517677E-03    0.5427965735E-03    0.6939664118E+00    0.5818732052E-02    0.4242040739E-02
    0.2900000000E+04    0.5314956857E-03    0.6334929820E-03    0.6940705808E+00    0.6797845094E-02    0.4169994957E-02
    0.3100000000E+04    0.6213885227E-03    0.7407101540E-03    0.6941612039E+00    0.7955985821E-02    0.4085209603E-02
    0.3300000000E+04    0.7286972425E-03    0.8687043918E-03    0.6942407467E+00    0.9339459729E-02    0.3984618160E-02
    0.3500000000E+04    0.8580695321E-03    0.1023022001E-02    0.6943111116E+00    0.1100867903E-01    0.3864288794E-02
    0.3700000000E+04    0.1015519398E-02    0.1210840508E-02    0.6943737897E+00    0.1304194682E-01    0.3719244525E-02
    0.3900000000E+04    0.1208664310E-02    0.1441252413E-02    0.6944299660E+00    0.1553867391E-01    0.3543376236E-02
    0.4100000000E+04    0.1446689011E-02    0.1725223360E-02    0.6944805944E+00    0.1861914910E-01    0.3329673116E-02
    0.4300000000E+04    0.1739521961E-02    0.2074611587E-02    0.6945264512E+00    0.2241423333E-01    0.3071242392E-02
    0.4500000000E+04    0.2095290406E-02    0.2499134141E-02    0.6945681746E+00    0.2703284609E-01    0.2763899892E-02
    0.4700000000E+04    0.2515008850E-02    0.3000031428E-02    0.6946062941E+00    0.3249346618E-01    0.2411028168E-02
    0.4900000000E+04    0.2985080350E-02    0.3561118007E-02    0.6946412525E+00    0.3862654501E-01    0.2029662310E-02
    0.1000000000E+04    0.1038040021E-03    0.1234012822E-03    0.6913868669E+00    0.1297159753E-02    0.4569996910E-02
    0.3000000000E+04    0.5745101707E-03    0.6847968509E-03    0.6941174161E+00    0.7351931210E-02    0.4129368337E-02
    0.5000000000E+04    0.3229462768E-02    0.3852866245E-02    0.6946576654E+00    0.4182369014E-01    0.1838076609E-02
    0.7000000000E+04    0.5734572853E-02    0.6850363861E-02    0.6948858722E+00    0.7582496169E-01    0.5895064138E-03
    0.9000000000E+04    0.6707672481E-02    0.8023154385E-02    0.6950107015E+00    0.9056848868E-01    0.5892827295E-03
    0.1100000000E+05    0.7493618137E-02    0.8974271282E-02    0.6950888618E+00    0.1032140668E+00    0.5958872303E-03
    0.1300000000E+05    0.8141714378E-02    0.9761894062E-02    0.6951420729E+00    0.1142876517E+00    0.6014675282E-03
    0.1500000000E+05    0.8680271081E-02    0.1041934975E-01    0.6951804257E+00    0.1240758391E+00    0.6062857654E-03
    0.1700000000E+05    0.9130614580E-02    0.1097177351E-01    0.6952092374E+00    0.1327983925E+00    0.6105293009E-03
    0.1900000000E+05    0.9509110616E-02    0.1143847770E-01    0.6952315717E+00    0.1406271289E+00    0.6143235965E-03
    0.2100000000E+05    0.9828502213E-02    0.1183451868E-01    0.6952493160E+00    0.1476983748E+00    0.6177567895E-03
    0.2300000000E+05    0.1009884038E-01    0.1217178739E-01    0.6952636950E+00    0.1541217226E+00    0.6208932128E-03
    0.2500000000E+05    0.1032814465E-01    0.1245978396E-01    0.6952755373E+00    0.1599863098E+00    0.6237812891E-03
    0.2700000000E+05    0.1052288026E-01    0.1270617752E-01    0.6952854229E+00    0.1653654048E+00    0.6264583965E-03
    0.2900000000E+05    0.1068830834E-01    0.1291721744E-01    0.6952937699E+00    0.1703198081E+00    0.6289540018E-03
    0.3100000000E+05    0.1082874660E-01    0.1309803966E-01    0.6953008866E+00    0.1749004129E+00    0.6312917548E-03
    0.3300000000E+05    0.1094776600E-01    0.1325289789E-01    0.6953070054E+00    0.1791501574E+00    0.6334909298E-03
    0.3500000000E+05    0.1104834084E-01    0.1338534026E-01    0.6953123047E+00    0.1831055315E+00    0.6355674468E-03
    0.3700000000E+05    0.1113296455E-01    0.1349834567E-01    0.6953169234E+00    0.1867977524E+00    0.6375346099E-03
    0.3900000000E+05    0.1120373994E-01    0.1359443012E-01    0.6953209714E+00    0.1902536915E+00    0.6394036530E-03
    0.4100000000E+05    0.1126245018E-01    0.1367573048E-01    0.6953245368E+00    0.1934966107E+00    0.6411841494E-03
    0.4300000000E+05    0.1131061512E-01    0.1374407091E-01    0.6953276906E+00    0.1965467545E+00    0.6428843256E-03
    0.4500000000E+05    0.1134953629E-01    0.1380101605E-01    0.6953304912E+00    0.1994218281E+00    0.6445113028E-03
    0.4700000000E+05    0.1138033320E-01    0.1384791390E-01    0.6953329864E+00    0.2021373867E+00    0.6460712881E-03
    0.4900000000E+05    0.1140397270E-01    0.1388593059E-01    0.6953352164E+00    0.2047071559E+00    0.6475697244E-03
    0.1000000000E+05    0.7120002513E-02    0.8521650955E-02    0.6950538485E+00    0.9710911812E-01    0.5927268660E-03
    0.3000000000E+05    0.1076141246E-01    0.1301112152E-01    0.6952974660E+00    0.1726539847E+00    0.6301413163E-03
    0.5000000000E+05    0.1141337482E-01    0.1390193031E-01    0.6953362425E+00    0.2059412242E+00    0.6482973841E-03
    0.7000000000E+05    0.1137939973E-01    0.1394205029E-01    0.6953486860E+00    0.2252965884E+00    0.6605352307E-03
    0.9000000000E+05    0.1113973488E-01    0.1371495470E-01    0.6953532623E+00    0.2382031358E+00    0.6698241626E-03
    0.1100000000E+06    0.1083804820E-01    0.1339915156E-01    0.6953546729E+00    0.2475440723E+00    0.6773339606E-03
    0.1300000000E+06    0.1052535534E-01    0.1305997793E-01    0.6953546003E+00    0.2546829919E+00    0.6836493548E-03
    0.1500000000E+06    0.1022112649E-01    0.1272354210E-01    0.6953537712E+00    0.2603550544E+00    0.6891056886E-03
    0.1700000000E+06    0.9932638475E-02    0.1240044385E-01    0.6953525396E+00    0.2649945892E+00    0.6939135485E-03
    0.1900000000E+06    0.9662091347E-02    0.1209462853E-01    0.6953510923E+00    0.2688761741E+00    0.6982140254E-03
    0.2100000000E+06    0.9409503379E-02    0.1180705401E-01    0.6953495339E+00    0.2721826964E+00    0.7021063660E-03
    0.2300000000E+06    0.9173971975E-02    0.1153732398E-01    0.6953479253E+00    0.2750411322E+00    0.7056630874E-03
    0.2500000000E+06    0.8954246751E-02    0.1128445239E-01    0.6953463028E+00    0.2775426692E+00    0.7089388180E-03
    0.2700000000E+06    0.8748994696E-02    0.1104723192E-01    0.6953446886E+00    0.2797546569E+00    0.7119757551E-03
    0.2900000000E+06    0.8556921281E-02    0.1082441314E-01    0.6953430961E+00    0.2817280291E+00    0.7148071839E-03
    0.3100000000E+06    0.8376822238E-02    0.1061478984E-01    0.6953415334E+00    0.2835020926E+00    0.7174598316E-03
    0.3300000000E+06    0.8207601577E-02    0.1041723697E-01    0.6953400052E+00    0.2851077167E+00    0.7199554898E-03
    0.3500000000E+06    0.8048273300E-02    0.1023072441E-01    0.6953385138E+00    0.2865695177E+00    0.7223121641E-03
    0.3700000000E+06    0.7897955559E-02    0.1005431837E-01    0.6953370604E+00    0.2879073914E+00    0.7245449064E-03
    0.3900000000E+06    0.7755861715E-02    0.9887177020E-02    0.6953356451E+00    0.2891376119E+00    0.7266664296E-03
    0.4100000000E+06    0.7621290490E-02    0.9728543313E-02    0.6953342675E+00    0.2902736336E+00    0.7286875706E-03
    0.4300000000E+06    0.7493616342E-02    0.9577737046E-02    0.6953329266E+00    0.2913266869E+00    0.7306176432E-03
    0.4500000000E+06    0.7372280524E-02    0.9434146860E-02    0.6953316215E+00    0.2923062279E+00    0.7324647121E-03
    0.4700000000E+06    0.7256783042E-02    0.9297222723E-02    0.6953303509E+00    0.2932202812E+00    0.7342358073E-03
    0.4900000000E+06    0.7146675535E-02    0.9166469052E-02    0.6953291136E+00    0.2940757064E+00    0.7359370949E-03
    0.1000000000E+06    0.1099233495E-01    0.1356267348E-01    0.6953542239E+00    0.2432132787E+00    0.6737567744E-03
    0.3000000000E+06    0.8465446072E-02    0.1071802451E-01    0.6953423107E+00    0.2826378768E+00    0.7161543931E-03
    0.5000000000E+06    0.7093515472E-02    0.9103264626E-02    0.6953285070E+00    0.2944833104E+00    0.7367632855E-03
    0.7000000000E+06    0.6234339417E-02    0.8074896908E-02    0.6953178182E+00    0.3006355321E+00    0.7506602333E-03
    0.9000000000E+06    0.5632284761E-02    0.7346537248E-02    0.6953092123E+00    0.3045274123E+00    0.7612104461E-03
    0.1100000000E+07    0.5179939848E-02    0.6794961055E-02    0.6953020227E+00    0.3072615355E+00    0.7697408375E-03
    0.1300000000E+07    0.4823753006E-02    0.6357910263E-02    0.6952958489E+00    0.3093124018E+00    0.7769149759E-03
    0.1500000000E+07    0.4533682613E-02    0.6000134047E-02    0.6952904372E+00    0.3109215009E+00    0.7831135201E-03
    0.1700000000E+07    0.4291399231E-02    0.5699971000E-02    0.6952856177E+00    0.3122260857E+00    0.7885755566E-03
    0.1900000000E+07    0.4084996983E-02    0.5443269342E-02    0.6952812718E+00    0.3133105554E+00    0.7934612918E-03
    0.2100000000E+07    0.3906358675E-02    0.5220333522E-02    0.6952773130E+00    0.3142299722E+00    0.7978834296E-03
    0.2300000000E+07    0.3749732453E-02    0.5024264271E-02    0.6952736768E+00    0.3150219562E+00    0.8019243257E-03
    0.2500000000E+07    0.3610912233E-02    0.4849997707E-02    0.6952703135E+00    0.3157131818E+00    0.8056460244E-03
    0.2700000000E+07    0.3486740739E-02    0.4693720043E-02    0.6952671842E+00    0.3163231471E+00    0.8090964532E-03
    0.2900000000E+07    0.3374795012E-02    0.4552495730E-02    0.6952642577E+00    0.3168664723E+00    0.8123134192E-03
    0.3100000000E+07    0.3273180103E-02    0.4424022660E-02    0.6952615088E+00    0.3173543596E+00    0.8153272811E-03
    0.3300000000E+07    0.3180389533E-02    0.4306466068E-02    0.6952589166E+00    0.3177955536E+00    0.8181627926E-03
    0.3500000000E+07    0.3095208374E-02    0.4198342840E-02    0.6952564639E+00    0.3181969914E+00    0.8208404071E-03
    0.3700000000E+07    0.3016644374E-02    0.4098439070E-02    0.6952541360E+00    0.3185642550E+00    0.8233772229E-03
    0.3900000000E+07    0.2943877990E-02    0.4005750125E-02    0.6952519206E+00    0.3189018925E+00    0.8257876820E-03
    0.4100000000E+07    0.2876225505E-02    0.3919436278E-02    0.6952498070E+00    0.3192136514E+00    0.8280840950E-03
    0.4300000000E+07    0.2813111334E-02    0.3838789352E-02    0.6952477861E+00    0.3195026505E+00    0.8302770428E-03
    0.4500000000E+07    0.2754046952E-02    0.3763207266E-02    0.6952458498E+00    0.3197715090E+00    0.8323756871E-03
    0.4700000000E+07    0.2698614630E-02    0.3692174369E-02    0.6952439913E+00    0.3200224445E+00    0.8343880145E-03
    0.4900000000E+07    0.2646454746E-02    0.3625246066E-02    0.6952422042E+00    0.3202573488E+00    0.8363210300E-03
    0.1000000000E+07    0.5391511158E-02    0.7053418056E-02    0.6953054699E+00    0.3060015977E+00    0.7656774212E-03
    0.3000000000E+07    0.3322798164E-02    0.4486789364E-02    0.6952628624E+00    0.3171167504E+00    0.8138440771E-03
    0.5000000000E+07    0.2621502968E-02    0.3593198584E-02    0.6952413358E+00    0.3203693060E+00    0.8372597552E-03
    0.7000000000E+07    0.2236705653E-02    0.3096291928E-02    0.6952266786E+00    0.3220628268E+00    0.8530496913E-03
    0.9000000000E+07    0.1984554090E-02    0.2767690503E-02    0.6952155008E+00    0.3231402033E+00    0.8650370972E-03
    0.1100000000E+08    0.1802820621E-02    0.2529201900E-02    0.6952064391E+00    0.3239016090E+00    0.8747295602E-03
    0.1300000000E+08    0.1663766640E-02    0.2345689586E-02    0.6951988050E+00    0.3244759892E+00    0.8828810196E-03
    0.1500000000E+08    0.1552895745E-02    0.2198675786E-02    0.6951922010E+00    0.3249290155E+00    0.8899239824E-03
    0.1700000000E+08    0.1461792020E-02    0.2077377958E-02    0.6951863764E+00    0.3252980808E+00    0.8961301023E-03
    0.1900000000E+08    0.1385188232E-02    0.1975018150E-02    0.6951811627E+00    0.3256062326E+00    0.9016814095E-03
    0.2100000000E+08    0.1319595908E-02    0.1887090249E-02    0.6951764411E+00    0.3258685461E+00    0.9067059612E-03
    0.2300000000E+08    0.1262600201E-02    0.1810464439E-02    0.6951721247E+00    0.3260953485E+00    0.9112973327E-03
    0.2500000000E+08    0.1212468987E-02    0.1742888959E-02    0.6951681476E+00    0.3262939819E+00    0.9155260205E-03
    0.2700000000E+08    0.1167923011E-02    0.1682696207E-02    0.6951644593E+00    0.3264698273E+00    0.9194464816E-03
