  Pressure (Pa) 22mC5-500 (mol/kg) 23mC5-500 (mol/kg) 24mC5-500 (mol/kg) 2mC6-500 (mol/kg) C7-500 (mol/kg)
    0.1000000000E+01    0.2143984851E-05    0.2462057773E-05    0.1514002149E+00    0.1938621000E-04    0.4181367430E-02
    0.3000000000E+01    0.4179265028E-05    0.4784060472E-05    0.3164781077E+00    0.3593318253E-04    0.4213019025E-02
    0.5000000000E+01    0.5111594000E-05    0.5839907528E-05    0.4047418856E+00    0.4297118362E-04    0.4228045836E-02
    0.7000000000E+01    0.5633254191E-05    0.6428283855E-05    0.4596882205E+00    0.4709283754E-04    0.4237244451E-02
    0.9000000000E+01    0.5971475504E-05    0.6809853151E-05    0.4971873428E+00    0.5019739883E-04    0.4243491294E-02
    0.1100000000E+02    0.6218592743E-05    0.7089885784E-05    0.5244110298E+00    0.5294937130E-04    0.4248011256E-02
    0.1300000000E+02    0.6417461156E-05    0.7316911102E-05    0.5450739862E+00    0.5560667385E-04    0.4251426652E-02
    0.1500000000E+02    0.6589854624E-05    0.7515399895E-05    0.5612928905E+00    0.5827378394E-04    0.4254089825E-02
    0.1700000000E+02    0.6747571845E-05    0.7698498140E-05    0.5743622805E+00    0.6099202011E-04    0.4256216087E-02
    0.1900000000E+02    0.6897311290E-05    0.7873594174E-05    0.5851183900E+00    0.6377533476E-04    0.4257944808E-02
    0.2100000000E+02    0.7043004674E-05    0.8044972270E-05    0.5941254768E+00    0.6662560063E-04    0.4259370371E-02
    0.2300000000E+02    0.7187011837E-05    0.8215165318E-05    0.6017780813E+00    0.6953948112E-04    0.4260559073E-02
    0.2500000000E+02    0.7330766436E-05    0.8385682262E-05    0.6083603744E+00    0.7251161467E-04    0.4261558916E-02
    0.2700000000E+02    0.7475140500E-05    0.8557416652E-05    0.6140822290E+00    0.7553610465E-04    0.4262405551E-02
    0.2900000000E+02    0.7620657807E-05    0.8730884410E-05    0.6191020126E+00    0.7860720315E-04    0.4263126035E-02
    0.3100000000E+02    0.7767622569E-05    0.8906366322E-05    0.6235414744E+00    0.8171960335E-04    0.4263741298E-02
    0.3300000000E+02    0.7916199009E-05    0.9083995531E-05    0.6274957504E+00    0.8486854076E-04    0.4264267792E-02
    0.3500000000E+02    0.8066461579E-05    0.9263812315E-05    0.6310402590E+00    0.8804980245E-04    0.4264718644E-02
    0.3700000000E+02    0.8218427206E-05    0.9445798944E-05    0.6342355574E+00    0.9125969429E-04    0.4265104455E-02
    0.3900000000E+02    0.8372076268E-05    0.9629902119E-05    0.6371308300E+00    0.9449499131E-04    0.4265433894E-02
    0.4100000000E+02    0.8527366394E-05    0.9816047538E-05    0.6397664392E+00    0.9775288371E-04    0.4265714115E-02
    0.4300000000E+02    0.8684241586E-05    0.1000414940E-04    0.6421758178E+00    0.1010309247E-03    0.4265951083E-02
    0.4500000000E+02    0.8842638288E-05    0.1019411661E-04    0.6443868954E+00    0.1043269827E-03    0.4266149810E-02
    0.4700000000E+02    0.9002489413E-05    0.1038585676E-04    0.6464231857E+00    0.1076391986E-03    0.4266314545E-02
    0.4900000000E+02    0.9163727000E-05    0.1057927874E-04    0.6483046263E+00    0.1109659489E-03    0.4266448907E-02
    0.1000000000E+02    0.6103046819E-05    0.6958731733E-05    0.5118002192E+00    0.5159602676E-04    0.4245919525E-02
    0.3000000000E+02    0.7693946409E-05    0.8818362578E-05    0.6213878068E+00    0.8015855143E-04    0.4263445701E-02
    0.5000000000E+02    0.9244844680E-05    0.1067659270E-04    0.6491926947E+00    0.1126343236E-03    0.4266505689E-02
    0.7000000000E+02    0.1092512637E-04    0.1269210115E-04    0.6618862943E+00    0.1465018299E-03    0.4266612588E-02
    0.9000000000E+02    0.1268600207E-04    0.1480266047E-04    0.6691552480E+00    0.1809473083E-03    0.4265563719E-02
    0.1100000000E+03    0.1450066018E-04    0.1697587108E-04    0.6738646517E+00    0.2157300769E-03    0.4263923013E-02
    0.1300000000E+03    0.1635523931E-04    0.1919534501E-04    0.6771639921E+00    0.2507766208E-03    0.4261928171E-02
    0.1500000000E+03    0.1824226055E-04    0.2145237957E-04    0.6796040719E+00    0.2860707429E-03    0.4259697918E-02
    0.1700000000E+03    0.2015754537E-04    0.2374218628E-04    0.6814818704E+00    0.3216178938E-03    0.4257298505E-02
    0.1900000000E+03    0.2209872957E-04    0.2606210459E-04    0.6829716492E+00    0.3574319694E-03    0.4254769899E-02
    0.2100000000E+03    0.2406450197E-04    0.2841069742E-04    0.6841824039E+00    0.3935299918E-03    0.4252137623E-02
    0.2300000000E+03    0.2605419133E-04    0.3078726493E-04    0.6851858031E+00    0.4299298653E-03    0.4249418694E-02
    0.2500000000E+03    0.2806753076E-04    0.3319156933E-04    0.6860309069E+00    0.4666494253E-03    0.4246624829E-02
    0.2700000000E+03    0.3010451765E-04    0.3562367251E-04    0.6867524305E+00    0.5037060589E-03    0.4243764298E-02
    0.2900000000E+03    0.3216532757E-04    0.3808383680E-04    0.6873756296E+00    0.5411165851E-03    0.4240843041E-02
    0.3100000000E+03    0.3425025958E-04    0.4057246244E-04    0.6879193174E+00    0.5788972533E-03    0.4237865374E-02
    0.3300000000E+03    0.3635970082E-04    0.4309004731E-04    0.6883977952E+00    0.6170637937E-03    0.4234834452E-02
    0.3500000000E+03    0.3849410304E-04    0.4563716050E-04    0.6888221288E+00    0.6556314874E-03    0.4231752575E-02
    0.3700000000E+03    0.4065396682E-04    0.4821442457E-04    0.6892010143E+00    0.6946152420E-03    0.4228621406E-02
    0.3900000000E+03    0.4283983081E-04    0.5082250371E-04    0.6895413805E+00    0.7340296643E-03    0.4225442120E-02
    0.4100000000E+03    0.4505226439E-04    0.5346209559E-04    0.6898488157E+00    0.7738891287E-03    0.4222215515E-02
    0.4300000000E+03    0.4729186259E-04    0.5613392595E-04    0.6901278773E+00    0.8142078389E-03    0.4218942089E-02
    0.4500000000E+03    0.4955924263E-04    0.5883874483E-04    0.6903823187E+00    0.8549998834E-03    0.4215622102E-02
    0.4700000000E+03    0.5185504160E-04    0.6157732416E-04    0.6906152594E+00    0.8962792865E-03    0.4212255616E-02
    0.4900000000E+03    0.5417991486E-04    0.6435045620E-04    0.6908293134E+00    0.9380600527E-03    0.4208842536E-02
    0.1000000000E+03    0.1358767773E-04    0.1588270484E-04    0.6717372470E+00    0.1983031688E-03    0.4264798413E-02
    0.3000000000E+03    0.3320475586E-04    0.3932456276E-04    0.6876564303E+00    0.5599596570E-03    0.4239361039E-02
    0.5000000000E+03    0.5535346392E-04    0.6575023238E-04    0.6909299611E+00    0.9591428282E-03    0.4207118456E-02
    0.7000000000E+03    0.8052569316E-04    0.9577007257E-04    0.6923417998E+00    0.1410622081E-02    0.4170078103E-02
    0.9000000000E+03    0.1094998758E-03    0.1303181350E-03    0.6931282542E+00    0.1929538443E-02    0.4127586560E-02
    0.1100000000E+04    0.1432716087E-03    0.1705838761E-03    0.6936293925E+00    0.2534193889E-02    0.4078443604E-02
    0.1300000000E+04    0.1831450766E-03    0.2181236565E-03    0.6939765709E+00    0.3248239631E-02    0.4020986996E-02
    0.1500000000E+04    0.2308702596E-03    0.2750250938E-03    0.6942312481E+00    0.4103292431E-02    0.3952969762E-02
    0.1700000000E+04    0.2888442433E-03    0.3441474726E-03    0.6944260172E+00    0.5142626263E-02    0.3871333349E-02
    0.1900000000E+04    0.3604112615E-03    0.4294798355E-03    0.6945797713E+00    0.6426634103E-02    0.3771862564E-02
    0.2100000000E+04    0.4503099642E-03    0.5366747521E-03    0.6947042163E+00    0.8040968775E-02    0.3648683074E-02
    0.2300000000E+04    0.5653219692E-03    0.6738224139E-03    0.6948069918E+00    0.1010837982E-01    0.3493569152E-02
    0.2500000000E+04    0.7151301253E-03    0.8524754229E-03    0.6948932954E+00    0.1280447543E-01    0.3295121565E-02
    0.2700000000E+04    0.9131526113E-03    0.1088645918E-02    0.6949667861E+00    0.1637333647E-01    0.3038243290E-02
    0.2900000000E+04    0.1176282699E-02    0.1402499555E-02    0.6950301143E+00    0.2112390436E-01    0.2705456916E-02
    0.3100000000E+04    0.1520389330E-02    0.1812995846E-02    0.6950852468E+00    0.2735051021E-01    0.2284055833E-02
    0.3300000000E+04    0.1946211921E-02    0.2321069878E-02    0.6951336741E+00    0.3507969385E-01    0.1784718927E-02
    0.3500000000E+04    0.2417831815E-02    0.2883942972E-02    0.6951765459E+00    0.4367886014E-01    0.1265142196E-02
    0.3700000000E+04    0.2863730486E-02    0.3416344037E-02    0.6952147637E+00    0.5186527505E-01    0.8188081783E-03
    0.3900000000E+04    0.3224854266E-02    0.3847807967E-02    0.6952490437E+00    0.5856598121E-01    0.5088290169E-03
    0.4100000000E+04    0.3493003170E-02    0.4168493432E-02    0.6952799629E+00    0.6361799819E-01    0.3286790474E-03
    0.4300000000E+04    0.3692947789E-02    0.4407898299E-02    0.6953079904E+00    0.6745678836E-01    0.2355597631E-03
    0.4500000000E+04    0.3851755256E-02    0.4598283788E-02    0.6953335124E+00    0.7056523258E-01    0.1904498114E-03
    0.4700000000E+04    0.3987492827E-02    0.4761191074E-02    0.6953568490E+00    0.7326736062E-01    0.1693178727E-03
    0.4900000000E+04    0.4110160119E-02    0.4908544363E-02    0.6953782683E+00    0.7574299142E-01    0.1596203877E-03
    0.1000000000E+04    0.1257131303E-03    0.1496492571E-03    0.6934038236E+00    0.2219822838E-02    0.4103938668E-02
    0.3000000000E+04    0.1337562268E-02    0.1594887266E-02    0.6950586025E+00    0.2404024148E-01    0.2506022859E-02
    0.5000000000E+04    0.4168312678E-02    0.4978439696E-02    0.6953883309E+00    0.7692682706E-01    0.1570060537E-03
    0.7000000000E+04    0.5135993129E-02    0.6144850568E-02    0.6955288074E+00    0.9749351484E-01    0.1538237877E-03
    0.9000000000E+04    0.5870469941E-02    0.7035064657E-02    0.6956063486E+00    0.1144122383E+00    0.1559919768E-03
    0.1100000000E+05    0.6439735690E-02    0.7729150170E-02    0.6956553625E+00    0.1286571217E+00    0.1577469131E-03
    0.1300000000E+05    0.6885990936E-02    0.8276816738E-02    0.6956890611E+00    0.1408314538E+00    0.1592220144E-03
    0.1500000000E+05    0.7238775066E-02    0.8712917822E-02    0.6957135989E+00    0.1513683129E+00    0.1604960308E-03
    0.1700000000E+05    0.7519305610E-02    0.9062531050E-02    0.6957322281E+00    0.1605868545E+00    0.1616183555E-03
    0.1900000000E+05    0.7743160609E-02    0.9344101255E-02    0.6957468276E+00    0.1687275842E+00    0.1626220509E-03
    0.2100000000E+05    0.7921996123E-02    0.9571454749E-02    0.6957585582E+00    0.1759752683E+00    0.1635303578E-03
    0.2300000000E+05    0.8064678701E-02    0.9755128706E-02    0.6957681755E+00    0.1824742645E+00    0.1643602481E-03
    0.2500000000E+05    0.8178051428E-02    0.9903271276E-02    0.6957761921E+00    0.1883390458E+00    0.1651245018E-03
    0.2700000000E+05    0.8267463881E-02    0.1002226489E-01    0.6957829680E+00    0.1936615915E+00    0.1658329869E-03
    0.2900000000E+05    0.8337146127E-02    0.1011716662E-01    0.6957887632E+00    0.1985166830E+00    0.1664934851E-03
    0.3100000000E+05    0.8390477382E-02    0.1019202476E-01    0.6957937705E+00    0.2029657665E+00    0.1671122434E-03
    0.3300000000E+05    0.8430182099E-02    0.1025011023E-01    0.6957981352E+00    0.2070598167E+00    0.1676943539E-03
    0.3500000000E+05    0.8458475168E-02    0.1029408808E-01    0.6958019695E+00    0.2108414905E+00    0.1682440233E-03
    0.3700000000E+05    0.8477170840E-02    0.1032614624E-01    0.6958053610E+00    0.2143467685E+00    0.1687647677E-03
    0.3900000000E+05    0.8487765411E-02    0.1034809342E-01    0.6958083791E+00    0.2176062215E+00    0.1692595565E-03
    0.4100000000E+05    0.8491500684E-02    0.1036143435E-01    0.6958110797E+00    0.2206459973E+00    0.1697309202E-03
    0.4300000000E+05    0.8489413158E-02    0.1036742809E-01    0.6958135080E+00    0.2234885996E+00    0.1701810339E-03
    0.4500000000E+05    0.8482372504E-02    0.1036713379E-01    0.6958157013E+00    0.2261535057E+00    0.1706117804E-03
    0.4700000000E+05    0.8471111930E-02    0.1036144678E-01    0.6958176903E+00    0.2286576637E+00    0.1710248011E-03
    0.4900000000E+05    0.8456252320E-02    0.1035112731E-01    0.6958195007E+00    0.2310158930E+00    0.1714215352E-03
    0.1000000000E+05    0.6172753163E-02    0.7403090318E-02    0.6956333475E+00    0.1218263544E+00    0.1569111011E-03
    0.3000000000E+05    0.8365671913E-02    0.1015688074E-01    0.6957913553E+00    0.2007885726E+00    0.1668077400E-03
    0.5000000000E+05    0.8447641029E-02    0.1034443682E-01    0.6958203458E+00    0.2321444152E+00    0.1716141975E-03
    0.7000000000E+05    0.8179889314E-02    0.1008280371E-01    0.6958316709E+00    0.2495102600E+00    0.1748546771E-03
    0.9000000000E+05    0.7849945985E-02    0.9728238499E-02    0.6958373466E+00    0.2607404990E+00    0.1773145858E-03
    0.1100000000E+06    0.7526447161E-02    0.9369771730E-02    0.6958405622E+00    0.2686900717E+00    0.1793034771E-03
    0.1300000000E+06    0.7226965354E-02    0.9032383053E-02    0.6958425115E+00    0.2746613976E+00    0.1809761208E-03
    0.1500000000E+06    0.6954510880E-02    0.8722060313E-02    0.6958437361E+00    0.2793390151E+00    0.1824212903E-03
    0.1700000000E+06    0.6707662760E-02    0.8438616694E-02    0.6958445148E+00    0.2831195537E+00    0.1836947381E-03
    0.1900000000E+06    0.6483785248E-02    0.8179899981E-02    0.6958450041E+00    0.2862498542E+00    0.1848338208E-03
    0.2100000000E+06    0.6280111217E-02    0.7943285908E-02    0.6958452980E+00    0.2888921833E+00    0.1858648173E-03
    0.2300000000E+06    0.6094097472E-02    0.7726216482E-02    0.6958454558E+00    0.2911579349E+00    0.1868069297E-03
    0.2500000000E+06    0.5923517841E-02    0.7526379333E-02    0.6958455168E+00    0.2931263168E+00    0.1876746240E-03
    0.2700000000E+06    0.5766461595E-02    0.7341748217E-02    0.6958455073E+00    0.2948553153E+00    0.1884790744E-03
    0.2900000000E+06    0.5621300455E-02    0.7170570880E-02    0.6958454461E+00    0.2963884344E+00    0.1892290957E-03
    0.3100000000E+06    0.5486648462E-02    0.7011339191E-02    0.6958453463E+00    0.2977590039E+00    0.1899317657E-03
    0.3300000000E+06    0.5361323704E-02    0.6862755698E-02    0.6958452176E+00    0.2989930246E+00    0.1905928556E-03
    0.3500000000E+06    0.5244314807E-02    0.6723702139E-02    0.6958450672E+00    0.3001111027E+00    0.1912171340E-03
    0.3700000000E+06    0.5134752670E-02    0.6593211723E-02    0.6958449005E+00    0.3011297975E+00    0.1918085871E-03
    0.3900000000E+06    0.5031887033E-02    0.6470445508E-02    0.6958447215E+00    0.3020625811E+00    0.1923705819E-03
    0.4100000000E+06    0.4935067200E-02    0.6354672573E-02    0.6958445335E+00    0.3029205354E+00    0.1929059885E-03
    0.4300000000E+06    0.4843726208E-02    0.6245253488E-02    0.6958443388E+00    0.3037128668E+00    0.1934172736E-03
    0.4500000000E+06    0.4757367824E-02    0.6141626576E-02    0.6958441393E+00    0.3044472922E+00    0.1939065732E-03
    0.4700000000E+06    0.4675555829E-02    0.6043296479E-02    0.6958439365E+00    0.3051303328E+00    0.1943757492E-03
    0.4900000000E+06    0.4597905166E-02    0.5949824638E-02    0.6958437317E+00    0.3057675403E+00    0.1948264347E-03
    0.1000000000E+06    0.7685741190E-02    0.9547223257E-02    0.6958391642E+00    0.2650232850E+00    0.1783560833E-03
    0.3000000000E+06    0.5552739048E-02    0.7089547473E-02    0.6958454003E+00    0.2970922671E+00    0.1895859623E-03
    0.5000000000E+06    0.4560532158E-02    0.5904787057E-02    0.6958436288E+00    0.3060704706E+00    0.1950453004E-03
    0.7000000000E+06    0.3966158398E-02    0.5184083529E-02    0.6958416071E+00    0.3105864439E+00    0.1987268002E-03
    0.9000000000E+06    0.3559243492E-02    0.4685688235E-02    0.6958397780E+00    0.3133858670E+00    0.2015217831E-03
    0.1100000000E+07    0.3258012197E-02    0.4313947877E-02    0.6958381608E+00    0.3153241958E+00    0.2037817190E-03
    0.1300000000E+07    0.3023281443E-02    0.4022525019E-02    0.6958367245E+00    0.3167620883E+00    0.2056823780E-03
    0.1500000000E+07    0.2833616864E-02    0.3785868507E-02    0.6958354371E+00    0.3178802834E+00    0.2073245938E-03
    0.1700000000E+07    0.2676171124E-02    0.3588566712E-02    0.6958342723E+00    0.3187802524E+00    0.2087716997E-03
    0.1900000000E+07    0.2542710320E-02    0.3420690671E-02    0.6958332095E+00    0.3195237642E+00    0.2100661346E-03
    0.2100000000E+07    0.2427679639E-02    0.3275512202E-02    0.6958322325E+00    0.3201507738E+00    0.2112377540E-03
    0.2300000000E+07    0.2327176528E-02    0.3148286035E-02    0.6958313285E+00    0.3206883794E+00    0.2123083748E-03
    0.2500000000E+07    0.2238367506E-02    0.3035554961E-02    0.6958304874E+00    0.3211556715E+00    0.2132944328E-03
    0.2700000000E+07    0.2159138475E-02    0.2934731525E-02    0.6958297009E+00    0.3215665252E+00    0.2142086248E-03
    0.2900000000E+07    0.2087875468E-02    0.2843834841E-02    0.6958289623E+00    0.3219312916E+00    0.2150609664E-03
    0.3100000000E+07    0.2023321966E-02    0.2761318763E-02    0.6958282660E+00    0.3222578655E+00    0.2158594999E-03
    0.3300000000E+07    0.1964483041E-02    0.2685956132E-02    0.6958276074E+00    0.3225523838E+00    0.2166107831E-03
    0.3500000000E+07    0.1910559175E-02    0.2616758640E-02    0.6958269825E+00    0.3228196965E+00    0.2173202345E-03
    0.3700000000E+07    0.1860899476E-02    0.2552920049E-02    0.6958263881E+00    0.3230636926E+00    0.2179923838E-03
    0.3900000000E+07    0.1814967903E-02    0.2493775106E-02    0.6958258211E+00    0.3232875304E+00    0.2186310569E-03
    0.4100000000E+07    0.1772318424E-02    0.2438769264E-02    0.6958252792E+00    0.3234938045E+00    0.2192395152E-03
    0.4300000000E+07    0.1732576453E-02    0.2387436010E-02    0.6958247602E+00    0.3236846681E+00    0.2198205618E-03
    0.4500000000E+07    0.1695424761E-02    0.2339379621E-02    0.6958242621E+00    0.3238619249E+00    0.2203766239E-03
    0.4700000000E+07    0.1660592643E-02    0.2294261897E-02    0.6958237834E+00    0.3240270981E+00    0.2209098174E-03
    0.4900000000E+07    0.1627847488E-02    0.2251791803E-02    0.6958233225E+00    0.3241814843E+00    0.2214219980E-03
    0.1000000000E+07    0.3398451762E-02    0.4487565570E-02    0.6958389446E+00    0.3144339601E+00    0.2027052028E-03
    0.3000000000E+07    0.2054827453E-02    0.2801612323E-02    0.6958286091E+00    0.3220989342E+00    0.2154665191E-03
    0.5000000000E+07    0.1612193585E-02    0.2231469522E-02    0.6958230983E+00    0.3242549858E+00    0.2216707277E-03
    0.7000000000E+07    0.1371617602E-02    0.1917475687E-02    0.6958192980E+00    0.3253604034E+00    0.2258545796E-03
    0.9000000000E+07    0.1214789238E-02    0.1710929732E-02    0.6958163827E+00    0.3260572689E+00    0.2290309607E-03
    0.1100000000E+08    0.1102141113E-02    0.1561542441E-02    0.6958140113E+00    0.3265466966E+00    0.2315992886E-03
    0.1300000000E+08    0.1016157677E-02    0.1446876624E-02    0.6958120092E+00    0.3269141991E+00    0.2337593146E-03
    0.1500000000E+08    0.9477281894E-03    0.1355189921E-02    0.6958102745E+00    0.3272030083E+00    0.2356256309E-03
    0.1700000000E+08    0.8915817302E-03    0.1279654612E-02    0.6958087427E+00    0.3274376017E+00    0.2372702125E-03
    0.1900000000E+08    0.8444283065E-03    0.1215990661E-02    0.6958073705E+00    0.3276329980E+00    0.2387412892E-03
    0.2100000000E+08    0.8040937038E-03    0.1161358976E-02    0.6958061268E+00    0.3277989837E+00    0.2400727909E-03
    0.2300000000E+08    0.7690755640E-03    0.1113791259E-02    0.6958049892E+00    0.3279422417E+00    0.2412895112E-03
    0.2500000000E+08    0.7382979154E-03    0.1071873623E-02    0.6958039406E+00    0.3280675102E+00    0.2424101291E-03
    0.2700000000E+08    0.7109671438E-03    0.1034560390E-02    0.6958029677E+00    0.3281782535E+00    0.2434490738E-03
