  Pressure (Pa) 22mC5-500 (mol/kg) 23mC5-500 (mol/kg) 24mC5-500 (mol/kg) 2mC6-500 (mol/kg) C7-500 (mol/kg)
    0.1000000000E+01    0.2042010091E-05    0.4688479289E-05    0.1741095093E+00    0.5251740446E-05    0.4180779158E-02
    0.3000000000E+01    0.3784928741E-05    0.8660465753E-05    0.3481289240E+00    0.9244015582E-05    0.4209807326E-02
    0.5000000000E+01    0.4521231849E-05    0.1032552835E-04    0.4351061090E+00    0.1085300710E-04    0.4222756097E-02
    0.7000000000E+01    0.4923588534E-05    0.1123336660E-04    0.4872825710E+00    0.1184709507E-04    0.4230483996E-02
    0.9000000000E+01    0.5188924191E-05    0.1183441272E-04    0.5220629950E+00    0.1266405042E-04    0.4235682643E-02
    0.1100000000E+02    0.5391229131E-05    0.1229657428E-04    0.5469043510E+00    0.1343839379E-04    0.4239442238E-02
    0.1300000000E+02    0.5562747769E-05    0.1269237216E-04    0.5655344299E+00    0.1421530605E-04    0.4242298341E-02
    0.1500000000E+02    0.5718960167E-05    0.1305626089E-04    0.5800239609E+00    0.1500958104E-04    0.4244547067E-02
    0.1700000000E+02    0.5867799603E-05    0.1340567646E-04    0.5916152659E+00    0.1582485448E-04    0.4246366246E-02
    0.1900000000E+02    0.6013510739E-05    0.1374980070E-04    0.6010988575E+00    0.1666059357E-04    0.4247869486E-02
    0.2100000000E+02    0.6158421788E-05    0.1409356455E-04    0.6090017156E+00    0.1751481417E-04    0.4249132948E-02
    0.2300000000E+02    0.6303818499E-05    0.1443961032E-04    0.6156886566E+00    0.1838517032E-04    0.4250209710E-02
    0.2500000000E+02    0.6450399917E-05    0.1478930805E-04    0.6214202541E+00    0.1926938572E-04    0.4251137964E-02
    0.2700000000E+02    0.6598526826E-05    0.1514330536E-04    0.6263875904E+00    0.2016540952E-04    0.4251945933E-02
    0.2900000000E+02    0.6748362078E-05    0.1550183535E-04    0.6307339735E+00    0.2107145558E-04    0.4252654957E-02
    0.3100000000E+02    0.6899952134E-05    0.1586489373E-04    0.6345689895E+00    0.2198599385E-04    0.4253281488E-02
    0.3300000000E+02    0.7053275494E-05    0.1623234276E-04    0.6379778709E+00    0.2290772398E-04    0.4253838431E-02
    0.3500000000E+02    0.7208271936E-05    0.1660397312E-04    0.6410279053E+00    0.2383554454E-04    0.4254336059E-02
    0.3700000000E+02    0.7364860364E-05    0.1697954103E-04    0.6437729222E+00    0.2476852320E-04    0.4254782663E-02
    0.3900000000E+02    0.7522949746E-05    0.1735879041E-04    0.6462564972E+00    0.2570587014E-04    0.4255185008E-02
    0.4100000000E+02    0.7682445807E-05    0.1774146609E-04    0.6485142829E+00    0.2664691518E-04    0.4255548679E-02
    0.4300000000E+02    0.7843255064E-05    0.1812732137E-04    0.6505757311E+00    0.2759108838E-04    0.4255878328E-02
    0.4500000000E+02    0.8005287210E-05    0.1851612222E-04    0.6524653848E+00    0.2853790397E-04    0.4256177866E-02
    0.4700000000E+02    0.8168456435E-05    0.1890764927E-04    0.6542038600E+00    0.2948694684E-04    0.4256450603E-02
    0.4900000000E+02    0.8332682085E-05    0.1930169854E-04    0.6558086008E+00    0.3043786145E-04    0.4256699366E-02
    0.1000000000E+02    0.5295375339E-05    0.1207703584E-04    0.5354392913E+00    0.1305263438E-04    0.4237701029E-02
    0.3000000000E+02    0.6823937920E-05    0.1568280485E-04    0.6327095910E+00    0.2152774949E-04    0.4252977656E-02
    0.5000000000E+02    0.8415167342E-05    0.1949960948E-04    0.6565655522E+00    0.3091392352E-04    0.4256815530E-02
    0.7000000000E+02    0.1010487722E-04    0.2355197725E-04    0.6673493647E+00    0.4047877544E-04    0.4258322302E-02
    0.9000000000E+02    0.1184330198E-04    0.2771712979E-04    0.6734948055E+00    0.5005584034E-04    0.4258905176E-02
    0.1100000000E+03    0.1360769330E-04    0.3194098817E-04    0.6774647577E+00    0.5960626049E-04    0.4259011319E-02
    0.1300000000E+03    0.1538722514E-04    0.3619833774E-04    0.6802406575E+00    0.6912340699E-04    0.4258832611E-02
    0.1500000000E+03    0.1717639822E-04    0.4047659898E-04    0.6822907678E+00    0.7861000799E-04    0.4258466864E-02
    0.1700000000E+03    0.1897229648E-04    0.4476923401E-04    0.6838668125E+00    0.8807144463E-04    0.4257969899E-02
    0.1900000000E+03    0.2077334819E-04    0.4907281101E-04    0.6851161728E+00    0.9751355678E-04    0.4257376230E-02
    0.2100000000E+03    0.2257872044E-04    0.5338558526E-04    0.6861308752E+00    0.1069419063E-03    0.4256708509E-02
    0.2300000000E+03    0.2438800340E-04    0.5770676596E-04    0.6869713487E+00    0.1163615552E-03    0.4255982306E-02
    0.2500000000E+03    0.2620103673E-04    0.6203611687E-04    0.6876789141E+00    0.1257770329E-03    0.4255208727E-02
    0.2700000000E+03    0.2801781009E-04    0.6637372936E-04    0.6882827833E+00    0.1351923715E-03    0.4254395936E-02
    0.2900000000E+03    0.2983840414E-04    0.7071988913E-04    0.6888041921E+00    0.1446111619E-03    0.4253550083E-02
    0.3100000000E+03    0.3166295459E-04    0.7507499581E-04    0.6892589487E+00    0.1540366111E-03    0.4252675901E-02
    0.3300000000E+03    0.3349162984E-04    0.7943951358E-04    0.6896590632E+00    0.1634715965E-03    0.4251777096E-02
    0.3500000000E+03    0.3532461690E-04    0.8381394042E-04    0.6900138240E+00    0.1729187118E-03    0.4250856617E-02
    0.3700000000E+03    0.3716211238E-04    0.8819878884E-04    0.6903305271E+00    0.1823803080E-03    0.4249916841E-02
    0.3900000000E+03    0.3900431672E-04    0.9259457376E-04    0.6906149835E+00    0.1918585263E-03    0.4248959705E-02
    0.4100000000E+03    0.4085143052E-04    0.9700180506E-04    0.6908718782E+00    0.2013553275E-03    0.4247986806E-02
    0.4300000000E+03    0.4270365226E-04    0.1014209831E-03    0.6911050309E+00    0.2108725159E-03    0.4246999471E-02
    0.4500000000E+03    0.4456117684E-04    0.1058525960E-03    0.6913175866E+00    0.2204117596E-03    0.4245998810E-02
    0.4700000000E+03    0.4642419479E-04    0.1102971184E-03    0.6915121583E+00    0.2299746079E-03    0.4244985761E-02
    0.4900000000E+03    0.4829289182E-04    0.1147550109E-03    0.6916909350E+00    0.2395625062E-03    0.4243961120E-02
    0.1000000000E+03    0.1272310262E-04    0.2982371221E-04    0.6756725118E+00    0.5483515159E-04    0.4259002636E-02
    0.3000000000E+03    0.3075017486E-04    0.7289629617E-04    0.6890390770E+00    0.1493228671E-03    0.4253116281E-02
    0.5000000000E+03    0.4922942666E-04    0.1169891110E-03    0.6917749891E+00    0.2443662754E-03    0.4243444669E-02
    0.7000000000E+03    0.6829974800E-04    0.1624748874E-03    0.6929536346E+00    0.3420482413E-03    0.4232628412E-02
    0.9000000000E+03    0.8811730592E-04    0.2097354784E-03    0.6936098476E+00    0.4434201776E-03    0.4221043233E-02
    0.1100000000E+04    0.1088109883E-03    0.2590817340E-03    0.6940278679E+00    0.5492261467E-03    0.4208776743E-02
    0.1300000000E+04    0.1304983002E-03    0.3107955101E-03    0.6943174066E+00    0.6601049336E-03    0.4195835795E-02
    0.1500000000E+04    0.1532946091E-03    0.3651528249E-03    0.6945297719E+00    0.7766670351E-03    0.4182194567E-02
    0.1700000000E+04    0.1773185965E-03    0.4224372554E-03    0.6946921657E+00    0.8995324953E-03    0.4167809766E-02
    0.1900000000E+04    0.2026959718E-03    0.4829489638E-03    0.6948203520E+00    0.1029353947E-02    0.4152626175E-02
    0.2100000000E+04    0.2295624210E-03    0.5470118110E-03    0.6949240966E+00    0.1166833591E-02    0.4136578643E-02
    0.2300000000E+04    0.2580662753E-03    0.6149797642E-03    0.6950097720E+00    0.1312737858E-02    0.4119592537E-02
    0.2500000000E+04    0.2883711692E-03    0.6872432631E-03    0.6950817132E+00    0.1467911619E-02    0.4101583390E-02
    0.2700000000E+04    0.3206588653E-03    0.7642359721E-03    0.6951429716E+00    0.1633293064E-02    0.4082456055E-02
    0.2900000000E+04    0.3551323773E-03    0.8464422418E-03    0.6951957574E+00    0.1809930028E-02    0.4062103482E-02
    0.3100000000E+04    0.3920195116E-03    0.9344055636E-03    0.6952417108E+00    0.1998998431E-02    0.4040405170E-02
    0.3300000000E+04    0.4315769449E-03    0.1028738305E-02    0.6952820745E+00    0.2201823479E-02    0.4017225266E-02
    0.3500000000E+04    0.4740949677E-03    0.1130133032E-02    0.6953178070E+00    0.2419904303E-02    0.3992410308E-02
    0.3700000000E+04    0.5199030374E-03    0.1239375759E-02    0.6953496600E+00    0.2654942807E-02    0.3965786545E-02
    0.3900000000E+04    0.5693763099E-03    0.1357361544E-02    0.6953782306E+00    0.2908877597E-02    0.3937156783E-02
    0.4100000000E+04    0.6229433410E-03    0.1485112863E-02    0.6954039997E+00    0.3183924021E-02    0.3906296663E-02
    0.4300000000E+04    0.6810951842E-03    0.1623801329E-02    0.6954273586E+00    0.3482621476E-02    0.3872950310E-02
    0.4500000000E+04    0.7443961385E-03    0.1774773345E-02    0.6954486291E+00    0.3807889361E-02    0.3836825229E-02
    0.4700000000E+04    0.8134964316E-03    0.1939580377E-02    0.6954680780E+00    0.4163093142E-02    0.3797586351E-02
    0.4900000000E+04    0.8891471396E-03    0.2120014571E-02    0.6954859289E+00    0.4552122171E-02    0.3754849150E-02
    0.1000000000E+04    0.9834715480E-04    0.2341299410E-03    0.6938397237E+00    0.4957277086E-03    0.4214993659E-02
    0.3000000000E+04    0.3732589281E-03    0.8896677366E-03    0.6952195027E+00    0.1902831244E-02    0.4051430650E-02
    0.5000000000E+04    0.9296954256E-03    0.2216727830E-02    0.6954943150E+00    0.4760701962E-02    0.3732033062E-02
    0.7000000000E+04    0.2405468444E-02    0.5737289183E-02    0.6956113838E+00    0.1237509374E-01    0.2934525479E-02
    0.9000000000E+04    0.6340443233E-02    0.1512987281E-01    0.6956760011E+00    0.3287108382E-01    0.1054855779E-02
    0.1100000000E+05    0.9126186166E-02    0.2179272640E-01    0.6957168442E+00    0.4786083383E-01    0.1915132773E-03
    0.1300000000E+05    0.1030967450E-01    0.2463684743E-01    0.6957449243E+00    0.5471599979E-01    0.1367235858E-03
    0.1500000000E+05    0.1126080048E-01    0.2692888693E-01    0.6957653703E+00    0.6045892850E-01    0.1352501436E-03
    0.1700000000E+05    0.1210420186E-01    0.2896575562E-01    0.6957808925E+00    0.6571836987E-01    0.1360679038E-03
    0.1900000000E+05    0.1285940775E-01    0.3079359685E-01    0.6957930566E+00    0.7057962127E-01    0.1369055751E-03
    0.2100000000E+05    0.1353838172E-01    0.3244058624E-01    0.6958028301E+00    0.7509159338E-01    0.1376696221E-03
    0.2300000000E+05    0.1415088454E-01    0.3392971828E-01    0.6958108426E+00    0.7929430554E-01    0.1383680975E-03
    0.2500000000E+05    0.1470511190E-01    0.3528031245E-01    0.6958175211E+00    0.8322168121E-01    0.1390113701E-03
    0.2700000000E+05    0.1520800236E-01    0.3650873550E-01    0.6958231659E+00    0.8690272908E-01    0.1396077155E-03
    0.2900000000E+05    0.1566546740E-01    0.3762894074E-01    0.6958279935E+00    0.9036241363E-01    0.1401636784E-03
    0.3100000000E+05    0.1608257252E-01    0.3865289260E-01    0.6958321644E+00    0.9362234331E-01    0.1406845146E-03
    0.3300000000E+05    0.1646368147E-01    0.3959090503E-01    0.6958358000E+00    0.9670132186E-01    0.1411745086E-03
    0.3500000000E+05    0.1681257218E-01    0.4045191338E-01    0.6958389936E+00    0.9961579400E-01    0.1416372000E-03
    0.3700000000E+05    0.1713253057E-01    0.4124369463E-01    0.6958418182E+00    0.1023802082E+00    0.1420755475E-03
    0.3900000000E+05    0.1742642697E-01    0.4197304689E-01    0.6958443318E+00    0.1050073144E+00    0.1424920497E-03
    0.4100000000E+05    0.1769677888E-01    0.4264593679E-01    0.6958465807E+00    0.1075084092E+00    0.1428888361E-03
    0.4300000000E+05    0.1794580277E-01    0.4326762115E-01    0.6958486029E+00    0.1098935403E+00    0.1432677371E-03
    0.4500000000E+05    0.1817545705E-01    0.4384274805E-01    0.6958504292E+00    0.1121716764E+00    0.1436303371E-03
    0.4700000000E+05    0.1838747795E-01    0.4437544121E-01    0.6958520852E+00    0.1143508502E+00    0.1439780175E-03
    0.4900000000E+05    0.1858340966E-01    0.4486937082E-01    0.6958535925E+00    0.1164382797E+00    0.1443119896E-03
    0.1000000000E+05    0.8141750343E-02    0.1943484670E-01    0.6956984994E+00    0.4244412233E-01    0.3956898315E-03
    0.3000000000E+05    0.1587877725E-01    0.3815226851E-01    0.6958301527E+00    0.9201611254E-01    0.1404281998E-03
    0.5000000000E+05    0.1867577843E-01    0.4510283711E-01    0.6958542961E+00    0.1174496484E+00    0.1444741738E-03
    0.7000000000E+05    0.1994473111E-01    0.4837131180E-01    0.6958637214E+00    0.1341440868E+00    0.1472020766E-03
    0.9000000000E+05    0.2054046578E-01    0.4999628879E-01    0.6958684408E+00    0.1462898268E+00    0.1492729258E-03
    0.1100000000E+06    0.2079652218E-01    0.5077968341E-01    0.6958711114E+00    0.1557106797E+00    0.1509472756E-03
    0.1300000000E+06    0.2086611402E-01    0.5109306920E-01    0.6958727279E+00    0.1633418587E+00    0.1523554042E-03
    0.1500000000E+06    0.2082768388E-01    0.5112847468E-01    0.6958737412E+00    0.1697188118E+00    0.1535720389E-03
    0.1700000000E+06    0.2072460337E-01    0.5099316543E-01    0.6958743835E+00    0.1751734647E+00    0.1546441124E-03
    0.1900000000E+06    0.2058225241E-01    0.5075062381E-01    0.6958747852E+00    0.1799243177E+00    0.1556030715E-03
    0.2100000000E+06    0.2041613147E-01    0.5044011437E-01    0.6958750246E+00    0.1841221270E+00    0.1564710385E-03
    0.2300000000E+06    0.2023601958E-01    0.5008676667E-01    0.6958751509E+00    0.1878749100E+00    0.1572641783E-03
    0.2500000000E+06    0.2004823834E-01    0.4970709647E-01    0.6958751968E+00    0.1912624962E+00    0.1579946688E-03
    0.2700000000E+06    0.1985694651E-01    0.4931218195E-01    0.6958751844E+00    0.1943454281E+00    0.1586719169E-03
    0.2900000000E+06    0.1966491118E-01    0.4890956725E-01    0.6958751290E+00    0.1971706368E+00    0.1593033431E-03
    0.3100000000E+06    0.1947398273E-01    0.4850444322E-01    0.6958750417E+00    0.1997751911E+00    0.1598949062E-03
    0.3300000000E+06    0.1928539616E-01    0.4810040148E-01    0.6958749306E+00    0.2021888492E+00    0.1604514644E-03
    0.3500000000E+06    0.1909996685E-01    0.4769992826E-01    0.6958748015E+00    0.2044358423E+00    0.1609770322E-03
    0.3700000000E+06    0.1891822054E-01    0.4730473487E-01    0.6958746590E+00    0.2065361494E+00    0.1614749654E-03
    0.3900000000E+06    0.1874048118E-01    0.4691598315E-01    0.6958745065E+00    0.2085064272E+00    0.1619480986E-03
    0.4100000000E+06    0.1856693123E-01    0.4653444163E-01    0.6958743465E+00    0.2103607009E+00    0.1623988480E-03
    0.4300000000E+06    0.1839765366E-01    0.4616059546E-01    0.6958741810E+00    0.2121108859E+00    0.1628292901E-03
    0.4500000000E+06    0.1823266148E-01    0.4579472464E-01    0.6958740117E+00    0.2137671862E+00    0.1632412233E-03
    0.4700000000E+06    0.1807191874E-01    0.4543696029E-01    0.6958738398E+00    0.2153384047E+00    0.1636362150E-03
    0.4900000000E+06    0.1791535555E-01    0.4508732564E-01    0.6958736663E+00    0.2168321858E+00    0.1640156401E-03
    0.1000000000E+06    0.2069889209E-01    0.5046400514E-01    0.6958699508E+00    0.1512695170E+00    0.1501497092E-03
    0.3000000000E+06    0.1956921967E-01    0.4870706371E-01    0.6958750888E+00    0.1984984884E+00    0.1596037815E-03
    0.5000000000E+06    0.1783861292E-01    0.4491554224E-01    0.6958735792E+00    0.2175521578E+00    0.1641998997E-03
    0.7000000000E+06    0.1649550969E-01    0.4187223056E-01    0.6958718706E+00    0.2291399457E+00    0.1672993029E-03
    0.9000000000E+06    0.1543955209E-01    0.3943865885E-01    0.6958703278E+00    0.2372973278E+00    0.1696523660E-03
    0.1100000000E+07    0.1458306491E-01    0.3744242370E-01    0.6958689646E+00    0.2435026505E+00    0.1715549826E-03
    0.1300000000E+07    0.1386959451E-01    0.3576544756E-01    0.6958677545E+00    0.2484578527E+00    0.1731551297E-03
    0.1500000000E+07    0.1326246876E-01    0.3432879760E-01    0.6958666702E+00    0.2525493847E+00    0.1745376972E-03
    0.1700000000E+07    0.1273695605E-01    0.3307829389E-01    0.6958656893E+00    0.2560116870E+00    0.1757560044E-03
    0.1900000000E+07    0.1227574326E-01    0.3197553286E-01    0.6958647944E+00    0.2589971420E+00    0.1768457798E-03
    0.2100000000E+07    0.1186630756E-01    0.3099247087E-01    0.6958639717E+00    0.2616100563E+00    0.1778321583E-03
    0.2300000000E+07    0.1149933430E-01    0.3010808834E-01    0.6958632107E+00    0.2639247683E+00    0.1787335072E-03
    0.2500000000E+07    0.1116772811E-01    0.2930627124E-01    0.6958625025E+00    0.2659960024E+00    0.1795636638E-03
    0.2700000000E+07    0.1086597259E-01    0.2857442289E-01    0.6958618404E+00    0.2678651305E+00    0.1803333170E-03
    0.2900000000E+07    0.1058970258E-01    0.2790252786E-01    0.6958612187E+00    0.2695641337E+00    0.1810508989E-03
    0.3100000000E+07    0.1033541038E-01    0.2728250406E-01    0.6958606325E+00    0.2711182061E+00    0.1817231804E-03
    0.3300000000E+07    0.1010023900E-01    0.2670774381E-01    0.6958600781E+00    0.2725475204E+00    0.1823556824E-03
    0.3500000000E+07    0.9881833529E-02    0.2617278190E-01    0.6958595522E+00    0.2738684591E+00    0.1829529665E-03
    0.3700000000E+07    0.9678232149E-02    0.2567305115E-01    0.6958590518E+00    0.2750944934E+00    0.1835188462E-03
    0.3900000000E+07    0.9487784895E-02    0.2520469931E-01    0.6958585746E+00    0.2762368223E+00    0.1840565427E-03
    0.4100000000E+07    0.9309092133E-02    0.2476444988E-01    0.6958581184E+00    0.2773048487E+00    0.1845688015E-03
    0.4300000000E+07    0.9140957330E-02    0.2434949484E-01    0.6958576816E+00    0.2783065364E+00    0.1850579827E-03
    0.4500000000E+07    0.8982350335E-02    0.2395741104E-01    0.6958572623E+00    0.2792486848E+00    0.1855261297E-03
    0.4700000000E+07    0.8832378508E-02    0.2358609423E-01    0.6958568594E+00    0.2801371408E+00    0.1859750237E-03
    0.4900000000E+07    0.8690263779E-02    0.2323370645E-01    0.6958564715E+00    0.2809769658E+00    0.1864062271E-03
    0.1000000000E+07    0.1499048890E-01    0.3839438222E-01    0.6958696252E+00    0.2405896800E+00    0.1706486744E-03
    0.3000000000E+07    0.1046000110E-01    0.2758647520E-01    0.6958609214E+00    0.2703579243E+00    0.1813923318E-03
    0.5000000000E+07    0.8621936401E-02    0.2306409884E-01    0.6958562828E+00    0.2813800414E+00    0.1866156319E-03
    0.7000000000E+07    0.7539398731E-02    0.2036060473E-01    0.6958530841E+00    0.2877104338E+00    0.1901380091E-03
    0.9000000000E+07    0.6799680996E-02    0.1849467370E-01    0.6958506304E+00    0.2919836830E+00    0.1928122025E-03
    0.1100000000E+08    0.6250999590E-02    0.1710013702E-01    0.6958486345E+00    0.2951306812E+00    0.1949744786E-03
    0.1300000000E+08    0.5822105936E-02    0.1600342050E-01    0.6958469493E+00    0.2975791711E+00    0.1967930071E-03
    0.1500000000E+08    0.5474370158E-02    0.1510971128E-01    0.6958454892E+00    0.2995579406E+00    0.1983642622E-03
    0.1700000000E+08    0.5184726573E-02    0.1436205508E-01    0.6958441999E+00    0.3012023082E+00    0.1997488395E-03
    0.1900000000E+08    0.4938411287E-02    0.1372381163E-01    0.6958430448E+00    0.3025982827E+00    0.2009873435E-03
    0.2100000000E+08    0.4725463368E-02    0.1317015225E-01    0.6958419981E+00    0.3038035791E+00    0.2021083393E-03
    0.2300000000E+08    0.4538878754E-02    0.1268355151E-01    0.6958410405E+00    0.3048586062E+00    0.2031327009E-03
    0.2500000000E+08    0.4373565493E-02    0.1225122472E-01    0.6958401579E+00    0.3057926386E+00    0.2040761539E-03
    0.2700000000E+08    0.4225718510E-02    0.1186358867E-01    0.6958393389E+00    0.3066274894E+00    0.2049508463E-03
