  Pressure (Pa) 22mC5-500 (mol/kg) 23mC5-500 (mol/kg) 24mC5-500 (mol/kg) 2mC6-500 (mol/kg) C7-500 (mol/kg)
    0.1000000000E+01    0.2270274836E-05    0.4564851067E-05    0.1266306311E+00    0.1777794165E-04    0.4169515973E-02
    0.3000000000E+01    0.4692415986E-05    0.9408569255E-05    0.2785166310E+00    0.3507919126E-04    0.4198083538E-02
    0.5000000000E+01    0.5922720514E-05    0.1185339560E-04    0.3664180427E+00    0.4320140823E-04    0.4211147459E-02
    0.7000000000E+01    0.6647631114E-05    0.1328748101E-04    0.4237336549E+00    0.4795049599E-04    0.4219267659E-02
    0.9000000000E+01    0.7124119995E-05    0.1422822884E-04    0.4640621705E+00    0.5129813310E-04    0.4224858052E-02
    0.1100000000E+02    0.7466640320E-05    0.1490502977E-04    0.4939811829E+00    0.5403313130E-04    0.4228941821E-02
    0.1300000000E+02    0.7732296882E-05    0.1543177252E-04    0.5170605156E+00    0.5650419724E-04    0.4232046682E-02
    0.1500000000E+02    0.7951967481E-05    0.1586971200E-04    0.5354050920E+00    0.5887528399E-04    0.4234476414E-02
    0.1700000000E+02    0.8143374455E-05    0.1625380163E-04    0.5503364467E+00    0.6122600242E-04    0.4236419414E-02
    0.1900000000E+02    0.8317162789E-05    0.1660490186E-04    0.5627261515E+00    0.6359510448E-04    0.4237999164E-02
    0.2100000000E+02    0.8479955479E-05    0.1693589836E-04    0.5731723031E+00    0.6600072186E-04    0.4239300169E-02
    0.2300000000E+02    0.8635987217E-05    0.1725496299E-04    0.5820989847E+00    0.6845031732E-04    0.4240382309E-02
    0.2500000000E+02    0.8788022813E-05    0.1756738076E-04    0.5898152611E+00    0.7094578645E-04    0.4241289256E-02
    0.2700000000E+02    0.8937895368E-05    0.1787661665E-04    0.5965516976E+00    0.7348615513E-04    0.4242053647E-02
    0.2900000000E+02    0.9086832771E-05    0.1818496035E-04    0.6024837947E+00    0.7606903586E-04    0.4242700380E-02
    0.3100000000E+02    0.9235661724E-05    0.1849392752E-04    0.6077475010E+00    0.7869142269E-04    0.4243248799E-02
    0.3300000000E+02    0.9384938484E-05    0.1880451589E-04    0.6124497610E+00    0.8135012452E-04    0.4243714165E-02
    0.3500000000E+02    0.9535034486E-05    0.1911737215E-04    0.6166758587E+00    0.8404199721E-04    0.4244108692E-02
    0.3700000000E+02    0.9686193483E-05    0.1943290277E-04    0.6204946371E+00    0.8676406245E-04    0.4244442274E-02
    0.3900000000E+02    0.9838570295E-05    0.1975134877E-04    0.6239622781E+00    0.8951356247E-04    0.4244723014E-02
    0.4100000000E+02    0.9992257465E-05    0.2007283686E-04    0.6271250852E+00    0.9228797889E-04    0.4244957617E-02
    0.4300000000E+02    0.1014730382E-04    0.2039741477E-04    0.6300215634E+00    0.9508503162E-04    0.4245151678E-02
    0.4500000000E+02    0.1030372749E-04    0.2072507590E-04    0.6326839943E+00    0.9790266736E-04    0.4245309907E-02
    0.4700000000E+02    0.1046152523E-04    0.2105577674E-04    0.6351396452E+00    0.1007390430E-03    0.4245436299E-02
    0.4900000000E+02    0.1062067895E-04    0.2138944912E-04    0.6374117058E+00    0.1035925072E-03    0.4245534264E-02
    0.1000000000E+02    0.7307710234E-05    0.1459080258E-04    0.4800535736E+00    0.5271425061E-04    0.4227048090E-02
    0.3000000000E+02    0.9161220873E-05    0.1833929379E-04    0.6051919314E+00    0.7737548956E-04    0.4242985843E-02
    0.5000000000E+02    0.1070075581E-04    0.2155737379E-04    0.6384852057E+00    0.1050251792E-03    0.4245573517E-02
    0.7000000000E+02    0.1236443680E-04    0.2504865002E-04    0.6539035406E+00    0.1342914490E-03    0.4245399407E-02
    0.9000000000E+02    0.1412043112E-04    0.2873338208E-04    0.6627958798E+00    0.1642841004E-03    0.4244155887E-02
    0.1100000000E+03    0.1594073216E-04    0.3255059876E-04    0.6685818506E+00    0.1946881212E-03    0.4242373113E-02
    0.1300000000E+03    0.1780884031E-04    0.3646548507E-04    0.6726471428E+00    0.2253838332E-03    0.4240272948E-02
    0.1500000000E+03    0.1971510152E-04    0.4045802286E-04    0.6756599560E+00    0.2563259717E-03    0.4237965187E-02
    0.1700000000E+03    0.2165372201E-04    0.4451635949E-04    0.6779821604E+00    0.2875006437E-03    0.4235510481E-02
    0.1900000000E+03    0.2362115025E-04    0.4863332162E-04    0.6798267897E+00    0.3189081091E-03    0.4232945032E-02
    0.2100000000E+03    0.2561519061E-04    0.5280453697E-04    0.6813274269E+00    0.3505552506E-03    0.4230291709E-02
    0.2300000000E+03    0.2763449946E-04    0.5702737879E-04    0.6825720844E+00    0.3824520633E-03    0.4227565588E-02
    0.2500000000E+03    0.2967828729E-04    0.6130034716E-04    0.6836211093E+00    0.4146099450E-03    0.4224776934E-02
    0.2700000000E+03    0.3174613606E-04    0.6562269257E-04    0.6845172619E+00    0.4470408430E-03    0.4221932904E-02
    0.2900000000E+03    0.3383788367E-04    0.6999417926E-04    0.6852916869E+00    0.4797568282E-03    0.4219038577E-02
    0.3100000000E+03    0.3595354883E-04    0.7441493218E-04    0.6859676071E+00    0.5127698886E-03    0.4216097593E-02
    0.3300000000E+03    0.3809328096E-04    0.7888533560E-04    0.6865626914E+00    0.5460918382E-03    0.4213112571E-02
    0.3500000000E+03    0.4025732618E-04    0.8340596457E-04    0.6870906211E+00    0.5797342872E-03    0.4210085393E-02
    0.3700000000E+03    0.4244600368E-04    0.8797753775E-04    0.6875621555E+00    0.6137086448E-03    0.4207017387E-02
    0.3900000000E+03    0.4465968926E-04    0.9260088441E-04    0.6879858717E+00    0.6480261381E-03    0.4203909470E-02
    0.4100000000E+03    0.4689880347E-04    0.9727692116E-04    0.6883686916E+00    0.6826978393E-03    0.4200762235E-02
    0.4300000000E+03    0.4916380321E-04    0.1020066353E-03    0.6887162626E+00    0.7177346959E-03    0.4197576029E-02
    0.4500000000E+03    0.5145517565E-04    0.1067910731E-03    0.6890332381E+00    0.7531475615E-03    0.4194351001E-02
    0.4700000000E+03    0.5377343370E-04    0.1116313307E-03    0.6893234870E+00    0.7889472254E-03    0.4191087139E-02
    0.4900000000E+03    0.5611911290E-04    0.1165285487E-03    0.6895902521E+00    0.8251444416E-03    0.4187784302E-02
    0.1000000000E+03    0.1502378299E-04    0.3062806150E-04    0.6659656936E+00    0.1794447310E-03    0.4243314194E-02
    0.3000000000E+03    0.3489271982E-04    0.7219837857E-04    0.6856407470E+00    0.4962254810E-03    0.4217573733E-02
    0.5000000000E+03    0.5730240836E-04    0.1189988851E-03    0.6897157011E+00    0.8433954892E-03    0.4186118194E-02
    0.7000000000E+03    0.8255441403E-04    0.1717055922E-03    0.6914766044E+00    0.1231951715E-02    0.4150645426E-02
    0.9000000000E+03    0.1113028843E-03    0.2316960545E-03    0.6924585253E+00    0.1673270782E-02    0.4110586317E-02
    0.1100000000E+04    0.1443838869E-03    0.3007198350E-03    0.6930846622E+00    0.2180686962E-02    0.4064967914E-02
    0.1300000000E+04    0.1828698201E-03    0.3810172020E-03    0.6935186761E+00    0.2770932447E-02    0.4012493664E-02
    0.1500000000E+04    0.2281624607E-03    0.4755148331E-03    0.6938371994E+00    0.3465731946E-02    0.3951466614E-02
    0.1700000000E+04    0.2821268338E-03    0.5881058215E-03    0.6940808949E+00    0.4293930948E-02    0.3879647788E-02
    0.1900000000E+04    0.3472842625E-03    0.7240529534E-03    0.6942733433E+00    0.5294514544E-02    0.3794047409E-02
    0.2100000000E+04    0.4270914892E-03    0.8905716245E-03    0.6944291602E+00    0.6520958878E-02    0.3690628787E-02
    0.2300000000E+04    0.5263386677E-03    0.1097661040E-02    0.6945578867E+00    0.8047442869E-02    0.3563902679E-02
    0.2500000000E+04    0.6516901174E-03    0.1359233818E-02    0.6946660159E+00    0.9977320275E-02    0.3406414383E-02
    0.2700000000E+04    0.8123257319E-03    0.1694456587E-02    0.6947581197E+00    0.1245325744E-01    0.3208229911E-02
    0.2900000000E+04    0.1020398919E-02    0.2128709358E-02    0.6948375103E+00    0.1566474423E-01    0.2956851418E-02
    0.3100000000E+04    0.1290343886E-02    0.2692146099E-02    0.6949066465E+00    0.1983816358E-01    0.2638812811E-02
    0.3300000000E+04    0.1634668002E-02    0.3410921938E-02    0.6949673915E+00    0.2517289102E-01    0.2245672599E-02
    0.3500000000E+04    0.2052905198E-02    0.4284143350E-02    0.6950211830E+00    0.3167134884E-01    0.1787435322E-02
    0.3700000000E+04    0.2516047738E-02    0.5251359654E-02    0.6950691481E+00    0.3889660866E-01    0.1308311419E-02
    0.3900000000E+04    0.2965942213E-02    0.6191251535E-02    0.6951121830E+00    0.4595690035E-01    0.8806124148E-03
    0.4100000000E+04    0.3347608909E-02    0.6989041131E-02    0.6951510091E+00    0.5199950150E-01    0.5618451986E-03
    0.4300000000E+04    0.3643119383E-02    0.7607224528E-02    0.6951862137E+00    0.5673720422E-01    0.3596549125E-03
    0.4500000000E+04    0.3867282678E-02    0.8076630598E-02    0.6952182796E+00    0.6038920591E-01    0.2454388471E-03
    0.4700000000E+04    0.4043897486E-02    0.8446883831E-02    0.6952476076E+00    0.6331757905E-01    0.1852964007E-03
    0.4900000000E+04    0.4191883444E-02    0.8757451589E-02    0.6952745331E+00    0.6581217359E-01    0.1548178636E-03
    0.1000000000E+04    0.1272412564E-03    0.2649522157E-03    0.6928027829E+00    0.1917767500E-02    0.4088544933E-02
    0.3000000000E+04    0.1146721473E-02    0.2392365492E-02    0.6948732322E+00    0.1761675592E-01    0.2806926916E-02
    0.5000000000E+04    0.4259062302E-02    0.8898535911E-02    0.6952871851E+00    0.6695708356E-01    0.1459279283E-03
    0.7000000000E+04    0.5305855233E-02    0.1110347761E-01    0.6954640268E+00    0.8562244615E-01    0.1266237014E-03
    0.9000000000E+04    0.6103692819E-02    0.1279246678E-01    0.6955619005E+00    0.1009418675E+00    0.1283888854E-03
    0.1100000000E+05    0.6733584371E-02    0.1413285534E-01    0.6956239310E+00    0.1139607521E+00    0.1298346452E-03
    0.1300000000E+05    0.7236682647E-02    0.1520943997E-01    0.6956666934E+00    0.1251806169E+00    0.1310497055E-03
    0.1500000000E+05    0.7642178191E-02    0.1608245734E-01    0.6956979156E+00    0.1349652769E+00    0.1320990088E-03
    0.1700000000E+05    0.7971301151E-02    0.1679578429E-01    0.6957216849E+00    0.1435854829E+00    0.1330232977E-03
    0.1900000000E+05    0.8239817200E-02    0.1738205528E-01    0.6957403647E+00    0.1512470252E+00    0.1338498360E-03
    0.2100000000E+05    0.8459647483E-02    0.1786598646E-01    0.6957554165E+00    0.1581092118E+00    0.1345977841E-03
    0.2300000000E+05    0.8639949765E-02    0.1826659602E-01    0.6957677922E+00    0.1642973648E+00    0.1352811318E-03
    0.2500000000E+05    0.8787857784E-02    0.1859872385E-01    0.6957781382E+00    0.1699114801E+00    0.1359104116E-03
    0.2700000000E+05    0.8908997861E-02    0.1887409429E-01    0.6957869091E+00    0.1750323605E+00    0.1364937555E-03
    0.2900000000E+05    0.9007856817E-02    0.1910207370E-01    0.6957944332E+00    0.1797260431E+00    0.1370375755E-03
    0.3100000000E+05    0.9088048522E-02    0.1929021979E-01    0.6958009542E+00    0.1840470508E+00    0.1375470184E-03
    0.3300000000E+05    0.9152509987E-02    0.1944468616E-01    0.6958066562E+00    0.1880408176E+00    0.1380262795E-03
    0.3500000000E+05    0.9203647647E-02    0.1957052429E-01    0.6958116811E+00    0.1917455236E+00    0.1384788243E-03
    0.3700000000E+05    0.9243447875E-02    0.1967191200E-01    0.6958161400E+00    0.1951935003E+00    0.1389075491E-03
    0.3900000000E+05    0.9273561437E-02    0.1975232815E-01    0.6958201210E+00    0.1984123202E+00    0.1393148999E-03
    0.4100000000E+05    0.9295368721E-02    0.1981468774E-01    0.6958236949E+00    0.2014256501E+00    0.1397029610E-03
    0.4300000000E+05    0.9310030614E-02    0.1986144735E-01    0.6958269195E+00    0.2042539262E+00    0.1400735239E-03
    0.4500000000E+05    0.9318528532E-02    0.1989468826E-01    0.6958298419E+00    0.2069148938E+00    0.1404281394E-03
    0.4700000000E+05    0.9321696185E-02    0.1991618238E-01    0.6958325014E+00    0.2094240404E+00    0.1407681591E-03
    0.4900000000E+05    0.9320244981E-02    0.1992744513E-01    0.6958349306E+00    0.2117949486E+00    0.1410947687E-03
    0.1000000000E+05    0.6436717770E-02    0.1350023437E-01    0.6955960491E+00    0.1077036175E+00    0.1291461000E-03
    0.3000000000E+05    0.9050088567E-02    0.1920071236E-01    0.6957978065E+00    0.1819301026E+00    0.1372963125E-03
    0.5000000000E+05    0.9317981297E-02    0.1992965381E-01    0.6958360677E+00    0.2129323588E+00    0.1412533762E-03
    0.7000000000E+05    0.9139702580E-02    0.1967153022E-01    0.6958515765E+00    0.2306925037E+00    0.1439210050E-03
    0.9000000000E+05    0.8854596592E-02    0.1915623023E-01    0.6958596927E+00    0.2424843793E+00    0.1459459856E-03
    0.1100000000E+06    0.8552753173E-02    0.1858414683E-01    0.6958645355E+00    0.2510152385E+00    0.1475831980E-03
    0.1300000000E+06    0.8261912649E-02    0.1802037260E-01    0.6958676627E+00    0.2575432822E+00    0.1489600663E-03
    0.1500000000E+06    0.7990405023E-02    0.1748670325E-01    0.6958697891E+00    0.2627403430E+00    0.1501496756E-03
    0.1700000000E+06    0.7739801066E-02    0.1698925444E-01    0.6958712864E+00    0.2670011642E+00    0.1511979242E-03
    0.1900000000E+06    0.7509241072E-02    0.1652813389E-01    0.6958723661E+00    0.2705745282E+00    0.1521355652E-03
    0.2100000000E+06    0.7297056638E-02    0.1610117913E-01    0.6958731567E+00    0.2736258728E+00    0.1529842319E-03
    0.2300000000E+06    0.7101406174E-02    0.1570548895E-01    0.6958737404E+00    0.2762699817E+00    0.1537597315E-03
    0.2500000000E+06    0.6920522525E-02    0.1533806475E-01    0.6958741722E+00    0.2785892819E+00    0.1544739723E-03
    0.2700000000E+06    0.6752800741E-02    0.1499607218E-01    0.6958744898E+00    0.2806446737E+00    0.1551361530E-03
    0.2900000000E+06    0.6596818825E-02    0.1467693549E-01    0.6958747202E+00    0.2824822434E+00    0.1557535297E-03
    0.3100000000E+06    0.6451331001E-02    0.1437835772E-01    0.6958748829E+00    0.2841375861E+00    0.1563319288E-03
    0.3300000000E+06    0.6315250790E-02    0.1409830885E-01    0.6958749924E+00    0.2856386831E+00    0.1568761009E-03
    0.3500000000E+06    0.6187631483E-02    0.1383500147E-01    0.6958750595E+00    0.2870078709E+00    0.1573899715E-03
    0.3700000000E+06    0.6067647212E-02    0.1358686309E-01    0.6958750927E+00    0.2882632229E+00    0.1578768217E-03
    0.3900000000E+06    0.5954575886E-02    0.1335250909E-01    0.6958750985E+00    0.2894195392E+00    0.1583394233E-03
    0.4100000000E+06    0.5847784298E-02    0.1313071797E-01    0.6958750819E+00    0.2904890695E+00    0.1587801388E-03
    0.4300000000E+06    0.5746715377E-02    0.1292040946E-01    0.6958750472E+00    0.2914820512E+00    0.1592009988E-03
    0.4500000000E+06    0.5650877362E-02    0.1272062557E-01    0.6958749974E+00    0.2924071137E+00    0.1596037613E-03
    0.4700000000E+06    0.5559834646E-02    0.1253051422E-01    0.6958749353E+00    0.2932715889E+00    0.1599899592E-03
    0.4900000000E+06    0.5473200048E-02    0.1234931530E-01    0.6958748630E+00    0.2940817511E+00    0.1603609368E-03
    0.1000000000E+06    0.8703322159E-02    0.1887164849E-01    0.6958623961E+00    0.2470592764E+00    0.1468033267E-03
    0.3000000000E+06    0.6522834563E-02    0.1452520962E-01    0.6958748090E+00    0.2833307924E+00    0.1560472827E-03
    0.5000000000E+06    0.5431426413E-02    0.1226184261E-01    0.6958748236E+00    0.2944681836E+00    0.1605410939E-03
    0.7000000000E+06    0.4760542442E-02    0.1084791112E-01    0.6958737956E+00    0.3003347262E+00    0.1635714825E-03
    0.9000000000E+06    0.4294402642E-02    0.9855170124E-02    0.6958726458E+00    0.3040831337E+00    0.1658721421E-03
    0.1100000000E+07    0.3945869303E-02    0.9107112209E-02    0.6958715423E+00    0.3067367031E+00    0.1677323834E-03
    0.1300000000E+07    0.3672281519E-02    0.8516268925E-02    0.6958705184E+00    0.3087394557E+00    0.1692968902E-03
    0.1500000000E+07    0.3449960044E-02    0.8033667724E-02    0.6958695754E+00    0.3103188925E+00    0.1706486626E-03
    0.1700000000E+07    0.3264558148E-02    0.7629436012E-02    0.6958687063E+00    0.3116050485E+00    0.1718398328E-03
    0.1900000000E+07    0.3106803116E-02    0.7284158907E-02    0.6958679025E+00    0.3126782750E+00    0.1729053337E-03
    0.2100000000E+07    0.2970396403E-02    0.6984586574E-02    0.6958671560E+00    0.3135912173E+00    0.1738697408E-03
    0.2300000000E+07    0.2850887652E-02    0.6721318791E-02    0.6958664598E+00    0.3143799807E+00    0.1747510120E-03
    0.2500000000E+07    0.2745029943E-02    0.6487472489E-02    0.6958658078E+00    0.3150702529E+00    0.1755626765E-03
    0.2700000000E+07    0.2650390525E-02    0.6277873843E-02    0.6958651948E+00    0.3156808690E+00    0.1763151854E-03
    0.2900000000E+07    0.2565105332E-02    0.6088546849E-02    0.6958646167E+00    0.3162259918E+00    0.1770167828E-03
    0.3100000000E+07    0.2487718406E-02    0.5916377673E-02    0.6958640696E+00    0.3167165012E+00    0.1776740889E-03
    0.3300000000E+07    0.2417073541E-02    0.5758887459E-02    0.6958635504E+00    0.3171609107E+00    0.1782925014E-03
    0.3500000000E+07    0.2352239183E-02    0.5614074436E-02    0.6958630565E+00    0.3175659890E+00    0.1788764806E-03
    0.3700000000E+07    0.2292455141E-02    0.5480301593E-02    0.6958625854E+00    0.3179371940E+00    0.1794297549E-03
    0.3900000000E+07    0.2237094002E-02    0.5356215155E-02    0.6958621351E+00    0.3182789813E+00    0.1799554738E-03
    0.4100000000E+07    0.2185632663E-02    0.5240684316E-02    0.6958617039E+00    0.3185950291E+00    0.1804563216E-03
    0.4300000000E+07    0.2137631009E-02    0.5132755980E-02    0.6958612901E+00    0.3188884036E+00    0.1809346059E-03
    0.4500000000E+07    0.2092715676E-02    0.5031620269E-02    0.6958608925E+00    0.3191616840E+00    0.1813923245E-03
    0.4700000000E+07    0.2050567559E-02    0.4936583892E-02    0.6958605097E+00    0.3194170576E+00    0.1818312190E-03
    0.4900000000E+07    0.2010912049E-02    0.4847049347E-02    0.6958601408E+00    0.3196563929E+00    0.1822528171E-03
    0.1000000000E+07    0.4108723290E-02    0.9457278811E-02    0.6958720849E+00    0.3055116615E+00    0.1668462609E-03
    0.3000000000E+07    0.2525502865E-02    0.6000485226E-02    0.6958643395E+00    0.3164774940E+00    0.1773506101E-03
    0.5000000000E+07    0.1991943451E-02    0.4804180618E-02    0.6958599612E+00    0.3197705572E+00    0.1824575572E-03
    0.7000000000E+07    0.1699518439E-02    0.4139725711E-02    0.6958569022E+00    0.3215053170E+00    0.1859014703E-03
    0.9000000000E+07    0.1507976444E-02    0.3700513763E-02    0.6958545418E+00    0.3226171292E+00    0.1885160937E-03
    0.1100000000E+08    0.1369950614E-02    0.3381806307E-02    0.6958526152E+00    0.3234070628E+00    0.1906302035E-03
    0.1300000000E+08    0.1264347791E-02    0.3136587101E-02    0.6958509850E+00    0.3240054101E+00    0.1924082230E-03
    0.1500000000E+08    0.1180150635E-02    0.2940145323E-02    0.6958495703E+00    0.3244788990E+00    0.1939444775E-03
    0.1700000000E+08    0.1110965163E-02    0.2778066304E-02    0.6958483198E+00    0.3248656931E+00    0.1952982125E-03
    0.1900000000E+08    0.1052790473E-02    0.2641291005E-02    0.6958471984E+00    0.3251894010E+00    0.1965091282E-03
    0.2100000000E+08    0.1002977164E-02    0.2523797730E-02    0.6958461814E+00    0.3254655129E+00    0.1976051534E-03
    0.2300000000E+08    0.9596914069E-03    0.2421404426E-02    0.6958452506E+00    0.3257046690E+00    0.1986066969E-03
    0.2500000000E+08    0.9216179195E-03    0.2331102515E-02    0.6958443921E+00    0.3259144517E+00    0.1995291342E-03
    0.2700000000E+08    0.8877853489E-03    0.2250664026E-02    0.6958435954E+00    0.3261004298E+00    0.2003843425E-03
