  Pressure (Pa) 22mC5-500 (mol/kg) 23mC5-500 (mol/kg) 24mC5-500 (mol/kg) 2mC6-500 (mol/kg) C7-500 (mol/kg)
    0.1000000000E+01    0.2235555962E-05    0.1283611718E-05    0.1266248826E+00    0.2015019334E-04    0.4211707096E-02
    0.3000000000E+01    0.4616134768E-05    0.2642837341E-05    0.2784888084E+00    0.3962959312E-04    0.4273957666E-02
    0.5000000000E+01    0.5811220556E-05    0.3320434975E-05    0.3663698368E+00    0.4850798086E-04    0.4309480271E-02
    0.7000000000E+01    0.6503887999E-05    0.3711016573E-05    0.4236690940E+00    0.5350112711E-04    0.4332923266E-02
    0.9000000000E+01    0.6950003571E-05    0.3961754626E-05    0.4639845990E+00    0.5689055442E-04    0.4349659810E-02
    0.1100000000E+02    0.7263474607E-05    0.4137865175E-05    0.4938931141E+00    0.5958735916E-04    0.4362258919E-02
    0.1300000000E+02    0.7501085949E-05    0.4271697908E-05    0.5169638242E+00    0.6199301214E-04    0.4372115404E-02
    0.1500000000E+02    0.7693508000E-05    0.4380631127E-05    0.5353011948E+00    0.6429533291E-04    0.4380054951E-02
    0.1700000000E+02    0.7858319247E-05    0.4474566154E-05    0.5502264339E+00    0.6658480567E-04    0.4386598746E-02
    0.1900000000E+02    0.8006059871E-05    0.4559400917E-05    0.5626108776E+00    0.6890489715E-04    0.4392092612E-02
    0.2100000000E+02    0.8143273586E-05    0.4638769996E-05    0.5730524493E+00    0.7127544177E-04    0.4396775395E-02
    0.2300000000E+02    0.8274133304E-05    0.4714971542E-05    0.5819751021E+00    0.7370411768E-04    0.4400817579E-02
    0.2500000000E+02    0.8401354526E-05    0.4789486299E-05    0.5896878025E+00    0.7619231497E-04    0.4404344255E-02
    0.2700000000E+02    0.8526730199E-05    0.4863280429E-05    0.5964210390E+00    0.7873822770E-04    0.4407449379E-02
    0.2900000000E+02    0.8651454966E-05    0.4936988398E-05    0.6023502522E+00    0.8133851568E-04    0.4410204963E-02
    0.3100000000E+02    0.8776327610E-05    0.5011026686E-05    0.6076113428E+00    0.8398920556E-04    0.4412667170E-02
    0.3300000000E+02    0.8901880648E-05    0.5085666267E-05    0.6123112169E+00    0.8668617742E-04    0.4414880491E-02
    0.3500000000E+02    0.9028465115E-05    0.5161079798E-05    0.6165351272E+00    0.8942542169E-04    0.4416880644E-02
    0.3700000000E+02    0.9156307068E-05    0.5237372911E-05    0.6203518908E+00    0.9220316716E-04    0.4418696662E-02
    0.3900000000E+02    0.9285545847E-05    0.5314605283E-05    0.6238176682E+00    0.9501593690E-04    0.4420352398E-02
    0.4100000000E+02    0.9416260355E-05    0.5392805018E-05    0.6269787449E+00    0.9786056385E-04    0.4421867648E-02
    0.4300000000E+02    0.9548487315E-05    0.5471978565E-05    0.6298736107E+00    0.1007341847E-03    0.4423258981E-02
    0.4500000000E+02    0.9682234076E-05    0.5552117636E-05    0.6325345345E+00    0.1036342223E-03    0.4424540383E-02
    0.4700000000E+02    0.9817487681E-05    0.5633204043E-05    0.6349887724E+00    0.1065583636E-03    0.4425723747E-02
    0.4900000000E+02    0.9954221320E-05    0.5715213122E-05    0.6372595045E+00    0.1095045347E-03    0.4426819254E-02
    0.1000000000E+02    0.7118927147E-05    0.4056632257E-05    0.4799704840E+00    0.5829330636E-04    0.4356371421E-02
    0.3000000000E+02    0.8713834443E-05    0.4973946555E-05    0.6050570501E+00    0.8265781827E-04    0.4411469723E-02
    0.5000000000E+02    0.1002313215E-04    0.5756554794E-05    0.6383323694E+00    0.1109852930E-03    0.4427336851E-02
    0.7000000000E+02    0.1146841908E-04    0.6624251583E-05    0.6537409284E+00    0.1413985737E-03    0.4434680833E-02
    0.9000000000E+02    0.1301256178E-04    0.7551106332E-05    0.6626268437E+00    0.1727696363E-03    0.4438605177E-02
    0.1100000000E+03    0.1462496447E-04    0.8518160811E-05    0.6684081379E+00    0.2046870882E-03    0.4440755016E-02
    0.1300000000E+03    0.1628760610E-04    0.9514564054E-05    0.6724698007E+00    0.2369854622E-03    0.4441838622E-02
    0.1500000000E+03    0.1798983520E-04    0.1053400400E-04    0.6754796716E+00    0.2695949833E-03    0.4442217012E-02
    0.1700000000E+03    0.1972515383E-04    0.1157267577E-04    0.6777994147E+00    0.3024874521E-03    0.4442095966E-02
    0.1900000000E+03    0.2148948548E-04    0.1262821790E-04    0.6796419358E+00    0.3356542245E-03    0.4441602510E-02
    0.2100000000E+03    0.2328022626E-04    0.1369913855E-04    0.6811407336E+00    0.3690963667E-03    0.4440819876E-02
    0.2300000000E+03    0.2509570400E-04    0.1478449195E-04    0.6823837625E+00    0.4028199309E-03    0.4439805179E-02
    0.2500000000E+03    0.2693485712E-04    0.1588368787E-04    0.6834313282E+00    0.4368335669E-03    0.4438599082E-02
    0.2700000000E+03    0.2879703683E-04    0.1699637501E-04    0.6843261601E+00    0.4711472671E-03    0.4437231411E-02
    0.2900000000E+03    0.3068188111E-04    0.1812236716E-04    0.6850993800E+00    0.5057716929E-03    0.4435724583E-02
    0.3100000000E+03    0.3258923228E-04    0.1926159516E-04    0.6857741926E+00    0.5407178087E-03    0.4434095797E-02
    0.3300000000E+03    0.3451908157E-04    0.2041407479E-04    0.6863682524E+00    0.5759966849E-03    0.4432358472E-02
    0.3500000000E+03    0.3647153119E-04    0.2157988476E-04    0.6868952299E+00    0.6116193969E-03    0.4430523228E-02
    0.3700000000E+03    0.3844676771E-04    0.2275915156E-04    0.6873658746E+00    0.6475969766E-03    0.4428598574E-02
    0.3900000000E+03    0.4044504329E-04    0.2395203862E-04    0.6877887565E+00    0.6839403963E-03    0.4426591394E-02
    0.4100000000E+03    0.4246666208E-04    0.2515873858E-04    0.6881707908E+00    0.7206605693E-03    0.4424507300E-02
    0.4300000000E+03    0.4451197033E-04    0.2637946776E-04    0.6885176198E+00    0.7577683611E-03    0.4422350902E-02
    0.4500000000E+03    0.4658134916E-04    0.2761446198E-04    0.6888338924E+00    0.7952746055E-03    0.4420126001E-02
    0.4700000000E+03    0.4867520918E-04    0.2886397363E-04    0.6891234735E+00    0.8331901235E-03    0.4417835744E-02
    0.4900000000E+03    0.5079398650E-04    0.3012826940E-04    0.6893896028E+00    0.8715257433E-03    0.4415482740E-02
    0.1000000000E+03    0.1381158172E-04    0.8030426684E-05    0.6657941561E+00    0.1886736697E-03    0.4439845805E-02
    0.3000000000E+03    0.3163274686E-04    0.1869032739E-04    0.6854478751E+00    0.5232038486E-03    0.4434924521E-02
    0.5000000000E+03    0.5186286164E-04    0.3076604818E-04    0.6895147449E+00    0.8908544823E-03    0.4414283399E-02
    0.7000000000E+03    0.7467183632E-04    0.4437245166E-04    0.6912706527E+00    0.1302190922E-02    0.4387356178E-02
    0.9000000000E+03    0.1006177877E-03    0.5984599035E-04    0.6922489556E+00    0.1768819032E-02    0.4355077597E-02
    0.1100000000E+04    0.1304313510E-03    0.7762379269E-04    0.6928722535E+00    0.2304456727E-02    0.4317112011E-02
    0.1300000000E+04    0.1650549084E-03    0.9826854549E-04    0.6933039294E+00    0.2926351436E-02    0.4272562893E-02
    0.1500000000E+04    0.2057227089E-03    0.1225167136E-03    0.6936204639E+00    0.3656914129E-02    0.4220065565E-02
    0.1700000000E+04    0.2540795325E-03    0.1513494877E-03    0.6938624282E+00    0.4525934752E-02    0.4157715412E-02
    0.1900000000E+04    0.3123547823E-03    0.1860967165E-03    0.6940533430E+00    0.5573770085E-02    0.4082898972E-02
    0.2100000000E+04    0.3836196024E-03    0.2285903512E-03    0.6942077829E+00    0.6856032808E-02    0.3992023911E-02
    0.2300000000E+04    0.4721660018E-03    0.2813906990E-03    0.6943352596E+00    0.8450508100E-02    0.3880120894E-02
    0.2500000000E+04    0.5840535460E-03    0.3481127224E-03    0.6944422442E+00    0.1046715231E-01    0.3740289414E-02
    0.2700000000E+04    0.7278439644E-03    0.4338646377E-03    0.6945332921E+00    0.1306159846E-01    0.3563010650E-02
    0.2900000000E+04    0.9153965929E-03    0.5457232312E-03    0.6946117025E+00    0.1644997769E-01    0.3335564947E-02
    0.3100000000E+04    0.1162075323E-02    0.6928589583E-03    0.6946799239E+00    0.2091348913E-01    0.3042459135E-02
    0.3300000000E+04    0.1484325115E-02    0.8850932245E-03    0.6947398112E+00    0.2675594273E-01    0.2669373652E-02
    0.3500000000E+04    0.1890358555E-02    0.1127346402E-02    0.6947927951E+00    0.3413680973E-01    0.2215222014E-02
    0.3700000000E+04    0.2361504650E-02    0.1408511794E-02    0.6948399973E+00    0.4273312781E-01    0.1713117238E-02
    0.3900000000E+04    0.2839856814E-02    0.1694074429E-02    0.6948823091E+00    0.5150922427E-01    0.1238746152E-02
    0.4100000000E+04    0.3255210096E-02    0.1942158299E-02    0.6949204478E+00    0.5919426300E-01    0.8708098405E-03
    0.4300000000E+04    0.3574593344E-02    0.2133071519E-02    0.6949549974E+00    0.6517895790E-01    0.6346088550E-03
    0.4500000000E+04    0.3810045947E-02    0.2273966969E-02    0.6949864377E+00    0.6966723274E-01    0.5029941393E-03
    0.4700000000E+04    0.3989568461E-02    0.2381528915E-02    0.6950151668E+00    0.7315731428E-01    0.4358188938E-03
    0.4900000000E+04    0.4136306286E-02    0.2469555495E-02    0.6950415181E+00    0.7606442774E-01    0.4032113664E-03
    0.1000000000E+04    0.1149879587E-03    0.6841510395E-04    0.6925917179E+00    0.2027033593E-02    0.4336850807E-02
    0.3000000000E+04    0.1030280412E-02    0.6142457467E-03    0.6946469594E+00    0.1852777647E-01    0.3198230800E-02
    0.5000000000E+04    0.4202121801E-02    0.2509069919E-02    0.6950538914E+00    0.7738473753E-01    0.3940944011E-03
    0.7000000000E+04    0.5211235245E-02    0.3116902052E-02    0.6952260763E+00    0.9865192604E-01    0.3796909915E-03
    0.9000000000E+04    0.5970099187E-02    0.3576508458E-02    0.6953204455E+00    0.1159803604E+00    0.3850406779E-03
    0.1100000000E+05    0.6561067213E-02    0.3936492887E-02    0.6953796582E+00    0.1306068100E+00    0.3893751882E-03
    0.1300000000E+05    0.7026230253E-02    0.4221637525E-02    0.6954200600E+00    0.1431297489E+00    0.3930179197E-03
    0.1500000000E+05    0.7395281724E-02    0.4449453305E-02    0.6954492488E+00    0.1539818207E+00    0.3961636970E-03
    0.1700000000E+05    0.7689697667E-02    0.4632626351E-02    0.6954712304E+00    0.1634838630E+00    0.3989346719E-03
    0.1900000000E+05    0.7925339308E-02    0.4780542217E-02    0.6954883141E+00    0.1718789250E+00    0.4014125848E-03
    0.2100000000E+05    0.8114135224E-02    0.4900271935E-02    0.6955019235E+00    0.1793545640E+00    0.4036548802E-03
    0.2300000000E+05    0.8265199589E-02    0.4997228079E-02    0.6955129829E+00    0.1860578772E+00    0.4057035009E-03
    0.2500000000E+05    0.8385594010E-02    0.5075612152E-02    0.6955221180E+00    0.1921058926E+00    0.4075900246E-03
    0.2700000000E+05    0.8480857866E-02    0.5138726320E-02    0.6955297672E+00    0.1975929075E+00    0.4093388315E-03
    0.2900000000E+05    0.8555384666E-02    0.5189194855E-02    0.6955362466E+00    0.2025957750E+00    0.4109691452E-03
    0.3100000000E+05    0.8612693748E-02    0.5229124159E-02    0.6955417895E+00    0.2071777765E+00    0.4124963961E-03
    0.3300000000E+05    0.8655629461E-02    0.5260220198E-02    0.6955465719E+00    0.2113915054E+00    0.4139331620E-03
    0.3500000000E+05    0.8686509247E-02    0.5283875905E-02    0.6955507290E+00    0.2152810428E+00    0.4152898326E-03
    0.3700000000E+05    0.8707235131E-02    0.5301237047E-02    0.6955543661E+00    0.2188836220E+00    0.4165750913E-03
    0.3900000000E+05    0.8719378632E-02    0.5313252455E-02    0.6955575667E+00    0.2222309155E+00    0.4177962708E-03
    0.4100000000E+05    0.8724246125E-02    0.5320712727E-02    0.6955603976E+00    0.2253500416E+00    0.4189596206E-03
    0.4300000000E+05    0.8722929643E-02    0.5324280345E-02    0.6955629128E+00    0.2282643595E+00    0.4200705112E-03
    0.4500000000E+05    0.8716346720E-02    0.5324513323E-02    0.6955651567E+00    0.2309941029E+00    0.4211335919E-03
    0.4700000000E+05    0.8705271897E-02    0.5321883929E-02    0.6955671658E+00    0.2335568889E+00    0.4221529154E-03
    0.4900000000E+05    0.8690361829E-02    0.5316793625E-02    0.6955689705E+00    0.2359681307E+00    0.4231320355E-03
    0.1000000000E+05    0.6283584638E-02    0.3767196488E-02    0.6953531170E+00    0.1235892135E+00    0.3873109253E-03
    0.3000000000E+05    0.8585999774E-02    0.5210362049E-02    0.6955391230E+00    0.2049358748E+00    0.4117448094E-03
    0.5000000000E+05    0.8681646591E-02    0.5313434729E-02    0.6955698043E+00    0.2371212206E+00    0.4236075133E-03
    0.7000000000E+05    0.8405072498E-02    0.5178141442E-02    0.6955802196E+00    0.2547845830E+00    0.4316045481E-03
    0.9000000000E+05    0.8061200634E-02    0.4993062563E-02    0.6955844763E+00    0.2661006209E+00    0.4376749776E-03
    0.1100000000E+06    0.7723399923E-02    0.4805628506E-02    0.6955862023E+00    0.2740411099E+00    0.4425829217E-03
    0.1300000000E+06    0.7410599917E-02    0.4629201049E-02    0.6955867107E+00    0.2799580785E+00    0.4467103901E-03
    0.1500000000E+06    0.7126131906E-02    0.4467005425E-02    0.6955865760E+00    0.2845594493E+00    0.4502764851E-03
    0.1700000000E+06    0.6868558679E-02    0.4318964088E-02    0.6955860819E+00    0.2882536874E+00    0.4534188054E-03
    0.1900000000E+06    0.6635123963E-02    0.4183945740E-02    0.6955853811E+00    0.2912939117E+00    0.4562295447E-03
    0.2100000000E+06    0.6422917909E-02    0.4060564279E-02    0.6955845608E+00    0.2938458099E+00    0.4587735568E-03
    0.2300000000E+06    0.6229261171E-02    0.3947467123E-02    0.6955836730E+00    0.2960226542E+00    0.4610982297E-03
    0.2500000000E+06    0.6051806930E-02    0.3843431428E-02    0.6955827498E+00    0.2979046657E+00    0.4632392625E-03
    0.2700000000E+06    0.5888540747E-02    0.3747385962E-02    0.6955818116E+00    0.2995503460E+00    0.4652242314E-03
    0.2900000000E+06    0.5737746320E-02    0.3658404787E-02    0.6955808713E+00    0.3010034239E+00    0.4670748886E-03
    0.3100000000E+06    0.5597963300E-02    0.3575691421E-02    0.6955799374E+00    0.3022972823E+00    0.4688087008E-03
    0.3300000000E+06    0.5467946906E-02    0.3498561073E-02    0.6955790154E+00    0.3034578748E+00    0.4704399095E-03
    0.3500000000E+06    0.5346632508E-02    0.3426423905E-02    0.6955781087E+00    0.3045057031E+00    0.4719802821E-03
    0.3700000000E+06    0.5233105732E-02    0.3358770308E-02    0.6955772193E+00    0.3054571906E+00    0.4734396554E-03
    0.3900000000E+06    0.5126577675E-02    0.3295158350E-02    0.6955763486E+00    0.3063256591E+00    0.4748263380E-03
    0.4100000000E+06    0.5026364505E-02    0.3235203247E-02    0.6955754972E+00    0.3071220346E+00    0.4761474125E-03
    0.4300000000E+06    0.4931870717E-02    0.3178568592E-02    0.6955746652E+00    0.3078553692E+00    0.4774089657E-03
    0.4500000000E+06    0.4842575386E-02    0.3124959064E-02    0.6955738526E+00    0.3085332296E+00    0.4786162686E-03
    0.4700000000E+06    0.4758020831E-02    0.3074114369E-02    0.6955730591E+00    0.3091619940E+00    0.4797739156E-03
    0.4900000000E+06    0.4677803267E-02    0.3025804190E-02    0.6955722843E+00    0.3097470784E+00    0.4808859367E-03
    0.1000000000E+06    0.7889768259E-02    0.4898427053E-02    0.6955855472E+00    0.2703867333E+00    0.4402450721E-03
    0.3000000000E+06    0.5666560793E-02    0.3616309841E-02    0.6955804032E+00    0.3016684861E+00    0.4679554446E-03
    0.5000000000E+06    0.4639207471E-02    0.3002534716E-02    0.6955719037E+00    0.3100247145E+00    0.4814259648E-03
    0.7000000000E+06    0.4026521166E-02    0.2630877858E-02    0.6955651397E+00    0.3141212258E+00    0.4905095989E-03
    0.9000000000E+06    0.3608342977E-02    0.2374661002E-02    0.6955596373E+00    0.3166160931E+00    0.4974057667E-03
    0.1100000000E+07    0.3299466117E-02    0.2183991989E-02    0.6955550156E+00    0.3183205328E+00    0.5029817334E-03
    0.1300000000E+07    0.3059195975E-02    0.2034783613E-02    0.6955510336E+00    0.3195714158E+00    0.5076712122E-03
    0.1500000000E+07    0.2865327794E-02    0.1913788835E-02    0.6955475353E+00    0.3205355484E+00    0.5117230076E-03
    0.1700000000E+07    0.2704579818E-02    0.1813034466E-02    0.6955444148E+00    0.3213056550E+00    0.5152933916E-03
    0.1900000000E+07    0.2568454268E-02    0.1727392841E-02    0.6955415974E+00    0.3219377037E+00    0.5184870794E-03
    0.2100000000E+07    0.2451226647E-02    0.1653394501E-02    0.6955390286E+00    0.3224676316E+00    0.5213777378E-03
    0.2300000000E+07    0.2348880247E-02    0.1588595668E-02    0.6955366672E+00    0.3229196536E+00    0.5240191973E-03
    0.2500000000E+07    0.2258501915E-02    0.1531217925E-02    0.6955344817E+00    0.3233107294E+00    0.5264520122E-03
    0.2700000000E+07    0.2177920227E-02    0.1479931600E-02    0.6955324472E+00    0.3236531209E+00    0.5287075099E-03
    0.2900000000E+07    0.2105478906E-02    0.1433719649E-02    0.6955305437E+00    0.3239559316E+00    0.5308104028E-03
    0.3100000000E+07    0.2039889506E-02    0.1391788878E-02    0.6955287551E+00    0.3242260742E+00    0.5327805347E-03
    0.3300000000E+07    0.1980132551E-02    0.1353510201E-02    0.6955270678E+00    0.3244689004E+00    0.5346340858E-03
    0.3500000000E+07    0.1925389332E-02    0.1318377317E-02    0.6955254709E+00    0.3246886238E+00    0.5363844252E-03
    0.3700000000E+07    0.1874993735E-02    0.1285977452E-02    0.6955239549E+00    0.3248886108E+00    0.5380427295E-03
    0.3900000000E+07    0.1828397485E-02    0.1255970207E-02    0.6955225118E+00    0.3250715866E+00    0.5396184385E-03
    0.4100000000E+07    0.1785144607E-02    0.1228071980E-02    0.6955211347E+00    0.3252397831E+00    0.5411195993E-03
    0.4300000000E+07    0.1744852350E-02    0.1202044307E-02    0.6955198178E+00    0.3253950469E+00    0.5425531280E-03
    0.4500000000E+07    0.1707196710E-02    0.1177685004E-02    0.6955185558E+00    0.3255389208E+00    0.5439250133E-03
    0.4700000000E+07    0.1671901321E-02    0.1154821349E-02    0.6955173443E+00    0.3256727041E+00    0.5452404756E-03
    0.4900000000E+07    0.1638728799E-02    0.1133304767E-02    0.6955161792E+00    0.3257975001E+00    0.5465040938E-03
    0.1000000000E+07    0.3443395787E-02    0.2272995188E-02    0.6955572339E+00    0.3175402079E+00    0.5003256386E-03
    0.3000000000E+07    0.2071896820E-02    0.1412261725E-02    0.6955296359E+00    0.3240947210E+00    0.5318109781E-03
    0.5000000000E+07    0.1622873387E-02    0.1123010754E-02    0.6955156130E+00    0.3258568280E+00    0.5471177421E-03
    0.7000000000E+07    0.1379429159E-02    0.9641128160E-03    0.6955060520E+00    0.3267421124E+00    0.5574397638E-03
    0.9000000000E+07    0.1220964151E-02    0.8597453238E-03    0.6954987560E+00    0.3272930611E+00    0.5652761357E-03
    0.1100000000E+08    0.1107255217E-02    0.7843373799E-03    0.6954928392E+00    0.3276764369E+00    0.5716123258E-03
    0.1300000000E+08    0.1020527160E-02    0.7265002894E-03    0.6954878533E+00    0.3279622564E+00    0.5769411682E-03
    0.1500000000E+08    0.9515455873E-03    0.6802813729E-03    0.6954835395E+00    0.3281855833E+00    0.5815453858E-03
    0.1700000000E+08    0.8949731014E-03    0.6422227365E-03    0.6954797343E+00    0.3283661203E+00    0.5856025555E-03
    0.1900000000E+08    0.8474807450E-03    0.6101584431E-03    0.6954763279E+00    0.3285158810E+00    0.5892316690E-03
    0.2100000000E+08    0.8068699353E-03    0.5826526777E-03    0.6954732428E+00    0.3286426522E+00    0.5925164365E-03
    0.2300000000E+08    0.7716222838E-03    0.5587105521E-03    0.6954704222E+00    0.3287517267E+00    0.5955180282E-03
    0.2500000000E+08    0.7406508357E-03    0.5376177453E-03    0.6954678233E+00    0.3288468421E+00    0.5982825276E-03
    0.2700000000E+08    0.7131541971E-03    0.5188461763E-03    0.6954654130E+00    0.3289307212E+00    0.6008455335E-03
