  Pressure (Pa) 22mC5-500 (mol/kg) 23mC5-500 (mol/kg) 24mC5-500 (mol/kg) 2mC6-500 (mol/kg) C7-500 (mol/kg)
    0.1000000000E+01    0.2143966653E-05    0.5539577372E-05    0.1514032161E+00    0.5538722458E-05    0.4181717360E-02
    0.3000000000E+01    0.4178984885E-05    0.1076337079E-04    0.3164891846E+00    0.1026483483E-04    0.4213782843E-02
    0.5000000000E+01    0.5110726646E-05    0.1313744700E-04    0.4047574838E+00    0.1227259226E-04    0.4229159543E-02
    0.7000000000E+01    0.5631525979E-05    0.1445898426E-04    0.4597058235E+00    0.1344582250E-04    0.4238678637E-02
    0.9000000000E+01    0.5968646461E-05    0.1531456454E-04    0.4972055955E+00    0.1432729459E-04    0.4245227656E-02
    0.1100000000E+02    0.6214441768E-05    0.1594109580E-04    0.5244292241E+00    0.1510693638E-04    0.4250036880E-02
    0.1300000000E+02    0.6411778492E-05    0.1644779897E-04    0.5450917563E+00    0.1585848251E-04    0.4253731750E-02
    0.1500000000E+02    0.6582437979E-05    0.1688975303E-04    0.5613100544E+00    0.1661181393E-04    0.4256666627E-02
    0.1700000000E+02    0.6738224252E-05    0.1729655053E-04    0.5743787566E+00    0.1737875872E-04    0.4259058221E-02
    0.1900000000E+02    0.6885839827E-05    0.1768482597E-04    0.5851341522E+00    0.1816332142E-04    0.4261046919E-02
    0.2100000000E+02    0.7029219649E-05    0.1806422756E-04    0.5941405297E+00    0.1896605208E-04    0.4262727875E-02
    0.2300000000E+02    0.7170726225E-05    0.1844046142E-04    0.6017924461E+00    0.1978601013E-04    0.4264167989E-02
    0.2500000000E+02    0.7311795478E-05    0.1881692872E-04    0.6083740811E+00    0.2062167470E-04    0.4265415744E-02
    0.2700000000E+02    0.7453301393E-05    0.1919564519E-04    0.6140953114E+00    0.2147137068E-04    0.4266507182E-02
    0.2900000000E+02    0.7595769466E-05    0.1957777623E-04    0.6191145058E+00    0.2233346433E-04    0.4267469689E-02
    0.3100000000E+02    0.7739505433E-05    0.1996395770E-04    0.6235534130E+00    0.2320644705E-04    0.4268324468E-02
    0.3300000000E+02    0.7884674876E-05    0.2035449281E-04    0.6275071679E+00    0.2408896436E-04    0.4269088205E-02
    0.3500000000E+02    0.8031353472E-05    0.2074947546E-04    0.6310511872E+00    0.2497981873E-04    0.4269774226E-02
    0.3700000000E+02    0.8179559255E-05    0.2114886874E-04    0.6342460260E+00    0.2587796027E-04    0.4270393310E-02
    0.3900000000E+02    0.8329273609E-05    0.2155255540E-04    0.6371408669E+00    0.2678247261E-04    0.4270954277E-02
    0.4100000000E+02    0.8480455076E-05    0.2196037073E-04    0.6397760703E+00    0.2769255755E-04    0.4271464417E-02
    0.4300000000E+02    0.8633048497E-05    0.2237212391E-04    0.6421850671E+00    0.2860752023E-04    0.4271929815E-02
    0.4500000000E+02    0.8786991079E-05    0.2278761201E-04    0.6443957852E+00    0.2952675544E-04    0.4272355591E-02
    0.4700000000E+02    0.8942216438E-05    0.2320662902E-04    0.6464317366E+00    0.3044973555E-04    0.4272746088E-02
    0.4900000000E+02    0.9098657256E-05    0.2362897165E-04    0.6483128573E+00    0.3137599993E-04    0.4273105015E-02
    0.1000000000E+02    0.6099583618E-05    0.1564784202E-04    0.5118185049E+00    0.1472371773E-04    0.4247801902E-02
    0.3000000000E+02    0.7667466027E-05    0.1977033563E-04    0.6214000184E+00    0.2276868294E-04    0.4267909411E-02
    0.5000000000E+02    0.9177312612E-05    0.2384132822E-04    0.6492007725E+00    0.3184023581E-04    0.4273273654E-02
    0.7000000000E+02    0.1079949002E-04    0.2822047539E-04    0.6618920256E+00    0.4122281786E-04    0.4275570612E-02
    0.9000000000E+02    0.1248559529E-04    0.3276880008E-04    0.6691595088E+00    0.5068583641E-04    0.4276650569E-02
    0.1100000000E+03    0.1420895992E-04    0.3741378520E-04    0.6738679174E+00    0.6016120005E-04    0.4277103492E-02
    0.1300000000E+03    0.1595572980E-04    0.4211857602E-04    0.6771665457E+00    0.6962789458E-04    0.4277182447E-02
    0.1500000000E+03    0.1771834614E-04    0.4686337593E-04    0.6796060941E+00    0.7908084382E-04    0.4277016276E-02
    0.1700000000E+03    0.1949248896E-04    0.5163703044E-04    0.6814834831E+00    0.8852084767E-04    0.4276678404E-02
    0.1900000000E+03    0.2127560612E-04    0.5643304818E-04    0.6829729383E+00    0.9795088544E-04    0.4276214177E-02
    0.2100000000E+03    0.2306616142E-04    0.6124759134E-04    0.6841834319E+00    0.1073746433E-03    0.4275653324E-02
    0.2300000000E+03    0.2486322771E-04    0.6607839810E-04    0.6851866168E+00    0.1167959041E-03    0.4275016271E-02
    0.2500000000E+03    0.2666625560E-04    0.7092417499E-04    0.6860315423E+00    0.1262182971E-03    0.4274317581E-02
    0.2700000000E+03    0.2847493637E-04    0.7578423950E-04    0.6867529155E+00    0.1356452038E-03    0.4273567954E-02
    0.2900000000E+03    0.3028911794E-04    0.8065830241E-04    0.6873759867E+00    0.1450797350E-03    0.4272775459E-02
    0.3100000000E+03    0.3210875178E-04    0.8554633135E-04    0.6879195645E+00    0.1545247374E-03    0.4271946304E-02
    0.3300000000E+03    0.3393385861E-04    0.9044846311E-04    0.6883979470E+00    0.1639828136E-03    0.4271085357E-02
    0.3500000000E+03    0.3576450566E-04    0.9536494619E-04    0.6888221976E+00    0.1734563464E-03    0.4270196494E-02
    0.3700000000E+03    0.3760079151E-04    0.1002961026E-03    0.6892010102E+00    0.1829475226E-03    0.4269282841E-02
    0.3900000000E+03    0.3944283568E-04    0.1052423019E-03    0.6895413121E+00    0.1924583557E-03    0.4268346954E-02
    0.4100000000E+03    0.4129077149E-04    0.1102039438E-03    0.6898486902E+00    0.2019907067E-03    0.4267390938E-02
    0.4300000000E+03    0.4314474115E-04    0.1151814460E-03    0.6901277010E+00    0.2115463018E-03    0.4266416549E-02
    0.4500000000E+03    0.4500489225E-04    0.1201752359E-03    0.6903820969E+00    0.2211267488E-03    0.4265425260E-02
    0.4700000000E+03    0.4687137538E-04    0.1251857450E-03    0.6906149969E+00    0.2307335506E-03    0.4264418317E-02
    0.4900000000E+03    0.4874434243E-04    0.1302134047E-03    0.6908290141E+00    0.2403681176E-03    0.4263396781E-02
    0.1000000000E+03    0.1334368669E-04    0.3508206093E-04    0.6717409659E+00    0.5542385977E-04    0.4276935354E-02
    0.3000000000E+03    0.3119825334E-04    0.8310056576E-04    0.6876567303E+00    0.1498007592E-03    0.4272365133E-02
    0.5000000000E+03    0.4968330494E-04    0.1327338003E-03    0.6909296448E+00    0.2451962311E-03    0.4262880828E-02
    0.7000000000E+03    0.6883944649E-04    0.1841440357E-03    0.6923412671E+00    0.3435050678E-03    0.4251958966E-02
    0.9000000000E+03    0.8880842829E-04    0.2377245147E-03    0.6931276271E+00    0.4457786169E-03    0.4240108840E-02
    0.1100000000E+04    0.1097189053E-03    0.2938253029E-03    0.6936287209E+00    0.5527872032E-03    0.4227460513E-02
    0.1300000000E+04    0.1316932009E-03    0.3527769139E-03    0.6939758784E+00    0.6652072893E-03    0.4214036675E-02
    0.1500000000E+04    0.1548543722E-03    0.4149107854E-03    0.6942305473E+00    0.7836959269E-03    0.4199816281E-02
    0.1700000000E+04    0.1793310663E-03    0.4805728593E-03    0.6944253151E+00    0.9089286320E-03    0.4184754968E-02
    0.1900000000E+04    0.2052611625E-03    0.5501335915E-03    0.6945790720E+00    0.1041623382E-02    0.4168792664E-02
    0.2100000000E+04    0.2327948844E-03    0.6239964180E-03    0.6947035222E+00    0.1182559080E-02    0.4151856454E-02
    0.2300000000E+04    0.2620977770E-03    0.7026058045E-03    0.6948063044E+00    0.1332592148E-02    0.4133861342E-02
    0.2500000000E+04    0.2933537925E-03    0.7864555642E-03    0.6948926155E+00    0.1492673146E-02    0.4114709934E-02
    0.2700000000E+04    0.3267686620E-03    0.8760979270E-03    0.6949661141E+00    0.1663864592E-02    0.4094291434E-02
    0.2900000000E+04    0.3625736977E-03    0.9721537597E-03    0.6950294504E+00    0.1847360881E-02    0.4072480133E-02
    0.3100000000E+04    0.4010301696E-03    0.1075324322E-02    0.6950845912E+00    0.2044511106E-02    0.4049133428E-02
    0.3300000000E+04    0.4424344041E-03    0.1186404960E-02    0.6951330267E+00    0.2256845587E-02    0.4024089385E-02
    0.3500000000E+04    0.4871237754E-03    0.1306301196E-02    0.6951759066E+00    0.2486107003E-02    0.3997163796E-02
    0.3700000000E+04    0.5354837797E-03    0.1436047721E-02    0.6952141322E+00    0.2734287172E-02    0.3968146659E-02
    0.3900000000E+04    0.5879564215E-03    0.1576830915E-02    0.6952484199E+00    0.3003670628E-02    0.3936798001E-02
    0.4100000000E+04    0.6450501715E-03    0.1730015583E-02    0.6952793466E+00    0.3296886417E-02    0.3902842935E-02
    0.4300000000E+04    0.7073517997E-03    0.1897176732E-02    0.6953073814E+00    0.3616969669E-02    0.3865965834E-02
    0.4500000000E+04    0.7755404237E-03    0.2080137295E-02    0.6953329105E+00    0.3967434773E-02    0.3825803487E-02
    0.4700000000E+04    0.8504041363E-03    0.2281012781E-02    0.6953562540E+00    0.4352362069E-02    0.3781937125E-02
    0.4900000000E+04    0.9328595804E-03    0.2502263855E-02    0.6953776799E+00    0.4776500051E-02    0.3733883197E-02
    0.1000000000E+04    0.9913828240E-04    0.2654390380E-03    0.6934031702E+00    0.4986476936E-03    0.4233881610E-02
    0.3000000000E+04    0.3814528708E-03    0.1022802371E-02    0.6950579428E+00    0.1944138194E-02    0.4061008342E-02
    0.5000000000E+04    0.9772613518E-03    0.2621408475E-02    0.6953877457E+00    0.5004968663E-02    0.3708114516E-02
    0.7000000000E+04    0.2659958373E-02    0.7137550548E-02    0.6955282778E+00    0.1369246444E-01    0.2774296126E-02
    0.9000000000E+04    0.6795658382E-02    0.1824492654E-01    0.6956058610E+00    0.3528796288E-01    0.7922204657E-03
    0.1100000000E+05    0.9069788925E-02    0.2436868210E-01    0.6956549077E+00    0.4767334337E-01    0.1892362385E-03
    0.1300000000E+05    0.1016905020E-01    0.2734274918E-01    0.6956886330E+00    0.5411033960E-01    0.1605365114E-03
    0.1500000000E+05    0.1108901505E-01    0.2983812286E-01    0.6957131930E+00    0.5970872024E-01    0.1605574241E-03
    0.1700000000E+05    0.1190501201E-01    0.3205642579E-01    0.6957318411E+00    0.6484062977E-01    0.1616215168E-03
    0.1900000000E+05    0.1263401580E-01    0.3404270597E-01    0.6957464569E+00    0.6957788255E-01    0.1626221603E-03
    0.2100000000E+05    0.1328795478E-01    0.3582856980E-01    0.6957582018E+00    0.7396925794E-01    0.1635302900E-03
    0.2300000000E+05    0.1387663983E-01    0.3744002605E-01    0.6957678317E+00    0.7805516089E-01    0.1643601710E-03
    0.2500000000E+05    0.1440828282E-01    0.3889885896E-01    0.6957758596E+00    0.8186975595E-01    0.1651244260E-03
    0.2700000000E+05    0.1488981039E-01    0.4022345585E-01    0.6957826457E+00    0.8544216091E-01    0.1658329131E-03
    0.2900000000E+05    0.1532710352E-01    0.4142943884E-01    0.6957884502E+00    0.8879735586E-01    0.1664934132E-03
    0.3100000000E+05    0.1572518536E-01    0.4253016068E-01    0.6957934659E+00    0.9195690058E-01    0.1671121731E-03
    0.3300000000E+05    0.1608837035E-01    0.4353709814E-01    0.6957978384E+00    0.9493950679E-01    0.1676942851E-03
    0.3500000000E+05    0.1642038335E-01    0.4446016665E-01    0.6958016799E+00    0.9776149871E-01    0.1682439560E-03
    0.3700000000E+05    0.1672445576E-01    0.4530797415E-01    0.6958050780E+00    0.1004371866E+00    0.1687647018E-03
    0.3900000000E+05    0.1700340347E-01    0.4608802712E-01    0.6958081023E+00    0.1029791718E+00    0.1692594917E-03
    0.4100000000E+05    0.1725969064E-01    0.4680689917E-01    0.6958108087E+00    0.1053985980E+00    0.1697308567E-03
    0.4300000000E+05    0.1749548218E-01    0.4747036974E-01    0.6958132424E+00    0.1077053585E+00    0.1701809715E-03
    0.4500000000E+05    0.1771268708E-01    0.4808353889E-01    0.6958154408E+00    0.1099082695E+00    0.1706117190E-03
    0.4700000000E+05    0.1791299462E-01    0.4865092294E-01    0.6958174346E+00    0.1120152149E+00    0.1710247406E-03
    0.4900000000E+05    0.1809790451E-01    0.4917653447E-01    0.6958192495E+00    0.1140332684E+00    0.1714214757E-03
    0.1000000000E+05    0.8263427908E-02    0.2219369943E-01    0.6956328772E+00    0.4316610757E-01    0.3106105604E-03
    0.3000000000E+05    0.1553076111E-01    0.4199220016E-01    0.6957910467E+00    0.9040035414E-01    0.1668076689E-03
    0.5000000000E+05    0.1818500852E-01    0.4942480850E-01    0.6958200967E+00    0.1150109752E+00    0.1716141384E-03
    0.7000000000E+05    0.1937611410E-01    0.5288748045E-01    0.6958314556E+00    0.1311515876E+00    0.1748546251E-03
    0.9000000000E+05    0.1992932223E-01    0.5459582186E-01    0.6958371538E+00    0.1429087361E+00    0.1773145386E-03
    0.1100000000E+06    0.2016285817E-01    0.5541142457E-01    0.6958403860E+00    0.1520460086E+00    0.1793034334E-03
    0.1300000000E+06    0.2022179828E-01    0.5573062570E-01    0.6958423480E+00    0.1594636830E+00    0.1809760799E-03
    0.1500000000E+06    0.2018002159E-01    0.5575722499E-01    0.6958435829E+00    0.1656759583E+00    0.1824212516E-03
    0.1700000000E+06    0.2007821008E-01    0.5560464288E-01    0.6958443700E+00    0.1710011961E+00    0.1836947013E-03
    0.1900000000E+06    0.1994009142E-01    0.5533981246E-01    0.6958448665E+00    0.1756488650E+00    0.1848337857E-03
    0.2100000000E+06    0.1978011623E-01    0.5500403715E-01    0.6958451665E+00    0.1797634869E+00    0.1858647835E-03
    0.2300000000E+06    0.1960737810E-01    0.5462370013E-01    0.6958453297E+00    0.1834486428E+00    0.1868068972E-03
    0.2500000000E+06    0.1942774123E-01    0.5421611160E-01    0.6958453954E+00    0.1867809226E+00    0.1876745925E-03
    0.2700000000E+06    0.1924505405E-01    0.5379286449E-01    0.6958453902E+00    0.1898184490E+00    0.1884790439E-03
    0.2900000000E+06    0.1906187035E-01    0.5336184166E-01    0.6958453328E+00    0.1926063113E+00    0.1892290660E-03
    0.3100000000E+06    0.1887989272E-01    0.5292845872E-01    0.6958452364E+00    0.1951801519E+00    0.1899317368E-03
    0.3300000000E+06    0.1870025331E-01    0.5249645662E-01    0.6958451109E+00    0.1975686085E+00    0.1905928275E-03
    0.3500000000E+06    0.1852369595E-01    0.5206842011E-01    0.6958449634E+00    0.1997950202E+00    0.1912171065E-03
    0.3700000000E+06    0.1835069693E-01    0.5164612423E-01    0.6958447993E+00    0.2018786472E+00    0.1918085603E-03
    0.3900000000E+06    0.1818154647E-01    0.5123077042E-01    0.6958446228E+00    0.2038355616E+00    0.1923705556E-03
    0.4100000000E+06    0.1801640464E-01    0.5082315005E-01    0.6958444370E+00    0.2056793082E+00    0.1929059627E-03
    0.4300000000E+06    0.1785534015E-01    0.5042375927E-01    0.6958442444E+00    0.2074214042E+00    0.1934172483E-03
    0.4500000000E+06    0.1769835769E-01    0.5003288078E-01    0.6958440469E+00    0.2090717214E+00    0.1939065484E-03
    0.4700000000E+06    0.1754541727E-01    0.4965064259E-01    0.6958438460E+00    0.2106387833E+00    0.1943757248E-03
    0.4900000000E+06    0.1739644813E-01    0.4927706073E-01    0.6958436429E+00    0.2121299980E+00    0.1948264108E-03
    0.1000000000E+06    0.2007460909E-01    0.5508404283E-01    0.6958389803E+00    0.1477361135E+00    0.1783560380E-03
    0.3000000000E+06    0.1897064915E-01    0.5314517925E-01    0.6958452888E+00    0.1939180531E+00    0.1895859331E-03
    0.5000000000E+06    0.1732342476E-01    0.4909349817E-01    0.6958435408E+00    0.2128492191E+00    0.1950452766E-03
    0.7000000000E+06    0.1604470728E-01    0.4583917769E-01    0.6958415320E+00    0.2244695764E+00    0.1987267796E-03
    0.9000000000E+06    0.1503787317E-01    0.4323241293E-01    0.6958397114E+00    0.2327021611E+00    0.2015217645E-03
    0.1100000000E+07    0.1421992656E-01    0.4109038470E-01    0.6958381001E+00    0.2389948463E+00    0.2037817019E-03
    0.1300000000E+07    0.1353753617E-01    0.3928803702E-01    0.6958366685E+00    0.2440390760E+00    0.2056823621E-03
    0.1500000000E+07    0.1295605859E-01    0.3774173349E-01    0.6958353848E+00    0.2482173057E+00    0.2073245788E-03
    0.1700000000E+07    0.1245211642E-01    0.3639401354E-01    0.6958342231E+00    0.2517624629E+00    0.2087716855E-03
    0.1900000000E+07    0.1200933122E-01    0.3520410590E-01    0.6958331628E+00    0.2548264553E+00    0.2100661210E-03
    0.2100000000E+07    0.1161584561E-01    0.3414220628E-01    0.6958321880E+00    0.2575135700E+00    0.2112377410E-03
    0.2300000000E+07    0.1126283193E-01    0.3318595221E-01    0.6958312859E+00    0.2598983247E+00    0.2123083622E-03
    0.2500000000E+07    0.1094355977E-01    0.3231818293E-01    0.6958304464E+00    0.2620357031E+00    0.2132944208E-03
    0.2700000000E+07    0.1065279194E-01    0.3152547066E-01    0.6958296614E+00    0.2639673607E+00    0.2142086131E-03
    0.2900000000E+07    0.1038638078E-01    0.3079712945E-01    0.6958289241E+00    0.2657255593E+00    0.2150609550E-03
    0.3100000000E+07    0.1014099070E-01    0.3012452863E-01    0.6958282290E+00    0.2673357589E+00    0.2158594889E-03
    0.3300000000E+07    0.9913902834E-02    0.2950060620E-01    0.6958275715E+00    0.2688183779E+00    0.2166107724E-03
    0.3500000000E+07    0.9702874484E-02    0.2891951665E-01    0.6958269477E+00    0.2701900234E+00    0.2173202240E-03
    0.3700000000E+07    0.9506036024E-02    0.2837637132E-01    0.6958263541E+00    0.2714643701E+00    0.2179923735E-03
    0.3900000000E+07    0.9321813976E-02    0.2786704390E-01    0.6958257880E+00    0.2726528013E+00    0.2186310469E-03
    0.4100000000E+07    0.9148872747E-02    0.2738802241E-01    0.6958252469E+00    0.2737648860E+00    0.2192395054E-03
    0.4300000000E+07    0.8986069855E-02    0.2693629510E-01    0.6958247286E+00    0.2748087382E+00    0.2198205522E-03
    0.4500000000E+07    0.8832421115E-02    0.2650926138E-01    0.6958242312E+00    0.2757912929E+00    0.2203766145E-03
    0.4700000000E+07    0.8687073241E-02    0.2610466161E-01    0.6958237531E+00    0.2767185201E+00    0.2209098081E-03
    0.4900000000E+07    0.8549282068E-02    0.2572052097E-01    0.6958232928E+00    0.2775955921E+00    0.2214219889E-03
    0.1000000000E+07    0.1460917612E-01    0.4211231723E-01    0.6958388812E+00    0.2360375632E+00    0.2027051850E-03
    0.3000000000E+07    0.1026124063E-01    0.3045433496E-01    0.6958285716E+00    0.2665477811E+00    0.2154665079E-03
    0.5000000000E+07    0.8483013156E-02    0.2553557231E-01    0.6958230690E+00    0.2780167518E+00    0.2216707186E-03
    0.7000000000E+07    0.7431297522E-02    0.2258237555E-01    0.6958192730E+00    0.2846490097E+00    0.2258545718E-03
    0.9000000000E+07    0.6710646964E-02    0.2053830794E-01    0.6958163606E+00    0.2891453631E+00    0.2290309537E-03
    0.1100000000E+08    0.6175025884E-02    0.1900747233E-01    0.6958139913E+00    0.2924668687E+00    0.2315992821E-03
    0.1300000000E+08    0.5755683236E-02    0.1780163126E-01    0.6958119907E+00    0.2950572265E+00    0.2337593086E-03
    0.1500000000E+08    0.5415259376E-02    0.1681772222E-01    0.6958102572E+00    0.2971546000E+00    0.2356256252E-03
    0.1700000000E+08    0.5131406595E-02    0.1599371904E-01    0.6958087265E+00    0.2989002474E+00    0.2372702071E-03
    0.1900000000E+08    0.4889798967E-02    0.1528965627E-01    0.6958073551E+00    0.3003841590E+00    0.2387412842E-03
    0.2100000000E+08    0.4680758614E-02    0.1467841603E-01    0.6958061121E+00    0.3016668388E+00    0.2400727860E-03
    0.2300000000E+08    0.4497472924E-02    0.1414083497E-01    0.6958049752E+00    0.3027907188E+00    0.2412895066E-03
    0.2500000000E+08    0.4334984268E-02    0.1366291944E-01    0.6958039271E+00    0.3037865840E+00    0.2424101246E-03
    0.2700000000E+08    0.4189584726E-02    0.1323417060E-01    0.6958029547E+00    0.3046774028E+00    0.2434490694E-03
