  Pressure (Pa) 22mC5-500 (mol/kg) 23mC5-500 (mol/kg) 24mC5-500 (mol/kg) 2mC6-500 (mol/kg) C7-500 (mol/kg)
    0.1000000000E+01    0.2056215171E-05    0.2361124484E-05    0.1741079092E+00    0.1862328089E-04    0.4168137738E-02
    0.3000000000E+01    0.3815956021E-05    0.4367115281E-05    0.3481249836E+00    0.3288344658E-04    0.4192105288E-02
    0.5000000000E+01    0.4566813304E-05    0.5216947710E-05    0.4351027348E+00    0.3876336148E-04    0.4201277647E-02
    0.7000000000E+01    0.4982810471E-05    0.5687081985E-05    0.4872809626E+00    0.4247559358E-04    0.4206415702E-02
    0.9000000000E+01    0.5261293080E-05    0.6003234052E-05    0.5220634906E+00    0.4555958461E-04    0.4209695694E-02
    0.1100000000E+02    0.5476453313E-05    0.6249597796E-05    0.5469069494E+00    0.4848962689E-04    0.4211945122E-02
    0.1300000000E+02    0.5660652226E-05    0.6462572359E-05    0.5655390048E+00    0.5142584913E-04    0.4213558194E-02
    0.1500000000E+02    0.5829444762E-05    0.6659474031E-05    0.5800303479E+00    0.5442130542E-04    0.4214748828E-02
    0.1700000000E+02    0.5990815714E-05    0.6849082030E-05    0.5916232973E+00    0.5748959524E-04    0.4215643823E-02
    0.1900000000E+02    0.6149046986E-05    0.7036031523E-05    0.6011083765E+00    0.6062948429E-04    0.4216323375E-02
    0.2100000000E+02    0.6306494738E-05    0.7222821186E-05    0.6090125803E+00    0.6383450030E-04    0.4216840804E-02
    0.2300000000E+02    0.6464466325E-05    0.7410797835E-05    0.6157007408E+00    0.6709679689E-04    0.4217233008E-02
    0.2500000000E+02    0.6623677892E-05    0.7600666809E-05    0.6214334466E+00    0.7040869532E-04    0.4217526365E-02
    0.2700000000E+02    0.6784504036E-05    0.7792768319E-05    0.6264017931E+00    0.7376325027E-04    0.4217740256E-02
    0.2900000000E+02    0.6947118949E-05    0.7987232389E-05    0.6307491000E+00    0.7715440124E-04    0.4217889254E-02
    0.3100000000E+02    0.7111578540E-05    0.8184068092E-05    0.6345849636E+00    0.8057695207E-04    0.4217984533E-02
    0.3300000000E+02    0.7277869280E-05    0.8383216023E-05    0.6379946251E+00    0.8402648580E-04    0.4218034817E-02
    0.3500000000E+02    0.7445937746E-05    0.8584579603E-05    0.6410453797E+00    0.8749926182E-04    0.4218047012E-02
    0.3700000000E+02    0.7615708698E-05    0.8788043888E-05    0.6437910634E+00    0.9099211563E-04    0.4218026667E-02
    0.3900000000E+02    0.7787096190E-05    0.8993486887E-05    0.6462752575E+00    0.9450236858E-04    0.4217978289E-02
    0.4100000000E+02    0.7960010404E-05    0.9200786303E-05    0.6485336196E+00    0.9802775008E-04    0.4217905577E-02
    0.4300000000E+02    0.8134361789E-05    0.9409823462E-05    0.6505956058E+00    0.1015663317E-03    0.4217811601E-02
    0.4500000000E+02    0.8310063530E-05    0.9620485489E-05    0.6524857627E+00    0.1051164721E-03    0.4217698927E-02
    0.4700000000E+02    0.8487032934E-05    0.9832666405E-05    0.6542247097E+00    0.1086767710E-03    0.4217569719E-02
    0.4900000000E+02    0.8665192151E-05    0.1004626755E-04    0.6558298938E+00    0.1122460314E-03    0.4217425815E-02
    0.1000000000E+02    0.5374199743E-05    0.6132220133E-05    0.5354408493E+00    0.4703000239E-04    0.4210918644E-02
    0.3000000000E+02    0.7029117795E-05    0.8085356338E-05    0.6327251503E+00    0.7886204481E-04    0.4217943014E-02
    0.5000000000E+02    0.8754695013E-05    0.1015357190E-04    0.6565870569E+00    0.1140336957E-03    0.4217348851E-02
    0.7000000000E+02    0.1059226677E-04    0.1235568924E-04    0.6673740910E+00    0.1500747411E-03    0.4215321528E-02
    0.9000000000E+02    0.1249377806E-04    0.1463235140E-04    0.6735215722E+00    0.1864315556E-03    0.4212759331E-02
    0.1100000000E+03    0.1443736972E-04    0.1695757601E-04    0.6774929469E+00    0.2229833690E-03    0.4209932166E-02
    0.1300000000E+03    0.1641282268E-04    0.1931947778E-04    0.6802699045E+00    0.2597174962E-03    0.4206949151E-02
    0.1500000000E+03    0.1841512783E-04    0.2171235049E-04    0.6823208384E+00    0.2966520660E-03    0.4203862374E-02
    0.1700000000E+03    0.2044180774E-04    0.2413344756E-04    0.6838975469E+00    0.3338136489E-03    0.4200699449E-02
    0.1900000000E+03    0.2249170735E-04    0.2658154957E-04    0.6851474567E+00    0.3712300752E-03    0.4197476057E-02
    0.2100000000E+03    0.2456440360E-04    0.2905627254E-04    0.6861626238E+00    0.4089281078E-03    0.4194201510E-02
    0.2300000000E+03    0.2665989786E-04    0.3155771120E-04    0.6870034971E+00    0.4469328027E-03    0.4190881479E-02
    0.2500000000E+03    0.2877844716E-04    0.3408624493E-04    0.6877114115E+00    0.4852674751E-03    0.4187519433E-02
    0.2700000000E+03    0.3092046761E-04    0.3664242783E-04    0.6883155891E+00    0.5239538716E-03    0.4184117456E-02
    0.2900000000E+03    0.3308647738E-04    0.3922692432E-04    0.6888372732E+00    0.5630123973E-03    0.4180676726E-02
    0.3100000000E+03    0.3527706202E-04    0.4184047053E-04    0.6892922777E+00    0.6024623414E-03    0.4177197809E-02
    0.3300000000E+03    0.3749285309E-04    0.4448385077E-04    0.6896926173E+00    0.6423220801E-03    0.4173680849E-02
    0.3500000000E+03    0.3973451483E-04    0.4715788303E-04    0.6900475837E+00    0.6826092532E-03    0.4170125688E-02
    0.3700000000E+03    0.4200273578E-04    0.4986341008E-04    0.6903644758E+00    0.7233409148E-03    0.4166531951E-02
    0.3900000000E+03    0.4429822352E-04    0.5260129409E-04    0.6906491067E+00    0.7645336615E-03    0.4162899101E-02
    0.4100000000E+03    0.4662170158E-04    0.5537241349E-04    0.6909061636E+00    0.8062037414E-03    0.4159226475E-02
    0.4300000000E+03    0.4897390758E-04    0.5817766127E-04    0.6911394675E+00    0.8483671473E-03    0.4155513316E-02
    0.4500000000E+03    0.5135559226E-04    0.6101794428E-04    0.6913521647E+00    0.8910396961E-03    0.4151758793E-02
    0.4700000000E+03    0.5376751918E-04    0.6389418311E-04    0.6915468693E+00    0.9342370987E-03    0.4147962008E-02
    0.4900000000E+03    0.5621046476E-04    0.6680731238E-04    0.6917257713E+00    0.9779750196E-03    0.4144122014E-02
    0.1000000000E+03    0.1346112279E-04    0.1578983937E-04    0.6757000470E+00    0.2046850621E-03    0.4211370078E-02
    0.3000000000E+03    0.3417865926E-04    0.4053001811E-04    0.6890722852E+00    0.5826872743E-03    0.4178942023E-02
    0.5000000000E+03    0.5744381578E-04    0.6827800700E-04    0.6918098854E+00    0.1000051570E-02    0.4142185505E-02
    0.7000000000E+03    0.8394174007E-04    0.9987148361E-04    0.6929894693E+00    0.1473870249E-02    0.4100922253E-02
    0.9000000000E+03    0.1145667013E-03    0.1363814797E-03    0.6936463240E+00    0.2021080610E-02    0.4053966173E-02
    0.1100000000E+04    0.1504485600E-03    0.1791570083E-03    0.6940648303E+00    0.2662275238E-02    0.3999778776E-02
    0.1300000000E+04    0.1930735685E-03    0.2299711940E-03    0.6943547601E+00    0.3424303114E-02    0.3936359875E-02
    0.1500000000E+04    0.2444516342E-03    0.2912213416E-03    0.6945674530E+00    0.4343395109E-02    0.3861045620E-02
    0.1700000000E+04    0.3073602117E-03    0.3662200814E-03    0.6947301287E+00    0.5469611766E-02    0.3770213814E-02
    0.1900000000E+04    0.3857076487E-03    0.4596289502E-03    0.6948585627E+00    0.6873444501E-02    0.3658857233E-02
    0.2100000000E+04    0.4850704944E-03    0.5780995857E-03    0.6949625284E+00    0.8655589602E-02    0.3519979961E-02
    0.2300000000E+04    0.6134495980E-03    0.7311762264E-03    0.6950484036E+00    0.1096075813E-01    0.3343810189E-02
    0.2500000000E+04    0.7821787968E-03    0.9323809983E-03    0.6951205271E+00    0.1399443569E-01    0.3117016953E-02
    0.2700000000E+04    0.1006460737E-02    0.1199856102E-02    0.6951819532E+00    0.1803331777E-01    0.2822785485E-02
    0.2900000000E+04    0.1303628202E-02    0.1554295925E-02    0.6952348945E+00    0.2339539283E-01    0.2444381014E-02
    0.3100000000E+04    0.1684607498E-02    0.2008773419E-02    0.6952809927E+00    0.3028794431E-01    0.1977651293E-02
    0.3300000000E+04    0.2134588399E-02    0.2545686418E-02    0.6953214920E+00    0.3845921047E-01    0.1455136199E-02
    0.3500000000E+04    0.2597312951E-02    0.3097993516E-02    0.6953573522E+00    0.4690872531E-01    0.9588858518E-03
    0.3700000000E+04    0.3000801690E-02    0.3579851735E-02    0.6953893256E+00    0.5433996927E-01    0.5770185403E-03
    0.3900000000E+04    0.3310931349E-02    0.3950513679E-02    0.6954180104E+00    0.6012552245E-01    0.3368874322E-03
    0.4100000000E+04    0.3540315558E-02    0.4224966022E-02    0.6954438880E+00    0.6447872500E-01    0.2066850581E-03
    0.4300000000E+04    0.3717071898E-02    0.4436708978E-02    0.6954673503E+00    0.6789798511E-01    0.1420214281E-03
    0.4500000000E+04    0.3863594155E-02    0.4612436075E-02    0.6954887195E+00    0.7078342383E-01    0.1113212497E-03
    0.4700000000E+04    0.3993186081E-02    0.4768009007E-02    0.6955082629E+00    0.7337363184E-01    0.9706451574E-04
    0.4900000000E+04    0.4112855565E-02    0.4911783841E-02    0.6955262043E+00    0.7579448696E-01    0.9053383238E-04
    0.1000000000E+04    0.1317676531E-03    0.1568871765E-03    0.6938764577E+00    0.2328430426E-02    0.4027888593E-02
    0.3000000000E+04    0.1483677781E-02    0.1769069888E-02    0.6952587135E+00    0.2665014744E-01    0.2221205441E-02
    0.5000000000E+04    0.4170153424E-02    0.4980658719E-02    0.6955346344E+00    0.7696266165E-01    0.8876861797E-04
    0.7000000000E+04    0.5135899665E-02    0.6144757608E-02    0.6956524393E+00    0.9749350049E-01    0.8633977024E-04
    0.9000000000E+04    0.5870385306E-02    0.7034980646E-02    0.6957176126E+00    0.1144122017E+00    0.8755545960E-04
    0.1100000000E+05    0.6439658608E-02    0.7729073994E-02    0.6957589045E+00    0.1286570912E+00    0.8853996407E-04
    0.1300000000E+05    0.6885919629E-02    0.8276746529E-02    0.6957873619E+00    0.1408314276E+00    0.8936757473E-04
    0.1500000000E+05    0.7238708361E-02    0.8712852352E-02    0.6958081339E+00    0.1513682899E+00    0.9008242099E-04
    0.1700000000E+05    0.7519242688E-02    0.9062469464E-02    0.6958239434E+00    0.1605868340E+00    0.9071218929E-04
    0.1900000000E+05    0.7743100869E-02    0.9344042926E-02    0.6958363648E+00    0.1687275656E+00    0.9127541586E-04
    0.2100000000E+05    0.7921939109E-02    0.9571399204E-02    0.6958463712E+00    0.1759752514E+00    0.9178513243E-04
    0.2300000000E+05    0.8064624057E-02    0.9755075578E-02    0.6958545966E+00    0.1824742490E+00    0.9225085684E-04
    0.2500000000E+05    0.8177998869E-02    0.9903220269E-02    0.6958614715E+00    0.1883390314E+00    0.9267975665E-04
    0.2700000000E+05    0.8267413177E-02    0.1002221577E-01    0.6958672983E+00    0.1936615781E+00    0.9307736682E-04
    0.2900000000E+05    0.8337097087E-02    0.1011711918E-01    0.6958722958E+00    0.1985166704E+00    0.9344805232E-04
    0.3100000000E+05    0.8390429844E-02    0.1019197884E-01    0.6958766259E+00    0.2029657547E+00    0.9379531739E-04
    0.3300000000E+05    0.8430135929E-02    0.1025006570E-01    0.6958804114E+00    0.2070598055E+00    0.9412201872E-04
    0.3500000000E+05    0.8458430249E-02    0.1029404481E-01    0.6958837466E+00    0.2108414799E+00    0.9443051633E-04
    0.3700000000E+05    0.8477127071E-02    0.1032610413E-01    0.6958867055E+00    0.2143467584E+00    0.9472278282E-04
    0.3900000000E+05    0.8487722705E-02    0.1034805238E-01    0.6958893466E+00    0.2176062118E+00    0.9500048413E-04
    0.4100000000E+05    0.8491458964E-02    0.1036139430E-01    0.6958917172E+00    0.2206459882E+00    0.9526504016E-04
    0.4300000000E+05    0.8489372355E-02    0.1036738896E-01    0.6958938556E+00    0.2234885908E+00    0.9551767119E-04
    0.4500000000E+05    0.8482332559E-02    0.1036709553E-01    0.6958957931E+00    0.2261534973E+00    0.9575943373E-04
    0.4700000000E+05    0.8471072788E-02    0.1036140932E-01    0.6958975559E+00    0.2286576556E+00    0.9599124869E-04
    0.4900000000E+05    0.8456213932E-02    0.1035109061E-01    0.6958991657E+00    0.2310158852E+00    0.9621392376E-04
    0.1000000000E+05    0.6172672580E-02    0.7403010514E-02    0.6957403460E+00    0.1218263211E+00    0.8807106418E-04
    0.3000000000E+05    0.8365623642E-02    0.1015683408E-01    0.6958745358E+00    0.2007885604E+00    0.9362442070E-04
    0.5000000000E+05    0.8447603002E-02    0.1034440048E-01    0.6958999191E+00    0.2321444075E+00    0.9632205974E-04
    0.7000000000E+05    0.8179856817E-02    0.1008277289E-01    0.6959101836E+00    0.2495102544E+00    0.9814088500E-04
    0.9000000000E+05    0.7849917087E-02    0.9728211237E-02    0.6959155416E+00    0.2607404945E+00    0.9952162371E-04
    0.1100000000E+06    0.7526420849E-02    0.9369747018E-02    0.6959187296E+00    0.2686900679E+00    0.1006379984E-03
    0.1300000000E+06    0.7226941017E-02    0.9032360281E-02    0.6959207818E+00    0.2746613945E+00    0.1015768710E-03
    0.1500000000E+06    0.6954488117E-02    0.8722039081E-02    0.6959221720E+00    0.2793390123E+00    0.1023880657E-03
    0.1700000000E+06    0.6707641290E-02    0.8438596723E-02    0.6959231467E+00    0.2831195512E+00    0.1031028745E-03
    0.1900000000E+06    0.6483764865E-02    0.8179881068E-02    0.6959238460E+00    0.2862498519E+00    0.1037422645E-03
    0.2100000000E+06    0.6280091766E-02    0.7943267899E-02    0.6959243548E+00    0.2888921812E+00    0.1043209855E-03
    0.2300000000E+06    0.6094078830E-02    0.7726199257E-02    0.6959247276E+00    0.2911579330E+00    0.1048498156E-03
    0.2500000000E+06    0.5923499911E-02    0.7526362797E-02    0.6959250006E+00    0.2931263151E+00    0.1053368742E-03
    0.2700000000E+06    0.5766444298E-02    0.7341732292E-02    0.6959251988E+00    0.2948553136E+00    0.1057884335E-03
    0.2900000000E+06    0.5621283726E-02    0.7170555502E-02    0.6959253399E+00    0.2963884328E+00    0.1062094410E-03
    0.3100000000E+06    0.5486632246E-02    0.7011324306E-02    0.6959254367E+00    0.2977590024E+00    0.1066038697E-03
    0.3300000000E+06    0.5361307956E-02    0.6862741262E-02    0.6959254989E+00    0.2989930232E+00    0.1069749588E-03
    0.3500000000E+06    0.5244299486E-02    0.6723688113E-02    0.6959255335E+00    0.3001111014E+00    0.1073253851E-03
    0.3700000000E+06    0.5134737742E-02    0.6593198073E-02    0.6959255461E+00    0.3011297963E+00    0.1076573859E-03
    0.3900000000E+06    0.5031872468E-02    0.6470432206E-02    0.6959255410E+00    0.3020625799E+00    0.1079728513E-03
    0.4100000000E+06    0.4935052971E-02    0.6354659592E-02    0.6959255215E+00    0.3029205343E+00    0.1082733922E-03
    0.4300000000E+06    0.4843712292E-02    0.6245240806E-02    0.6959254903E+00    0.3037128657E+00    0.1085603932E-03
    0.4500000000E+06    0.4757354200E-02    0.6141614173E-02    0.6959254494E+00    0.3044472912E+00    0.1088350533E-03
    0.4700000000E+06    0.4675542479E-02    0.6043284338E-02    0.6959254007E+00    0.3051303318E+00    0.1090984176E-03
    0.4900000000E+06    0.4597892074E-02    0.5949812741E-02    0.6959253456E+00    0.3057675394E+00    0.1093514027E-03
    0.1000000000E+06    0.7685713680E-02    0.9547197365E-02    0.6959173225E+00    0.2650232809E+00    0.1001062199E-03
    0.3000000000E+06    0.5552722583E-02    0.7089532348E-02    0.6959253932E+00    0.2970922656E+00    0.1064097603E-03
    0.5000000000E+06    0.4560519189E-02    0.5904775277E-02    0.6959253159E+00    0.3060704697E+00    0.1094742596E-03
    0.7000000000E+06    0.3966147316E-02    0.5184073538E-02    0.6959245751E+00    0.3105864432E+00    0.1115408189E-03
    0.9000000000E+06    0.3559233637E-02    0.4685679400E-02    0.6959237677E+00    0.3133858664E+00    0.1131097520E-03
    0.1100000000E+07    0.3258003224E-02    0.4313939868E-02    0.6959229997E+00    0.3153241953E+00    0.1143783468E-03
    0.1300000000E+07    0.3023273145E-02    0.4022517640E-02    0.6959222904E+00    0.3167620879E+00    0.1154452677E-03
    0.1500000000E+07    0.2833609102E-02    0.3785861626E-02    0.6959216389E+00    0.3178802830E+00    0.1163671155E-03
    0.1700000000E+07    0.2676163803E-02    0.3588560240E-02    0.6959210396E+00    0.3187802521E+00    0.1171794411E-03
    0.1900000000E+07    0.2542703370E-02    0.3420684542E-02    0.6959204861E+00    0.3195237639E+00    0.1179060668E-03
    0.2100000000E+07    0.2427673006E-02    0.3275506366E-02    0.6959199726E+00    0.3201507735E+00    0.1185637516E-03
    0.2300000000E+07    0.2327170171E-02    0.3148280453E-02    0.6959194940E+00    0.3206883792E+00    0.1191647420E-03
    0.2500000000E+07    0.2238361393E-02    0.3035549602E-02    0.6959190462E+00    0.3211556713E+00    0.1197182639E-03
    0.2700000000E+07    0.2159132577E-02    0.2934726365E-02    0.6959186254E+00    0.3215665250E+00    0.1202314446E-03
    0.2900000000E+07    0.2087869764E-02    0.2843829857E-02    0.6959182286E+00    0.3219312914E+00    0.1207099060E-03
    0.3100000000E+07    0.2023316437E-02    0.2761313940E-02    0.6959178534E+00    0.3222578653E+00    0.1211581628E-03
    0.3300000000E+07    0.1964477671E-02    0.2685951454E-02    0.6959174974E+00    0.3225523836E+00    0.1215798960E-03
    0.3500000000E+07    0.1910553951E-02    0.2616754095E-02    0.6959171587E+00    0.3228196964E+00    0.1219781472E-03
    0.3700000000E+07    0.1860894386E-02    0.2552915626E-02    0.6959168359E+00    0.3230636924E+00    0.1223554592E-03
    0.3900000000E+07    0.1814962936E-02    0.2493770795E-02    0.6959165274E+00    0.3232875303E+00    0.1227139795E-03
    0.4100000000E+07    0.1772313572E-02    0.2438765058E-02    0.6959162320E+00    0.3234938043E+00    0.1230555389E-03
    0.4300000000E+07    0.1732571708E-02    0.2387431900E-02    0.6959159486E+00    0.3236846680E+00    0.1233817110E-03
    0.4500000000E+07    0.1695420116E-02    0.2339375602E-02    0.6959156763E+00    0.3238619247E+00    0.1236938581E-03
    0.4700000000E+07    0.1660588091E-02    0.2294257963E-02    0.6959154142E+00    0.3240270980E+00    0.1239931680E-03
    0.4900000000E+07    0.1627843024E-02    0.2251787948E-02    0.6959151616E+00    0.3241814842E+00    0.1242806825E-03
    0.1000000000E+07    0.3398442381E-02    0.4487557179E-02    0.6959233768E+00    0.3144339596E+00    0.1137740535E-03
    0.3000000000E+07    0.2054821839E-02    0.2801607422E-02    0.6959180385E+00    0.3220989340E+00    0.1209375630E-03
    0.5000000000E+07    0.1612189163E-02    0.2231465705E-02    0.6959150387E+00    0.3242549857E+00    0.1244203079E-03
    0.7000000000E+07    0.1371613823E-02    0.1917472449E-02    0.6959129458E+00    0.3253604033E+00    0.1267689355E-03
    0.9000000000E+07    0.1214785878E-02    0.1710926870E-02    0.6959113320E+00    0.3260572688E+00    0.1285520215E-03
    0.1100000000E+08    0.1102138053E-02    0.1561539846E-02    0.6959100153E+00    0.3265466966E+00    0.1299937767E-03
    0.1300000000E+08    0.1016154848E-02    0.1446874233E-02    0.6959089014E+00    0.3269141990E+00    0.1312063311E-03
    0.1500000000E+08    0.9477255429E-03    0.1355187692E-02    0.6959079350E+00    0.3272030082E+00    0.1322540106E-03
    0.1700000000E+08    0.8915792340E-03    0.1279652515E-02    0.6959070809E+00    0.3274376017E+00    0.1331772185E-03
    0.1900000000E+08    0.8444259368E-03    0.1215988675E-02    0.6959063151E+00    0.3276329980E+00    0.1340030285E-03
    0.2100000000E+08    0.8040914424E-03    0.1161357085E-02    0.6959056206E+00    0.3277989836E+00    0.1347504873E-03
    0.2300000000E+08    0.7690733967E-03    0.1113789450E-02    0.6959049850E+00    0.3279422416E+00    0.1354335128E-03
    0.2500000000E+08    0.7382958309E-03    0.1071871887E-02    0.6959043989E+00    0.3280675102E+00    0.1360625904E-03
    0.2700000000E+08    0.7109651329E-03    0.1034558718E-02    0.6959038550E+00    0.3281782535E+00    0.1366458201E-03
