  Pressure (Pa) 22mC5-500 (mol/kg) 23mC5-500 (mol/kg) 24mC5-500 (mol/kg) 2mC6-500 (mol/kg) C7-500 (mol/kg)
    0.1000000000E+01    0.1939915273E-05    0.3339040255E-05    0.1949965538E+00    0.4947962406E-05    0.4189504247E-02
    0.3000000000E+01    0.3438053661E-05    0.5895997674E-05    0.3748929542E+00    0.8318057261E-05    0.4221338936E-02
    0.5000000000E+01    0.4026914397E-05    0.6893059707E-05    0.4597173775E+00    0.9625238577E-05    0.4235530985E-02
    0.7000000000E+01    0.4344620983E-05    0.7431033595E-05    0.5090836555E+00    0.1048736858E-04    0.4243897500E-02
    0.9000000000E+01    0.4559868237E-05    0.7798377188E-05    0.5413815538E+00    0.1125078897E-04    0.4249487115E-02
    0.1100000000E+02    0.4731732179E-05    0.8095107226E-05    0.5641584651E+00    0.1200812533E-04    0.4253517364E-02
    0.1300000000E+02    0.4884476006E-05    0.8361822912E-05    0.5810835889E+00    0.1278495024E-04    0.4256577743E-02
    0.1500000000E+02    0.5029098517E-05    0.8616663440E-05    0.5941553594E+00    0.1358649973E-04    0.4258990444E-02
    0.1700000000E+02    0.5170896659E-05    0.8868200111E-05    0.6045552323E+00    0.1441160679E-04    0.4260947251E-02
    0.1900000000E+02    0.5312500928E-05    0.9120576781E-05    0.6130264597E+00    0.1525729381E-04    0.4262569844E-02
    0.2100000000E+02    0.5455217913E-05    0.9375766847E-05    0.6200600140E+00    0.1612034638E-04    0.4263939367E-02
    0.2300000000E+02    0.5599668956E-05    0.9634638057E-05    0.6259932539E+00    0.1699783139E-04    0.4265112139E-02
    0.2500000000E+02    0.5746111363E-05    0.9897482968E-05    0.6310656438E+00    0.1788723158E-04    0.4266128551E-02
    0.2700000000E+02    0.5894607000E-05    0.1016429424E-04    0.6354518609E+00    0.1878644198E-04    0.4267018377E-02
    0.2900000000E+02    0.6045113658E-05    0.1043491182E-04    0.6392823172E+00    0.1969372179E-04    0.4267804087E-02
    0.3100000000E+02    0.6197535716E-05    0.1070910313E-04    0.6426563461E+00    0.2060763682E-04    0.4268502979E-02
    0.3300000000E+02    0.6351752608E-05    0.1098660722E-04    0.6456509394E+00    0.2152700567E-04    0.4269128604E-02
    0.3500000000E+02    0.6507634876E-05    0.1126715877E-04    0.6483266947E+00    0.2245085339E-04    0.4269691743E-02
    0.3700000000E+02    0.6665053133E-05    0.1155050107E-04    0.6507319578E+00    0.2337837321E-04    0.4270201089E-02
    0.3900000000E+02    0.6823882926E-05    0.1183639240E-04    0.6529057708E+00    0.2430889529E-04    0.4270663737E-02
    0.4100000000E+02    0.6984007205E-05    0.1212460894E-04    0.6548800069E+00    0.2524186164E-04    0.4271085541E-02
    0.4300000000E+02    0.7145317383E-05    0.1241494546E-04    0.6566809437E+00    0.2617680585E-04    0.4271471377E-02
    0.4500000000E+02    0.7307713604E-05    0.1270721502E-04    0.6583304398E+00    0.2711333684E-04    0.4271825344E-02
    0.4700000000E+02    0.7471104542E-05    0.1300124793E-04    0.6598468258E+00    0.2805112568E-04    0.4272150915E-02
    0.4900000000E+02    0.7635406953E-05    0.1329689054E-04    0.6612455889E+00    0.2898989501E-04    0.4272451053E-02
    0.1000000000E+02    0.4649252069E-05    0.7952259416E-05    0.5536760717E+00    0.1162785890E-04    0.4251651543E-02
    0.3000000000E+02    0.6121092445E-05    0.1057157676E-04    0.6410211299E+00    0.2014992909E-04    0.4268163464E-02
    0.5000000000E+02    0.7717876021E-05    0.1344527151E-04    0.6619050571E+00    0.2945957262E-04    0.4272592396E-02
    0.7000000000E+02    0.9400119694E-05    0.1647011906E-04    0.6712775632E+00    0.3886385371E-04    0.4274548504E-02
    0.9000000000E+02    0.1112003286E-04    0.1955937238E-04    0.6765999282E+00    0.4824050581E-04    0.4275511522E-02
    0.1100000000E+03    0.1285812722E-04    0.2267872083E-04    0.6800309113E+00    0.5756835777E-04    0.4275955402E-02
    0.1300000000E+03    0.1460572404E-04    0.2581320573E-04    0.6824265519E+00    0.6684875432E-04    0.4276085428E-02
    0.1500000000E+03    0.1635868288E-04    0.2895584802E-04    0.6841940222E+00    0.7608841300E-04    0.4276007232E-02
    0.1700000000E+03    0.1811496955E-04    0.3210331951E-04    0.6855517355E+00    0.8529486602E-04    0.4275781650E-02
    0.1900000000E+03    0.1987360374E-04    0.3525409382E-04    0.6866273678E+00    0.9447517421E-04    0.4275446628E-02
    0.2100000000E+03    0.2163416141E-04    0.3840758150E-04    0.6875005436E+00    0.1036356149E-03    0.4275027279E-02
    0.2300000000E+03    0.2339652278E-04    0.4156369658E-04    0.6882234974E+00    0.1127816751E-03    0.4274541008E-02
    0.2500000000E+03    0.2516073776E-04    0.4472262734E-04    0.6888319185E+00    0.1219181342E-03    0.4274000329E-02
    0.2700000000E+03    0.2692695099E-04    0.4788471038E-04    0.6893510208E+00    0.1310491656E-03    0.4273414509E-02
    0.2900000000E+03    0.2869535897E-04    0.5105035917E-04    0.6897991233E+00    0.1401784309E-03    0.4272790584E-02
    0.3100000000E+03    0.3046618479E-04    0.5422002290E-04    0.6901898567E+00    0.1493091619E-03    0.4272134009E-02
    0.3300000000E+03    0.3223966319E-04    0.5739416247E-04    0.6905335721E+00    0.1584442294E-03    0.4271449090E-02
    0.3500000000E+03    0.3401603165E-04    0.6057323657E-04    0.6908382722E+00    0.1675861992E-03    0.4270739277E-02
    0.3700000000E+03    0.3579552509E-04    0.6375769369E-04    0.6911102409E+00    0.1767373789E-03    0.4270007370E-02
    0.3900000000E+03    0.3757837281E-04    0.6694796785E-04    0.6913544818E+00    0.1858998564E-03    0.4269255672E-02
    0.4100000000E+03    0.3936479688E-04    0.7014447648E-04    0.6915750278E+00    0.1950755311E-03    0.4268486095E-02
    0.4300000000E+03    0.4115501124E-04    0.7334761959E-04    0.6917751663E+00    0.2042661402E-03    0.4267700240E-02
    0.4500000000E+03    0.4294922154E-04    0.7655777991E-04    0.6919576032E+00    0.2134732810E-03    0.4266899459E-02
    0.4700000000E+03    0.4474762509E-04    0.7977532330E-04    0.6921245866E+00    0.2226984285E-03    0.4266084902E-02
    0.4900000000E+03    0.4655041121E-04    0.8300059963E-04    0.6922779991E+00    0.2319429515E-03    0.4265257556E-02
    0.1000000000E+03    0.1198750086E-04    0.2111648667E-04    0.6784826913E+00    0.5291067077E-04    0.4275782132E-02
    0.3000000000E+03    0.2958045513E-04    0.5263466043E-04    0.6900009501E+00    0.1447434260E-03    0.4272466086E-02
    0.5000000000E+03    0.4745350478E-04    0.8461624282E-04    0.6923501227E+00    0.2365728807E-03    0.4264839356E-02
    0.7000000000E+03    0.6578609266E-04    0.1174096152E-03    0.6933610999E+00    0.3304602021E-03    0.4255958759E-02
    0.9000000000E+03    0.8472777796E-04    0.1512882218E-03    0.6939236175E+00    0.4273728784E-03    0.4246311905E-02
    0.1100000000E+04    0.1043928330E-03    0.1864586022E-03    0.6942817883E+00    0.5279619293E-03    0.4236040974E-02
    0.1300000000E+04    0.1248802539E-03    0.2230988167E-03    0.6945297780E+00    0.6327628312E-03    0.4225188727E-02
    0.1500000000E+04    0.1462836159E-03    0.2613767738E-03    0.6947116071E+00    0.7422697671E-03    0.4213758031E-02
    0.1700000000E+04    0.1686963827E-03    0.3014599718E-03    0.6948506064E+00    0.8569706545E-03    0.4201731666E-02
    0.1900000000E+04    0.1922152061E-03    0.3435215057E-03    0.6949602935E+00    0.9773671803E-03    0.4189080157E-02
    0.2100000000E+04    0.2169423007E-03    0.3877443635E-03    0.6950490408E+00    0.1103988399E-02    0.4175765151E-02
    0.2300000000E+04    0.2429873963E-03    0.4343249458E-03    0.6951223107E+00    0.1237401479E-02    0.4161740861E-02
    0.2500000000E+04    0.2704695311E-03    0.4834762873E-03    0.6951838182E+00    0.1378221314E-02    0.4146954556E-02
    0.2700000000E+04    0.2995188374E-03    0.5354312613E-03    0.6952361782E+00    0.1527119963E-02    0.4131346518E-02
    0.2900000000E+04    0.3302784213E-03    0.5904459476E-03    0.6952812844E+00    0.1684836482E-02    0.4114849663E-02
    0.3100000000E+04    0.3629064135E-03    0.6488033074E-03    0.6953205420E+00    0.1852187634E-02    0.4097388906E-02
    0.3300000000E+04    0.3975782613E-03    0.7108172859E-03    0.6953550152E+00    0.2030079800E-02    0.4078880317E-02
    0.3500000000E+04    0.4344893265E-03    0.7768374641E-03    0.6953855253E+00    0.2219522490E-02    0.4059230069E-02
    0.3700000000E+04    0.4738578605E-03    0.8472543849E-03    0.6954127157E+00    0.2421643803E-02    0.4038333177E-02
    0.3900000000E+04    0.5159284365E-03    0.9225056963E-03    0.6954370980E+00    0.2637708256E-02    0.4016072010E-02
    0.4100000000E+04    0.5609759246E-03    0.1003083268E-02    0.6954590838E+00    0.2869137454E-02    0.3992314540E-02
    0.4300000000E+04    0.6093101152E-03    0.1089541467E-02    0.6954790081E+00    0.3117534128E-02    0.3966912302E-02
    0.4500000000E+04    0.6612811062E-03    0.1182506801E-02    0.6954971464E+00    0.3384710162E-02    0.3939698018E-02
    0.4700000000E+04    0.7172855918E-03    0.1282689178E-02    0.6955137271E+00    0.3672719332E-02    0.3910482833E-02
    0.4900000000E+04    0.7777742064E-03    0.1390895053E-02    0.6955289415E+00    0.3983895564E-02    0.3879053114E-02
    0.1000000000E+04    0.9446348616E-04    0.1687004190E-03    0.6941205994E+00    0.4771728420E-03    0.4241250462E-02
    0.3000000000E+04    0.3463483355E-03    0.6191879494E-03    0.6953015711E+00    0.1767253330E-02    0.4106244799E-02
    0.5000000000E+04    0.8098577162E-03    0.1448288945E-02    0.6955360877E+00    0.4148988134E-02    0.3862433365E-02
    0.7000000000E+04    0.1870198841E-02    0.3345392191E-02    0.6956357262E+00    0.9618183766E-02    0.3329106091E-02
    0.9000000000E+04    0.4810694817E-02    0.8608352531E-02    0.6956905773E+00    0.2487977383E-01    0.1963163463E-02
    0.1100000000E+05    0.8924584693E-02    0.1597909866E-01    0.6957251543E+00    0.4659376908E-01    0.4119729484E-03
    0.1300000000E+05    0.1057917982E-01    0.1895451253E-01    0.6957488613E+00    0.5585000710E-01    0.1697114075E-03
    0.1500000000E+05    0.1161932912E-01    0.2083216798E-01    0.6957660750E+00    0.6201786668E-01    0.1566293125E-03
    0.1700000000E+05    0.1252326331E-01    0.2246754948E-01    0.6957791058E+00    0.6755824093E-01    0.1568897709E-03
    0.1900000000E+05    0.1333532836E-01    0.2393971099E-01    0.6957892877E+00    0.7268669876E-01    0.1578106969E-03
    0.2100000000E+05    0.1406881222E-01    0.2527215496E-01    0.6957974442E+00    0.7745914268E-01    0.1586880375E-03
    0.2300000000E+05    0.1473341215E-01    0.2648200782E-01    0.6958041105E+00    0.8191508666E-01    0.1594927449E-03
    0.2500000000E+05    0.1533725323E-01    0.2758362521E-01    0.6958096497E+00    0.8608781727E-01    0.1602340708E-03
    0.2700000000E+05    0.1588726296E-01    0.2858925405E-01    0.6958143164E+00    0.9000597194E-01    0.1609213426E-03
    0.2900000000E+05    0.1638938672E-01    0.2950941145E-01    0.6958182946E+00    0.9369435932E-01    0.1615620832E-03
    0.3100000000E+05    0.1684875416E-01    0.3035317716E-01    0.6958217201E+00    0.9717458637E-01    0.1621623464E-03
    0.3300000000E+05    0.1726981264E-01    0.3112842812E-01    0.6958246958E+00    0.1004655636E+00    0.1627270685E-03
    0.3500000000E+05    0.1765643548E-01    0.3184202895E-01    0.6958273005E+00    0.1035839171E+00    0.1632603279E-03
    0.3700000000E+05    0.1801201039E-01    0.3249998739E-01    0.6958295961E+00    0.1065443268E+00    0.1637655337E-03
    0.3900000000E+05    0.1833951211E-01    0.3310758224E-01    0.6958316314E+00    0.1093598058E+00    0.1642455647E-03
    0.4100000000E+05    0.1864156253E-01    0.3366946917E-01    0.6958334456E+00    0.1120419335E+00    0.1647028751E-03
    0.4300000000E+05    0.1892048068E-01    0.3418976872E-01    0.6958350705E+00    0.1146010498E+00    0.1651395737E-03
    0.4500000000E+05    0.1917832449E-01    0.3467213993E-01    0.6958365323E+00    0.1170464183E+00    0.1655574864E-03
    0.4700000000E+05    0.1941692592E-01    0.3511984221E-01    0.6958378526E+00    0.1193863650E+00    0.1659582050E-03
    0.4900000000E+05    0.1963792061E-01    0.3553578762E-01    0.6958390492E+00    0.1216283949E+00    0.1663431254E-03
    0.1000000000E+05    0.7150702115E-02    0.1279896882E-01    0.6957096354E+00    0.3713977973E-01    0.9983301064E-03
    0.3000000000E+05    0.1662412241E-01    0.2994032519E-01    0.6958200693E+00    0.9545925301E-01    0.1618669432E-03
    0.5000000000E+05    0.1974227914E-01    0.3573267758E-01    0.6958396060E+00    0.1227148371E+00    0.1665300517E-03
    0.7000000000E+05    0.2118999147E-01    0.3851150387E-01    0.6958469082E+00    0.1406489971E+00    0.1696741448E-03
    0.9000000000E+05    0.2188484783E-01    0.3991566093E-01    0.6958503655E+00    0.1536676505E+00    0.1720609731E-03
    0.1100000000E+06    0.2219419037E-01    0.4060620855E-01    0.6958521802E+00    0.1637252700E+00    0.1739908177E-03
    0.1300000000E+06    0.2228958605E-01    0.4089439165E-01    0.6958531674E+00    0.1718345211E+00    0.1756138252E-03
    0.1500000000E+06    0.2225991406E-01    0.4094285606E-01    0.6958536921E+00    0.1785785654E+00    0.1770161217E-03
    0.1700000000E+06    0.2215475682E-01    0.4084319976E-01    0.6958539400E+00    0.1843200300E+00    0.1782517992E-03
    0.1900000000E+06    0.2200333692E-01    0.4064997505E-01    0.6958540137E+00    0.1892979655E+00    0.1793571026E-03
    0.2100000000E+06    0.2182360985E-01    0.4039709400E-01    0.6958539741E+00    0.1936773599E+00    0.1803575290E-03
    0.2300000000E+06    0.2162696461E-01    0.4010635214E-01    0.6958538589E+00    0.1975763783E+00    0.1812717097E-03
    0.2500000000E+06    0.2142080083E-01    0.3979212636E-01    0.6958536924E+00    0.2010822695E+00    0.1821136808E-03
    0.2700000000E+06    0.2121001111E-01    0.3946409208E-01    0.6958534910E+00    0.2042611183E+00    0.1828942847E-03
    0.2900000000E+06    0.2099786815E-01    0.3912885886E-01    0.6958532658E+00    0.2071640744E+00    0.1836220742E-03
    0.3100000000E+06    0.2078657363E-01    0.3879098877E-01    0.6958530246E+00    0.2098314709E+00    0.1843039172E-03
    0.3300000000E+06    0.2057760762E-01    0.3845364886E-01    0.6958527727E+00    0.2122956283E+00    0.1849454133E-03
    0.3500000000E+06    0.2037195643E-01    0.3811903969E-01    0.6958525143E+00    0.2145828151E+00    0.1855511897E-03
    0.3700000000E+06    0.2017026430E-01    0.3778868277E-01    0.6958522522E+00    0.2167146487E+00    0.1861251142E-03
    0.3900000000E+06    0.1997293629E-01    0.3746361709E-01    0.6958519884E+00    0.2187091169E+00    0.1866704539E-03
    0.4100000000E+06    0.1978020906E-01    0.3714453557E-01    0.6958517246E+00    0.2205813362E+00    0.1871899939E-03
    0.4300000000E+06    0.1959220029E-01    0.3683188123E-01    0.6958514618E+00    0.2223441242E+00    0.1876861275E-03
    0.4500000000E+06    0.1940894357E-01    0.3652591574E-01    0.6958512010E+00    0.2240084365E+00    0.1881609275E-03
    0.4700000000E+06    0.1923041323E-01    0.3622676891E-01    0.6958509427E+00    0.2255837064E+00    0.1886162005E-03
    0.4900000000E+06    0.1905654221E-01    0.3593447465E-01    0.6958506873E+00    0.2270781101E+00    0.1890535312E-03
    0.1000000000E+06    0.2207425140E-01    0.4032578039E-01    0.6958514113E+00    0.1589894963E+00    0.1730715465E-03
    0.3000000000E+06    0.2089200855E-01    0.3896002866E-01    0.6958531468E+00    0.2085250360E+00    0.1839683633E-03
    0.5000000000E+06    0.1897132491E-01    0.3579088825E-01    0.6958505609E+00    0.2277972515E+00    0.1892659114E-03
    0.7000000000E+06    0.1748181776E-01    0.3325123884E-01    0.6958482265E+00    0.2392685766E+00    0.1928383281E-03
    0.9000000000E+06    0.1631468260E-01    0.3122816549E-01    0.6958462442E+00    0.2472248347E+00    0.1955505020E-03
    0.1100000000E+07    0.1537137054E-01    0.2957502720E-01    0.6958445426E+00    0.2532096880E+00    0.1977434842E-03
    0.1300000000E+07    0.1458817641E-01    0.2819117310E-01    0.6958430570E+00    0.2579463945E+00    0.1995878352E-03
    0.1500000000E+07    0.1392372972E-01    0.2700940754E-01    0.6958417404E+00    0.2618288427E+00    0.2011814005E-03
    0.1700000000E+07    0.1335017278E-01    0.2598370738E-01    0.6958405585E+00    0.2650938181E+00    0.2025856367E-03
    0.1900000000E+07    0.1284804198E-01    0.2508152925E-01    0.6958394864E+00    0.2678940282E+00    0.2038417251E-03
    0.2100000000E+07    0.1240328811E-01    0.2427916632E-01    0.6958385052E+00    0.2703332909E+00    0.2049786367E-03
    0.2300000000E+07    0.1200548284E-01    0.2355889143E-01    0.6958376006E+00    0.2724851508E+00    0.2060175418E-03
    0.2500000000E+07    0.1164669852E-01    0.2290714509E-01    0.6958367614E+00    0.2744034559E+00    0.2069743895E-03
    0.2700000000E+07    0.1132078366E-01    0.2231335027E-01    0.6958359785E+00    0.2761287174E+00    0.2078615001E-03
    0.2900000000E+07    0.1102287958E-01    0.2176911434E-01    0.6958352449E+00    0.2776921125E+00    0.2086885927E-03
    0.3100000000E+07    0.1074908895E-01    0.2126767775E-01    0.6958345544E+00    0.2791181021E+00    0.2094634713E-03
    0.3300000000E+07    0.1049624279E-01    0.2080352410E-01    0.6958339023E+00    0.2804261986E+00    0.2101924993E-03
    0.3500000000E+07    0.1026173322E-01    0.2037209866E-01    0.6958332845E+00    0.2816321936E+00    0.2108809348E-03
    0.3700000000E+07    0.1004339101E-01    0.1996960132E-01    0.6958326973E+00    0.2827490303E+00    0.2115331732E-03
    0.3900000000E+07    0.9839394406E-02    0.1959283180E-01    0.6958321379E+00    0.2837874368E+00    0.2121529271E-03
    0.4100000000E+07    0.9648200212E-02    0.1923907215E-01    0.6958316037E+00    0.2847563949E+00    0.2127433614E-03
    0.4300000000E+07    0.9468490910E-02    0.1890599630E-01    0.6958310925E+00    0.2856634918E+00    0.2133071960E-03
    0.4500000000E+07    0.9299133632E-02    0.1859159972E-01    0.6958306022E+00    0.2865151892E+00    0.2138467862E-03
    0.4700000000E+07    0.9139147923E-02    0.1829414387E-01    0.6958301314E+00    0.2873170306E+00    0.2143641853E-03
    0.4900000000E+07    0.8987680167E-02    0.1801211212E-01    0.6958296783E+00    0.2880738037E+00    0.2148611939E-03
    0.1000000000E+07    0.1581969051E-01    0.3036260827E-01    0.6958453628E+00    0.2504075352E+00    0.1966988609E-03
    0.3000000000E+07    0.1088318300E-01    0.2151341631E-01    0.6958348946E+00    0.2784209639E+00    0.2090821317E-03
    0.5000000000E+07    0.8914903318E-02    0.1787645814E-01    0.6958294580E+00    0.2884366114E+00    0.2151025556E-03
    0.7000000000E+07    0.7766031394E-02    0.1572218734E-01    0.6958257318E+00    0.2940998207E+00    0.2191624735E-03
    0.9000000000E+07    0.6985572645E-02    0.1424421467E-01    0.6958228813E+00    0.2978855274E+00    0.2222447648E-03
    0.1100000000E+08    0.6409130715E-02    0.1314442088E-01    0.6958205664E+00    0.3006541779E+00    0.2247370150E-03
    0.1300000000E+08    0.5960017732E-02    0.1228240373E-01    0.6958186140E+00    0.3027969065E+00    0.2268330584E-03
    0.1500000000E+08    0.5596853092E-02    0.1158184901E-01    0.6958169236E+00    0.3045212515E+00    0.2286440923E-03
    0.1700000000E+08    0.5295023341E-02    0.1099709621E-01    0.6958154318E+00    0.3059491911E+00    0.2302399597E-03
    0.1900000000E+08    0.5038823983E-02    0.1049886708E-01    0.6958140958E+00    0.3071578547E+00    0.2316674619E-03
    0.2100000000E+08    0.4817688093E-02    0.1006737703E-01    0.6958128855E+00    0.3081987748E+00    0.2329595235E-03
    0.2300000000E+08    0.4624202871E-02    0.9688694624E-02    0.6958117787E+00    0.3091078966E+00    0.2341402038E-03
    0.2500000000E+08    0.4452990256E-02    0.9352678457E-02    0.6958107587E+00    0.3099111763E+00    0.2352276283E-03
    0.2700000000E+08    0.4300038688E-02    0.9051740953E-02    0.6958098125E+00    0.3106278990E+00    0.2362357989E-03
