  Pressure (Pa) 22mC5-500 (mol/kg) 23mC5-500 (mol/kg) 24mC5-500 (mol/kg) 2mC6-500 (mol/kg) C7-500 (mol/kg)
    0.1000000000E+01    0.2240557229E-05    0.5146330410E-05    0.1266288580E+00    0.5781379603E-05    0.4202875420E-02
    0.3000000000E+01    0.4627188386E-05    0.1059760067E-04    0.2785064554E+00    0.1137579346E-04    0.4256136517E-02
    0.5000000000E+01    0.5827129506E-05    0.1331951574E-04    0.3663982081E+00    0.1393560028E-04    0.4286169410E-02
    0.7000000000E+01    0.6523961181E-05    0.1489172750E-04    0.4237047006E+00    0.1538208746E-04    0.4305988033E-02
    0.9000000000E+01    0.6973742898E-05    0.1590338355E-04    0.4640250189E+00    0.1636801675E-04    0.4320163821E-02
    0.1100000000E+02    0.7290483135E-05    0.1661558740E-04    0.4939367656E+00    0.1715415861E-04    0.4330864580E-02
    0.1300000000E+02    0.7531027128E-05    0.1715788061E-04    0.5170096713E+00    0.1785548939E-04    0.4339263642E-02
    0.1500000000E+02    0.7726084566E-05    0.1759986928E-04    0.5353485483E+00    0.1852584774E-04    0.4346054523E-02
    0.1700000000E+02    0.7893261160E-05    0.1798122308E-04    0.5502748264E+00    0.1919120892E-04    0.4351674615E-02
    0.1900000000E+02    0.8043116918E-05    0.1832558064E-04    0.5626599866E+00    0.1986408201E-04    0.4356413997E-02
    0.2100000000E+02    0.8182210570E-05    0.1864751581E-04    0.5731020489E+00    0.2055020277E-04    0.4360472958E-02
    0.2300000000E+02    0.8314726771E-05    0.1895624902E-04    0.5820250322E+00    0.2125181921E-04    0.4363994435E-02
    0.2500000000E+02    0.8443390444E-05    0.1925772556E-04    0.5897379481E+00    0.2196937236E-04    0.4367083300E-02
    0.2700000000E+02    0.8570002262E-05    0.1955582840E-04    0.5964713172E+00    0.2270238249E-04    0.4369818322E-02
    0.2900000000E+02    0.8695763319E-05    0.1985311070E-04    0.6024006029E+00    0.2344992569E-04    0.4372259874E-02
    0.3100000000E+02    0.8821477860E-05    0.2015125133E-04    0.6076617221E+00    0.2421089265E-04    0.4374455049E-02
    0.3300000000E+02    0.8947683091E-05    0.2045134531E-04    0.6123615931E+00    0.2498412861E-04    0.4376441149E-02
    0.3500000000E+02    0.9074734115E-05    0.2075409293E-04    0.6165854772E+00    0.2576850743E-04    0.4378248132E-02
    0.3700000000E+02    0.9202860545E-05    0.2105992517E-04    0.6204021981E+00    0.2656296872E-04    0.4379900350E-02
    0.3900000000E+02    0.9332204866E-05    0.2136908820E-04    0.6238679211E+00    0.2736653421E-04    0.4381417813E-02
    0.4100000000E+02    0.9462848771E-05    0.2168170104E-04    0.6270289355E+00    0.2817831250E-04    0.4382817130E-02
    0.4300000000E+02    0.9594831479E-05    0.2199779545E-04    0.6299237337E+00    0.2899749755E-04    0.4384112207E-02
    0.4500000000E+02    0.9728162583E-05    0.2231734358E-04    0.6325845867E+00    0.2982336395E-04    0.4385314783E-02
    0.4700000000E+02    0.9862831151E-05    0.2264027751E-04    0.6350387521E+00    0.3065526059E-04    0.4386434845E-02
    0.4900000000E+02    0.9998812212E-05    0.2296650293E-04    0.6373094115E+00    0.3149260391E-04    0.4387480940E-02
    0.1000000000E+02    0.7144346269E-05    0.1628688221E-04    0.4800126775E+00    0.1677683322E-04    0.4325860098E-02
    0.3000000000E+02    0.8758587735E-05    0.2000199420E-04    0.6051074198E+00    0.2382880341E-04    0.4373385730E-02
    0.5000000000E+02    0.1006728445E-04    0.2313081573E-04    0.6383822400E+00    0.3191315253E-04    0.4387978593E-02
    0.7000000000E+02    0.1149534069E-04    0.2656036879E-04    0.6537901699E+00    0.4050929870E-04    0.4395396880E-02
    0.9000000000E+02    0.1300674148E-04    0.3018958868E-04    0.6626756865E+00    0.4930038160E-04    0.4399930818E-02
    0.1100000000E+03    0.1457140870E-04    0.3394387223E-04    0.6684567586E+00    0.5817136025E-04    0.4402967760E-02
    0.1300000000E+03    0.1617156900E-04    0.3778040328E-04    0.6725183150E+00    0.6707612856E-04    0.4405107145E-02
    0.1500000000E+03    0.1779666862E-04    0.4167416446E-04    0.6755281544E+00    0.7599517983E-04    0.4406655724E-02
    0.1700000000E+03    0.1944021267E-04    0.4560994201E-04    0.6778479149E+00    0.8492041752E-04    0.4407789107E-02
    0.1900000000E+03    0.2109806257E-04    0.4957814060E-04    0.6796904858E+00    0.9384900870E-04    0.4408616215E-02
    0.2100000000E+03    0.2276750431E-04    0.5357252927E-04    0.6811893550E+00    0.1027806562E-03    0.4409208790E-02
    0.2300000000E+03    0.2444671841E-04    0.5758897276E-04    0.6824324698E+00    0.1117163021E-03    0.4409616359E-02
    0.2500000000E+03    0.2613446590E-04    0.6162468628E-04    0.6834801309E+00    0.1206574801E-03    0.4409874414E-02
    0.2700000000E+03    0.2782989527E-04    0.6567778055E-04    0.6843750644E+00    0.1296059812E-03    0.4410009183E-02
    0.2900000000E+03    0.2953242001E-04    0.6974697473E-04    0.6851483897E+00    0.1385636775E-03    0.4410040551E-02
    0.3100000000E+03    0.3124163850E-04    0.7383140991E-04    0.6858233098E+00    0.1475324304E-03    0.4409983923E-02
    0.3300000000E+03    0.3295728048E-04    0.7793052498E-04    0.6864174782E+00    0.1565140429E-03    0.4409851453E-02
    0.3500000000E+03    0.3467917038E-04    0.8204397201E-04    0.6869445643E+00    0.1655102370E-03    0.4409652889E-02
    0.3700000000E+03    0.3640720175E-04    0.8617155761E-04    0.6874153172E+00    0.1745226452E-03    0.4409396155E-02
    0.3900000000E+03    0.3814131916E-04    0.9031320156E-04    0.6878383062E+00    0.1835528089E-03    0.4409087775E-02
    0.4100000000E+03    0.3988150518E-04    0.9446890717E-04    0.6882204465E+00    0.1926021817E-03    0.4408733176E-02
    0.4300000000E+03    0.4162777085E-04    0.9863873982E-04    0.6885673800E+00    0.2016721338E-03    0.4408336920E-02
    0.4500000000E+03    0.4338014870E-04    0.1028228112E-03    0.6888837554E+00    0.2107639584E-03    0.4407902872E-02
    0.4700000000E+03    0.4513868755E-04    0.1070212677E-03    0.6891734376E+00    0.2198788776E-03    0.4407434333E-02
    0.4900000000E+03    0.4690344860E-04    0.1112342816E-03    0.6894396662E+00    0.2290180485E-03    0.4406934144E-02
    0.1000000000E+03    0.1378374795E-04    0.3205432250E-04    0.6658428702E+00    0.5372967632E-04    0.4401588980E-02
    0.3000000000E+03    0.3038621201E-04    0.7178732810E-04    0.6854969384E+00    0.1430465575E-03    0.4410022412E-02
    0.5000000000E+03    0.4778818421E-04    0.1133463069E-03    0.6895648573E+00    0.2335970735E-03    0.4406672962E-02
    0.7000000000E+03    0.6582980399E-04    0.1564038344E-03    0.6913216516E+00    0.3266920147E-03    0.4400241674E-02
    0.9000000000E+03    0.8459701429E-04    0.2011793199E-03    0.6923006889E+00    0.4232111989E-03    0.4392176882E-02
    0.1100000000E+04    0.1041867273E-03    0.2479095411E-03    0.6929246076E+00    0.5238061382E-03    0.4382957549E-02
    0.1300000000E+04    0.1246955040E-03    0.2968275325E-03    0.6933568190E+00    0.6290423143E-03    0.4372780739E-02
    0.1500000000E+04    0.1462214491E-03    0.3481687977E-03    0.6936738237E+00    0.7394605069E-03    0.4361730098E-02
    0.1700000000E+04    0.1688668903E-03    0.4021783273E-03    0.6939162066E+00    0.8556083740E-03    0.4349833323E-02
    0.1900000000E+04    0.1927407472E-03    0.4591165237E-03    0.6941074984E+00    0.9780600116E-03    0.4337085823E-02
    0.2100000000E+04    0.2179606578E-03    0.5192644074E-03    0.6942622812E+00    0.1107430367E-02    0.4323461622E-02
    0.2300000000E+04    0.2446550228E-03    0.5829285651E-03    0.6943900723E+00    0.1244387571E-02    0.4308918676E-02
    0.2500000000E+04    0.2729650997E-03    0.6504461883E-03    0.6944973472E+00    0.1389664742E-02    0.4293401435E-02
    0.2700000000E+04    0.3030472538E-03    0.7221904675E-03    0.6945886645E+00    0.1544072218E-02    0.4276841896E-02
    0.2900000000E+04    0.3350754533E-03    0.7985765621E-03    0.6946673265E+00    0.1708510828E-02    0.4259159740E-02
    0.3100000000E+04    0.3692440959E-03    0.8800683553E-03    0.6947357836E+00    0.1883986780E-02    0.4240261831E-02
    0.3300000000E+04    0.4057712539E-03    0.9671862059E-03    0.6947958926E+00    0.2071628644E-02    0.4220041221E-02
    0.3500000000E+04    0.4449024368E-03    0.1060515931E-02    0.6948490861E+00    0.2272706988E-02    0.4198375737E-02
    0.3700000000E+04    0.4869149791E-03    0.1160719282E-02    0.6948964867E+00    0.2488657246E-02    0.4175126130E-02
    0.3900000000E+04    0.5321231853E-03    0.1268546227E-02    0.6949389870E+00    0.2721106514E-02    0.4150133808E-02
    0.4100000000E+04    0.5808843797E-03    0.1384849391E-02    0.6949773053E+00    0.2971905049E-02    0.4123218080E-02
    0.4300000000E+04    0.6336060380E-03    0.1510601080E-02    0.6950120262E+00    0.3243163427E-02    0.4094172870E-02
    0.4500000000E+04    0.6907542069E-03    0.1646913378E-02    0.6950436303E+00    0.3537296407E-02    0.4062762826E-02
    0.4700000000E+04    0.7528634464E-03    0.1795061881E-02    0.6950725166E+00    0.3857074780E-02    0.4028718727E-02
    0.4900000000E+04    0.8205485613E-03    0.1956513707E-02    0.6950990186E+00    0.4205686590E-02    0.3991732109E-02
    0.1000000000E+04    0.9428302648E-04    0.2242854924E-03    0.6926437738E+00    0.4729627735E-03    0.4387695469E-02
    0.3000000000E+04    0.3518791859E-03    0.8386531463E-03    0.6947027030E+00    0.1794801685E-02    0.4249869100E-02
    0.5000000000E+04    0.8566994918E-03    0.2042747207E-02    0.6951114652E+00    0.4391932892E-02    0.3972026707E-02
    0.7000000000E+04    0.2134251072E-02    0.5090672222E-02    0.6952848770E+00    0.1099164909E-01    0.3296020954E-02
    0.9000000000E+04    0.5762469415E-02    0.1375096615E-01    0.6953801715E+00    0.2988698626E-01    0.1556776822E-02
    0.1100000000E+05    0.9046213085E-02    0.2160171522E-01    0.6954401280E+00    0.4744191393E-01    0.4206476593E-03
    0.1300000000E+05    0.1030557994E-01    0.2462698661E-01    0.6954811524E+00    0.5469337016E-01    0.3320048691E-03
    0.1500000000E+05    0.1126074133E-01    0.2692867088E-01    0.6955108767E+00    0.6045768529E-01    0.3303878194E-03
    0.1700000000E+05    0.1210435426E-01    0.2896604865E-01    0.6955333284E+00    0.6571830904E-01    0.3324860692E-03
    0.1900000000E+05    0.1285956505E-01    0.3079390447E-01    0.6955508313E+00    0.7057963092E-01    0.3345395724E-03
    0.2100000000E+05    0.1353853269E-01    0.3244088119E-01    0.6955648191E+00    0.7509160656E-01    0.3364077484E-03
    0.2300000000E+05    0.1415102929E-01    0.3393000055E-01    0.6955762232E+00    0.7929431799E-01    0.3381151843E-03
    0.2500000000E+05    0.1470525114E-01    0.3528058346E-01    0.6955856752E+00    0.8322169278E-01    0.3396875632E-03
    0.2700000000E+05    0.1520813669E-01    0.3650899650E-01    0.6955936176E+00    0.8690273986E-01    0.3411451623E-03
    0.2900000000E+05    0.1566559732E-01    0.3762919278E-01    0.6956003698E+00    0.9036242373E-01    0.3425040004E-03
    0.3100000000E+05    0.1608269845E-01    0.3865313656E-01    0.6956061678E+00    0.9362235282E-01    0.3437769384E-03
    0.3300000000E+05    0.1646380378E-01    0.3959114165E-01    0.6956111899E+00    0.9670133084E-01    0.3449744593E-03
    0.3500000000E+05    0.1681269118E-01    0.4045214329E-01    0.6956155729E+00    0.9961580250E-01    0.3461052226E-03
    0.3700000000E+05    0.1713264652E-01    0.4124391837E-01    0.6956194239E+00    0.1023802163E+00    0.3471764657E-03
    0.3900000000E+05    0.1742654010E-01    0.4197326494E-01    0.6956228274E+00    0.1050073221E+00    0.3481943003E-03
    0.4100000000E+05    0.1769688940E-01    0.4264614957E-01    0.6956258513E+00    0.1075084166E+00    0.3491639352E-03
    0.4300000000E+05    0.1794591087E-01    0.4326782904E-01    0.6956285507E+00    0.1098935474E+00    0.3500898464E-03
    0.4500000000E+05    0.1817556287E-01    0.4384295137E-01    0.6956309706E+00    0.1121716831E+00    0.3509759092E-03
    0.4700000000E+05    0.1838758165E-01    0.4437564025E-01    0.6956331483E+00    0.1143508567E+00    0.3518255012E-03
    0.4900000000E+05    0.1858351135E-01    0.4486956584E-01    0.6956351148E+00    0.1164382859E+00    0.3526415846E-03
    0.1000000000E+05    0.7853468288E-02    0.1874677208E-01    0.6954132330E+00    0.4094590004E-01    0.7306299309E-03
    0.3000000000E+05    0.1587890512E-01    0.3815251641E-01    0.6956033758E+00    0.9201612233E-01    0.3431505034E-03
    0.5000000000E+05    0.1867587917E-01    0.4510303022E-01    0.6956360272E+00    0.1174496545E+00    0.3530378891E-03
    0.7000000000E+05    0.1994481720E-01    0.4837147560E-01    0.6956477587E+00    0.1341440913E+00    0.3597033219E-03
    0.9000000000E+05    0.2054054234E-01    0.4999643363E-01    0.6956530088E+00    0.1462898304E+00    0.3647629656E-03
    0.1100000000E+06    0.2079659189E-01    0.5077981471E-01    0.6956555350E+00    0.1557106827E+00    0.3688536976E-03
    0.1300000000E+06    0.2086617849E-01    0.5109319020E-01    0.6956567143E+00    0.1633418613E+00    0.3722939152E-03
    0.1500000000E+06    0.2082774418E-01    0.5112858750E-01    0.6956571578E+00    0.1697188141E+00    0.3752662361E-03
    0.1700000000E+06    0.2072466025E-01    0.5099327155E-01    0.6956571723E+00    0.1751734667E+00    0.3778853465E-03
    0.1900000000E+06    0.2058230641E-01    0.5075072430E-01    0.6956569257E+00    0.1799243195E+00    0.3802280883E-03
    0.2100000000E+06    0.2041618300E-01    0.5044021006E-01    0.6956565159E+00    0.1841221286E+00    0.3823485160E-03
    0.2300000000E+06    0.2023606897E-01    0.5008685820E-01    0.6956560028E+00    0.1878749115E+00    0.3842861269E-03
    0.2500000000E+06    0.2004828583E-01    0.4970718434E-01    0.6956554243E+00    0.1912624976E+00    0.3860706757E-03
    0.2700000000E+06    0.1985699233E-01    0.4931226656E-01    0.6956548054E+00    0.1943454294E+00    0.3877251467E-03
    0.2900000000E+06    0.1966495549E-01    0.4890964896E-01    0.6956541626E+00    0.1971706381E+00    0.3892676701E-03
    0.3100000000E+06    0.1947402569E-01    0.4850452231E-01    0.6956535072E+00    0.1997751923E+00    0.3907128041E-03
    0.3300000000E+06    0.1928543788E-01    0.4810047818E-01    0.6956528470E+00    0.2021888503E+00    0.3920724190E-03
    0.3500000000E+06    0.1910000744E-01    0.4770000278E-01    0.6956521874E+00    0.2044358434E+00    0.3933563226E-03
    0.3700000000E+06    0.1891826009E-01    0.4730480740E-01    0.6956515320E+00    0.2065361504E+00    0.3945727139E-03
    0.3900000000E+06    0.1874051977E-01    0.4691605383E-01    0.6956508835E+00    0.2085064281E+00    0.3957285180E-03
    0.4100000000E+06    0.1856696893E-01    0.4653451060E-01    0.6956502436E+00    0.2103607018E+00    0.3968296380E-03
    0.4300000000E+06    0.1839769053E-01    0.4616066285E-01    0.6956496136E+00    0.2121108868E+00    0.3978811475E-03
    0.4500000000E+06    0.1823269758E-01    0.4579479054E-01    0.6956489942E+00    0.2137671871E+00    0.3988874396E-03
    0.4700000000E+06    0.1807195410E-01    0.4543702480E-01    0.6956483859E+00    0.2153384055E+00    0.3998523438E-03
    0.4900000000E+06    0.1791539024E-01    0.4508738885E-01    0.6956477889E+00    0.2168321866E+00    0.4007792190E-03
    0.1000000000E+06    0.2069896497E-01    0.5046414271E-01    0.6956544991E+00    0.1512695202E+00    0.3669051177E-03
    0.3000000000E+06    0.1956926329E-01    0.4870714407E-01    0.6956538360E+00    0.1984984896E+00    0.3900016142E-03
    0.5000000000E+06    0.1783864727E-01    0.4491560483E-01    0.6956474946E+00    0.2175521586E+00    0.4012293352E-03
    0.7000000000E+06    0.1649553905E-01    0.4187228365E-01    0.6956421806E+00    0.2291399463E+00    0.4088006070E-03
    0.9000000000E+06    0.1543957820E-01    0.3943870579E-01    0.6956377767E+00    0.2372973283E+00    0.4145486291E-03
    0.1100000000E+07    0.1458308868E-01    0.3744246625E-01    0.6956340419E+00    0.2435026509E+00    0.4191962627E-03
    0.1300000000E+07    0.1386961650E-01    0.3576548677E-01    0.6956308051E+00    0.2484578530E+00    0.4231050064E-03
    0.1500000000E+07    0.1326248933E-01    0.3432883416E-01    0.6956279500E+00    0.2525493849E+00    0.4264822385E-03
    0.1700000000E+07    0.1273697544E-01    0.3307832827E-01    0.6956253960E+00    0.2560116873E+00    0.4294582116E-03
    0.1900000000E+07    0.1227576167E-01    0.3197556542E-01    0.6956230850E+00    0.2589971423E+00    0.4321202061E-03
    0.2100000000E+07    0.1186632513E-01    0.3099250187E-01    0.6956209743E+00    0.2616100565E+00    0.4345296232E-03
    0.2300000000E+07    0.1149935113E-01    0.3010811800E-01    0.6956190315E+00    0.2639247685E+00    0.4367313310E-03
    0.2500000000E+07    0.1116774430E-01    0.2930629971E-01    0.6956172313E+00    0.2659960026E+00    0.4387591316E-03
    0.2700000000E+07    0.1086598821E-01    0.2857445031E-01    0.6956155539E+00    0.2678651307E+00    0.4406391366E-03
    0.2900000000E+07    0.1058971769E-01    0.2790255433E-01    0.6956139833E+00    0.2695641339E+00    0.4423919438E-03
    0.3100000000E+07    0.1033542503E-01    0.2728252969E-01    0.6956125064E+00    0.2711182062E+00    0.4440340932E-03
    0.3300000000E+07    0.1010025323E-01    0.2670776866E-01    0.6956111124E+00    0.2725475205E+00    0.4455790710E-03
    0.3500000000E+07    0.9881847368E-02    0.2617280605E-01    0.6956097923E+00    0.2738684593E+00    0.4470380207E-03
    0.3700000000E+07    0.9678245633E-02    0.2567307465E-01    0.6956085386E+00    0.2750944935E+00    0.4484202579E-03
    0.3900000000E+07    0.9487798051E-02    0.2520472221E-01    0.6956073446E+00    0.2762368224E+00    0.4497336508E-03
    0.4100000000E+07    0.9309104986E-02    0.2476447222E-01    0.6956062049E+00    0.2773048488E+00    0.4509849066E-03
    0.4300000000E+07    0.9140969899E-02    0.2434951667E-01    0.6956051146E+00    0.2783065365E+00    0.4521797901E-03
    0.4500000000E+07    0.8982362640E-02    0.2395743239E-01    0.6956040695E+00    0.2792486849E+00    0.4533232929E-03
    0.4700000000E+07    0.8832390566E-02    0.2358611513E-01    0.6956030658E+00    0.2801371409E+00    0.4544197662E-03
    0.4900000000E+07    0.8690275604E-02    0.2323372694E-01    0.6956021005E+00    0.2809769659E+00    0.4554730267E-03
    0.1000000000E+07    0.1499051375E-01    0.3839442680E-01    0.6956358379E+00    0.2405896804E+00    0.4169823753E-03
    0.3000000000E+07    0.1046001597E-01    0.2758650124E-01    0.6956132338E+00    0.2703579244E+00    0.4432259458E-03
    0.5000000000E+07    0.8621948115E-02    0.2306411912E-01    0.6956016312E+00    0.2813800415E+00    0.4559845197E-03
    0.7000000000E+07    0.7539408741E-02    0.2036062193E-01    0.6955937004E+00    0.2877104339E+00    0.4645882311E-03
    0.9000000000E+07    0.6799689897E-02    0.1849468891E-01    0.6955876412E+00    0.2919836830E+00    0.4711201046E-03
    0.1100000000E+08    0.6251007694E-02    0.1710015081E-01    0.6955827238E+00    0.2951306812E+00    0.4764015429E-03
    0.1300000000E+08    0.5822113431E-02    0.1600343320E-01    0.6955785783E+00    0.2975791711E+00    0.4808433322E-03
    0.1500000000E+08    0.5474377169E-02    0.1510972313E-01    0.6955749904E+00    0.2995579406E+00    0.4846811277E-03
    0.1700000000E+08    0.5184733185E-02    0.1436206623E-01    0.6955718247E+00    0.3012023083E+00    0.4880629435E-03
    0.1900000000E+08    0.4938417564E-02    0.1372382218E-01    0.6955689903E+00    0.3025982827E+00    0.4910879620E-03
    0.2100000000E+08    0.4725469358E-02    0.1317016230E-01    0.6955664228E+00    0.3038035792E+00    0.4938259576E-03
    0.2300000000E+08    0.4538884495E-02    0.1268356112E-01    0.6955640751E+00    0.3048586062E+00    0.4963279173E-03
    0.2500000000E+08    0.4373571015E-02    0.1225123394E-01    0.6955619117E+00    0.3057926386E+00    0.4986322528E-03
    0.2700000000E+08    0.4225723837E-02    0.1186359756E-01    0.6955599052E+00    0.3066274894E+00    0.5007686368E-03
