  Pressure (Pa) 22mC5-500 (mol/kg) 23mC5-500 (mol/kg) 24mC5-500 (mol/kg) 2mC6-500 (mol/kg) C7-500 (mol/kg)
    0.1000000000E+01    0.2042037693E-05    0.1172137187E-05    0.1741056104E+00    0.2100796284E-04    0.4180359279E-02
    0.3000000000E+01    0.3785304480E-05    0.2165343300E-05    0.3481161342E+00    0.3698506958E-04    0.4208891047E-02
    0.5000000000E+01    0.4522338369E-05    0.2582045111E-05    0.4350892796E+00    0.4343614579E-04    0.4221420136E-02
    0.7000000000E+01    0.4925741492E-05    0.2809628096E-05    0.4872644156E+00    0.4743363344E-04    0.4228763486E-02
    0.9000000000E+01    0.5192403487E-05    0.2960679402E-05    0.5220447728E+00    0.5072808515E-04    0.4233599420E-02
    0.1100000000E+02    0.5396295743E-05    0.3077164840E-05    0.5468866339E+00    0.5385729330E-04    0.4237011703E-02
    0.1300000000E+02    0.5569651299E-05    0.3177207951E-05    0.5655174654E+00    0.5700179558E-04    0.4239532166E-02
    0.1500000000E+02    0.5727942540E-05    0.3269417849E-05    0.5800078394E+00    0.6022063383E-04    0.4241454515E-02
    0.1700000000E+02    0.5879097079E-05    0.3358150182E-05    0.5916000004E+00    0.6352824740E-04    0.4242954918E-02
    0.1900000000E+02    0.6027355144E-05    0.3445697780E-05    0.6010844238E+00    0.6692242107E-04    0.4244145763E-02
    0.2100000000E+02    0.6175041316E-05    0.3533291224E-05    0.6089880716E+00    0.7039514780E-04    0.4245102292E-02
    0.2300000000E+02    0.6323438291E-05    0.3621589277E-05    0.6156757534E+00    0.7393698353E-04    0.4245876864E-02
    0.2500000000E+02    0.6473242485E-05    0.3710932885E-05    0.6214080413E+00    0.7753877078E-04    0.4246507094E-02
    0.2700000000E+02    0.6624812392E-05    0.3801482591E-05    0.6263760188E+00    0.8119226030E-04    0.4247020735E-02
    0.2900000000E+02    0.6778308843E-05    0.3893295469E-05    0.6307229966E+00    0.8489026696E-04    0.4247438738E-02
    0.3100000000E+02    0.6933776503E-05    0.3986369374E-05    0.6345585643E+00    0.8862663437E-04    0.4247777226E-02
    0.3300000000E+02    0.7091192262E-05    0.4080668914E-05    0.6379679574E+00    0.9239612884E-04    0.4248048824E-02
    0.3500000000E+02    0.7250494453E-05    0.4176140900E-05    0.6410184671E+00    0.9619431549E-04    0.4248263565E-02
    0.3700000000E+02    0.7411600673E-05    0.4272723606E-05    0.6437639259E+00    0.1000174388E-03    0.4248429528E-02
    0.3900000000E+02    0.7574418704E-05    0.4370352309E-05    0.6462479125E+00    0.1038623156E-03    0.4248553296E-02
    0.4100000000E+02    0.7738853195E-05    0.4468962574E-05    0.6485060820E+00    0.1077262438E-03    0.4248640293E-02
    0.4300000000E+02    0.7904809685E-05    0.4568492146E-05    0.6505678889E+00    0.1116069239E-03    0.4248695027E-02
    0.4500000000E+02    0.8072196971E-05    0.4668881981E-05    0.6524578781E+00    0.1155023949E-03    0.4248721278E-02
    0.4700000000E+02    0.8240928426E-05    0.4770076752E-05    0.6541966677E+00    0.1194109803E-03    0.4248722243E-02
    0.4900000000E+02    0.8410922651E-05    0.4872025021E-05    0.6558017037E+00    0.1233312430E-03    0.4248700644E-02
    0.1000000000E+02    0.5299616498E-05    0.3021788781E-05    0.5354212759E+00    0.5229770102E-04    0.4235442499E-02
    0.3000000000E+02    0.6855796541E-05    0.3939676445E-05    0.6326988952E+00    0.8675400286E-04    0.4247617063E-02
    0.5000000000E+02    0.8496369359E-05    0.4923266704E-05    0.6565587959E+00    0.1252953604E-03    0.4248682125E-02
    0.7000000000E+02    0.1025600462E-04    0.5978010776E-05    0.6673447247E+00    0.1649694460E-03    0.4247550271E-02
    0.9000000000E+02    0.1208450376E-04    0.7072956594E-05    0.6734914549E+00    0.2051019164E-03    0.4245565162E-02
    0.1100000000E+03    0.1395898163E-04    0.8194503378E-05    0.6774622639E+00    0.2455348406E-03    0.4243142699E-02
    0.1300000000E+03    0.1586864047E-04    0.9336364725E-05    0.6802387687E+00    0.2862425206E-03    0.4240456271E-02
    0.1500000000E+03    0.1780811564E-04    0.1049547637E-04    0.6822893258E+00    0.3272388211E-03    0.4237591489E-02
    0.1700000000E+03    0.1977470131E-04    0.1167032944E-04    0.6838657115E+00    0.3685497332E-03    0.4234595489E-02
    0.1900000000E+03    0.2176709354E-04    0.1286022585E-04    0.6851153393E+00    0.4102042392E-03    0.4231496245E-02
    0.2100000000E+03    0.2378477361E-04    0.1406491692E-04    0.6861302559E+00    0.4522311417E-03    0.4228311266E-02
    0.2300000000E+03    0.2582768489E-04    0.1528441570E-04    0.6869709041E+00    0.4946580301E-03    0.4225051928E-02
    0.2500000000E+03    0.2789605437E-04    0.1651889419E-04    0.6876786139E+00    0.5375110518E-03    0.4221725815E-02
    0.2700000000E+03    0.2999028966E-04    0.1776862454E-04    0.6882826041E+00    0.5808149844E-03    0.4218338051E-02
    0.2900000000E+03    0.3211091759E-04    0.1903394429E-04    0.6888041155E+00    0.6245934114E-03    0.4214892111E-02
    0.3100000000E+03    0.3425854657E-04    0.2031523526E-04    0.6892589596E+00    0.6688689208E-03    0.4211390323E-02
    0.3300000000E+03    0.3643384305E-04    0.2161291051E-04    0.6896591495E+00    0.7136632953E-03    0.4207834198E-02
    0.3500000000E+03    0.3863751661E-04    0.2292740619E-04    0.6900139756E+00    0.7589976842E-03    0.4204224648E-02
    0.3700000000E+03    0.4087031043E-04    0.2425917636E-04    0.6903307358E+00    0.8048927537E-03    0.4200562140E-02
    0.3900000000E+03    0.4313299531E-04    0.2560868987E-04    0.6906152421E+00    0.8513688172E-03    0.4196846797E-02
    0.4100000000E+03    0.4542636584E-04    0.2697642839E-04    0.6908721810E+00    0.8984459486E-03    0.4193078472E-02
    0.4300000000E+03    0.4775123816E-04    0.2836288531E-04    0.6911053728E+00    0.9461440800E-03    0.4189256811E-02
    0.4500000000E+03    0.5010844869E-04    0.2976856520E-04    0.6913179633E+00    0.9944830875E-03    0.4185381281E-02
    0.4700000000E+03    0.5249885364E-04    0.3119398366E-04    0.6915125660E+00    0.1043482866E-02    0.4181451211E-02
    0.4900000000E+03    0.5492332887E-04    0.3263966736E-04    0.6916913705E+00    0.1093163397E-02    0.4177465807E-02
    0.1000000000E+03    0.1301684738E-04    0.7630903432E-05    0.6756696294E+00    0.2252839129E-03    0.4244394749E-02
    0.3000000000E+03    0.3318131645E-04    0.1967256817E-04    0.6890390458E+00    0.6466676526E-03    0.4213148087E-02
    0.5000000000E+03    0.5614862200E-04    0.3337027637E-04    0.6917754374E+00    0.1118265228E-02    0.4175452078E-02
    0.7000000000E+03    0.8267576912E-04    0.4918580223E-04    0.6929542405E+00    0.1661138268E-02    0.4132005474E-02
    0.9000000000E+03    0.1138078905E-03    0.6774466941E-04    0.6936105162E+00    0.2297776280E-02    0.4081512339E-02
    0.1100000000E+04    0.1509188866E-03    0.8986695573E-04    0.6940285617E+00    0.3056765856E-02    0.4022041508E-02
    0.1300000000E+04    0.1958811481E-03    0.1166695486E-03    0.6943181084E+00    0.3976780939E-02    0.3950927544E-02
    0.1500000000E+04    0.2513190367E-03    0.1497176173E-03    0.6945304731E+00    0.5111944156E-02    0.3864461745E-02
    0.1700000000E+04    0.3209985427E-03    0.1912571531E-03    0.6946928616E+00    0.6539938453E-02    0.3757395497E-02
    0.1900000000E+04    0.4104319268E-03    0.2445757490E-03    0.6948210402E+00    0.8374577111E-02    0.3622186899E-02
    0.2100000000E+04    0.5277917995E-03    0.3145480891E-03    0.6949247758E+00    0.1078485779E-01    0.3447921784E-02
    0.2300000000E+04    0.6851544945E-03    0.4083782572E-03    0.6950104416E+00    0.1402105779E-01    0.3219012162E-02
    0.2500000000E+04    0.8996167302E-03    0.5362674505E-03    0.6950823729E+00    0.1843876803E-01    0.2914564627E-02
    0.2700000000E+04    0.1192046115E-02    0.7106724080E-03    0.6951436215E+00    0.2447515582E-01    0.2511885833E-02
    0.2900000000E+04    0.1576983071E-02    0.9402885743E-03    0.6951963976E+00    0.3244372180E-01    0.2002833807E-02
    0.3100000000E+04    0.2036344570E-02    0.1214368663E-02    0.6952423416E+00    0.4199242792E-01    0.1429563792E-02
    0.3300000000E+04    0.2498559528E-02    0.1490260871E-02    0.6952826960E+00    0.5166274840E-01    0.9024150141E-03
    0.3500000000E+04    0.2881285198E-02    0.1718853664E-02    0.6953184197E+00    0.5975373805E-01    0.5264867813E-03
    0.3700000000E+04    0.3160447308E-02    0.1885755625E-02    0.6953502640E+00    0.6574959510E-01    0.3130692441E-03
    0.3900000000E+04    0.3362393933E-02    0.2006649610E-02    0.6953788264E+00    0.7017667858E-01    0.2089404559E-03
    0.4100000000E+04    0.3519696012E-02    0.2100945303E-02    0.6954045875E+00    0.7369855651E-01    0.1620632775E-03
    0.4300000000E+04    0.3653357158E-02    0.2181163601E-02    0.6954279388E+00    0.7674564282E-01    0.1417595435E-03
    0.4500000000E+04    0.3774229502E-02    0.2253774825E-02    0.6954492018E+00    0.7954092480E-01    0.1331614656E-03
    0.4700000000E+04    0.3887471434E-02    0.2321854517E-02    0.6954686436E+00    0.8219039960E-01    0.1296184079E-03
    0.4900000000E+04    0.3995485863E-02    0.2386834949E-02    0.6954864875E+00    0.8474323413E-01    0.1282453141E-03
    0.1000000000E+04    0.1315131494E-03    0.7829900884E-04    0.6938404079E+00    0.2659849319E-02    0.4053045699E-02
    0.3000000000E+04    0.1800658342E-02    0.1073734732E-02    0.6952201382E+00    0.3708716337E-01    0.1718605563E-02
    0.5000000000E+04    0.4047916368E-02    0.2418391444E-02    0.6954948703E+00    0.8599118028E-01    0.1279511065E-03
    0.7000000000E+04    0.4939244320E-02    0.2956454350E-02    0.6956118830E+00    0.1081692216E+00    0.1294987107E-03
    0.9000000000E+04    0.5604660167E-02    0.3360655341E-02    0.6956764589E+00    0.1262768741E+00    0.1313258723E-03
    0.1100000000E+05    0.6109568028E-02    0.3669477985E-02    0.6957172700E+00    0.1413672690E+00    0.1328024659E-03
    0.1300000000E+05    0.6496962994E-02    0.3908261369E-02    0.6957453243E+00    0.1541493751E+00    0.1340437393E-03
    0.1500000000E+05    0.6796427112E-02    0.4094472431E-02    0.6957657490E+00    0.1651249814E+00    0.1351158845E-03
    0.1700000000E+05    0.7028884776E-02    0.4240490237E-02    0.6957812530E+00    0.1746593870E+00    0.1360604268E-03
    0.1900000000E+05    0.7209487655E-02    0.4355296736E-02    0.6957934016E+00    0.1830249665E+00    0.1369051676E-03
    0.2100000000E+05    0.7349430241E-02    0.4445541872E-02    0.6958031615E+00    0.1904290321E+00    0.1376696523E-03
    0.2300000000E+05    0.7457128824E-02    0.4516235971E-02    0.6958111620E+00    0.1970322246E+00    0.1383681561E-03
    0.2500000000E+05    0.7539008165E-02    0.4571212247E-02    0.6958178298E+00    0.2029609915E+00    0.1390114292E-03
    0.2700000000E+05    0.7600039032E-02    0.4613443191E-02    0.6958234649E+00    0.2083162579E+00    0.1396077731E-03
    0.2900000000E+05    0.7644113295E-02    0.4645261601E-02    0.6958282838E+00    0.2131795820E+00    0.1401637346E-03
    0.3100000000E+05    0.7674310583E-02    0.4668517902E-02    0.6958324467E+00    0.2176176072E+00    0.1406845695E-03
    0.3300000000E+05    0.7693091050E-02    0.4684694018E-02    0.6958360750E+00    0.2216853373E+00    0.1411745622E-03
    0.3500000000E+05    0.7702436832E-02    0.4694987028E-02    0.6958392619E+00    0.2254285836E+00    0.1416372525E-03
    0.3700000000E+05    0.7703957271E-02    0.4700371482E-02    0.6958420803E+00    0.2288858176E+00    0.1420755990E-03
    0.3900000000E+05    0.7698968157E-02    0.4701646386E-02    0.6958445880E+00    0.2320895918E+00    0.1424921001E-03
    0.4100000000E+05    0.7688552081E-02    0.4699471043E-02    0.6958468315E+00    0.2350676418E+00    0.1428888856E-03
    0.4300000000E+05    0.7673604886E-02    0.4694392662E-02    0.6958488486E+00    0.2378437510E+00    0.1432677857E-03
    0.4500000000E+05    0.7654871744E-02    0.4686867845E-02    0.6958506701E+00    0.2404384338E+00    0.1436303849E-03
    0.4700000000E+05    0.7632975440E-02    0.4677279449E-02    0.6958523217E+00    0.2428694823E+00    0.1439780645E-03
    0.4900000000E+05    0.7608438707E-02    0.4665949919E-02    0.6958538248E+00    0.2451524060E+00    0.1443120359E-03
    0.1000000000E+05    0.5874102224E-02    0.3525177564E-02    0.6956989402E+00    0.1341489735E+00    0.1320991961E-03
    0.3000000000E+05    0.7660780147E-02    0.4657859860E-02    0.6958304389E+00    0.2154480785E+00    0.1404282554E-03
    0.5000000000E+05    0.7595320631E-02    0.4659719139E-02    0.6958545264E+00    0.2462426329E+00    0.1444742198E-03
    0.7000000000E+05    0.7270954313E-02    0.4491468927E-02    0.6958639201E+00    0.2628208398E+00    0.1472021170E-03
    0.9000000000E+05    0.6921719666E-02    0.4299618284E-02    0.6958686185E+00    0.2733185933E+00    0.1492729624E-03
    0.1100000000E+06    0.6596254559E-02    0.4116694513E-02    0.6958712738E+00    0.2806249756E+00    0.1509473095E-03
    0.1300000000E+06    0.6303424913E-02    0.3949891260E-02    0.6958728784E+00    0.2860357260E+00    0.1523554359E-03
    0.1500000000E+06    0.6042031513E-02    0.3799600601E-02    0.6958738823E+00    0.2902225596E+00    0.1535720689E-03
    0.1700000000E+06    0.5808465027E-02    0.3664351958E-02    0.6958745168E+00    0.2935701424E+00    0.1546441408E-03
    0.1900000000E+06    0.5598893766E-02    0.3542300592E-02    0.6958749118E+00    0.2963154214E+00    0.1556030988E-03
    0.2100000000E+06    0.5409875347E-02    0.3431689154E-02    0.6958751455E+00    0.2986127341E+00    0.1564710647E-03
    0.2300000000E+06    0.5238478662E-02    0.3330974459E-02    0.6958752668E+00    0.3005671514E+00    0.1572642035E-03
    0.2500000000E+06    0.5082254454E-02    0.3238841642E-02    0.6958753084E+00    0.3022528170E+00    0.1579946931E-03
    0.2700000000E+06    0.4939166255E-02    0.3154182363E-02    0.6958752920E+00    0.3037236287E+00    0.1586719405E-03
    0.2900000000E+06    0.4807518762E-02    0.3076064387E-02    0.6958752331E+00    0.3050197594E+00    0.1593033661E-03
    0.3100000000E+06    0.4685894886E-02    0.3003702078E-02    0.6958751427E+00    0.3061717992E+00    0.1598949285E-03
    0.3300000000E+06    0.4573103648E-02    0.2936430723E-02    0.6958750286E+00    0.3072034753E+00    0.1604514861E-03
    0.3500000000E+06    0.4468138114E-02    0.2873685149E-02    0.6958748969E+00    0.3081334909E+00    0.1609770534E-03
    0.3700000000E+06    0.4370141756E-02    0.2814982266E-02    0.6958747520E+00    0.3089767995E+00    0.1614749861E-03
    0.3900000000E+06    0.4278381604E-02    0.2759906914E-02    0.6958745971E+00    0.3097455082E+00    0.1619481189E-03
    0.4100000000E+06    0.4192226784E-02    0.2708100413E-02    0.6958744350E+00    0.3104495306E+00    0.1623988678E-03
    0.4300000000E+06    0.4111131291E-02    0.2659251281E-02    0.6958742677E+00    0.3110970667E+00    0.1628293097E-03
    0.4500000000E+06    0.4034620086E-02    0.2613087692E-02    0.6958740965E+00    0.3116949612E+00    0.1632412425E-03
    0.4700000000E+06    0.3962277825E-02    0.2569371312E-02    0.6958739229E+00    0.3122489753E+00    0.1636362338E-03
    0.4900000000E+06    0.3893739659E-02    0.2527892241E-02    0.6958737478E+00    0.3127639949E+00    0.1640156585E-03
    0.1000000000E+06    0.6755062052E-02    0.4206327359E-02    0.6958701203E+00    0.2772687293E+00    0.1501497444E-03
    0.3000000000E+06    0.4745533069E-02    0.3039207882E-02    0.6958751913E+00    0.3056121718E+00    0.1596038041E-03
    0.5000000000E+06    0.3860795016E-02    0.2507932836E-02    0.6958736599E+00    0.3130082099E+00    0.1641999180E-03
    0.7000000000E+06    0.3340381148E-02    0.2190749033E-02    0.6958719395E+00    0.3165978745E+00    0.1672993188E-03
    0.9000000000E+06    0.2987675258E-02    0.1973655604E-02    0.6958703889E+00    0.3187703812E+00    0.1696523803E-03
    0.1100000000E+07    0.2728299802E-02    0.1812824545E-02    0.6958690202E+00    0.3202479334E+00    0.1715549958E-03
    0.1300000000E+07    0.2527149170E-02    0.1687356416E-02    0.6958678058E+00    0.3213285600E+00    0.1731551420E-03
    0.1500000000E+07    0.2365210892E-02    0.1585846570E-02    0.6958667181E+00    0.3221591490E+00    0.1745377088E-03
    0.1700000000E+07    0.2231172218E-02    0.1501468084E-02    0.6958657344E+00    0.3228210530E+00    0.1757560154E-03
    0.1900000000E+07    0.2117823532E-02    0.1429848333E-02    0.6958648372E+00    0.3233632281E+00    0.1768457902E-03
    0.2100000000E+07    0.2020322990E-02    0.1368038127E-02    0.6958640126E+00    0.3238170288E+00    0.1778321684E-03
    0.2300000000E+07    0.1935281620E-02    0.1313965473E-02    0.6958632497E+00    0.3242035355E+00    0.1787335169E-03
    0.2500000000E+07    0.1860246575E-02    0.1266125704E-02    0.6958625401E+00    0.3245374844E+00    0.1795636731E-03
    0.2700000000E+07    0.1793392690E-02    0.1223395834E-02    0.6958618766E+00    0.3248295113E+00    0.1803333260E-03
    0.2900000000E+07    0.1733329857E-02    0.1184918219E-02    0.6958612536E+00    0.3250875002E+00    0.1810509077E-03
    0.3100000000E+07    0.1678978078E-02    0.1150024869E-02    0.6958606664E+00    0.3253174297E+00    0.1817231890E-03
    0.3300000000E+07    0.1629483769E-02    0.1118186612E-02    0.6958601110E+00    0.3255239224E+00    0.1823556907E-03
    0.3500000000E+07    0.1584162128E-02    0.1088978001E-02    0.6958595841E+00    0.3257106134E+00    0.1829529745E-03
    0.3700000000E+07    0.1542456486E-02    0.1062052496E-02    0.6958590829E+00    0.3258804040E+00    0.1835188541E-03
    0.3900000000E+07    0.1503909017E-02    0.1037124555E-02    0.6958586049E+00    0.3260356405E+00    0.1840565504E-03
    0.4100000000E+07    0.1468139247E-02    0.1013956460E-02    0.6958581480E+00    0.3261782426E+00    0.1845688091E-03
    0.4300000000E+07    0.1434828007E-02    0.9923484606E-03    0.6958577105E+00    0.3263097975E+00    0.1850579901E-03
    0.4500000000E+07    0.1403705283E-02    0.9721313034E-03    0.6958572906E+00    0.3264316298E+00    0.1855261369E-03
    0.4700000000E+07    0.1374540887E-02    0.9531604805E-03    0.6958568871E+00    0.3265448545E+00    0.1859750308E-03
    0.4900000000E+07    0.1347137199E-02    0.9353117531E-03    0.6958564986E+00    0.3266504177E+00    0.1864062341E-03
    0.1000000000E+07    0.2849048667E-02    0.1887827173E-02    0.6958696834E+00    0.3195721879E+00    0.1706486881E-03
    0.3000000000E+07    0.1705497966E-02    0.1167059365E-02    0.6958609558E+00    0.3252056567E+00    0.1813923404E-03
    0.5000000000E+07    0.1334041343E-02    0.9267740106E-03    0.6958563097E+00    0.3267005834E+00    0.1866156389E-03
    0.7000000000E+07    0.1133143584E-02    0.7951036854E-03    0.6958531069E+00    0.3274476433E+00    0.1901380151E-03
    0.9000000000E+07    0.1002543266E-02    0.7087343509E-03    0.6958506506E+00    0.3279110618E+00    0.1928122079E-03
    0.1100000000E+08    0.9089070131E-03    0.6463833861E-03    0.6958486528E+00    0.3282327968E+00    0.1949744836E-03
    0.1300000000E+08    0.8375307953E-03    0.5985895204E-03    0.6958469662E+00    0.3284722488E+00    0.1967930117E-03
    0.1500000000E+08    0.7807848734E-03    0.5604136024E-03    0.6958455050E+00    0.3286590912E+00    0.1983642666E-03
    0.1700000000E+08    0.7342631694E-03    0.5289890661E-03    0.6958442148E+00    0.3288099655E+00    0.1997488437E-03
    0.1900000000E+08    0.6952194354E-03    0.5025216046E-03    0.6958430589E+00    0.3289350025E+00    0.2009873474E-03
    0.2100000000E+08    0.6618409046E-03    0.4798224142E-03    0.6958420115E+00    0.3290407600E+00    0.2021083431E-03
    0.2300000000E+08    0.6328761920E-03    0.4600681353E-03    0.6958410534E+00    0.3291316906E+00    0.2031327045E-03
    0.2500000000E+08    0.6074298108E-03    0.4426678274E-03    0.6958401702E+00    0.3292109352E+00    0.2040761574E-03
    0.2700000000E+08    0.5848417416E-03    0.4271847637E-03    0.6958393508E+00    0.3292807800E+00    0.2049508496E-03
