  Pressure (Pa) 22mC5-500 (mol/kg) 23mC5-500 (mol/kg) 24mC5-500 (mol/kg) 2mC6-500 (mol/kg) C7-500 (mol/kg)
    0.1000000000E+01    0.1877884230E-05    0.1616404818E-05    0.2142785211E+00    0.1447442939E-04    0.4167120105E-02
    0.3000000000E+01    0.3213590434E-05    0.2756155815E-05    0.3978439925E+00    0.2364303448E-04    0.4188124471E-02
    0.5000000000E+01    0.3725832601E-05    0.3190750060E-05    0.4801041775E+00    0.2740493399E-04    0.4195207729E-02
    0.7000000000E+01    0.4014900511E-05    0.3437207255E-05    0.5267857289E+00    0.3018198143E-04    0.4198919336E-02
    0.9000000000E+01    0.4225672673E-05    0.3619009412E-05    0.5568671680E+00    0.3280042890E-04    0.4201182180E-02
    0.1100000000E+02    0.4405834730E-05    0.3776312128E-05    0.5778665134E+00    0.3545222443E-04    0.4202676017E-02
    0.1300000000E+02    0.4573953005E-05    0.3924520459E-05    0.5933574158E+00    0.3817824765E-04    0.4203709083E-02
    0.1500000000E+02    0.4737999731E-05    0.4070122243E-05    0.6052560128E+00    0.4097888667E-04    0.4204442880E-02
    0.1700000000E+02    0.4901579112E-05    0.4215970514E-05    0.6146820585E+00    0.4384421023E-04    0.4204970677E-02
    0.1900000000E+02    0.5066335800E-05    0.4363310300E-05    0.6223337231E+00    0.4676287267E-04    0.4205350291E-02
    0.2100000000E+02    0.5232984437E-05    0.4512636979E-05    0.6286689320E+00    0.4972467179E-04    0.4205619560E-02
    0.2300000000E+02    0.5401783172E-05    0.4664086792E-05    0.6340005181E+00    0.5272109791E-04    0.4205804334E-02
    0.2500000000E+02    0.5572763549E-05    0.4817623950E-05    0.6385494695E+00    0.5574525530E-04    0.4205922900E-02
    0.2700000000E+02    0.5745846541E-05    0.4973133551E-05    0.6424763308E+00    0.5879161699E-04    0.4205988574E-02
    0.2900000000E+02    0.5920902642E-05    0.5130468674E-05    0.6459005460E+00    0.6185576592E-04    0.4206011294E-02
    0.3100000000E+02    0.6097783360E-05    0.5289474344E-05    0.6489128198E+00    0.6493416904E-04    0.4205998632E-02
    0.3300000000E+02    0.6276337662E-05    0.5449999511E-05    0.6515832710E+00    0.6802399283E-04    0.4205956464E-02
    0.3500000000E+02    0.6456420325E-05    0.5611902694E-05    0.6539669591E+00    0.7112295707E-04    0.4205889423E-02
    0.3700000000E+02    0.6637895873E-05    0.5775054272E-05    0.6561077209E+00    0.7422922021E-04    0.4205801211E-02
    0.3900000000E+02    0.6820640128E-05    0.5939336998E-05    0.6580408914E+00    0.7734128997E-04    0.4205694825E-02
    0.4100000000E+02    0.7004540445E-05    0.6104645615E-05    0.6597952698E+00    0.8045795334E-04    0.4205572717E-02
    0.4300000000E+02    0.7189495288E-05    0.6270886039E-05    0.6613945633E+00    0.8357822185E-04    0.4205436914E-02
    0.4500000000E+02    0.7375413467E-05    0.6437974365E-05    0.6628584655E+00    0.8670128839E-04    0.4205289105E-02
    0.4700000000E+02    0.7562213250E-05    0.6605835837E-05    0.6642034707E+00    0.8982649312E-04    0.4205130712E-02
    0.4900000000E+02    0.7749821444E-05    0.6774403865E-05    0.6654434987E+00    0.9295329635E-04    0.4204962938E-02
    0.1000000000E+02    0.4318051072E-05    0.3699449093E-05    0.5682240425E+00    0.3411801749E-04    0.4202001043E-02
    0.3000000000E+02    0.6009124430E-05    0.5209772311E-05    0.6474533855E+00    0.6339337731E-04    0.4206008984E-02
    0.5000000000E+02    0.7843907938E-05    0.6858934031E-05    0.6660279134E+00    0.9451715616E-04    0.4204875861E-02
    0.7000000000E+02    0.9755440806E-05    0.8575272524E-05    0.6743188758E+00    0.1258071130E-03    0.4202826377E-02
    0.9000000000E+02    0.1170392522E-04    0.1032311074E-04    0.6790147808E+00    0.1570614299E-03    0.4200444961E-02
    0.1100000000E+03    0.1367493943E-04    0.1208993216E-04    0.6820372642E+00    0.1882853483E-03    0.4197903777E-02
    0.1300000000E+03    0.1566284042E-04    0.1387099175E-04    0.6841455360E+00    0.2195180764E-03    0.4195271238E-02
    0.1500000000E+03    0.1766543798E-04    0.1566454175E-04    0.6856998786E+00    0.2508008084E-03    0.4192579385E-02
    0.1700000000E+03    0.1968204805E-04    0.1747011798E-04    0.6868932443E+00    0.2821703630E-03    0.4189844821E-02
    0.1900000000E+03    0.2171269026E-04    0.1928784344E-04    0.6878382931E+00    0.3136585211E-03    0.4187076714E-02
    0.2100000000E+03    0.2375772610E-04    0.2111811864E-04    0.6886052219E+00    0.3452926509E-03    0.4184280315E-02
    0.2300000000E+03    0.2581768491E-04    0.2296147480E-04    0.6892400475E+00    0.3770965187E-03    0.4181458667E-02
    0.2500000000E+03    0.2789317624E-04    0.2481850135E-04    0.6897741927E+00    0.4090910132E-03    0.4178613505E-02
    0.2700000000E+03    0.2998484468E-04    0.2668980923E-04    0.6902298469E+00    0.4412947337E-03    0.4175745758E-02
    0.2900000000E+03    0.3209334620E-04    0.2857601240E-04    0.6906231250E+00    0.4737244548E-03    0.4172855836E-02
    0.3100000000E+03    0.3421933598E-04    0.3047771878E-04    0.6909660133E+00    0.5063954905E-03    0.4169943816E-02
    0.3300000000E+03    0.3636346261E-04    0.3239552624E-04    0.6912676120E+00    0.5393219802E-03    0.4167009544E-02
    0.3500000000E+03    0.3852636552E-04    0.3433002137E-04    0.6915349545E+00    0.5725171149E-03    0.4164052713E-02
    0.3700000000E+03    0.4070867449E-04    0.3628177960E-04    0.6917735626E+00    0.6059933171E-03    0.4161072909E-02
    0.3900000000E+03    0.4291101007E-04    0.3825136616E-04    0.6919878319E+00    0.6397623866E-03    0.4158069642E-02
    0.4100000000E+03    0.4513398462E-04    0.4023933738E-04    0.6921813050E+00    0.6738356181E-03    0.4155042366E-02
    0.4300000000E+03    0.4737820358E-04    0.4224624211E-04    0.6923568687E+00    0.7082238981E-03    0.4151990497E-02
    0.4500000000E+03    0.4964426685E-04    0.4427262321E-04    0.6925168993E+00    0.7429377849E-03    0.4148913422E-02
    0.4700000000E+03    0.5193277020E-04    0.4631901897E-04    0.6926633704E+00    0.7779875758E-03    0.4145810502E-02
    0.4900000000E+03    0.5424430662E-04    0.4838596446E-04    0.6927979351E+00    0.8133833636E-03    0.4142681085E-02
    0.1000000000E+03    0.1268708624E-04    0.1120454772E-04    0.6806738277E+00    0.1726749415E-03    0.4199188802E-02
    0.3000000000E+03    0.3315411432E-04    0.2952489006E-04    0.6908002426E+00    0.4900289000E-03    0.4171402594E-02
    0.5000000000E+03    0.5540889709E-04    0.4942731001E-04    0.6928611970E+00    0.8312141165E-03    0.4141106231E-02
    0.7000000000E+03    0.8005580005E-04    0.7146430364E-04    0.6937479403E+00    0.1208391145E-02    0.4108048296E-02
    0.9000000000E+03    0.1077116737E-03    0.9619002013E-04    0.6942413844E+00    0.1631537528E-02    0.4071505656E-02
    0.1100000000E+04    0.1390804742E-03    0.1242349074E-03    0.6945556458E+00    0.2111645993E-02    0.4030639719E-02
    0.1300000000E+04    0.1750217932E-03    0.1563681402E-03    0.6947732968E+00    0.2662024441E-02    0.3984444071E-02
    0.1500000000E+04    0.2166217198E-03    0.1935613051E-03    0.6949329333E+00    0.3299449348E-02    0.3931668970E-02
    0.1700000000E+04    0.2652826545E-03    0.2370688547E-03    0.6950550104E+00    0.4045575633E-02    0.3870725239E-02
    0.1900000000E+04    0.3228460406E-03    0.2885379583E-03    0.6951513794E+00    0.4928847779E-02    0.3799556072E-02
    0.2100000000E+04    0.3917644968E-03    0.3501625460E-03    0.6952293808E+00    0.5987177370E-02    0.3715462111E-02
    0.2300000000E+04    0.4753441469E-03    0.4249001791E-03    0.6952938040E+00    0.7271716951E-02    0.3614863135E-02
    0.2500000000E+04    0.5780801871E-03    0.5167724056E-03    0.6953479066E+00    0.8852099004E-02    0.3492982765E-02
    0.2700000000E+04    0.7060982549E-03    0.6312599211E-03    0.6953939818E+00    0.1082335708E-01    0.3343464310E-02
    0.2900000000E+04    0.8676603239E-03    0.7757557597E-03    0.6954336902E+00    0.1331393288E-01    0.3158002360E-02
    0.3100000000E+04    0.1073517602E-02    0.9598821911E-03    0.6954682642E+00    0.1649147775E-01    0.2926291982E-02
    0.3300000000E+04    0.1336429342E-02    0.1195062405E-02    0.6954986375E+00    0.2055601390E-01    0.2637114719E-02
    0.3500000000E+04    0.1668242209E-02    0.1491911044E-02    0.6955255304E+00    0.2569566094E-01    0.2282292894E-02
    0.3700000000E+04    0.2072099293E-02    0.1853267675E-02    0.6955495075E+00    0.3196695051E-01    0.1865695376E-02
    0.3900000000E+04    0.2529969569E-02    0.2263038943E-02    0.6955710176E+00    0.3910128067E-01    0.1415672195E-02
    0.4100000000E+04    0.2996449423E-02    0.2680639594E-02    0.6955904220E+00    0.4640504670E-01    0.9874963471E-03
    0.4300000000E+04    0.3416429200E-02    0.3056775979E-02    0.6956080147E+00    0.5302721315E-01    0.6390305360E-03
    0.4500000000E+04    0.3757461343E-02    0.3362397818E-02    0.6956240374E+00    0.5845907200E-01    0.3959799964E-03
    0.4700000000E+04    0.4020744618E-02    0.3598543312E-02    0.6956386907E+00    0.6270955648E-01    0.2461704709E-03
    0.4900000000E+04    0.4225581938E-02    0.3782453805E-02    0.6956521425E+00    0.6606990103E-01    0.1611963473E-03
    0.1000000000E+04    0.1228826527E-03    0.1097534404E-03    0.6944142072E+00    0.1863706926E-02    0.4051671260E-02
    0.3000000000E+04    0.9642849329E-03    0.8621784698E-03    0.6954515548E+00    0.1480484186E-01    0.3048634593E-02
    0.5000000000E+04    0.4312656013E-02    0.3860695645E-02    0.6956584629E+00    0.6751657464E-01    0.1346457056E-03
    0.7000000000E+04    0.5467139873E-02    0.4901661729E-02    0.6957467765E+00    0.8774184406E-01    0.6591446982E-04
    0.9000000000E+04    0.6320755137E-02    0.5675189725E-02    0.6957956243E+00    0.1038484885E+00    0.6672977871E-04
    0.1100000000E+05    0.7001466953E-02    0.6295020129E-02    0.6958265674E+00    0.1176137262E+00    0.6747931079E-04
    0.1300000000E+05    0.7549910200E-02    0.6797014005E-02    0.6958478893E+00    0.1295275870E+00    0.6810970328E-04
    0.1500000000E+05    0.7995336494E-02    0.7207020902E-02    0.6958634506E+00    0.1399500364E+00    0.6865425393E-04
    0.1700000000E+05    0.8359340554E-02    0.7544151322E-02    0.6958752927E+00    0.1491526379E+00    0.6913402699E-04
    0.1900000000E+05    0.8658166832E-02    0.7822802161E-02    0.6958845955E+00    0.1573442088E+00    0.6956312915E-04
    0.2100000000E+05    0.8904237045E-02    0.8053999003E-02    0.6958920887E+00    0.1646880163E+00    0.6995147983E-04
    0.2300000000E+05    0.9107187816E-02    0.8246308627E-02    0.6958982474E+00    0.1713136036E+00    0.7030632480E-04
    0.2500000000E+05    0.9274591397E-02    0.8406473316E-02    0.6959033943E+00    0.1773251063E+00    0.7063312123E-04
    0.2700000000E+05    0.9412466237E-02    0.8539860565E-02    0.6959077559E+00    0.1828072194E+00    0.7093608368E-04
    0.2900000000E+05    0.9525645077E-02    0.8650787583E-02    0.6959114962E+00    0.1878295538E+00    0.7121853611E-04
    0.3100000000E+05    0.9618044587E-02    0.8742759184E-02    0.6959147367E+00    0.1924498692E+00    0.7148314718E-04
    0.3300000000E+05    0.9692865695E-02    0.8818644693E-02    0.6959175692E+00    0.1967165071E+00    0.7173209255E-04
    0.3500000000E+05    0.9752744383E-02    0.8880811229E-02    0.6959200644E+00    0.2006702473E+00    0.7196716970E-04
    0.3700000000E+05    0.9799866532E-02    0.8931225302E-02    0.6959222778E+00    0.2043457396E+00    0.7218988111E-04
    0.3900000000E+05    0.9836056357E-02    0.8971531116E-02    0.6959242533E+00    0.2077726215E+00    0.7240149572E-04
    0.4100000000E+05    0.9862845159E-02    0.9003111515E-02    0.6959260261E+00    0.2109763995E+00    0.7260309511E-04
    0.4300000000E+05    0.9881525301E-02    0.9027135853E-02    0.6959276251E+00    0.2139791494E+00    0.7279560883E-04
    0.4500000000E+05    0.9893192907E-02    0.9044597924E-02    0.6959290737E+00    0.2168000789E+00    0.7297984169E-04
    0.4700000000E+05    0.9898781941E-02    0.9056346250E-02    0.6959303915E+00    0.2194559821E+00    0.7315649525E-04
    0.4900000000E+05    0.9899091578E-02    0.9063108434E-02    0.6959315947E+00    0.2219616104E+00    0.7332618479E-04
    0.1000000000E+05    0.6679858139E-02    0.6001788989E-02    0.6958126607E+00    0.1109894318E+00    0.6712219528E-04
    0.3000000000E+05    0.9574227385E-02    0.8698950324E-02    0.6959131726E+00    0.1901867459E+00    0.7135292581E-04
    0.5000000000E+05    0.9897485050E-02    0.9064818971E-02    0.6959321578E+00    0.2231621985E+00    0.7340859016E-04
    0.7000000000E+05    0.9712005176E-02    0.8950726789E-02    0.6959398240E+00    0.2417572971E+00    0.7479466041E-04
    0.9000000000E+05    0.9401648940E-02    0.8709375073E-02    0.6959438195E+00    0.2538955585E+00    0.7584690707E-04
    0.1100000000E+06    0.9070182286E-02    0.8439132296E-02    0.6959461926E+00    0.2625367897E+00    0.7669769783E-04
    0.1300000000E+06    0.8749979305E-02    0.8172237321E-02    0.6959477171E+00    0.2690522397E+00    0.7741322116E-04
    0.1500000000E+06    0.8450942760E-02    0.7919573272E-02    0.6959487474E+00    0.2741698063E+00    0.7803144430E-04
    0.1700000000E+06    0.8175083262E-02    0.7684245857E-02    0.6959494678E+00    0.2783141655E+00    0.7857621312E-04
    0.1900000000E+06    0.7921546149E-02    0.7466367929E-02    0.6959499829E+00    0.2817509590E+00    0.7906350587E-04
    0.2100000000E+06    0.7688506457E-02    0.7264915714E-02    0.6959503561E+00    0.2846554946E+00    0.7950456293E-04
    0.2300000000E+06    0.7473916198E-02    0.7078491554E-02    0.6959506281E+00    0.2871484896E+00    0.7990759788E-04
    0.2500000000E+06    0.7275798107E-02    0.6905644129E-02    0.6959508260E+00    0.2893159958E+00    0.8027879852E-04
    0.2700000000E+06    0.7092351605E-02    0.6744999547E-02    0.6959509683E+00    0.2912211395E+00    0.8062294475E-04
    0.2900000000E+06    0.6921979590E-02    0.6595308960E-02    0.6959510682E+00    0.2929113636E+00    0.8094380712E-04
    0.3100000000E+06    0.6763282476E-02    0.6455459093E-02    0.6959511354E+00    0.2944230689E+00    0.8124441336E-04
    0.3300000000E+06    0.6615039887E-02    0.6324466736E-02    0.6959511769E+00    0.2957846882E+00    0.8152723215E-04
    0.3500000000E+06    0.6476188956E-02    0.6201466970E-02    0.6959511980E+00    0.2970187800E+00    0.8179430336E-04
    0.3700000000E+06    0.6345803123E-02    0.6085699651E-02    0.6959512030E+00    0.2981434901E+00    0.8204733220E-04
    0.3900000000E+06    0.6223072900E-02    0.5976496166E-02    0.6959511949E+00    0.2991735940E+00    0.8228775900E-04
    0.4100000000E+06    0.6107289066E-02    0.5873267332E-02    0.6959511762E+00    0.3001212550E+00    0.8251681152E-04
    0.4300000000E+06    0.5997828255E-02    0.5775492687E-02    0.6959511489E+00    0.3009965850E+00    0.8273554499E-04
    0.4500000000E+06    0.5894140709E-02    0.5682711200E-02    0.6959511146E+00    0.3018080648E+00    0.8294487313E-04
    0.4700000000E+06    0.5795739918E-02    0.5594513278E-02    0.6959510746E+00    0.3025628654E+00    0.8314559246E-04
    0.4900000000E+06    0.5702193883E-02    0.5510533933E-02    0.6959510298E+00    0.3032670947E+00    0.8333840159E-04
    0.1000000000E+06    0.9235710108E-02    0.8575077566E-02    0.6959451457E+00    0.2585461691E+00    0.7629242738E-04
    0.3000000000E+06    0.6841251893E-02    0.6524218314E-02    0.6959511054E+00    0.2936875955E+00    0.8109647660E-04
    0.5000000000E+06    0.5657119460E-02    0.5470022908E-02    0.6959510059E+00    0.3036019113E+00    0.8343203525E-04
    0.7000000000E+06    0.4936143767E-02    0.4817917209E-02    0.6959504233E+00    0.3085944761E+00    0.8500703832E-04
    0.9000000000E+06    0.4438560332E-02    0.4363217564E-02    0.6959497976E+00    0.3116895342E+00    0.8620278471E-04
    0.1100000000E+07    0.4068391067E-02    0.4022355909E-02    0.6959492055E+00    0.3138319635E+00    0.8716963299E-04
    0.1300000000E+07    0.3778971724E-02    0.3754221922E-02    0.6959486601E+00    0.3154206147E+00    0.8798277829E-04
    0.1500000000E+07    0.3544544471E-02    0.3535931763E-02    0.6959481601E+00    0.3166554881E+00    0.8868535796E-04
    0.1700000000E+07    0.3349574389E-02    0.3353592851E-02    0.6959477005E+00    0.3176489023E+00    0.8930446658E-04
    0.1900000000E+07    0.3184059371E-02    0.3198212064E-02    0.6959472764E+00    0.3184692365E+00    0.8985825993E-04
    0.2100000000E+07    0.3041227817E-02    0.3063672918E-02    0.6959468832E+00    0.3191607217E+00    0.9035951066E-04
    0.2300000000E+07    0.2916308851E-02    0.2945648885E-02    0.6959465169E+00    0.3197533540E+00    0.9081755222E-04
    0.2500000000E+07    0.2805830515E-02    0.2840980254E-02    0.6959461743E+00    0.3202682629E+00    0.9123941621E-04
    0.2700000000E+07    0.2707197309E-02    0.2747297475E-02    0.6959458524E+00    0.3207208032E+00    0.9163053442E-04
    0.2900000000E+07    0.2618424489E-02    0.2662783383E-02    0.6959455490E+00    0.3211224281E+00    0.9199519169E-04
    0.3100000000E+07    0.2537964681E-02    0.2586017544E-02    0.6959452622E+00    0.3214818712E+00    0.9233682873E-04
    0.3300000000E+07    0.2464591139E-02    0.2515871124E-02    0.6959449901E+00    0.3218059202E+00    0.9265825104E-04
    0.3500000000E+07    0.2397316984E-02    0.2451433983E-02    0.6959447313E+00    0.3220999383E+00    0.9296177672E-04
    0.3700000000E+07    0.2335338017E-02    0.2391962905E-02    0.6959444846E+00    0.3223682252E+00    0.9324934368E-04
    0.3900000000E+07    0.2277991364E-02    0.2336844092E-02    0.6959442489E+00    0.3226142721E+00    0.9352258874E-04
    0.4100000000E+07    0.2224725034E-02    0.2285565475E-02    0.6959440232E+00    0.3228409463E+00    0.9378290718E-04
    0.4300000000E+07    0.2175075122E-02    0.2237695963E-02    0.6959438068E+00    0.3230506271E+00    0.9403149824E-04
    0.4500000000E+07    0.2128648509E-02    0.2192869638E-02    0.6959435988E+00    0.3232453069E+00    0.9426940029E-04
    0.4700000000E+07    0.2085109529E-02    0.2150773581E-02    0.6959433987E+00    0.3234266683E+00    0.9449751857E-04
    0.4900000000E+07    0.2044169598E-02    0.2111138362E-02    0.6959432058E+00    0.3235961429E+00    0.9471664700E-04
    0.1000000000E+07    0.4241151815E-02    0.4181722561E-02    0.6959494959E+00    0.3128480861E+00    0.8670907608E-04
    0.3000000000E+07    0.2577238560E-02    0.2623508340E-02    0.6959454037E+00    0.3213069596E+00    0.9216869948E-04
    0.5000000000E+07    0.2024594920E-02    0.2092169385E-02    0.6959431119E+00    0.3236768130E+00    0.9482306212E-04
    0.7000000000E+07    0.1723509797E-02    0.1798833106E-02    0.6959415143E+00    0.3248887827E+00    0.9661306441E-04
    0.9000000000E+07    0.1526996175E-02    0.1605634897E-02    0.6959402827E+00    0.3256514414E+00    0.9797204188E-04
    0.1100000000E+08    0.1385734927E-02    0.1465792814E-02    0.6959392782E+00    0.3261863325E+00    0.9907087552E-04
    0.1300000000E+08    0.1277854400E-02    0.1358395815E-02    0.6959384285E+00    0.3265875209E+00    0.9999502450E-04
    0.1500000000E+08    0.1191964693E-02    0.1272487019E-02    0.6959376914E+00    0.3269025069E+00    0.1007935146E-03
    0.1700000000E+08    0.1121470794E-02    0.1201689936E-02    0.6959370400E+00    0.3271581579E+00    0.1014971389E-03
    0.1900000000E+08    0.1062253630E-02    0.1142004776E-02    0.6959364559E+00    0.3273709445E+00    0.1021265316E-03
    0.2100000000E+08    0.1011589727E-02    0.1090776981E-02    0.6959359263E+00    0.3275515915E+00    0.1026962090E-03
    0.2300000000E+08    0.9675964306E-03    0.1046165413E-02    0.6959354416E+00    0.3277074173E+00    0.1032167787E-03
    0.2500000000E+08    0.9289249512E-03    0.1006847074E-02    0.6959349947E+00    0.3278436078E+00    0.1036962321E-03
    0.2700000000E+08    0.8945801666E-03    0.9718432125E-03    0.6959345799E+00    0.3279639523E+00    0.1041407425E-03
