  Pressure (Pa) 22mC5-500 (mol/kg) 23mC5-500 (mol/kg) 24mC5-500 (mol/kg) 2mC6-500 (mol/kg) C7-500 (mol/kg)
    0.1000000000E+01    0.2351921671E-05    0.1350766002E-05    0.9949185969E-01    0.1822584769E-04    0.4232306560E-02
    0.3000000000E+01    0.5201421382E-05    0.2980023524E-05    0.2320700155E+00    0.3861489331E-04    0.4326328233E-02
    0.5000000000E+01    0.6816428462E-05    0.3898195314E-05    0.3163935737E+00    0.4917007565E-04    0.4386080200E-02
    0.7000000000E+01    0.7823723686E-05    0.4467930522E-05    0.3747523452E+00    0.5535177160E-04    0.4427969500E-02
    0.9000000000E+01    0.8497871941E-05    0.4847596766E-05    0.4175394404E+00    0.5939385496E-04    0.4459120993E-02
    0.1100000000E+02    0.8975614939E-05    0.5115810955E-05    0.4502539680E+00    0.6232995982E-04    0.4483281965E-02
    0.1300000000E+02    0.9331378428E-05    0.5315216375E-05    0.4760783336E+00    0.6467919159E-04    0.4502624751E-02
    0.1500000000E+02    0.9608423278E-05    0.5470510118E-05    0.4969820064E+00    0.6671771025E-04    0.4518498959E-02
    0.1700000000E+02    0.9833200556E-05    0.5596734592E-05    0.5142491278E+00    0.6859850500E-04    0.4531788733E-02
    0.1900000000E+02    0.1002254345E-04    0.5703423248E-05    0.5287527572E+00    0.7040864218E-04    0.4543098271E-02
    0.2100000000E+02    0.1018751540E-04    0.5796814160E-05    0.5411071816E+00    0.7219839603E-04    0.4552854957E-02
    0.2300000000E+02    0.1033558157E-04    0.5881096429E-05    0.5517571782E+00    0.7399683146E-04    0.4561369926E-02
    0.2500000000E+02    0.1047188934E-04    0.5959143487E-05    0.5610327113E+00    0.7582048410E-04    0.4568875270E-02
    0.2700000000E+02    0.1060005181E-04    0.6032960734E-05    0.5691837345E+00    0.7767835792E-04    0.4575547779E-02
    0.2900000000E+02    0.1072264251E-04    0.6103967499E-05    0.5764030562E+00    0.7957488154E-04    0.4581524581E-02
    0.3100000000E+02    0.1084151637E-04    0.6173179511E-05    0.5828417881E+00    0.8151169557E-04    0.4586913748E-02
    0.3300000000E+02    0.1095802297E-04    0.6241329786E-05    0.5886200388E+00    0.8348875225E-04    0.4591801656E-02
    0.3500000000E+02    0.1107315109E-04    0.6308950378E-05    0.5938344775E+00    0.8550500070E-04    0.4596258211E-02
    0.3700000000E+02    0.1118762860E-04    0.6376428669E-05    0.5985637852E+00    0.8755881773E-04    0.4600340625E-02
    0.3900000000E+02    0.1130199252E-04    0.6444046757E-05    0.6028726537E+00    0.8964827976E-04    0.4604096200E-02
    0.4100000000E+02    0.1141663892E-04    0.6512009403E-05    0.6068147615E+00    0.9177133421E-04    0.4607564398E-02
    0.4300000000E+02    0.1153185890E-04    0.6580464120E-05    0.6104350226E+00    0.9392590655E-04    0.4610778422E-02
    0.4500000000E+02    0.1164786482E-04    0.6649515772E-05    0.6137713048E+00    0.9610996597E-04    0.4613766417E-02
    0.4700000000E+02    0.1176480967E-04    0.6719237293E-05    0.6168557593E+00    0.9832156420E-04    0.4616552410E-02
    0.4900000000E+02    0.1188280143E-04    0.6789677622E-05    0.6197158603E+00    0.1005588570E-03    0.4619157045E-02
    0.1000000000E+02    0.8755666147E-05    0.4992407383E-05    0.4349195567E+00    0.6095992280E-04    0.4471914213E-02
    0.3000000000E+02    0.1078244981E-04    0.6138746519E-05    0.5797118634E+00    0.8053822524E-04    0.4584286782E-02
    0.5000000000E+02    0.1194221406E-04    0.6825177565E-05    0.6210692908E+00    0.1016865936E-03    0.4620397024E-02
    0.7000000000E+02    0.1319270774E-04    0.7574931992E-05    0.6406575331E+00    0.1252327901E-03    0.4638955125E-02
    0.9000000000E+02    0.1455044245E-04    0.8390655365E-05    0.6520829365E+00    0.1500281643E-03    0.4650393336E-02
    0.1100000000E+03    0.1599012165E-04    0.9255471389E-05    0.6595678246E+00    0.1755450473E-03    0.4658135839E-02
    0.1300000000E+03    0.1749169541E-04    0.1015689866E-04    0.6648507399E+00    0.2015348247E-03    0.4663667340E-02
    0.1500000000E+03    0.1904165245E-04    0.1108673405E-04    0.6687786448E+00    0.2278724966E-03    0.4667747057E-02
    0.1700000000E+03    0.2063098320E-04    0.1203958662E-04    0.6718135091E+00    0.2544922703E-03    0.4670808500E-02
    0.1900000000E+03    0.2225358709E-04    0.1301184417E-04    0.6742287380E+00    0.2813588337E-03    0.4673119616E-02
    0.2100000000E+03    0.2390525490E-04    0.1400103583E-04    0.6761964717E+00    0.3084535142E-03    0.4674856219E-02
    0.2300000000E+03    0.2558303422E-04    0.1500544196E-04    0.6778304954E+00    0.3357671548E-03    0.4676139182E-02
    0.2500000000E+03    0.2728482869E-04    0.1602385092E-04    0.6792090344E+00    0.3632962447E-03    0.4677054773E-02
    0.2700000000E+03    0.2900913927E-04    0.1705540330E-04    0.6803876385E+00    0.3910407221E-03    0.4677666480E-02
    0.2900000000E+03    0.3075489310E-04    0.1809948970E-04    0.6814068431E+00    0.4190026801E-03    0.4678022231E-02
    0.3100000000E+03    0.3252132761E-04    0.1915568191E-04    0.6822969206E+00    0.4471855821E-03    0.4678158999E-02
    0.3300000000E+03    0.3430791047E-04    0.2022368556E-04    0.6830809350E+00    0.4755937747E-03    0.4678105831E-02
    0.3500000000E+03    0.3611428309E-04    0.2130330692E-04    0.6837767669E+00    0.5042321795E-03    0.4677885915E-02
    0.3700000000E+03    0.3794022011E-04    0.2239442913E-04    0.6843984920E+00    0.5331060953E-03    0.4677518017E-02
    0.3900000000E+03    0.3978559987E-04    0.2349699497E-04    0.6849573420E+00    0.5622210701E-03    0.4677017505E-02
    0.4100000000E+03    0.4165038256E-04    0.2461099417E-04    0.6854623886E+00    0.5915828184E-03    0.4676397104E-02
    0.4300000000E+03    0.4353459390E-04    0.2573645392E-04    0.6859210386E+00    0.6211971671E-03    0.4675667440E-02
    0.4500000000E+03    0.4543831274E-04    0.2687343171E-04    0.6863393991E+00    0.6510700212E-03    0.4674837469E-02
    0.4700000000E+03    0.4736166162E-04    0.2802200992E-04    0.6867225507E+00    0.6812073430E-03    0.4673914786E-02
    0.4900000000E+03    0.4930479941E-04    0.2918229155E-04    0.6870747543E+00    0.7116151391E-03    0.4672905878E-02
    0.1000000000E+03    0.1526146794E-04    0.8817825771E-05    0.6561785326E+00    0.1627160160E-03    0.4654609076E-02
    0.3000000000E+03    0.3163556318E-04    0.1862609367E-04    0.6818664399E+00    0.4330662578E-03    0.4678116015E-02
    0.5000000000E+03    0.5028384731E-04    0.2976685818E-04    0.6872403980E+00    0.7269223524E-03    0.4672370861E-02
    0.7000000000E+03    0.7096304913E-04    0.4210943526E-04    0.6895663133E+00    0.1048770467E-02    0.4658151424E-02
    0.9000000000E+03    0.9396143848E-04    0.5583038355E-04    0.6908634306E+00    0.1404947301E-02    0.4638591423E-02
    0.1100000000E+04    0.1196964701E-03    0.7118057100E-04    0.6916901855E+00    0.1802595171E-02    0.4614454159E-02
    0.1300000000E+04    0.1486947386E-03    0.8847500336E-04    0.6922628465E+00    0.2250180326E-02    0.4585745561E-02
    0.1500000000E+04    0.1816146215E-03    0.1081068779E-03    0.6926827537E+00    0.2758066733E-02    0.4552081296E-02
    0.1700000000E+04    0.2192859335E-03    0.1305714495E-03    0.6930037013E+00    0.3339211262E-02    0.4512781563E-02
    0.1900000000E+04    0.2627664314E-03    0.1564998341E-03    0.6932568905E+00    0.4010076268E-02    0.4466872013E-02
    0.2100000000E+04    0.3134206899E-03    0.1867061154E-03    0.6934616612E+00    0.4791874298E-02    0.4413034391E-02
    0.2300000000E+04    0.3730304800E-03    0.2222532297E-03    0.6936306379E+00    0.5712298041E-02    0.4349515523E-02
    0.2500000000E+04    0.4439497313E-03    0.2645454501E-03    0.6937724109E+00    0.6807945487E-02    0.4273990371E-02
    0.2700000000E+04    0.5293214644E-03    0.3154578588E-03    0.6938930281E+00    0.8127717359E-02    0.4183368874E-02
    0.2900000000E+04    0.6333766413E-03    0.3775147315E-03    0.6939968701E+00    0.9737507333E-02    0.4073535844E-02
    0.3100000000E+04    0.7618282871E-03    0.4541248446E-03    0.6940871879E+00    0.1172641120E-01    0.3939025796E-02
    0.3300000000E+04    0.9223369902E-03    0.5498595305E-03    0.6941664445E+00    0.1421411715E-01    0.3772683171E-02
    0.3500000000E+04    0.1124900502E-02    0.6706857574E-03    0.6942365399E+00    0.1735724573E-01    0.3565498971E-02
    0.3700000000E+04    0.1381690219E-02    0.8238697481E-03    0.6942989634E+00    0.2134730428E-01    0.3307159183E-02
    0.3900000000E+04    0.1705153628E-02    0.1016846796E-02    0.6943548983E+00    0.2638195736E-01    0.2988509380E-02
    0.4100000000E+04    0.2102293559E-02    0.1253810556E-02    0.6944052973E+00    0.3257694880E-01    0.2607825144E-02
    0.4300000000E+04    0.2563840615E-02    0.1529253886E-02    0.6944509356E+00    0.3979779170E-01    0.2181373734E-02
    0.4500000000E+04    0.3054087488E-02    0.1821898390E-02    0.6944924502E+00    0.4749913774E-01    0.1751164452E-02
    0.4700000000E+04    0.3517695389E-02    0.2098742181E-02    0.6945303699E+00    0.5482521297E-01    0.1373843543E-02
    0.4900000000E+04    0.3908807281E-02    0.2332419514E-02    0.6945651367E+00    0.6105905115E-01    0.1089596138E-02
    0.1000000000E+04    0.1064566889E-03    0.6328374760E-04    0.6913180537E+00    0.1598095602E-02    0.4627083266E-02
    0.3000000000E+04    0.6941253535E-03    0.4137455119E-03    0.6940435502E+00    0.1067789591E-01    0.4009769496E-02
    0.5000000000E+04    0.4071766313E-02    0.2429835977E-02    0.6945814567E+00    0.6367934232E-01    0.9848978497E-03
    0.7000000000E+04    0.5509083400E-02    0.3292496500E-02    0.6948081106E+00    0.8828030077E-01    0.6646106498E-03
    0.9000000000E+04    0.6378134800E-02    0.3817351946E-02    0.6949317726E+00    0.1046060109E+00    0.6733522632E-03
    0.1100000000E+05    0.7072437654E-02    0.4238663319E-02    0.6950089952E+00    0.1185703078E+00    0.6809400586E-03
    0.1300000000E+05    0.7633107631E-02    0.4580623563E-02    0.6950614215E+00    0.1306704048E+00    0.6873163897E-03
    0.1500000000E+05    0.8089376133E-02    0.4860450622E-02    0.6950990987E+00    0.1412648886E+00    0.6928217192E-03
    0.1700000000E+05    0.8462907765E-02    0.5090923345E-02    0.6951273169E+00    0.1506252431E+00    0.6976703838E-03
    0.1900000000E+05    0.8770055875E-02    0.5281701697E-02    0.6951491216E+00    0.1589608749E+00    0.7020057408E-03
    0.2100000000E+05    0.9023363126E-02    0.5440205674E-02    0.6951663875E+00    0.1664359517E+00    0.7059284976E-03
    0.2300000000E+05    0.9232585733E-02    0.5572215660E-02    0.6951803302E+00    0.1731810334E+00    0.7095121621E-03
    0.2500000000E+05    0.9405407875E-02    0.5682291508E-02    0.6951917712E+00    0.1793012860E+00    0.7128120629E-03
    0.2700000000E+05    0.9547949681E-02    0.5774070760E-02    0.6952012853E+00    0.1848823936E+00    0.7158709088E-03
    0.2900000000E+05    0.9665134710E-02    0.5850484558E-02    0.6952092864E+00    0.1899948893E+00    0.7187223691E-03
    0.3100000000E+05    0.9760959917E-02    0.5913916395E-02    0.6952160793E+00    0.1946973782E+00    0.7213934663E-03
    0.3300000000E+05    0.9838696788E-02    0.5966320493E-02    0.6952218938E+00    0.1990389687E+00    0.7239062234E-03
    0.3500000000E+05    0.9901043099E-02    0.6009311196E-02    0.6952269060E+00    0.2030611310E+00    0.7262788310E-03
    0.3700000000E+05    0.9950238770E-02    0.6044231273E-02    0.6952312529E+00    0.2067991352E+00    0.7285264903E-03
    0.3900000000E+05    0.9988155235E-02    0.6072204661E-02    0.6952350429E+00    0.2102831745E+00    0.7306620373E-03
    0.4100000000E+05    0.1001636508E-01    0.6094177595E-02    0.6952383626E+00    0.2135392523E+00    0.7326964107E-03
    0.4300000000E+05    0.1003619676E-01    0.6110950965E-02    0.6952412820E+00    0.2165898897E+00    0.7346390099E-03
    0.4500000000E+05    0.1004877804E-01    0.6123206001E-02    0.6952438583E+00    0.2194546928E+00    0.7364979720E-03
    0.4700000000E+05    0.1005507058E-01    0.6131524800E-02    0.6952461387E+00    0.2221508127E+00    0.7382803890E-03
    0.4900000000E+05    0.1005589792E-01    0.6136406871E-02    0.6952481623E+00    0.2246933213E+00    0.7399924801E-03
    0.1000000000E+05    0.6744197197E-02    0.4039225384E-02    0.6949744279E+00    0.1118479291E+00    0.6773260870E-03
    0.3000000000E+05    0.9715497802E-02    0.5883692189E-02    0.6952128180E+00    0.1923941169E+00    0.7200789850E-03
    0.5000000000E+05    0.1005448736E-01    0.6137696000E-02    0.6952490883E+00    0.2259111895E+00    0.7408238928E-03
    0.7000000000E+05    0.9867173898E-02    0.6061081083E-02    0.6952598505E+00    0.2447328224E+00    0.7548066381E-03
    0.9000000000E+05    0.9549853440E-02    0.5896404551E-02    0.6952631542E+00    0.2569619088E+00    0.7654199664E-03
    0.1100000000E+06    0.9210166775E-02    0.5711600883E-02    0.6952635379E+00    0.2656287415E+00    0.7740004706E-03
    0.1300000000E+06    0.8881808574E-02    0.5528986005E-02    0.6952626029E+00    0.2721361630E+00    0.7812162620E-03
    0.1500000000E+06    0.8575130890E-02    0.5356108053E-02    0.6952610297E+00    0.2772276901E+00    0.7874505023E-03
    0.1700000000E+06    0.8292270113E-02    0.5195129278E-02    0.6952591428E+00    0.2813362875E+00    0.7929438062E-03
    0.1900000000E+06    0.8032373104E-02    0.5046137253E-02    0.6952571099E+00    0.2847322272E+00    0.7978573830E-03
    0.2100000000E+06    0.7793570304E-02    0.4908430776E-02    0.6952550218E+00    0.2875934987E+00    0.8023046310E-03
    0.2300000000E+06    0.7573754975E-02    0.4781048603E-02    0.6952529294E+00    0.2900424098E+00    0.8063684072E-03
    0.2500000000E+06    0.7370890123E-02    0.4662991545E-02    0.6952508615E+00    0.2921659675E+00    0.8101111293E-03
    0.2700000000E+06    0.7183119638E-02    0.4553313447E-02    0.6952488346E+00    0.2940278712E+00    0.8135810114E-03
    0.2900000000E+06    0.7008796789E-02    0.4451154272E-02    0.6952468574E+00    0.2956759016E+00    0.8168160847E-03
    0.3100000000E+06    0.6846478472E-02    0.4355747463E-02    0.6952449344E+00    0.2971466500E+00    0.8198468872E-03
    0.3300000000E+06    0.6694906477E-02    0.4266416179E-02    0.6952430673E+00    0.2984686464E+00    0.8226983175E-03
    0.3500000000E+06    0.6552985174E-02    0.4182565170E-02    0.6952412561E+00    0.2996644868E+00    0.8253909485E-03
    0.3700000000E+06    0.6419759641E-02    0.4103671451E-02    0.6952394997E+00    0.3007523165E+00    0.8279419783E-03
    0.3900000000E+06    0.6294395811E-02    0.4029275155E-02    0.6952377966E+00    0.3017468869E+00    0.8303659323E-03
    0.4100000000E+06    0.6176163118E-02    0.3958971176E-02    0.6952361448E+00    0.3026603223E+00    0.8326751926E-03
    0.4300000000E+06    0.6064419602E-02    0.3892401771E-02    0.6952345422E+00    0.3035026868E+00    0.8348804009E-03
    0.4500000000E+06    0.5958599263E-02    0.3829250152E-02    0.6952329866E+00    0.3042824090E+00    0.8369907716E-03
    0.4700000000E+06    0.5858201356E-02    0.3769234961E-02    0.6952314760E+00    0.3050066056E+00    0.8390143373E-03
    0.4900000000E+06    0.5762781361E-02    0.3712105560E-02    0.6952300080E+00    0.3056813298E+00    0.8409581431E-03
    0.1000000000E+06    0.9379847835E-02    0.5804589919E-02    0.6952635779E+00    0.2616309638E+00    0.7699132715E-03
    0.3000000000E+06    0.6926219778E-02    0.4402651143E-02    0.6952458890E+00    0.2964314927E+00    0.8183553490E-03
    0.5000000000E+06    0.5716812637E-02    0.3684552100E-02    0.6952292895E+00    0.3060017893E+00    0.8419021066E-03
    0.7000000000E+06    0.4982322171E-02    0.3241515257E-02    0.6952167184E+00    0.3107530147E+00    0.8577800122E-03
    0.9000000000E+06    0.4476315183E-02    0.2933159628E-02    0.6952066847E+00    0.3136696384E+00    0.8698340656E-03
    0.1100000000E+07    0.4100380245E-02    0.2702318087E-02    0.6951983415E+00    0.3156735483E+00    0.8795803565E-03
    0.1300000000E+07    0.3806759335E-02    0.2520923175E-02    0.6951911979E+00    0.3171506341E+00    0.8877770544E-03
    0.1500000000E+07    0.3569129992E-02    0.2373375480E-02    0.6951849486E+00    0.3182931088E+00    0.8948590857E-03
    0.1700000000E+07    0.3371636039E-02    0.2250216682E-02    0.6951793912E+00    0.3192083211E+00    0.9010996207E-03
    0.1900000000E+07    0.3204078921E-02    0.2145330561E-02    0.6951743854E+00    0.3199613162E+00    0.9066817044E-03
    0.2100000000E+07    0.3059560047E-02    0.2054561039E-02    0.6951698295E+00    0.3205939958E+00    0.9117341071E-03
    0.2300000000E+07    0.2933222748E-02    0.1974970588E-02    0.6951656477E+00    0.3211346729E+00    0.9163509247E-03
    0.2500000000E+07    0.2821534975E-02    0.1904415369E-02    0.6951617820E+00    0.3216032266E+00    0.9206030458E-03
    0.2700000000E+07    0.2721857869E-02    0.1841288638E-02    0.6951581870E+00    0.3220140607E+00    0.9245452301E-03
    0.2900000000E+07    0.2632174599E-02    0.1784358888E-02    0.6951548264E+00    0.3223778898E+00    0.9282206740E-03
    0.3100000000E+07    0.2550913527E-02    0.1732663951E-02    0.6951516707E+00    0.3227028646E+00    0.9316640638E-03
    0.3300000000E+07    0.2476829213E-02    0.1685439527E-02    0.6951486960E+00    0.3229953052E+00    0.9349036818E-03
    0.3500000000E+07    0.2408920142E-02    0.1642069638E-02    0.6951458820E+00    0.3232601949E+00    0.9379628968E-03
    0.3700000000E+07    0.2346370483E-02    0.1602051472E-02    0.6951432119E+00    0.3235015207E+00    0.9408612445E-03
    0.3900000000E+07    0.2288508006E-02    0.1564969914E-02    0.6951406713E+00    0.3237225143E+00    0.9436152253E-03
    0.4100000000E+07    0.2234773103E-02    0.1530478763E-02    0.6951382480E+00    0.3239258252E+00    0.9462389048E-03
    0.4300000000E+07    0.2184695608E-02    0.1498286653E-02    0.6951359313E+00    0.3241136481E+00    0.9487443720E-03
    0.4500000000E+07    0.2137877202E-02    0.1468146337E-02    0.6951337120E+00    0.3242878184E+00    0.9511420946E-03
    0.4700000000E+07    0.2093977869E-02    0.1439846435E-02    0.6951315820E+00    0.3244498837E+00    0.9534411975E-03
    0.4900000000E+07    0.2052705355E-02    0.1413204988E-02    0.6951295343E+00    0.3246011588E+00    0.9556496842E-03
    0.1000000000E+07    0.4275777742E-02    0.2810211891E-02    0.6952023382E+00    0.3147549126E+00    0.8749377553E-03
    0.3000000000E+07    0.2590575667E-02    0.1757908808E-02    0.6951532245E+00    0.3225448028E+00    0.9299694778E-03
    0.5000000000E+07    0.2032973805E-02    0.1400456098E-02    0.6951285393E+00    0.3246731081E+00    0.9567221853E-03
    0.7000000000E+07    0.1729651988E-02    0.1203423821E-02    0.6951117532E+00    0.3257493693E+00    0.9747622582E-03
    0.9000000000E+07    0.1531858694E-02    0.1073773723E-02    0.6950989597E+00    0.3264218153E+00    0.9884578543E-03
    0.1100000000E+08    0.1389766567E-02    0.9799891716E-03    0.6950885919E+00    0.3268910204E+00    0.9995314376E-03
    0.1300000000E+08    0.1281302078E-02    0.9079979026E-03    0.6950798595E+00    0.3272415513E+00    0.1008844403E-02
    0.1500000000E+08    0.1194978982E-02    0.8504321580E-03    0.6950723067E+00    0.3275158879E+00    0.1016890899E-02
    0.1700000000E+08    0.1124150386E-02    0.8030067593E-03    0.6950656461E+00    0.3277379569E+00    0.1023981296E-02
    0.1900000000E+08    0.1064666774E-02    0.7630350347E-03    0.6950596847E+00    0.3279223756E+00    0.1030323566E-02
    0.2100000000E+08    0.1013785611E-02    0.7287346201E-03    0.6950542864E+00    0.3280786336E+00    0.1036064015E-02
    0.2300000000E+08    0.9696116970E-03    0.6988697302E-03    0.6950493515E+00    0.3282131904E+00    0.1041309556E-02
    0.2500000000E+08    0.9307876382E-03    0.6725526168E-03    0.6950448050E+00    0.3283306125E+00    0.1046140731E-02
    0.2700000000E+08    0.8963122150E-03    0.6491266936E-03    0.6950405888E+00    0.3284342303E+00    0.1050619758E-02
