  Pressure (Pa) 22mC5-500 (mol/kg) 23mC5-500 (mol/kg) 24mC5-500 (mol/kg) 2mC6-500 (mol/kg) C7-500 (mol/kg)
    0.1000000000E+01    0.2270278818E-05    0.3912737166E-05    0.1266300967E+00    0.2074108202E-04    0.4169436312E-02
    0.3000000000E+01    0.4692471898E-05    0.8064590264E-05    0.2785143798E+00    0.4092704462E-04    0.4197912447E-02
    0.5000000000E+01    0.5922898513E-05    0.1016037513E-04    0.3664146061E+00    0.5040528514E-04    0.4210899529E-02
    0.7000000000E+01    0.6647993001E-05    0.1138992044E-04    0.4237295554E+00    0.5594921213E-04    0.4218949516E-02
    0.9000000000E+01    0.7124720040E-05    0.1219670152E-04    0.4640577420E+00    0.5985901585E-04    0.4224473798E-02
    0.1100000000E+02    0.7467528062E-05    0.1277733066E-04    0.4939766264E+00    0.6305491590E-04    0.4228494334E-02
    0.1300000000E+02    0.7733518898E-05    0.1322942158E-04    0.5170559505E+00    0.6594369851E-04    0.4231538131E-02
    0.1500000000E+02    0.7953568402E-05    0.1360547506E-04    0.5354005888E+00    0.6871661650E-04    0.4233908513E-02
    0.1700000000E+02    0.8145397560E-05    0.1393544882E-04    0.5503320465E+00    0.7146653056E-04    0.4235793559E-02
    0.1900000000E+02    0.8319650368E-05    0.1423722147E-04    0.5627218773E+00    0.7423863706E-04    0.4237316523E-02
    0.2100000000E+02    0.8482949064E-05    0.1452183656E-04    0.5731681666E+00    0.7705407827E-04    0.4238561735E-02
    0.2300000000E+02    0.8639527737E-05    0.1479629746E-04    0.5820949906E+00    0.7992155142E-04    0.4239588940E-02
    0.2500000000E+02    0.8792150710E-05    0.1506513332E-04    0.5898114098E+00    0.8284326017E-04    0.4240441702E-02
    0.2700000000E+02    0.8942650671E-05    0.1533131339E-04    0.5965479868E+00    0.8581806134E-04    0.4241152568E-02
    0.2900000000E+02    0.9092255162E-05    0.1559679963E-04    0.6024802204E+00    0.8884316370E-04    0.4241746365E-02
    0.3100000000E+02    0.9241790584E-05    0.1586289067E-04    0.6077440583E+00    0.9191505523E-04    0.4242242373E-02
    0.3300000000E+02    0.9391812934E-05    0.1613044123E-04    0.6124464445E+00    0.9503000850E-04    0.4242655804E-02
    0.3500000000E+02    0.9542693419E-05    0.1640000519E-04    0.6166726628E+00    0.9818435144E-04    0.4242998824E-02
    0.3700000000E+02    0.9694675588E-05    0.1667193062E-04    0.6204915563E+00    0.1013746058E-03    0.4243281290E-02
    0.3900000000E+02    0.9847914084E-05    0.1694642379E-04    0.6239593068E+00    0.1045975512E-03    0.4243511270E-02
    0.4100000000E+02    0.1000250129E-04    0.1722359301E-04    0.6271222182E+00    0.1078502466E-03    0.4243695438E-02
    0.4300000000E+02    0.1015848590E-04    0.1750347894E-04    0.6300187955E+00    0.1111300296E-03    0.4243839363E-02
    0.4500000000E+02    0.1031588591E-04    0.1778607572E-04    0.6326813206E+00    0.1144345024E-03    0.4243947733E-02
    0.4700000000E+02    0.1047469797E-04    0.1807134584E-04    0.6351370611E+00    0.1177615128E-03    0.4244024518E-02
    0.4900000000E+02    0.1063490389E-04    0.1835923070E-04    0.6374092070E+00    0.1211091325E-03    0.4244073110E-02
    0.1000000000E+02    0.7308448151E-05    0.1250772539E-04    0.4800490621E+00    0.6151358490E-04    0.4226631912E-02
    0.3000000000E+02    0.9166991593E-05    0.1572970769E-04    0.6051884236E+00    0.9037349274E-04    0.4242005560E-02
    0.5000000000E+02    0.1071552103E-04    0.1850413145E-04    0.6384827480E+00    0.1227901240E-03    0.4244087760E-02
    0.7000000000E+02    0.1239198042E-04    0.2151948662E-04    0.6539017299E+00    0.1571599639E-03    0.4243430363E-02
    0.9000000000E+02    0.1416449465E-04    0.2470734875E-04    0.6627944913E+00    0.1924437275E-03    0.4241713968E-02
    0.1100000000E+03    0.1600506789E-04    0.2801547622E-04    0.6685807550E+00    0.2282741270E-03    0.4239462936E-02
    0.1300000000E+03    0.1789724158E-04    0.3141410120E-04    0.6726462607E+00    0.2645123022E-03    0.4236895687E-02
    0.1500000000E+03    0.1983142285E-04    0.3488617485E-04    0.6756592354E+00    0.3011065648E-03    0.4234119719E-02
    0.1700000000E+03    0.2180189398E-04    0.3842167387E-04    0.6779815657E+00    0.3380420893E-03    0.4231194026E-02
    0.1900000000E+03    0.2380519125E-04    0.4201460684E-04    0.6798262956E+00    0.3753207697E-03    0.4228153542E-02
    0.2100000000E+03    0.2583921678E-04    0.4566140096E-04    0.6813270146E+00    0.4129524019E-03    0.4225020113E-02
    0.2300000000E+03    0.2790273337E-04    0.4935999517E-04    0.6825717397E+00    0.4509505673E-03    0.4221807964E-02
    0.2500000000E+03    0.2999506590E-04    0.5310930845E-04    0.6836208213E+00    0.4893306245E-03    0.4218526623E-02
    0.2700000000E+03    0.3211591814E-04    0.5690891626E-04    0.6845170220E+00    0.5281087053E-03    0.4215182596E-02
    0.2900000000E+03    0.3426525692E-04    0.6075884716E-04    0.6852914883E+00    0.5673012123E-03    0.4211780367E-02
    0.3100000000E+03    0.3644323680E-04    0.6465945121E-04    0.6859674442E+00    0.6069245743E-03    0.4208323029E-02
    0.3300000000E+03    0.3865014986E-04    0.6861131300E-04    0.6865625594E+00    0.6469951393E-03    0.4204812687E-02
    0.3500000000E+03    0.4088639168E-04    0.7261519275E-04    0.6870905165E+00    0.6875291387E-03    0.4201250730E-02
    0.3700000000E+03    0.4315243775E-04    0.7667198599E-04    0.6875620749E+00    0.7285426912E-03    0.4197638013E-02
    0.3900000000E+03    0.4544882704E-04    0.8078269539E-04    0.6879858125E+00    0.7700518268E-03    0.4193974988E-02
    0.4100000000E+03    0.4777615030E-04    0.8494841105E-04    0.6883686514E+00    0.8120725201E-03    0.4190261796E-02
    0.4300000000E+03    0.5013504179E-04    0.8917029645E-04    0.6887162395E+00    0.8546207286E-03    0.4186498332E-02
    0.4500000000E+03    0.5252617334E-04    0.9344957859E-04    0.6890332303E+00    0.8977124313E-03    0.4182684296E-02
    0.4700000000E+03    0.5495025008E-04    0.9778754094E-04    0.6893234930E+00    0.9413636673E-03    0.4178819229E-02
    0.4900000000E+03    0.5740800746E-04    0.1021855186E-03    0.6895902707E+00    0.9855905731E-03    0.4174902536E-02
    0.1000000000E+03    0.1507751157E-04    0.2634863142E-04    0.6659644639E+00    0.2103022748E-03    0.4240637821E-02
    0.3000000000E+03    0.3535065123E-04    0.6270278320E-04    0.6856405669E+00    0.5870580121E-03    0.4210058435E-02
    0.5000000000E+03    0.5864975398E-04    0.1044074436E-03    0.6897157255E+00    0.1007924980E-02    0.4172924613E-02
    0.7000000000E+03    0.8545557550E-04    0.1523625523E-03    0.6914767051E+00    0.1488952216E-02    0.4130434929E-02
    0.9000000000E+03    0.1166887967E-03    0.2082255869E-03    0.6924586618E+00    0.2048199550E-02    0.4081497892E-02
    0.1100000000E+04    0.1535772825E-03    0.2741969579E-03    0.6930848174E+00    0.2708264576E-02    0.4024450605E-02
    0.1300000000E+04    0.1977740990E-03    0.3532355560E-03    0.6935188415E+00    0.3499112058E-02    0.3957031291E-02
    0.1500000000E+04    0.2515523123E-03    0.4494085633E-03    0.6938373704E+00    0.4461774332E-02    0.3876156311E-02
    0.1700000000E+04    0.3181009726E-03    0.5684215659E-03    0.6940810689E+00    0.5653770958E-02    0.3777560094E-02
    0.1900000000E+04    0.4019735543E-03    0.7184213147E-03    0.6942735186E+00    0.7157268660E-02    0.3655260012E-02
    0.2100000000E+04    0.5097533025E-03    0.9111868035E-03    0.6944293357E+00    0.9091200192E-02    0.3500800040E-02
    0.2300000000E+04    0.6509679965E-03    0.1163767331E-02    0.6945580619E+00    0.1162801053E-01    0.3302307903E-02
    0.2500000000E+04    0.8390651423E-03    0.1500230417E-02    0.6946661902E+00    0.1501178187E-01    0.3043769571E-02
    0.2700000000E+04    0.1091418503E-02    0.1951680201E-02    0.6947582927E+00    0.1955945957E-01    0.2706129996E-02
    0.2900000000E+04    0.1425076834E-02    0.2548663462E-02    0.6948376820E+00    0.2558610955E-01    0.2274683888E-02
    0.3100000000E+04    0.1842126368E-02    0.3294994014E-02    0.6949068167E+00    0.3314282239E-01    0.1759660567E-02
    0.3300000000E+04    0.2306128230E-02    0.4125583889E-02    0.6949675601E+00    0.4158937524E-01    0.1223592650E-02
    0.3500000000E+04    0.2742861085E-02    0.4907705521E-02    0.6950213500E+00    0.4959667414E-01    0.7685901640E-03
    0.3700000000E+04    0.3092933095E-02    0.5535062548E-02    0.6950693135E+00    0.5608671696E-01    0.4601470424E-03
    0.3900000000E+04    0.3351098113E-02    0.5998175544E-02    0.6951123467E+00    0.6094949258E-01    0.2862832133E-03
    0.4100000000E+04    0.3544130144E-02    0.6344872151E-02    0.6951511712E+00    0.6465605903E-01    0.1991599866E-03
    0.4300000000E+04    0.3698974274E-02    0.6623323444E-02    0.6951863741E+00    0.6768670402E-01    0.1581614145E-03
    0.4500000000E+04    0.3832765684E-02    0.6864171932E-02    0.6952184385E+00    0.7034836358E-01    0.1394643418E-03
    0.4700000000E+04    0.3954654984E-02    0.7083783725E-02    0.6952477649E+00    0.7280533195E-01    0.1311002834E-03
    0.4900000000E+04    0.4069203356E-02    0.7290316514E-02    0.6952746889E+00    0.7513949750E-01    0.1274433129E-03
    0.1000000000E+04    0.1343346667E-03    0.2397839721E-03    0.6928029301E+00    0.2363966827E-02    0.4054113369E-02
    0.3000000000E+04    0.1624306927E-02    0.2905174105E-02    0.6948734031E+00    0.2919250801E-01    0.2025154034E-02
    0.5000000000E+04    0.4124475567E-02    0.7390020949E-02    0.6952873401E+00    0.7627396782E-01    0.1265086656E-03
    0.7000000000E+04    0.5063195732E-02    0.9088081880E-02    0.6954641684E+00    0.9636598291E-01    0.1266000685E-03
    0.9000000000E+04    0.5774404237E-02    0.1038189554E-01    0.6955620318E+00    0.1128926137E+00    0.1283888628E-03
    0.1100000000E+05    0.6323095910E-02    0.1138620847E-01    0.6956240539E+00    0.1267741341E+00    0.1298346671E-03
    0.1300000000E+05    0.6751528263E-02    0.1217571040E-01    0.6956668093E+00    0.1386179315E+00    0.1310497265E-03
    0.1500000000E+05    0.7089051935E-02    0.1280236718E-01    0.6956980258E+00    0.1488569489E+00    0.1320990289E-03
    0.1700000000E+05    0.7356610127E-02    0.1330332481E-01    0.6957217902E+00    0.1578083463E+00    0.1330233170E-03
    0.1900000000E+05    0.7569493151E-02    0.1370575250E-01    0.6957404657E+00    0.1657099339E+00    0.1338498547E-03
    0.2100000000E+05    0.7739086453E-02    0.1402991893E-01    0.6957555137E+00    0.1727436381E+00    0.1345978022E-03
    0.2300000000E+05    0.7874014336E-02    0.1429120696E-01    0.6957678860E+00    0.1790510886E+00    0.1352811493E-03
    0.2500000000E+05    0.7980908426E-02    0.1450146861E-01    0.6957782291E+00    0.1847442506E+00    0.1359104286E-03
    0.2700000000E+05    0.8064936174E-02    0.1466995798E-01    0.6957869972E+00    0.1899128521E+00    0.1364937721E-03
    0.2900000000E+05    0.8130171870E-02    0.1480398672E-01    0.6957945189E+00    0.1946296781E+00    0.1370375917E-03
    0.3100000000E+05    0.8179861932E-02    0.1490939333E-01    0.6958010376E+00    0.1989544180E+00    0.1375470342E-03
    0.3300000000E+05    0.8216617725E-02    0.1499088458E-01    0.6958067375E+00    0.2029365047E+00    0.1380262950E-03
    0.3500000000E+05    0.8242557799E-02    0.1505228766E-01    0.6958117605E+00    0.2066172448E+00    0.1384788395E-03
    0.3700000000E+05    0.8259414240E-02    0.1509673891E-01    0.6958162176E+00    0.2100314358E+00    0.1389075640E-03
    0.3900000000E+05    0.8268613144E-02    0.1512682685E-01    0.6958201969E+00    0.2132086106E+00    0.1393149145E-03
    0.4100000000E+05    0.8271336221E-02    0.1514470172E-01    0.6958237693E+00    0.2161740062E+00    0.1397029754E-03
    0.4300000000E+05    0.8268568406E-02    0.1515216031E-01    0.6958269924E+00    0.2189493243E+00    0.1400735380E-03
    0.4500000000E+05    0.8261135031E-02    0.1515071224E-01    0.6958299135E+00    0.2215533356E+00    0.1404281533E-03
    0.4700000000E+05    0.8249731084E-02    0.1514163220E-01    0.6958325716E+00    0.2240023634E+00    0.1407681728E-03
    0.4900000000E+05    0.8234944428E-02    0.1512600145E-01    0.6958349997E+00    0.2263106743E+00    0.1410947821E-03
    0.1000000000E+05    0.6066051554E-02    0.1091491681E-01    0.6955961760E+00    0.1201210622E+00    0.1291461202E-03
    0.3000000000E+05    0.8156783883E-02    0.1485995041E-01    0.6957978910E+00    0.1968377568E+00    0.1372963285E-03
    0.5000000000E+05    0.8226441649E-02    0.1511602289E-01    0.6958361361E+00    0.2274160360E+00    0.1412533895E-03
    0.7000000000E+05    0.7967015101E-02    0.1473624654E-01    0.6958516358E+00    0.2444985218E+00    0.1439210168E-03
    0.9000000000E+05    0.7650037331E-02    0.1422614961E-01    0.6958597459E+00    0.2556422235E+00    0.1459459964E-03
    0.1100000000E+06    0.7339827711E-02    0.1371129115E-01    0.6958645841E+00    0.2635941001E+00    0.1475832079E-03
    0.1300000000E+06    0.7052724995E-02    0.1322675687E-01    0.6958677079E+00    0.2696106502E+00    0.1489600756E-03
    0.1500000000E+06    0.6791448343E-02    0.1278089570E-01    0.6958698314E+00    0.2743546622E+00    0.1501496844E-03
    0.1700000000E+06    0.6554592081E-02    0.1237338313E-01    0.6958713264E+00    0.2782116792E+00    0.1511979326E-03
    0.1900000000E+06    0.6339630611E-02    0.1200114107E-01    0.6958724042E+00    0.2814226043E+00    0.1521355733E-03
    0.2100000000E+06    0.6143927232E-02    0.1166043511E-01    0.6958731931E+00    0.2841464272E+00    0.1529842396E-03
    0.2300000000E+06    0.5965063268E-02    0.1134762958E-01    0.6958737753E+00    0.2864927107E+00    0.1537597389E-03
    0.2500000000E+06    0.5800923022E-02    0.1105943864E-01    0.6958742058E+00    0.2885396484E+00    0.1544739795E-03
    0.2700000000E+06    0.5649690845E-02    0.1079298243E-01    0.6958745223E+00    0.2903446863E+00    0.1551361600E-03
    0.2900000000E+06    0.5509819259E-02    0.1054576952E-01    0.6958747516E+00    0.2919510697E+00    0.1557535365E-03
    0.3100000000E+06    0.5379990681E-02    0.1031565447E-01    0.6958749134E+00    0.2933920371E+00    0.1563319354E-03
    0.3300000000E+06    0.5259081055E-02    0.1010079055E-01    0.6958750220E+00    0.2946935984E+00    0.1568761074E-03
    0.3500000000E+06    0.5146128077E-02    0.9899585124E-02    0.6958750883E+00    0.2958764281E+00    0.1573899777E-03
    0.3700000000E+06    0.5040304409E-02    0.9710660464E-02    0.6958751208E+00    0.2969571873E+00    0.1578768279E-03
    0.3900000000E+06    0.4940895480E-02    0.9532820315E-02    0.6958751259E+00    0.2979494679E+00    0.1583394293E-03
    0.4100000000E+06    0.4847281230E-02    0.9365021827E-02    0.6958751087E+00    0.2988644793E+00    0.1587801447E-03
    0.4300000000E+06    0.4758921113E-02    0.9206352160E-02    0.6958750733E+00    0.2997115571E+00    0.1592010045E-03
    0.4500000000E+06    0.4675341773E-02    0.9056009004E-02    0.6958750230E+00    0.3004985453E+00    0.1596037670E-03
    0.4700000000E+06    0.4596126894E-02    0.8913284391E-02    0.6958749604E+00    0.3012320877E+00    0.1599899648E-03
    0.4900000000E+06    0.4520908805E-02    0.8777551184E-02    0.6958748876E+00    0.3019178531E+00    0.1603609422E-03
    0.1000000000E+06    0.7492548832E-02    0.1396612477E-01    0.6958624469E+00    0.2599187481E+00    0.1468033370E-03
    0.3000000000E+06    0.5443723986E-02    0.1042869663E-01    0.6958748400E+00    0.2926904609E+00    0.1560472893E-03
    0.5000000000E+06    0.4484695220E-02    0.8712129663E-02    0.6958748480E+00    0.3022443682E+00    0.1605410994E-03
    0.7000000000E+06    0.3907736781E-02    0.7663321572E-02    0.6958738165E+00    0.3071533401E+00    0.1635714873E-03
    0.9000000000E+06    0.3511586870E-02    0.6935851601E-02    0.6958726644E+00    0.3102402146E+00    0.1658721464E-03
    0.1100000000E+07    0.3217689665E-02    0.6392049419E-02    0.6958715591E+00    0.3124004408E+00    0.1677323873E-03
    0.1300000000E+07    0.2988287701E-02    0.5965006195E-02    0.6958705340E+00    0.3140164497E+00    0.1692968938E-03
    0.1500000000E+07    0.2802676141E-02    0.5617733886E-02    0.6958695900E+00    0.3152818363E+00    0.1706486661E-03
    0.1700000000E+07    0.2648420367E-02    0.5327876746E-02    0.6958687200E+00    0.3163061919E+00    0.1718398361E-03
    0.1900000000E+07    0.2517537832E-02    0.5081007466E-02    0.6958679155E+00    0.3171566951E+00    0.1729053369E-03
    0.2100000000E+07    0.2404635723E-02    0.4867335444E-02    0.6958671684E+00    0.3178770622E+00    0.1738697438E-03
    0.2300000000E+07    0.2305920688E-02    0.4679946867E-02    0.6958664717E+00    0.3184970996E+00    0.1747510149E-03
    0.2500000000E+07    0.2218635591E-02    0.4513799066E-02    0.6958658192E+00    0.3190379039E+00    0.1755626793E-03
    0.2700000000E+07    0.2140721340E-02    0.4365114304E-02    0.6958652058E+00    0.3195148732E+00    0.1763151881E-03
    0.2900000000E+07    0.2070604630E-02    0.4230997918E-02    0.6958646273E+00    0.3199395388E+00    0.1770167854E-03
    0.3100000000E+07    0.2007059656E-02    0.4109188748E-02    0.6958640799E+00    0.3203207260E+00    0.1776740914E-03
    0.3300000000E+07    0.1949115134E-02    0.3997890846E-02    0.6958635604E+00    0.3206653172E+00    0.1782925039E-03
    0.3500000000E+07    0.1895990049E-02    0.3895656876E-02    0.6958630662E+00    0.3209787676E+00    0.1788764830E-03
    0.3700000000E+07    0.1847048198E-02    0.3801305427E-02    0.6958625948E+00    0.3212654634E+00    0.1794297573E-03
    0.3900000000E+07    0.1801765354E-02    0.3713861130E-02    0.6958621443E+00    0.3215289759E+00    0.1799554760E-03
    0.4100000000E+07    0.1759705095E-02    0.3632510514E-02    0.6958617129E+00    0.3217722458E+00    0.1804563239E-03
    0.4300000000E+07    0.1720500737E-02    0.3556568916E-02    0.6958612989E+00    0.3219977194E+00    0.1809346081E-03
    0.4500000000E+07    0.1683841605E-02    0.3485455306E-02    0.6958609011E+00    0.3222074497E+00    0.1813923267E-03
    0.4700000000E+07    0.1649462477E-02    0.3418672902E-02    0.6958605182E+00    0.3224031744E+00    0.1818312211E-03
    0.4900000000E+07    0.1617135368E-02    0.3355794035E-02    0.6958601490E+00    0.3225863751E+00    0.1822528191E-03
    0.1000000000E+07    0.3354778443E-02    0.6646156396E-02    0.6958721025E+00    0.3114058081E+00    0.1668462650E-03
    0.3000000000E+07    0.2038076483E-02    0.4168676515E-02    0.6958643499E+00    0.3201350985E+00    0.1773506126E-03
    0.5000000000E+07    0.1601678636E-02    0.3325700693E-02    0.6958599693E+00    0.3226736836E+00    0.1824575592E-03
    0.7000000000E+07    0.1363913214E-02    0.2860299119E-02    0.6958569092E+00    0.3239939621E+00    0.1859014721E-03
    0.9000000000E+07    0.1208692319E-02    0.2553705844E-02    0.6958545479E+00    0.3248336827E+00    0.1885160953E-03
    0.1100000000E+08    0.1097087736E-02    0.2331733436E-02    0.6958526208E+00    0.3254271535E+00    0.1906302050E-03
    0.1300000000E+08    0.1011837649E-02    0.2161224783E-02    0.6958509901E+00    0.3258749150E+00    0.1924082244E-03
    0.1500000000E+08    0.9439523732E-03    0.2024805713E-02    0.6958495751E+00    0.3262281428E+00    0.1939444787E-03
    0.1700000000E+08    0.8882261660E-03    0.1912364167E-02    0.6958483243E+00    0.3265159665E+00    0.1952982137E-03
    0.1900000000E+08    0.8414072777E-03    0.1817556417E-02    0.6958472027E+00    0.3267563375E+00    0.1965091293E-03
    0.2100000000E+08    0.8013454332E-03    0.1736171779E-02    0.6958461855E+00    0.3269609965E+00    0.1976051545E-03
    0.2300000000E+08    0.7665540349E-03    0.1665289480E-02    0.6958452545E+00    0.3271379863E+00    0.1986066980E-03
    0.2500000000E+08    0.7359679163E-03    0.1602810475E-02    0.6958443959E+00    0.3272930252E+00    0.1995291352E-03
    0.2700000000E+08    0.7088011218E-03    0.1547181721E-02    0.6958435990E+00    0.3274303040E+00    0.2003843435E-03
