  Pressure (Pa) 22mC5-500 (mol/kg) 23mC5-500 (mol/kg) 24mC5-500 (mol/kg) 2mC6-500 (mol/kg) C7-500 (mol/kg)
    0.1000000000E+01    0.2032984412E-05    0.4083646851E-05    0.1741078603E+00    0.5207846319E-05    0.4190659084E-02
    0.3000000000E+01    0.3765112637E-05    0.7536693628E-05    0.3481222059E+00    0.9147698771E-05    0.4225837489E-02
    0.5000000000E+01    0.4492278752E-05    0.8974620370E-05    0.4350954581E+00    0.1071228144E-04    0.4242482426E-02
    0.7000000000E+01    0.4886263216E-05    0.9751565615E-05    0.4872690493E+00    0.1166564786E-04    0.4252575469E-02
    0.9000000000E+01    0.5143703737E-05    0.1026105941E-04    0.5220473137E+00    0.1244417830E-04    0.4259429762E-02
    0.1100000000E+02    0.5338450588E-05    0.1064972976E-04    0.5468869880E+00    0.1318171903E-04    0.4264424448E-02
    0.1300000000E+02    0.5502666750E-05    0.1098086317E-04    0.5655157176E+00    0.1392305940E-04    0.4268245310E-02
    0.1500000000E+02    0.5651779691E-05    0.1128449806E-04    0.5800041392E+00    0.1468274050E-04    0.4271274151E-02
    0.1700000000E+02    0.5793686236E-05    0.1157581516E-04    0.5915945132E+00    0.1546422287E-04    0.4273741298E-02
    0.1900000000E+02    0.5932604477E-05    0.1186279335E-04    0.6010773105E+00    0.1626684593E-04    0.4275794371E-02
    0.2100000000E+02    0.6070842493E-05    0.1214970534E-04    0.6089794812E+00    0.1708852867E-04    0.4277532581E-02
    0.2300000000E+02    0.6209670319E-05    0.1243883050E-04    0.6156658200E+00    0.1792684945E-04    0.4279025209E-02
    0.2500000000E+02    0.6349774426E-05    0.1273134148E-04    0.6213968847E+00    0.1877947138E-04    0.4280322188E-02
    0.2700000000E+02    0.6491505343E-05    0.1302778363E-04    0.6263637453E+00    0.1964429416E-04    0.4281460472E-02
    0.2900000000E+02    0.6635017411E-05    0.1332834322E-04    0.6307097002E+00    0.2051949058E-04    0.4282468038E-02
    0.3100000000E+02    0.6780349933E-05    0.1363300161E-04    0.6345443284E+00    0.2140349601E-04    0.4283366482E-02
    0.3300000000E+02    0.6927475310E-05    0.1394162561E-04    0.6379528563E+00    0.2229498065E-04    0.4284172759E-02
    0.3500000000E+02    0.7076328071E-05    0.1425402115E-04    0.6410025666E+00    0.2319281769E-04    0.4284900382E-02
    0.3700000000E+02    0.7226822562E-05    0.1456996544E-04    0.6437472850E+00    0.2409605274E-04    0.4285560264E-02
    0.3900000000E+02    0.7378863757E-05    0.1488922611E-04    0.6462305839E+00    0.2500387668E-04    0.4286161321E-02
    0.4100000000E+02    0.7532353855E-05    0.1521157257E-04    0.6484881132E+00    0.2591560223E-04    0.4286710918E-02
    0.4300000000E+02    0.7687196247E-05    0.1553678244E-04    0.6505493223E+00    0.2683064434E-04    0.4287215196E-02
    0.4500000000E+02    0.7843297830E-05    0.1586464513E-04    0.6524387525E+00    0.2774850368E-04    0.4287679320E-02
    0.4700000000E+02    0.8000570284E-05    0.1619496349E-04    0.6541770180E+00    0.2866875298E-04    0.4288107666E-02
    0.4900000000E+02    0.8158930690E-05    0.1652755431E-04    0.6557815616E+00    0.2959102572E-04    0.4288503975E-02
    0.1000000000E+02    0.5246339697E-05    0.1046541901E-04    0.5354227200E+00    0.1281418695E-04    0.4262106806E-02
    0.3000000000E+02    0.6707456682E-05    0.1348016647E-04    0.6326851192E+00    0.2096048041E-04    0.4282929748E-02
    0.5000000000E+02    0.8238494499E-05    0.1669464845E-04    0.6565384186E+00    0.3005282060E-04    0.4288691137E-02
    0.7000000000E+02    0.9871018605E-05    0.2012149520E-04    0.6673207734E+00    0.3933829435E-04    0.4291338553E-02
    0.9000000000E+02    0.1155388629E-04    0.2365041205E-04    0.6734652486E+00    0.4864375469E-04    0.4292738609E-02
    0.1100000000E+03    0.1326367513E-04    0.2723267814E-04    0.6774344925E+00    0.5792706818E-04    0.4293488902E-02
    0.1300000000E+03    0.1498916366E-04    0.3084540826E-04    0.6802098388E+00    0.6717968265E-04    0.4293847619E-02
    0.1500000000E+03    0.1672459442E-04    0.3447705834E-04    0.6822594979E+00    0.7640306980E-04    0.4293947253E-02
    0.1700000000E+03    0.1846687018E-04    0.3812153091E-04    0.6838351631E+00    0.8560172859E-04    0.4293863912E-02
    0.1900000000E+03    0.2021428523E-04    0.4177554447E-04    0.6850841969E+00    0.9478084611E-04    0.4293644963E-02
    0.2100000000E+03    0.2196590350E-04    0.4543735777E-04    0.6860986132E+00    0.1039454812E-03    0.4293321696E-02
    0.2300000000E+03    0.2372123309E-04    0.4910610819E-04    0.6869388325E+00    0.1131002953E-03    0.4292915765E-02
    0.2500000000E+03    0.2548004666E-04    0.5278144959E-04    0.6876461693E+00    0.1222494905E-03    0.4292442714E-02
    0.2700000000E+03    0.2724227787E-04    0.5646334542E-04    0.6882498310E+00    0.1313968252E-03    0.4291914048E-02
    0.2900000000E+03    0.2900795970E-04    0.6015194644E-04    0.6887710500E+00    0.1405456565E-03    0.4291338493E-02
    0.3100000000E+03    0.3077718653E-04    0.6384751638E-04    0.6892256317E+00    0.1496989893E-03    0.4290722811E-02
    0.3300000000E+03    0.3255009047E-04    0.6755038581E-04    0.6896255840E+00    0.1588595224E-03    0.4290072338E-02
    0.3500000000E+03    0.3432682616E-04    0.7126092315E-04    0.6899801937E+00    0.1680296906E-03    0.4289391349E-02
    0.3700000000E+03    0.3610756105E-04    0.7497951609E-04    0.6902967554E+00    0.1772117011E-03    0.4288683314E-02
    0.3900000000E+03    0.3789246898E-04    0.7870655991E-04    0.6905810788E+00    0.1864075642E-03    0.4287951086E-02
    0.4100000000E+03    0.3968172614E-04    0.8244244984E-04    0.6908378482E+00    0.1956191198E-03    0.4287197034E-02
    0.4300000000E+03    0.4147550830E-04    0.8618757645E-04    0.6910708824E+00    0.2048480601E-03    0.4286423145E-02
    0.4500000000E+03    0.4327398915E-04    0.8994232268E-04    0.6912833255E+00    0.2140959480E-03    0.4285631096E-02
    0.4700000000E+03    0.4507733923E-04    0.9370706223E-04    0.6914777902E+00    0.2233642335E-03    0.4284822315E-02
    0.4900000000E+03    0.4688572530E-04    0.9748215864E-04    0.6916564649E+00    0.2326542680E-03    0.4283998029E-02
    0.1000000000E+03    0.1240629534E-04    0.2543667925E-04    0.6756425766E+00    0.5328909130E-04    0.4293174558E-02
    0.3000000000E+03    0.2989212240E-04    0.6199884079E-04    0.6890058457E+00    0.1451215849E-03    0.4291035306E-02
    0.5000000000E+03    0.4779185782E-04    0.9937370143E-04    0.6917404696E+00    0.2373078390E-03    0.4283580406E-02
    0.7000000000E+03    0.6621629253E-04    0.1378289102E-03    0.6929183081E+00    0.3317921658E-03    0.4274606905E-02
    0.9000000000E+03    0.8530587745E-04    0.1776658416E-03    0.6935739320E+00    0.4295472122E-03    0.4264724171E-02
    0.1100000000E+04    0.1051756108E-03    0.2191275307E-03    0.6939914873E+00    0.5312467309E-03    0.4254114255E-02
    0.1300000000E+04    0.1259287417E-03    0.2624308687E-03    0.6942806416E+00    0.6374569513E-03    0.4242835726E-02
    0.1500000000E+04    0.1476651256E-03    0.3077850136E-03    0.6944926789E+00    0.7487091822E-03    0.4230897324E-02
    0.1700000000E+04    0.1704861172E-03    0.3554019470E-03    0.6946547865E+00    0.8655348482E-03    0.4218282575E-02
    0.1900000000E+04    0.1944978082E-03    0.4055033804E-03    0.6947827187E+00    0.9884861168E-03    0.4204959582E-02
    0.2100000000E+04    0.2198134949E-03    0.4583259747E-03    0.6948862348E+00    0.1118150417E-02    0.4190885272E-02
    0.2300000000E+04    0.2465558156E-03    0.5141258399E-03    0.6949717024E+00    0.1255162373E-02    0.4176007220E-02
    0.2500000000E+04    0.2748587997E-03    0.5731828325E-03    0.6950434531E+00    0.1400214871E-02    0.4160264279E-02
    0.2700000000E+04    0.3048699776E-03    0.6358049732E-03    0.6951045356E+00    0.1554070257E-02    0.4143586515E-02
    0.2900000000E+04    0.3367526576E-03    0.7023332079E-03    0.6951571579E+00    0.1717572281E-02    0.4125894720E-02
    0.3100000000E+04    0.3706884578E-03    0.7731466988E-03    0.6952029587E+00    0.1891659324E-02    0.4107099582E-02
    0.3300000000E+04    0.4068801758E-03    0.8486688205E-03    0.6952431790E+00    0.2077379340E-02    0.4087100570E-02
    0.3500000000E+04    0.4455550824E-03    0.9293740385E-03    0.6952787766E+00    0.2275906991E-02    0.4065784547E-02
    0.3700000000E+04    0.4869687315E-03    0.1015795868E-02    0.6953105019E+00    0.2488563451E-02    0.4043024084E-02
    0.3900000000E+04    0.5314093954E-03    0.1108536134E-02    0.6953389515E+00    0.2716839465E-02    0.4018675459E-02
    0.4100000000E+04    0.5792032445E-03    0.1208275794E-02    0.6953646055E+00    0.2962422288E-02    0.3992576298E-02
    0.4300000000E+04    0.6307204180E-03    0.1315787610E-02    0.6953878547E+00    0.3227227260E-02    0.3964542800E-02
    0.4500000000E+04    0.6863821471E-03    0.1431951033E-02    0.6954090203E+00    0.3513434890E-02    0.3934366490E-02
    0.4700000000E+04    0.7466691216E-03    0.1557769668E-02    0.6954283688E+00    0.3823534431E-02    0.3901810423E-02
    0.4900000000E+04    0.8121313130E-03    0.1694391803E-02    0.6954461233E+00    0.4160375086E-02    0.3866604776E-02
    0.1000000000E+04    0.9513661819E-04    0.1981796919E-03    0.6938035634E+00    0.4798671311E-03    0.4259504811E-02
    0.3000000000E+04    0.3534517755E-03    0.7371789474E-03    0.6951808257E+00    0.1803229935E-02    0.4116641074E-02
    0.5000000000E+04    0.8469967200E-03    0.1767158419E-02    0.6954544627E+00    0.4339826712E-02    0.3847913806E-02
    0.7000000000E+04    0.2045550314E-02    0.4269013287E-02    0.6955707488E+00    0.1052480865E-01    0.3225724536E-02
    0.9000000000E+04    0.5428224119E-02    0.1133312884E-01    0.6956347757E+00    0.2810868501E-01    0.1625686791E-02
    0.1100000000E+05    0.9060539219E-02    0.1892885603E-01    0.6956751435E+00    0.4740958592E-01    0.3201010692E-03
    0.1300000000E+05    0.1044639294E-01    0.2183958261E-01    0.6957028249E+00    0.5529569841E-01    0.1860556092E-03
    0.1500000000E+05    0.1143756452E-01    0.2392833885E-01    0.6957229272E+00    0.6122852511E-01    0.1805398137E-03
    0.1700000000E+05    0.1231020792E-01    0.2577131969E-01    0.6957381470E+00    0.6662380526E-01    0.1814270057E-03
    0.1900000000E+05    0.1309305986E-01    0.2742814231E-01    0.6957500410E+00    0.7161529235E-01    0.1825310860E-03
    0.2100000000E+05    0.1379850932E-01    0.2892434802E-01    0.6957595703E+00    0.7625413010E-01    0.1835488260E-03
    0.2300000000E+05    0.1443627594E-01    0.3027996742E-01    0.6957673598E+00    0.8058002309E-01    0.1844799514E-03
    0.2500000000E+05    0.1501452661E-01    0.3151184029E-01    0.6957738332E+00    0.8462660212E-01    0.1853375411E-03
    0.2700000000E+05    0.1554020057E-01    0.3263428401E-01    0.6957792879E+00    0.8842271745E-01    0.1861325730E-03
    0.2900000000E+05    0.1601923122E-01    0.3365954843E-01    0.6957839384E+00    0.9199327817E-01    0.1868737682E-03
    0.3100000000E+05    0.1645671990E-01    0.3459817236E-01    0.6957879435E+00    0.9535990998E-01    0.1875681331E-03
    0.3300000000E+05    0.1685707500E-01    0.3545926896E-01    0.6957914231E+00    0.9854148427E-01    0.1882213798E-03
    0.3500000000E+05    0.1722412420E-01    0.3625075609E-01    0.6957944695E+00    0.1015545475E+00    0.1888382271E-03
    0.3700000000E+05    0.1756120573E-01    0.3697954375E-01    0.6957971547E+00    0.1044136724E+00    0.1894226196E-03
    0.3900000000E+05    0.1787124307E-01    0.3765168741E-01    0.6957995359E+00    0.1071317470E+00    0.1899778883E-03
    0.4100000000E+05    0.1815680643E-01    0.3827251444E-01    0.6958016587E+00    0.1097202141E+00    0.1905068724E-03
    0.4300000000E+05    0.1842016380E-01    0.3884672888E-01    0.6958035605E+00    0.1121892705E+00    0.1910120119E-03
    0.4500000000E+05    0.1866332329E-01    0.3937849872E-01    0.6958052716E+00    0.1145480347E+00    0.1914954194E-03
    0.4700000000E+05    0.1888806880E-01    0.3987152902E-01    0.6958068173E+00    0.1168046873E+00    0.1919589363E-03
    0.4900000000E+05    0.1909598986E-01    0.4032912347E-01    0.6958082185E+00    0.1189665903E+00    0.1924041776E-03
    0.1000000000E+05    0.7660876925E-02    0.1599926212E-01    0.6956570248E+00    0.3986245904E-01    0.7262450268E-03
    0.3000000000E+05    0.1624287797E-01    0.3413909041E-01    0.6957860133E+00    0.9370084664E-01    0.1872264211E-03
    0.5000000000E+05    0.1919409112E-01    0.4054556790E-01    0.6958088706E+00    0.1200141127E+00    0.1926203966E-03
    0.7000000000E+05    0.2054826088E-01    0.4358774312E-01    0.6958174306E+00    0.1373047704E+00    0.1962571474E-03
    0.9000000000E+05    0.2119099919E-01    0.4511230784E-01    0.6958214940E+00    0.1498697664E+00    0.1990179303E-03
    0.1100000000E+06    0.2147219087E-01    0.4585458664E-01    0.6958236347E+00    0.1595964781E+00    0.2012501108E-03
    0.1300000000E+06    0.2155385579E-01    0.4615794309E-01    0.6958248057E+00    0.1674575056E+00    0.2031273727E-03
    0.1500000000E+06    0.2151941924E-01    0.4620078082E-01    0.6958254343E+00    0.1740112229E+00    0.2047493407E-03
    0.1700000000E+06    0.2141520773E-01    0.4608314883E-01    0.6958257378E+00    0.1796042642E+00    0.2061785841E-03
    0.1900000000E+06    0.2126842470E-01    0.4586443916E-01    0.6958258365E+00    0.1844649565E+00    0.2074570272E-03
    0.2100000000E+06    0.2109573335E-01    0.4558147647E-01    0.6958258016E+00    0.1887508529E+00    0.2086141626E-03
    0.2300000000E+06    0.2090767402E-01    0.4525787707E-01    0.6958256775E+00    0.1925748136E+00    0.2096715408E-03
    0.2500000000E+06    0.2071107741E-01    0.4490918981E-01    0.6958254927E+00    0.1960202073E+00    0.2106453972E-03
    0.2700000000E+06    0.2051044850E-01    0.4454586121E-01    0.6958252664E+00    0.1991502200E+00    0.2115482728E-03
    0.2900000000E+06    0.2030879266E-01    0.4417501625E-01    0.6958250117E+00    0.2020137950E+00    0.2123900604E-03
    0.3100000000E+06    0.2010812569E-01    0.4380156500E-01    0.6958247377E+00    0.2046495584E+00    0.2131787038E-03
    0.3300000000E+06    0.1990979789E-01    0.4342891040E-01    0.6958244509E+00    0.2070884913E+00    0.2139206801E-03
    0.3500000000E+06    0.1971470498E-01    0.4305941252E-01    0.6958241560E+00    0.2093557977E+00    0.2146213411E-03
    0.3700000000E+06    0.1952342835E-01    0.4269469953E-01    0.6958238564E+00    0.2114722391E+00    0.2152851609E-03
    0.3900000000E+06    0.1933632998E-01    0.4233588004E-01    0.6958235545E+00    0.2134551087E+00    0.2159159182E-03
    0.4100000000E+06    0.1915361770E-01    0.4198369045E-01    0.6958232523E+00    0.2153189537E+00    0.2165168343E-03
    0.4300000000E+06    0.1897539070E-01    0.4163859865E-01    0.6958229511E+00    0.2170761213E+00    0.2170906777E-03
    0.4500000000E+06    0.1880167153E-01    0.4130087795E-01    0.6958226519E+00    0.2187371756E+00    0.2176398456E-03
    0.4700000000E+06    0.1863242898E-01    0.4097066026E-01    0.6958223554E+00    0.2203112217E+00    0.2181664279E-03
    0.4900000000E+06    0.1846759439E-01    0.4064797486E-01    0.6958220622E+00    0.2218061594E+00    0.2186722573E-03
    0.1000000000E+06    0.2136405608E-01    0.4555431517E-01    0.6958227265E+00    0.1550137822E+00    0.2001868255E-03
    0.3000000000E+06    0.2020823847E-01    0.4398837476E-01    0.6958248767E+00    0.2033580627E+00    0.2127905904E-03
    0.5000000000E+06    0.1838680136E-01    0.4048944500E-01    0.6958219169E+00    0.2225261522E+00    0.2189179024E-03
    0.7000000000E+06    0.1697367318E-01    0.3768311514E-01    0.6958192311E+00    0.2340652037E+00    0.2230498564E-03
    0.9000000000E+06    0.1586444983E-01    0.3544317096E-01    0.6958169465E+00    0.2421313082E+00    0.2261868236E-03
    0.1100000000E+07    0.1496629580E-01    0.3360917712E-01    0.6958149837E+00    0.2482347178E+00    0.2287232770E-03
    0.1300000000E+07    0.1421931513E-01    0.3207112729E-01    0.6958132694E+00    0.2530879955E+00    0.2308564933E-03
    0.1500000000E+07    0.1358460301E-01    0.3075552700E-01    0.6958117495E+00    0.2570814248E+00    0.2326996437E-03
    0.1700000000E+07    0.1303594054E-01    0.2961198081E-01    0.6958103848E+00    0.2604507510E+00    0.2343238109E-03
    0.1900000000E+07    0.1255499027E-01    0.2860480859E-01    0.6958091466E+00    0.2633486375E+00    0.2357766266E-03
    0.2100000000E+07    0.1212850146E-01    0.2770798558E-01    0.6958080133E+00    0.2658792457E+00    0.2370915993E-03
    0.2300000000E+07    0.1174662782E-01    0.2690202746E-01    0.6958069684E+00    0.2681165983E+00    0.2382932154E-03
    0.2500000000E+07    0.1140187627E-01    0.2617201327E-01    0.6958059988E+00    0.2701150481E+00    0.2393999219E-03
    0.2700000000E+07    0.1108842663E-01    0.2550629102E-01    0.6958050943E+00    0.2719155906E+00    0.2404259690E-03
    0.2900000000E+07    0.1080167749E-01    0.2489560545E-01    0.6958042466E+00    0.2735498497E+00    0.2413825976E-03
    0.3100000000E+07    0.1053793446E-01    0.2433249481E-01    0.6958034488E+00    0.2750426899E+00    0.2422788346E-03
    0.3300000000E+07    0.1029419096E-01    0.2381086393E-01    0.6958026952E+00    0.2764139845E+00    0.2431220397E-03
    0.3500000000E+07    0.1006797070E-01    0.2332567572E-01    0.6958019812E+00    0.2776798467E+00    0.2439182946E-03
    0.3700000000E+07    0.9857212262E-02    0.2287272410E-01    0.6958013026E+00    0.2788535054E+00    0.2446726832E-03
    0.3900000000E+07    0.9660183143E-02    0.2244846404E-01    0.6958006561E+00    0.2799459430E+00    0.2453894996E-03
    0.4100000000E+07    0.9475414684E-02    0.2204988253E-01    0.6958000387E+00    0.2809663679E+00    0.2460724043E-03
    0.4300000000E+07    0.9301652153E-02    0.2167439912E-01    0.6957994478E+00    0.2819225694E+00    0.2467245432E-03
    0.4500000000E+07    0.9137815959E-02    0.2131978848E-01    0.6957988812E+00    0.2828211900E+00    0.2473486407E-03
    0.4700000000E+07    0.8982971172E-02    0.2098411935E-01    0.6957983369E+00    0.2836679355E+00    0.2479470713E-03
    0.4900000000E+07    0.8836303321E-02    0.2066570589E-01    0.6957978132E+00    0.2844677395E+00    0.2485219181E-03
    0.1000000000E+07    0.1539335374E-01    0.3448335732E-01    0.6958159299E+00    0.2453731243E+00    0.2275150422E-03
    0.3000000000E+07    0.1066713215E-01    0.2460851215E-01    0.6958038418E+00    0.2743126046E+00    0.2418377712E-03
    0.5000000000E+07    0.8765809306E-02    0.2051250055E-01    0.6957975586E+00    0.2848514018E+00    0.2488010802E-03
    0.7000000000E+07    0.7650921796E-02    0.1807489501E-01    0.6957932511E+00    0.2908593201E+00    0.2534968298E-03
    0.9000000000E+07    0.6891285753E-02    0.1639742208E-01    0.6957899556E+00    0.2948960036E+00    0.2570618396E-03
    0.1100000000E+08    0.6329007639E-02    0.1514641171E-01    0.6957872792E+00    0.2978589227E+00    0.2599443985E-03
    0.1300000000E+08    0.5890197029E-02    0.1416419632E-01    0.6957850216E+00    0.3001583469E+00    0.2623686988E-03
    0.1500000000E+08    0.5534885382E-02    0.1336486055E-01    0.6957830670E+00    0.3020128795E+00    0.2644633532E-03
    0.1700000000E+08    0.5239252591E-02    0.1269689525E-01    0.6957813420E+00    0.3035514253E+00    0.2663091434E-03
    0.1900000000E+08    0.4988075695E-02    0.1212721665E-01    0.6957797972E+00    0.3048557140E+00    0.2679602003E-03
    0.2100000000E+08    0.4771097676E-02    0.1163343682E-01    0.6957783977E+00    0.3059804750E+00    0.2694546050E-03
    0.2300000000E+08    0.4581114579E-02    0.1119977188E-01    0.6957771178E+00    0.3069639580E+00    0.2708201848E-03
    0.2500000000E+08    0.4412894412E-02    0.1081471958E-01    0.6957759382E+00    0.3078338302E+00    0.2720779041E-03
    0.2700000000E+08    0.4262530961E-02    0.1046966599E-01    0.6957748441E+00    0.3086106786E+00    0.2732439575E-03
