  Pressure (Pa) 22mC5-500 (mol/kg) 23mC5-500 (mol/kg) 24mC5-500 (mol/kg) 2mC6-500 (mol/kg) C7-500 (mol/kg)
    0.1000000000E+01    0.2231517346E-05    0.1921817380E-05    0.1266246478E+00    0.1434384934E-04    0.4220672578E-02
    0.3000000000E+01    0.4606938143E-05    0.3956058070E-05    0.2784869174E+00    0.2819501180E-04    0.4292592202E-02
    0.5000000000E+01    0.5797472126E-05    0.4968397470E-05    0.3663655167E+00    0.3448144694E-04    0.4334067796E-02
    0.7000000000E+01    0.6485832678E-05    0.5550431119E-05    0.4236621765E+00    0.3799566765E-04    0.4361543522E-02
    0.9000000000E+01    0.6927771391E-05    0.5922815183E-05    0.4639751689E+00    0.4036590313E-04    0.4381220775E-02
    0.1100000000E+02    0.7237139121E-05    0.6183323300E-05    0.4938813481E+00    0.4224223737E-04    0.4396079846E-02
    0.1300000000E+02    0.7470687378E-05    0.6380450263E-05    0.5169499222E+00    0.4391102701E-04    0.4407742171E-02
    0.1500000000E+02    0.7659064806E-05    0.6540244127E-05    0.5352853523E+00    0.4550616527E-04    0.4417168669E-02
    0.1700000000E+02    0.7819834729E-05    0.6677543361E-05    0.5502088312E+00    0.4709210194E-04    0.4424966332E-02
    0.1900000000E+02    0.7963526267E-05    0.6801185007E-05    0.5625916766E+00    0.4869975320E-04    0.4431538138E-02
    0.2100000000E+02    0.8096674779E-05    0.6916613497E-05    0.5730317939E+00    0.5034318788E-04    0.4437162528E-02
    0.2300000000E+02    0.8223446694E-05    0.7027270288E-05    0.5819531195E+00    0.5202781426E-04    0.4442038325E-02
    0.2500000000E+02    0.8346552363E-05    0.7135371917E-05    0.5896646050E+00    0.5375456506E-04    0.4446311460E-02
    0.2700000000E+02    0.8467780570E-05    0.7242363925E-05    0.5963967258E+00    0.5552210182E-04    0.4450091578E-02
    0.2900000000E+02    0.8588322538E-05    0.7349194968E-05    0.6023249113E+00    0.5732799889E-04    0.4453462738E-02
    0.3100000000E+02    0.8708974196E-05    0.7456487232E-05    0.6075850522E+00    0.5916938504E-04    0.4456490521E-02
    0.3300000000E+02    0.8830265656E-05    0.7564645036E-05    0.6122840462E+00    0.6104328955E-04    0.4459226887E-02
    0.3500000000E+02    0.8952545901E-05    0.7673925546E-05    0.6165071385E+00    0.6294682461E-04    0.4461713568E-02
    0.3700000000E+02    0.9076039217E-05    0.7784485635E-05    0.6203231399E+00    0.6487727599E-04    0.4463984491E-02
    0.3900000000E+02    0.9200883409E-05    0.7896413455E-05    0.6237882053E+00    0.6683214231E-04    0.4466067540E-02
    0.4100000000E+02    0.9327156034E-05    0.8009749963E-05    0.6269486153E+00    0.6880914572E-04    0.4467985856E-02
    0.4300000000E+02    0.9454892625E-05    0.8124503778E-05    0.6298428553E+00    0.7080622716E-04    0.4469758820E-02
    0.4500000000E+02    0.9584099475E-05    0.8240661526E-05    0.6325031906E+00    0.7282153355E-04    0.4471402795E-02
    0.4700000000E+02    0.9714762681E-05    0.8358195088E-05    0.6349568738E+00    0.7485340152E-04    0.4472931695E-02
    0.4900000000E+02    0.9846854582E-05    0.8477066709E-05    0.6372270822E+00    0.7690033992E-04    0.4474357438E-02
    0.1000000000E+02    0.7094636561E-05    0.6063296790E-05    0.4799598614E+00    0.4134281772E-04    0.4389130429E-02
    0.3000000000E+02    0.8648596456E-05    0.7402754043E-05    0.6050312252E+00    0.5824444188E-04    0.4455016030E-02
    0.5000000000E+02    0.9913425048E-05    0.8536990771E-05    0.6382996960E+00    0.7792903738E-04    0.4475034891E-02
    0.7000000000E+02    0.1130905418E-04    0.9794216754E-05    0.6537043573E+00    0.9903631687E-04    0.4485047786E-02
    0.9000000000E+02    0.1279782128E-04    0.1113506549E-04    0.6625877183E+00    0.1207542871E-03    0.4491034769E-02
    0.1100000000E+03    0.1434884006E-04    0.1253084089E-04    0.6683671854E+00    0.1427855725E-03    0.4494929685E-02
    0.1300000000E+03    0.1594387754E-04    0.1396507744E-04    0.6724274614E+00    0.1650093583E-03    0.4497567894E-02
    0.1500000000E+03    0.1757210077E-04    0.1542814506E-04    0.6754362340E+00    0.1873735264E-03    0.4499376715E-02
    0.1700000000E+03    0.1922684228E-04    0.1691418497E-04    0.6777550791E+00    0.2098557867E-03    0.4500600655E-02
    0.1900000000E+03    0.2090385971E-04    0.1841950671E-04    0.6795968475E+00    0.2324478516E-03    0.4501391271E-02
    0.2100000000E+03    0.2260038276E-04    0.1994172375E-04    0.6810950019E+00    0.2551483556E-03    0.4501848321E-02
    0.2300000000E+03    0.2431457012E-04    0.2147926622E-04    0.6823374718E+00    0.2779594554E-03    0.4502040602E-02
    0.2500000000E+03    0.2604518704E-04    0.2303109393E-04    0.6833845453E+00    0.3008851080E-03    0.4502017369E-02
    0.2700000000E+03    0.2779140671E-04    0.2459652069E-04    0.6842789392E+00    0.3239301656E-03    0.4501814973E-02
    0.2900000000E+03    0.2955268374E-04    0.2617510323E-04    0.6850517652E+00    0.3470998877E-03    0.4501460934E-02
    0.3100000000E+03    0.3132867131E-04    0.2776656863E-04    0.6857262209E+00    0.3703996755E-03    0.4500976532E-02
    0.3300000000E+03    0.3311916548E-04    0.2937076599E-04    0.6863199550E+00    0.3938349276E-03    0.4500378524E-02
    0.3500000000E+03    0.3492406701E-04    0.3098763323E-04    0.6868466333E+00    0.4174109649E-03    0.4499680316E-02
    0.3700000000E+03    0.3674335454E-04    0.3261717409E-04    0.6873170017E+00    0.4411329935E-03    0.4498892777E-02
    0.3900000000E+03    0.3857706561E-04    0.3425944174E-04    0.6877396271E+00    0.4650060905E-03    0.4498024826E-02
    0.4100000000E+03    0.4042528285E-04    0.3591452706E-04    0.6881214224E+00    0.4890352021E-03    0.4497083854E-02
    0.4300000000E+03    0.4228812396E-04    0.3758255003E-04    0.6884680277E+00    0.5132251493E-03    0.4496076047E-02
    0.4500000000E+03    0.4416573419E-04    0.3926365347E-04    0.6887840902E+00    0.5375806365E-03    0.4495006622E-02
    0.4700000000E+03    0.4605828084E-04    0.4095799832E-04    0.6890734733E+00    0.5621062629E-03    0.4493880010E-02
    0.4900000000E+03    0.4796594900E-04    0.4266576012E-04    0.6893394156E+00    0.5868065339E-03    0.4492699997E-02
    0.1000000000E+03    0.1356691460E-04    0.1182732722E-04    0.6657540487E+00    0.1317406600E-03    0.4493177626E-02
    0.3000000000E+03    0.3043885428E-04    0.2696923741E-04    0.6854000776E+00    0.3587331848E-03    0.4501233891E-02
    0.5000000000E+03    0.4892551557E-04    0.4352473055E-04    0.6894644679E+00    0.5992235462E-03    0.4492091000E-02
    0.7000000000E+03    0.6896549538E-04    0.6145921068E-04    0.6912189563E+00    0.8577837260E-03    0.4477697160E-02
    0.9000000000E+03    0.9080185030E-04    0.8099554702E-04    0.6921962749E+00    0.1138648862E-02    0.4459886128E-02
    0.1100000000E+04    0.1147359123E-03    0.1024054235E-03    0.6928188215E+00    0.1446089409E-02    0.4439110964E-02
    0.1300000000E+04    0.1411214329E-03    0.1260063237E-03    0.6932498903E+00    0.1784840425E-02    0.4415389122E-02
    0.1500000000E+04    0.1703777613E-03    0.1521739620E-03    0.6935659153E+00    0.2160402087E-02    0.4388524401E-02
    0.1700000000E+04    0.2030087103E-03    0.1813594011E-03    0.6938074404E+00    0.2579328865E-02    0.4358171645E-02
    0.1900000000E+04    0.2396268575E-03    0.2141109016E-03    0.6939979692E+00    0.3049563038E-02    0.4323850079E-02
    0.2100000000E+04    0.2809850595E-03    0.2511021746E-03    0.6941520645E+00    0.3580852150E-02    0.4284932961E-02
    0.2300000000E+04    0.3280178804E-03    0.2931694838E-03    0.6942792300E+00    0.4185291275E-02    0.4240621401E-02
    0.2500000000E+04    0.3818966213E-03    0.3413609122E-03    0.6943859307E+00    0.4878040511E-02    0.4189903512E-02
    0.2700000000E+04    0.4441029008E-03    0.3970022293E-03    0.6944767174E+00    0.5678283534E-02    0.4131497036E-02
    0.2900000000E+04    0.5165272541E-03    0.4617851544E-03    0.6945548861E+00    0.6610512731E-02    0.4063771795E-02
    0.3100000000E+04    0.6016007191E-03    0.5378851589E-03    0.6946228824E+00    0.7706246602E-02    0.3984647393E-02
    0.3300000000E+04    0.7024679103E-03    0.6281164290E-03    0.6946825589E+00    0.9006293509E-02    0.3891462300E-02
    0.3500000000E+04    0.8232070390E-03    0.7361289024E-03    0.6947353448E+00    0.1056363924E-01    0.3780815266E-02
    0.3700000000E+04    0.9690892492E-03    0.8666406009E-03    0.6947823601E+00    0.1244687091E-01    0.3648395047E-02
    0.3900000000E+04    0.1146831678E-02    0.1025664539E-02    0.6948244949E+00    0.1474356521E-01    0.3488852776E-02
    0.4100000000E+04    0.1364705439E-02    0.1220606120E-02    0.6948624656E+00    0.1756187018E-01    0.3295858138E-02
    0.4300000000E+04    0.1632161558E-02    0.1459929631E-02    0.6948968552E+00    0.2102594655E-01    0.3062652182E-02
    0.4500000000E+04    0.1958300268E-02    0.1751790198E-02    0.6949281427E+00    0.2525653433E-01    0.2783674089E-02
    0.4700000000E+04    0.2348193119E-02    0.2100744388E-02    0.6949567259E+00    0.3032370211E-01    0.2458008030E-02
    0.4900000000E+04    0.2796579376E-02    0.2502109626E-02    0.6949829371E+00    0.3616519615E-01    0.2094725059E-02
    0.1000000000E+04    0.1024859078E-03    0.9144764208E-04    0.6925386394E+00    0.1288765917E-02    0.4449861605E-02
    0.3000000000E+04    0.5573053791E-03    0.4982617052E-03    0.6945900285E+00    0.7135639515E-02    0.4025785476E-02
    0.5000000000E+04    0.3036533634E-02    0.2716930396E-02    0.6949952426E+00    0.3929836718E-01    0.1905787771E-02
    0.7000000000E+04    0.5774681494E-02    0.5173287063E-02    0.6951662941E+00    0.7624801974E-01    0.4555630242E-03
    0.9000000000E+04    0.6770852798E-02    0.6073427220E-02    0.6952598114E+00    0.9126499427E-01    0.4492381414E-03
    0.1100000000E+05    0.7573381715E-02    0.6801538824E-02    0.6953183390E+00    0.1041067342E+00    0.4542337437E-03
    0.1300000000E+05    0.8236779653E-02    0.7405917841E-02    0.6953581667E+00    0.1153674388E+00    0.4584824945E-03
    0.1500000000E+05    0.8789266657E-02    0.7911475504E-02    0.6953868605E+00    0.1253319246E+00    0.4621519498E-03
    0.1700000000E+05    0.9252168060E-02    0.8337057904E-02    0.6954084067E+00    0.1342191127E+00    0.4653842084E-03
    0.1900000000E+05    0.9641911896E-02    0.8697200715E-02    0.6954251013E+00    0.1422007649E+00    0.4682746159E-03
    0.2100000000E+05    0.9971333328E-02    0.9003274661E-02    0.6954383589E+00    0.1494135860E+00    0.4708901805E-03
    0.2300000000E+05    0.1025058671E-01    0.9264286909E-02    0.6954490970E+00    0.1559677698E+00    0.4732798276E-03
    0.2500000000E+05    0.1048779597E-01    0.9487452902E-02    0.6954579364E+00    0.1619531578E+00    0.4754803922E-03
    0.2700000000E+05    0.1068952641E-01    0.9678611445E-02    0.6954653116E+00    0.1674437529E+00    0.4775203133E-03
    0.2900000000E+05    0.1086113226E-01    0.9842530721E-02    0.6954715356E+00    0.1725010809E+00    0.4794220149E-03
    0.3100000000E+05    0.1100701642E-01    0.9983137052E-02    0.6954768393E+00    0.1771767282E+00    0.4812034965E-03
    0.3300000000E+05    0.1113082684E-01    0.1010368811E-01    0.6954813967E+00    0.1815142831E+00    0.4828794295E-03
    0.3500000000E+05    0.1123560695E-01    0.1020690560E-01    0.6954853413E+00    0.1855508375E+00    0.4844619334E-03
    0.3700000000E+05    0.1132391198E-01    0.1029507796E-01    0.6954887772E+00    0.1893181618E+00    0.4859611372E-03
    0.3900000000E+05    0.1139789987E-01    0.1037014066E-01    0.6954917866E+00    0.1928436328E+00    0.4873855945E-03
    0.4100000000E+05    0.1145940285E-01    0.1043373954E-01    0.6954944354E+00    0.1961509735E+00    0.4887425950E-03
    0.4300000000E+05    0.1150998444E-01    0.1048728123E-01    0.6954967767E+00    0.1992608473E+00    0.4900384033E-03
    0.4500000000E+05    0.1155098502E-01    0.1053197351E-01    0.6954988542E+00    0.2021913399E+00    0.4912784428E-03
    0.4700000000E+05    0.1158355867E-01    0.1056885796E-01    0.6955007037E+00    0.2049583525E+00    0.4924674406E-03
    0.4900000000E+05    0.1160870305E-01    0.1059883645E-01    0.6955023551E+00    0.2075759244E+00    0.4936095426E-03
    0.1000000000E+05    0.7191630221E-02    0.6454821488E-02    0.6952921238E+00    0.9790475769E-01    0.4518301857E-03
    0.3000000000E+05    0.1093704582E-01    0.9915530451E-02    0.6954742905E+00    0.1748837224E+00    0.4803267986E-03
    0.5000000000E+05    0.1161876438E-01    0.1061148502E-01    0.6955031146E+00    0.2088326151E+00    0.4941641671E-03
    0.7000000000E+05    0.1158896579E-01    0.1064636071E-01    0.6955122782E+00    0.2285054472E+00    0.5034923477E-03
    0.9000000000E+05    0.1134446153E-01    0.1047250525E-01    0.6955155847E+00    0.2415685271E+00    0.5105732086E-03
    0.1100000000E+06    0.1103475837E-01    0.1022906885E-01    0.6955165424E+00    0.2509829489E+00    0.5162980733E-03
    0.1300000000E+06    0.1071314128E-01    0.9967136524E-02    0.6955164046E+00    0.2581492975E+00    0.5211125438E-03
    0.1500000000E+06    0.1040001159E-01    0.9707163480E-02    0.6955157114E+00    0.2638219644E+00    0.5252721954E-03
    0.1700000000E+06    0.1010302753E-01    0.9457470677E-02    0.6955147251E+00    0.2684459907E+00    0.5289375320E-03
    0.1900000000E+06    0.9824530524E-02    0.9221165201E-02    0.6955135841E+00    0.2723022417E+00    0.5322160943E-03
    0.2100000000E+06    0.9564572132E-02    0.8999010835E-02    0.6955123652E+00    0.2755774470E+00    0.5351835315E-03
    0.2300000000E+06    0.9322234410E-02    0.8790708026E-02    0.6955111132E+00    0.2784010048E+00    0.5378951199E-03
    0.2500000000E+06    0.9096230948E-02    0.8595493436E-02    0.6955098545E+00    0.2808656654E+00    0.5403925010E-03
    0.2700000000E+06    0.8885185410E-02    0.8412429138E-02    0.6955086053E+00    0.2830398036E+00    0.5427078411E-03
    0.2900000000E+06    0.8687759054E-02    0.8240543279E-02    0.6955073750E+00    0.2849750334E+00    0.5448665135E-03
    0.3100000000E+06    0.8502705489E-02    0.8078897183E-02    0.6955061694E+00    0.2867111149E+00    0.5468888921E-03
    0.3300000000E+06    0.8328889934E-02    0.7926615197E-02    0.6955049917E+00    0.2882792188E+00    0.5487915891E-03
    0.3500000000E+06    0.8165291315E-02    0.7782895540E-02    0.6955038435E+00    0.2897041597E+00    0.5505883305E-03
    0.3700000000E+06    0.8010996385E-02    0.7647011534E-02    0.6955027254E+00    0.2910059609E+00    0.5522905907E-03
    0.3900000000E+06    0.7865190543E-02    0.7518308150E-02    0.6955016373E+00    0.2922009743E+00    0.5539080611E-03
    0.4100000000E+06    0.7727147670E-02    0.7396196484E-02    0.6955005788E+00    0.2933026984E+00    0.5554490030E-03
    0.4300000000E+06    0.7596220168E-02    0.7280147530E-02    0.6954995490E+00    0.2943223834E+00    0.5569205169E-03
    0.4500000000E+06    0.7471829702E-02    0.7169685949E-02    0.6954985471E+00    0.2952694885E+00    0.5583287507E-03
    0.4700000000E+06    0.7353458857E-02    0.7064384205E-02    0.6954975721E+00    0.2961520297E+00    0.5596790638E-03
    0.4900000000E+06    0.7240643754E-02    0.6963857193E-02    0.6954966230E+00    0.2969768499E+00    0.5609761568E-03
    0.1000000000E+06    0.1119326224E-01    0.1035521172E-01    0.6955162533E+00    0.2466228976E+00    0.5135710933E-03
    0.3000000000E+06    0.8593759291E-02    0.8158496657E-02    0.6955067689E+00    0.2858658483E+00    0.5458936248E-03
    0.5000000000E+06    0.7186187667E-02    0.6915274272E-02    0.6954961577E+00    0.2973694849E+00    0.5616060607E-03
    0.7000000000E+06    0.6307120272E-02    0.6125787608E-02    0.6954879691E+00    0.3032634949E+00    0.5722014442E-03
    0.9000000000E+06    0.5692374666E-02    0.5567785384E-02    0.6954813849E+00    0.3069576915E+00    0.5802452834E-03
    0.1100000000E+07    0.5231209516E-02    0.5145889208E-02    0.6954758884E+00    0.3095350275E+00    0.5867491942E-03
    0.1300000000E+07    0.4868524277E-02    0.4812013645E-02    0.6954711706E+00    0.3114577201E+00    0.5922190769E-03
    0.1500000000E+07    0.4573459756E-02    0.4538980092E-02    0.6954670364E+00    0.3129594776E+00    0.5969451468E-03
    0.1700000000E+07    0.4327213812E-02    0.4310111711E-02    0.6954633556E+00    0.3141724182E+00    0.6011096850E-03
    0.1900000000E+07    0.4117587949E-02    0.4114526626E-02    0.6954600369E+00    0.3151774145E+00    0.6048348350E-03
    0.2100000000E+07    0.3936273950E-02    0.3944777440E-02    0.6954570144E+00    0.3160270202E+00    0.6082065239E-03
    0.2300000000E+07    0.3777389864E-02    0.3795569552E-02    0.6954542384E+00    0.3167570177E+00    0.6112875414E-03
    0.2500000000E+07    0.3636637871E-02    0.3663020047E-02    0.6954516710E+00    0.3173927000E+00    0.6141251913E-03
    0.2700000000E+07    0.3510794119E-02    0.3544206702E-02    0.6954492824E+00    0.3179525046E+00    0.6167560148E-03
    0.2900000000E+07    0.3397386127E-02    0.3436881702E-02    0.6954470488E+00    0.3184502217E+00    0.6192088369E-03
    0.3100000000E+07    0.3294481339E-02    0.3339283324E-02    0.6954449508E+00    0.3188963932E+00    0.6215068041E-03
    0.3300000000E+07    0.3200544186E-02    0.3250008251E-02    0.6954429726E+00    0.3192992311E+00    0.6236687893E-03
    0.3500000000E+07    0.3114336883E-02    0.3167922689E-02    0.6954411009E+00    0.3196652373E+00    0.6257103868E-03
    0.3700000000E+07    0.3034848957E-02    0.3092099077E-02    0.6954393245E+00    0.3199996340E+00    0.6276446330E-03
    0.3900000000E+07    0.2961246168E-02    0.3021770086E-02    0.6954376340E+00    0.3203066692E+00    0.6294825388E-03
    0.4100000000E+07    0.2892832801E-02    0.2956294599E-02    0.6954360212E+00    0.3205898374E+00    0.6312334904E-03
    0.4300000000E+07    0.2829023385E-02    0.2895132130E-02    0.6954344792E+00    0.3208520429E+00    0.6329055550E-03
    0.4500000000E+07    0.2769321168E-02    0.2837823329E-02    0.6954330018E+00    0.3210957210E+00    0.6345057179E-03
    0.4700000000E+07    0.2713301522E-02    0.2783974915E-02    0.6954315838E+00    0.3213229311E+00    0.6360400683E-03
    0.4900000000E+07    0.2660598997E-02    0.2733247902E-02    0.6954302203E+00    0.3215354276E+00    0.6375139471E-03
    0.1000000000E+07    0.5446828233E-02    0.5343507754E-02    0.6954785235E+00    0.3083492739E+00    0.5836510780E-03
    0.3000000000E+07    0.3344724779E-02    0.3386961601E-02    0.6954459839E+00    0.3186791912E+00    0.6203759109E-03
    0.5000000000E+07    0.2635391073E-02    0.2708961504E-02    0.6954295577E+00    0.3216366372E+00    0.6382297037E-03
    0.7000000000E+07    0.2246927471E-02    0.2332673182E-02    0.6954183759E+00    0.3231620511E+00    0.6502692326E-03
    0.9000000000E+07    0.1992665731E-02    0.2084126369E-02    0.6954098493E+00    0.3241268134E+00    0.6594094828E-03
    0.1100000000E+08    0.1809556822E-02    0.1903884388E-02    0.6954029373E+00    0.3248058031E+00    0.6667999165E-03
    0.1300000000E+08    0.1669533484E-02    0.1765275276E-02    0.6953971145E+00    0.3253163886E+00    0.6730153801E-03
    0.1500000000E+08    0.1557941686E-02    0.1654286485E-02    0.6953920776E+00    0.3257180782E+00    0.6783856433E-03
    0.1700000000E+08    0.1466280323E-02    0.1562747341E-02    0.6953876352E+00    0.3260446364E+00    0.6831178325E-03
    0.1900000000E+08    0.1389232025E-02    0.1485524870E-02    0.6953836588E+00    0.3263168139E+00    0.6873507399E-03
    0.2100000000E+08    0.1323276863E-02    0.1419208303E-02    0.6953800578E+00    0.3265481506E+00    0.6911820051E-03
    0.2300000000E+08    0.1265979241E-02    0.1361429641E-02    0.6953767657E+00    0.3267479025E+00    0.6946829769E-03
    0.2500000000E+08    0.1215592785E-02    0.1310485851E-02    0.6953737326E+00    0.3269226380E+00    0.6979074069E-03
    0.2700000000E+08    0.1170828127E-02    0.1265116113E-02    0.6953709197E+00    0.3270771634E+00    0.7008968175E-03
