  Pressure (Pa) 22mC5-500 (mol/kg) 23mC5-500 (mol/kg) 24mC5-500 (mol/kg) 2mC6-500 (mol/kg) C7-500 (mol/kg)
    0.1000000000E+01    0.2496612040E-05    0.5020976034E-05    0.6964847323E-01    0.1301423379E-04    0.4216608395E-02
    0.3000000000E+01    0.5987889826E-05    0.1202000859E-04    0.1740707091E+00    0.3017165510E-04    0.4300528177E-02
    0.5000000000E+01    0.8287502251E-05    0.1661201278E-04    0.2486219666E+00    0.4073945573E-04    0.4359484419E-02
    0.7000000000E+01    0.9886222344E-05    0.1979248885E-04    0.3045164497E+00    0.4767124502E-04    0.4403963899E-02
    0.9000000000E+01    0.1104436242E-04    0.2208838395E-04    0.3479791660E+00    0.5246606351E-04    0.4438857503E-02
    0.1100000000E+02    0.1191186768E-04    0.2380262043E-04    0.3827428490E+00    0.5595006893E-04    0.4467032382E-02
    0.1300000000E+02    0.1258040815E-04    0.2512000719E-04    0.4111817647E+00    0.5860530396E-04    0.4490303428E-02
    0.1500000000E+02    0.1310868568E-04    0.2615863282E-04    0.4348781736E+00    0.6072551900E-04    0.4509880055E-02
    0.1700000000E+02    0.1353571889E-04    0.2699681329E-04    0.4549271616E+00    0.6249593854E-04    0.4526600780E-02
    0.1900000000E+02    0.1388825095E-04    0.2768810048E-04    0.4721107431E+00    0.6403657617E-04    0.4541065956E-02
    0.2100000000E+02    0.1418508794E-04    0.2827006083E-04    0.4870022797E+00    0.6542690072E-04    0.4553717095E-02
    0.2300000000E+02    0.1443974523E-04    0.2876962366E-04    0.5000317200E+00    0.6672044599E-04    0.4564886369E-02
    0.2500000000E+02    0.1466211855E-04    0.2920645386E-04    0.5115278010E+00    0.6795375517E-04    0.4574828628E-02
    0.2700000000E+02    0.1485957093E-04    0.2959514272E-04    0.5217461760E+00    0.6915201358E-04    0.4583742772E-02
    0.2900000000E+02    0.1503765815E-04    0.2994666796E-04    0.5308886551E+00    0.7033268327E-04    0.4591786376E-02
    0.3100000000E+02    0.1520062393E-04    0.3026938912E-04    0.5391166718E+00    0.7150789815E-04    0.4599085948E-02
    0.3300000000E+02    0.1535174479E-04    0.3056973953E-04    0.5465609000E+00    0.7268607179E-04    0.4605744271E-02
    0.3500000000E+02    0.1549357446E-04    0.3085271619E-04    0.5533282471E+00    0.7387299407E-04    0.4611845742E-02
    0.3700000000E+02    0.1562811995E-04    0.3112223194E-04    0.5595070228E+00    0.7507258999E-04    0.4617460338E-02
    0.3900000000E+02    0.1575697015E-04    0.3138137240E-04    0.5651708143E+00    0.7628745111E-04    0.4622646584E-02
    0.4100000000E+02    0.1588139102E-04    0.3163258576E-04    0.5703814320E+00    0.7751921193E-04    0.4627453824E-02
    0.4300000000E+02    0.1600239684E-04    0.3187782467E-04    0.5751911748E+00    0.7876881882E-04    0.4631923961E-02
    0.4500000000E+02    0.1612080418E-04    0.3211865346E-04    0.5796445919E+00    0.8003672388E-04    0.4636092825E-02
    0.4700000000E+02    0.1623727311E-04    0.3235632995E-04    0.5837798670E+00    0.8132302552E-04    0.4639991238E-02
    0.4900000000E+02    0.1635233901E-04    0.3259186838E-04    0.5876299162E+00    0.8262757099E-04    0.4643645869E-02
    0.1000000000E+02    0.1150772679E-04    0.2300465773E-04    0.3662765428E+00    0.5433606716E-04    0.4453653373E-02
    0.3000000000E+02    0.1512080703E-04    0.3011118837E-04    0.5351081757E+00    0.7092037436E-04    0.4595522257E-02
    0.5000000000E+02    0.1640948524E-04    0.3270909844E-04    0.5894570467E+00    0.8328658769E-04    0.4645389136E-02
    0.7000000000E+02    0.1754946201E-04    0.3507270236E-04    0.6162849611E+00    0.9730230784E-04    0.4671763373E-02
    0.9000000000E+02    0.1875190146E-04    0.3759143693E-04    0.6322725105E+00    0.1125225710E-03    0.4688357862E-02
    0.1100000000E+03    0.2003560151E-04    0.4028891177E-04    0.6428856386E+00    0.1285187968E-03    0.4699844329E-02
    0.1300000000E+03    0.2139113661E-04    0.4313957365E-04    0.6504442944E+00    0.1450351916E-03    0.4708279687E-02
    0.1500000000E+03    0.2280653137E-04    0.4611594762E-04    0.6561011305E+00    0.1619216342E-03    0.4714722311E-02
    0.1700000000E+03    0.2427169967E-04    0.4919587694E-04    0.6604936407E+00    0.1790875260E-03    0.4719777568E-02
    0.1900000000E+03    0.2577881709E-04    0.5236253722E-04    0.6640030380E+00    0.1964764844E-03    0.4723819367E-02
    0.2100000000E+03    0.2732193041E-04    0.5560329917E-04    0.6668712789E+00    0.2140525176E-03    0.4727092561E-02
    0.2300000000E+03    0.2889651207E-04    0.5890865131E-04    0.6692593297E+00    0.2317922315E-03    0.4729765033E-02
    0.2500000000E+03    0.3049909825E-04    0.6227137300E-04    0.6712784372E+00    0.2496802714E-03    0.4731956240E-02
    0.2700000000E+03    0.3212701842E-04    0.6568593360E-04    0.6730079490E+00    0.2677065607E-03    0.4733753825E-02
    0.2900000000E+03    0.3377819790E-04    0.6914806156E-04    0.6745059824E+00    0.2858645743E-03    0.4735223753E-02
    0.3100000000E+03    0.3545101415E-04    0.7265443453E-04    0.6758160796E+00    0.3041502284E-03    0.4736416770E-02
    0.3300000000E+03    0.3714419165E-04    0.7620245460E-04    0.6769715069E+00    0.3225611484E-03    0.4737372645E-02
    0.3500000000E+03    0.3885672420E-04    0.7979008350E-04    0.6779981175E+00    0.3410961764E-03    0.4738123057E-02
    0.3700000000E+03    0.4058781696E-04    0.8341572039E-04    0.6789163073E+00    0.3597550327E-03    0.4738693600E-02
    0.3900000000E+03    0.4233684274E-04    0.8707810998E-04    0.6797423825E+00    0.3785380800E-03    0.4739105213E-02
    0.4100000000E+03    0.4410330862E-04    0.9077627294E-04    0.6804895358E+00    0.3974461561E-03    0.4739375216E-02
    0.4300000000E+03    0.4588683031E-04    0.9450945240E-04    0.6811685558E+00    0.4164804537E-03    0.4739518081E-02
    0.4500000000E+03    0.4768711213E-04    0.9827707252E-04    0.6817883504E+00    0.4356424342E-03    0.4739546004E-02
    0.4700000000E+03    0.4950393136E-04    0.1020787061E-03    0.6823563399E+00    0.4549337633E-03    0.4739469348E-02
    0.4900000000E+03    0.5133712582E-04    0.1059140488E-03    0.6828787546E+00    0.4743562644E-03    0.4739296980E-02
    0.1000000000E+03    0.1938400926E-04    0.3891918560E-04    0.6380659714E+00    0.1204428855E-03    0.4694577237E-02
    0.3000000000E+03    0.3461198826E-04    0.7089589459E-04    0.6751822420E+00    0.2949916281E-03    0.4735852172E-02
    0.5000000000E+03    0.5225982717E-04    0.1078442947E-03    0.6831245507E+00    0.4841173087E-03    0.4739177334E-02
    0.7000000000E+03    0.7156650731E-04    0.1482105099E-03    0.6865829701E+00    0.6867446523E-03    0.4733156383E-02
    0.9000000000E+03    0.9256335119E-04    0.1920804158E-03    0.6885177050E+00    0.9051017283E-03    0.4722222095E-02
    0.1100000000E+04    0.1154297200E-03    0.2398377237E-03    0.6897533878E+00    0.1141774166E-02    0.4707742874E-02
    0.1300000000E+04    0.1404123527E-03    0.2920023286E-03    0.6906105995E+00    0.1399657443E-02    0.4690206621E-02
    0.1500000000E+04    0.1678138624E-03    0.3492087148E-03    0.6912399259E+00    0.1682064356E-02    0.4669734895E-02
    0.1700000000E+04    0.1979974317E-03    0.4122167560E-03    0.6917214412E+00    0.1992856955E-02    0.4646249730E-02
    0.1900000000E+04    0.2313982543E-03    0.4819360685E-03    0.6921016498E+00    0.2336601129E-02    0.4619535273E-02
    0.2100000000E+04    0.2685400060E-03    0.5594606397E-03    0.6924094076E+00    0.2718754886E-02    0.4589258450E-02
    0.2300000000E+04    0.3100567106E-03    0.6461146181E-03    0.6926635675E+00    0.3145904503E-02    0.4554969611E-02
    0.2500000000E+04    0.3567212788E-03    0.7435119835E-03    0.6928769668E+00    0.3626066122E-02    0.4516090561E-02
    0.2700000000E+04    0.4094826801E-03    0.8536342214E-03    0.6930586493E+00    0.4169075237E-02    0.4471892300E-02
    0.2900000000E+04    0.4695144138E-03    0.9789315804E-03    0.6932151696E+00    0.4787092931E-02    0.4421462463E-02
    0.3100000000E+04    0.5382777209E-03    0.1122455115E-02    0.6933513942E+00    0.5495265575E-02    0.4363661197E-02
    0.3300000000E+04    0.6176037367E-03    0.1288028295E-02    0.6934710117E+00    0.6312582668E-02    0.4297063514E-02
    0.3500000000E+04    0.7097991901E-03    0.1480467825E-02    0.6935768690E+00    0.7262982172E-02    0.4219886216E-02
    0.3700000000E+04    0.8177794470E-03    0.1705861624E-02    0.6936711982E+00    0.8376745226E-02    0.4129898891E-02
    0.3900000000E+04    0.9452286642E-03    0.1971903531E-02    0.6937557739E+00    0.9692181832E-02    0.4024323034E-02
    0.4100000000E+04    0.1096775203E-02    0.2288260085E-02    0.6938320247E+00    0.1125749109E-01    0.3899734611E-02
    0.4300000000E+04    0.1278142435E-02    0.2666886229E-02    0.6939011138E+00    0.1313239250E-01    0.3752010319E-02
    0.4500000000E+04    0.1496174793E-02    0.3122081038E-02    0.6939639975E+00    0.1538850367E-01    0.3576407883E-02
    0.4700000000E+04    0.1758524413E-02    0.3669835422E-02    0.6940214695E+00    0.1810625333E-01    0.3367959813E-02
    0.4900000000E+04    0.2072606303E-02    0.4325653236E-02    0.6940741937E+00    0.2136426721E-01    0.3122484516E-02
    0.1000000000E+04    0.1037487448E-03    0.2154433429E-03    0.6891969327E+00    0.1020975917E-02    0.4715383278E-02
    0.3000000000E+04    0.5026999566E-03    0.1048196536E-02    0.6932855653E+00    0.5128824738E-02    0.4393564861E-02
    0.5000000000E+04    0.2250760997E-02    0.4697674674E-02    0.6940989538E+00    0.2321442925E-01    0.2985239196E-02
    0.7000000000E+04    0.5848431952E-02    0.1221956769E-01    0.6944437569E+00    0.6133303861E-01    0.8037112686E-03
    0.9000000000E+04    0.6996109595E-02    0.1463453206E-01    0.6946329863E+00    0.7476719256E-01    0.7409996292E-03
    0.1100000000E+05    0.7868633035E-02    0.1647801868E-01    0.6947518575E+00    0.8562068092E-01    0.7488136599E-03
    0.1300000000E+05    0.8600599638E-02    0.1803005088E-01    0.6948330531E+00    0.9520895923E-01    0.7558387630E-03
    0.1500000000E+05    0.9219920097E-02    0.1934813103E-01    0.6948917753E+00    0.1037590084E+00    0.7619063549E-03
    0.1700000000E+05    0.9747302585E-02    0.2047494559E-01    0.6949360435E+00    0.1114402284E+00    0.7672486492E-03
    0.1900000000E+05    0.1019884680E-01    0.2144371611E-01    0.6949704836E+00    0.1183864401E+00    0.7720242621E-03
    0.2100000000E+05    0.1058724506E-01    0.2228066119E-01    0.6949979482E+00    0.1247048695E+00    0.7763445764E-03
    0.2300000000E+05    0.1092262454E-01    0.2300672355E-01    0.6950202903E+00    0.1304824835E+00    0.7802908414E-03
    0.2500000000E+05    0.1121315335E-01    0.2363881341E-01    0.6950387649E+00    0.1357905910E+00    0.7839241818E-03
    0.2700000000E+05    0.1146548397E-01    0.2419071889E-01    0.6950542516E+00    0.1406882404E+00    0.7872917601E-03
    0.2900000000E+05    0.1168508253E-01    0.2467378229E-01    0.6950673846E+00    0.1452247668E+00    0.7904307442E-03
    0.3100000000E+05    0.1187647661E-01    0.2509740945E-01    0.6950786326E+00    0.1494417267E+00    0.7933709548E-03
    0.3300000000E+05    0.1204344408E-01    0.2546945806E-01    0.6950883491E+00    0.1533743872E+00    0.7961366902E-03
    0.3500000000E+05    0.1218915859E-01    0.2579653701E-01    0.6950968054E+00    0.1570528829E+00    0.7987480147E-03
    0.3700000000E+05    0.1231630277E-01    0.2608423961E-01    0.6951042136E+00    0.1605031264E+00    0.8012216930E-03
    0.3900000000E+05    0.1242715729E-01    0.2633732695E-01    0.6951107413E+00    0.1637475304E+00    0.8035718782E-03
    0.4100000000E+05    0.1252367135E-01    0.2655987340E-01    0.6951165228E+00    0.1668055858E+00    0.8058106298E-03
    0.4300000000E+05    0.1260751917E-01    0.2675538290E-01    0.6951216670E+00    0.1696943279E+00    0.8079483090E-03
    0.4500000000E+05    0.1268014532E-01    0.2692688282E-01    0.6951262631E+00    0.1724287164E+00    0.8099938841E-03
    0.4700000000E+05    0.1274280160E-01    0.2707699998E-01    0.6951303845E+00    0.1750219456E+00    0.8119551708E-03
    0.4900000000E+05    0.1279657709E-01    0.2720802284E-01    0.6951340927E+00    0.1774857011E+00    0.8138390225E-03
    0.1000000000E+05    0.7452198033E-02    0.1559736086E-01    0.6946985590E+00    0.8037077483E-01    0.7448755768E-03
    0.3000000000E+05    0.1178405332E-01    0.2489250189E-01    0.6950732199E+00    0.1473708559E+00    0.7919240653E-03
    0.5000000000E+05    0.1282043657E-01    0.2726700930E-01    0.6951358082E+00    0.1786723183E+00    0.8147538267E-03
    0.7000000000E+05    0.1300823922E-01    0.2781743094E-01    0.6951574264E+00    0.1976090350E+00    0.8301375680E-03
    0.9000000000E+05    0.1290390884E-01    0.2771997273E-01    0.6951665185E+00    0.2106372352E+00    0.8418128055E-03
    0.1100000000E+06    0.1268762895E-01    0.2736200057E-01    0.6951704276E+00    0.2203159280E+00    0.8512511336E-03
    0.1300000000E+06    0.1242950855E-01    0.2689737050E-01    0.6951718218E+00    0.2278817190E+00    0.8591879358E-03
    0.1500000000E+06    0.1215982587E-01    0.2639431595E-01    0.6951718736E+00    0.2340134364E+00    0.8660448803E-03
    0.1700000000E+06    0.1189237285E-01    0.2588508264E-01    0.6951711651E+00    0.2391185453E+00    0.8720867311E-03
    0.1900000000E+06    0.1163347655E-01    0.2538531939E-01    0.6951700113E+00    0.2434583669E+00    0.8774908621E-03
    0.2100000000E+06    0.1138587520E-01    0.2490251191E-01    0.6951685928E+00    0.2472092742E+00    0.8823820338E-03
    0.2300000000E+06    0.1115051742E-01    0.2443995312E-01    0.6951670187E+00    0.2504952350E+00    0.8868514008E-03
    0.2500000000E+06    0.1092744658E-01    0.2399872697E-01    0.6951653568E+00    0.2534063077E+00    0.8909676286E-03
    0.2700000000E+06    0.1071625399E-01    0.2357874550E-01    0.6951636503E+00    0.2560097327E+00    0.8947837554E-03
    0.2900000000E+06    0.1051631778E-01    0.2317930923E-01    0.6951619274E+00    0.2583568858E+00    0.8983416168E-03
    0.3100000000E+06    0.1032693093E-01    0.2279941707E-01    0.6951602066E+00    0.2604878021E+00    0.9016748043E-03
    0.3300000000E+06    0.1014736988E-01    0.2243793984E-01    0.6951585002E+00    0.2624342152E+00    0.9048107063E-03
    0.3500000000E+06    0.9976930693E-02    0.2209371758E-01    0.6951568162E+00    0.2642216546E+00    0.9077719519E-03
    0.3700000000E+06    0.9814947173E-02    0.2176561329E-01    0.6951551597E+00    0.2658709288E+00    0.9105774579E-03
    0.3900000000E+06    0.9660798816E-02    0.2145254151E-01    0.6951535340E+00    0.2673991957E+00    0.9132432014E-03
    0.4100000000E+06    0.9513913155E-02    0.2115348218E-01    0.6951519411E+00    0.2688207505E+00    0.9157828015E-03
    0.4300000000E+06    0.9373765005E-02    0.2086748592E-01    0.6951503818E+00    0.2701476141E+00    0.9182079630E-03
    0.4500000000E+06    0.9239874086E-02    0.2059367441E-01    0.6951488565E+00    0.2713899799E+00    0.9205288209E-03
    0.4700000000E+06    0.9111801897E-02    0.2033123797E-01    0.6951473650E+00    0.2725565583E+00    0.9227542099E-03
    0.4900000000E+06    0.8989148291E-02    0.2007943176E-01    0.6951459070E+00    0.2736548435E+00    0.9248918787E-03
    0.1000000000E+06    0.1280399568E-01    0.2756097195E-01    0.6951689009E+00    0.2157996361E+00    0.8467553896E-03
    0.3000000000E+06    0.1042035106E-01    0.2298698912E-01    0.6951610658E+00    0.2594472238E+00    0.9000344569E-03
    0.5000000000E+06    0.8929738059E-02    0.1995729883E-01    0.6951451903E+00    0.2741804385E+00    0.9259299855E-03
    0.7000000000E+06    0.7952712749E-02    0.1793385234E-01    0.6951324019E+00    0.2823055771E+00    0.9433912687E-03
    0.9000000000E+06    0.7249931323E-02    0.1646143566E-01    0.6951219510E+00    0.2876532538E+00    0.9566472132E-03
    0.1100000000E+07    0.6712436889E-02    0.1532581051E-01    0.6951131513E+00    0.2915207263E+00    0.9673652090E-03
    0.1300000000E+07    0.6283591935E-02    0.1441373275E-01    0.6951055581E+00    0.2944879464E+00    0.9763790685E-03
    0.1500000000E+07    0.5930738926E-02    0.1365917702E-01    0.6950988800E+00    0.2968589428E+00    0.9841671037E-03
    0.1700000000E+07    0.5633547818E-02    0.1302069959E-01    0.6950929185E+00    0.2988107238E+00    0.9910297318E-03
    0.1900000000E+07    0.5378605125E-02    0.1247077553E-01    0.6950875329E+00    0.3004543521E+00    0.9971682538E-03
    0.2100000000E+07    0.5156649230E-02    0.1199029531E-01    0.6950826200E+00    0.3018635467E+00    0.1002724282E-02
    0.2300000000E+07    0.4961047704E-02    0.1156550991E-01    0.6950781023E+00    0.3030894372E+00    0.1007801295E-02
    0.2500000000E+07    0.4786906753E-02    0.1118623293E-01    0.6950739196E+00    0.3041687605E+00    0.1012477252E-02
    0.2700000000E+07    0.4630524180E-02    0.1084473026E-01    0.6950700249E+00    0.3051286890E+00    0.1016812372E-02
    0.2900000000E+07    0.4489039378E-02    0.1053500637E-01    0.6950663801E+00    0.3059898155E+00    0.1020854159E-02
    0.3100000000E+07    0.4360201527E-02    0.1025232983E-01    0.6950629545E+00    0.3067680711E+00    0.1024640757E-02
    0.3300000000E+07    0.4242211497E-02    0.9992908415E-02    0.6950597226E+00    0.3074760018E+00    0.1028203268E-02
    0.3500000000E+07    0.4133611226E-02    0.9753661127E-02    0.6950566632E+00    0.3081236411E+00    0.1031567393E-02
    0.3700000000E+07    0.4033204574E-02    0.9532054568E-02    0.6950537584E+00    0.3087191230E+00    0.1034754613E-02
    0.3900000000E+07    0.3939999576E-02    0.9325983239E-02    0.6950509930E+00    0.3092691209E+00    0.1037783075E-02
    0.4100000000E+07    0.3853165566E-02    0.9133680429E-02    0.6950483538E+00    0.3097791688E+00    0.1040668246E-02
    0.4300000000E+07    0.3772000833E-02    0.8953650865E-02    0.6950458296E+00    0.3102539002E+00    0.1043423421E-02
    0.4500000000E+07    0.3695907892E-02    0.8784619080E-02    0.6950434106E+00    0.3106972282E+00    0.1046060111E-02
    0.4700000000E+07    0.3624374323E-02    0.8625489336E-02    0.6950410880E+00    0.3111124835E+00    0.1048588351E-02
    0.4900000000E+07    0.3556957755E-02    0.8475314165E-02    0.6950388544E+00    0.3115025215E+00    0.1051016941E-02
    0.1000000000E+07    0.6964833222E-02    0.1586010986E-01    0.6951173771E+00    0.2897264705E+00    0.9622597490E-03
    0.3000000000E+07    0.4423161134E-02    0.1039054316E-01    0.6950646416E+00    0.3063884504E+00    0.1022777269E-02
    0.5000000000E+07    0.3524671283E-02    0.8403322751E-02    0.6950377688E+00    0.3116888674E+00    0.1052196330E-02
    0.7000000000E+07    0.3023781207E-02    0.7280252914E-02    0.6950194321E+00    0.3145443487E+00    0.1072034258E-02
    0.9000000000E+07    0.2692516515E-02    0.6530570417E-02    0.6950054340E+00    0.3163986160E+00    0.1087094674E-02
    0.1100000000E+08    0.2452268160E-02    0.5983004393E-02    0.6949940792E+00    0.3177278858E+00    0.1099271740E-02
    0.1300000000E+08    0.2267593461E-02    0.5559684898E-02    0.6949845094E+00    0.3187414341E+00    0.1109512714E-02
    0.1500000000E+08    0.2119820440E-02    0.5219321886E-02    0.6949762286E+00    0.3195476197E+00    0.1118360999E-02
    0.1700000000E+08    0.1998042839E-02    0.4937669736E-02    0.6949689236E+00    0.3202089366E+00    0.1126157898E-02
    0.1900000000E+08    0.1895401706E-02    0.4699411652E-02    0.6949623837E+00    0.3207643050E+00    0.1133132112E-02
    0.2100000000E+08    0.1807336312E-02    0.4494323141E-02    0.6949564603E+00    0.3212394022E+00    0.1139444531E-02
    0.2300000000E+08    0.1730678999E-02    0.4315278190E-02    0.6949510445E+00    0.3216519488E+00    0.1145212721E-02
    0.2500000000E+08    0.1663151158E-02    0.4157134883E-02    0.6949460542E+00    0.3220146233E+00    0.1150525252E-02
    0.2700000000E+08    0.1603065737E-02    0.4016075504E-02    0.6949414258E+00    0.3223367701E+00    0.1155450542E-02
