  Pressure (Pa) 22mC5-500 (mol/kg) 23mC5-500 (mol/kg) 24mC5-500 (mol/kg) 2mC6-500 (mol/kg) C7-500 (mol/kg)
    0.1000000000E+01    0.2256086722E-05    0.4535340236E-05    0.1266298619E+00    0.1464236885E-04    0.4182530884E-02
    0.3000000000E+01    0.4661620726E-05    0.9344517169E-05    0.2785124887E+00    0.2885816261E-04    0.4218088947E-02
    0.5000000000E+01    0.5877836569E-05    0.1176004086E-04    0.3664102856E+00    0.3545540755E-04    0.4236562672E-02
    0.7000000000E+01    0.6589786962E-05    0.1316717027E-04    0.4237226368E+00    0.3925537444E-04    0.4248477820E-02
    0.9000000000E+01    0.7054002172E-05    0.1408238932E-04    0.4640483103E+00    0.4189573972E-04    0.4256872545E-02
    0.1100000000E+02    0.7384720757E-05    0.1473464233E-04    0.4939648579E+00    0.4403123819E-04    0.4263125741E-02
    0.1300000000E+02    0.7638922602E-05    0.1523755825E-04    0.5170420453E+00    0.4595094532E-04    0.4267970431E-02
    0.1500000000E+02    0.7847404751E-05    0.1565222407E-04    0.5353847424E+00    0.4779051281E-04    0.4271835711E-02
    0.1700000000E+02    0.8027833576E-05    0.1601347686E-04    0.5503144391E+00    0.4961560809E-04    0.4274990555E-02
    0.1900000000E+02    0.8190813288E-05    0.1634209230E-04    0.5627026708E+00    0.5145803349E-04    0.4277612584E-02
    0.2100000000E+02    0.8342936038E-05    0.1665089196E-04    0.5731475051E+00    0.5333252770E-04    0.4279824042E-02
    0.2300000000E+02    0.8488412481E-05    0.1694799772E-04    0.5820730012E+00    0.5524502075E-04    0.4281711940E-02
    0.2500000000E+02    0.8629988247E-05    0.1723865474E-04    0.5897882049E+00    0.5719686180E-04    0.4283339977E-02
    0.2700000000E+02    0.8769480820E-05    0.1752629553E-04    0.5965236656E+00    0.5918705149E-04    0.4284755904E-02
    0.2900000000E+02    0.8908105167E-05    0.1781318292E-04    0.6024548710E+00    0.6121344499E-04    0.4285996257E-02
    0.3100000000E+02    0.9046677144E-05    0.1810081004E-04    0.6077177586E+00    0.6327340701E-04    0.4287089491E-02
    0.3300000000E+02    0.9185743791E-05    0.1839015547E-04    0.6124192642E+00    0.6536416750E-04    0.4288058112E-02
    0.3500000000E+02    0.9325668625E-05    0.1868184942E-04    0.6166446641E+00    0.6748301119E-04    0.4288920168E-02
    0.3700000000E+02    0.9466688537E-05    0.1897628412E-04    0.6204627949E+00    0.6962737362E-04    0.4289690311E-02
    0.3900000000E+02    0.9608952346E-05    0.1927368812E-04    0.6239298330E+00    0.7179488446E-04    0.4290380565E-02
    0.4100000000E+02    0.9752547311E-05    0.1957417713E-04    0.6270920772E+00    0.7398338145E-04    0.4291000897E-02
    0.4300000000E+02    0.9897517567E-05    0.1987778914E-04    0.6299880283E+00    0.7619090807E-04    0.4291559642E-02
    0.4500000000E+02    0.1004387708E-04    0.2018450888E-04    0.6326499646E+00    0.7841570288E-04    0.4292063828E-02
    0.4700000000E+02    0.1019161883E-04    0.2049428502E-04    0.6351051501E+00    0.8065618473E-04    0.4292519424E-02
    0.4900000000E+02    0.1034072136E-04    0.2080704236E-04    0.6373767719E+00    0.8291093670E-04    0.4292931538E-02
    0.1000000000E+02    0.7231641729E-05    0.1443258559E-04    0.4800384374E+00    0.4300340741E-04    0.4260211363E-02
    0.3000000000E+02    0.8977358382E-05    0.1795683308E-04    0.6051625898E+00    0.6223940272E-04    0.4286559738E-02
    0.5000000000E+02    0.1041577345E-04    0.2096451113E-04    0.6384500617E+00    0.8404326209E-04    0.4293122686E-02
    0.7000000000E+02    0.1197859559E-04    0.2424589775E-04    0.6538651432E+00    0.1071945886E-03    0.4295465309E-02
    0.9000000000E+02    0.1363192781E-04    0.2771696129E-04    0.6627553484E+00    0.1309265997E-03    0.4296138156E-02
    0.1100000000E+03    0.1534673016E-04    0.3131458169E-04    0.6685397836E+00    0.1549642311E-03    0.4295955313E-02
    0.1300000000E+03    0.1710586527E-04    0.3500261733E-04    0.6726039014E+00    0.1791999630E-03    0.4295263950E-02
    0.1500000000E+03    0.1889922965E-04    0.3876011486E-04    0.6756157769E+00    0.2035905576E-03    0.4294239340E-02
    0.1700000000E+03    0.2072068174E-04    0.4257449772E-04    0.6779372084E+00    0.2281201457E-03    0.4292980422E-02
    0.1900000000E+03    0.2256638157E-04    0.4643799196E-04    0.6797811849E+00    0.2527853661E-03    0.4291547659E-02
    0.2100000000E+03    0.2443388155E-04    0.5034570052E-04    0.6812812599E+00    0.2775888155E-03    0.4289980268E-02
    0.2300000000E+03    0.2632160921E-04    0.5429451986E-04    0.6825254255E+00    0.3025359599E-03    0.4288304875E-02
    0.2500000000E+03    0.2822856095E-04    0.5828250398E-04    0.6835740146E+00    0.3276336099E-03    0.4286540230E-02
    0.2700000000E+03    0.3015411399E-04    0.6230847663E-04    0.6844697768E+00    0.3528891436E-03    0.4284699931E-02
    0.2900000000E+03    0.3209790714E-04    0.6637178702E-04    0.6852438489E+00    0.3783101068E-03    0.4282794076E-02
    0.3100000000E+03    0.3405976302E-04    0.7047215127E-04    0.6859194475E+00    0.4039040090E-03    0.4280830319E-02
    0.3300000000E+03    0.3603963607E-04    0.7460954711E-04    0.6865142367E+00    0.4296782244E-03    0.4278814549E-02
    0.3500000000E+03    0.3803757705E-04    0.7878414229E-04    0.6870418943E+00    0.4556399496E-03    0.4276751365E-02
    0.3700000000E+03    0.4005370842E-04    0.8299624508E-04    0.6875131761E+00    0.4817961920E-03    0.4274644394E-02
    0.3900000000E+03    0.4208820681E-04    0.8724626947E-04    0.6879366570E+00    0.5081537749E-03    0.4272496522E-02
    0.4100000000E+03    0.4414129058E-04    0.9153471033E-04    0.6883192566E+00    0.5347193512E-03    0.4270310060E-02
    0.4300000000E+03    0.4621321075E-04    0.9586212555E-04    0.6886666208E+00    0.5614994208E-03    0.4268086869E-02
    0.4500000000E+03    0.4830424433E-04    0.1002291230E-03    0.6889834013E+00    0.5885003500E-03    0.4265828446E-02
    0.4700000000E+03    0.5041468947E-04    0.1046363509E-03    0.6892734658E+00    0.6157283905E-03    0.4263536001E-02
    0.4900000000E+03    0.5254486178E-04    0.1090844910E-03    0.6895400562E+00    0.6431896976E-03    0.4261210506E-02
    0.1000000000E+03    0.1448293071E-04    0.2950267880E-04    0.6659243383E+00    0.1429161390E-03    0.4296126124E-02
    0.3000000000E+03    0.3307658270E-04    0.6841734396E-04    0.6855927446E+00    0.3910849757E-03    0.4281819032E-02
    0.5000000000E+03    0.5361744834E-04    0.1113241240E-03    0.6896654212E+00    0.6570097277E-03    0.4260035614E-02
    0.7000000000E+03    0.7619227168E-04    0.1584510061E-03    0.6914249798E+00    0.9471219893E-03    0.4234917114E-02
    0.9000000000E+03    0.1011854845E-03    0.2106128511E-03    0.6924059512E+00    0.1267453603E-02    0.4206719234E-02
    0.1100000000E+04    0.1290685896E-03    0.2687985677E-03    0.6930313547E+00    0.1624446988E-02    0.4175166718E-02
    0.1300000000E+04    0.1604114785E-03    0.3341998836E-03    0.6934647710E+00    0.2025601839E-02    0.4139763241E-02
    0.1500000000E+04    0.1959140654E-03    0.4082788603E-03    0.6937827898E+00    0.2480012295E-02    0.4099836230E-02
    0.1700000000E+04    0.2364493005E-03    0.4928582351E-03    0.6940260486E+00    0.2998967174E-02    0.4054520483E-02
    0.1900000000E+04    0.2831207213E-03    0.5902418126E-03    0.6942181118E+00    0.3596712735E-02    0.4002713512E-02
    0.2100000000E+04    0.3373405124E-03    0.7033775577E-03    0.6943735840E+00    0.4291472033E-02    0.3943006989E-02
    0.2300000000E+04    0.4009363905E-03    0.8360808384E-03    0.6945019985E+00    0.5106835086E-02    0.3873590625E-02
    0.2500000000E+04    0.4762982943E-03    0.9933407811E-03    0.6946098425E+00    0.6073666089E-02    0.3792121388E-02
    0.2700000000E+04    0.5665781168E-03    0.1181737432E-02    0.6947016836E+00    0.7232703803E-02    0.3695550005E-02
    0.2900000000E+04    0.6759548240E-03    0.1409995568E-02    0.6947808309E+00    0.8638022660E-02    0.3579900841E-02
    0.3100000000E+04    0.8099653297E-03    0.1689676086E-02    0.6948497402E+00    0.1036137360E-01    0.3440019014E-02
    0.3300000000E+04    0.9758581458E-03    0.2035915466E-02    0.6949102726E+00    0.1249687434E-01    0.3269350940E-02
    0.3500000000E+04    0.1182805588E-02    0.2467870916E-02    0.6949638641E+00    0.1516396801E-01    0.3059955993E-02
    0.3700000000E+04    0.1441524852E-02    0.3007932954E-02    0.6950116404E+00    0.1850289403E-01    0.2803231296E-02
    0.3900000000E+04    0.1762328856E-02    0.3677661726E-02    0.6950544966E+00    0.2265004638E-01    0.2492304017E-02
    0.4100000000E+04    0.2150111652E-02    0.4487324217E-02    0.6950931528E+00    0.2767375000E-01    0.2127347845E-02
    0.4300000000E+04    0.2595767339E-02    0.5417980233E-02    0.6951281955E+00    0.3346336660E-01    0.1723648702E-02
    0.4500000000E+04    0.3068788440E-02    0.6406014184E-02    0.6951601069E+00    0.3963197545E-01    0.1316796993E-02
    0.4700000000E+04    0.3522527180E-02    0.7354084071E-02    0.6951892872E+00    0.4558087457E-01    0.9540430000E-03
    0.4900000000E+04    0.3915936567E-02    0.8176482832E-02    0.6952160709E+00    0.5077794834E-01    0.6711638681E-03
    0.1000000000E+04    0.1147328055E-03    0.2388836828E-03    0.6927498214E+00    0.1440929895E-02    0.4191389127E-02
    0.3000000000E+04    0.7394717858E-03    0.1542553859E-02    0.6948164373E+00    0.9454637680E-02    0.3513364069E-02
    0.5000000000E+04    0.4083917716E-02    0.8527802770E-02    0.6952286541E+00    0.5301388550E-01    0.5631598532E-03
    0.7000000000E+04    0.5610221304E-02    0.1173138167E-01    0.6954043477E+00    0.7450554200E-01    0.1909998268E-03
    0.9000000000E+04    0.6523996290E-02    0.1366049510E-01    0.6955013580E+00    0.8854948120E-01    0.1925715263E-03
    0.1100000000E+05    0.7263253151E-02    0.1522783881E-01    0.6955626941E+00    0.1006388334E+00    0.1947358503E-03
    0.1300000000E+05    0.7868506537E-02    0.1651686744E-01    0.6956048747E+00    0.1111842440E+00    0.1965581155E-03
    0.1500000000E+05    0.8368285348E-02    0.1758638729E-01    0.6956355955E+00    0.1204771890E+00    0.1981318053E-03
    0.1700000000E+05    0.8783850031E-02    0.1848027796E-01    0.6956589238E+00    0.1287391327E+00    0.1995180035E-03
    0.1900000000E+05    0.9131337289E-02    0.1923188763E-01    0.6956772098E+00    0.1361414992E+00    0.2007575994E-03
    0.2100000000E+05    0.9423190753E-02    0.1986696669E-01    0.6956919055E+00    0.1428191251E+00    0.2018793290E-03
    0.2300000000E+05    0.9669141540E-02    0.2040567984E-01    0.6957039561E+00    0.1488795841E+00    0.2029041736E-03
    0.2500000000E+05    0.9876894924E-02    0.2086401611E-01    0.6957140030E+00    0.1544097899E+00    0.2038479297E-03
    0.2700000000E+05    0.1005262046E-01    0.2125479600E-01    0.6957224967E+00    0.1594807634E+00    0.2047227932E-03
    0.2900000000E+05    0.1020130786E-01    0.2158840326E-01    0.6957297626E+00    0.1641511338E+00    0.2055383806E-03
    0.3100000000E+05    0.1032702936E-01    0.2187332491E-01    0.6957360418E+00    0.1684697501E+00    0.2063024109E-03
    0.3300000000E+05    0.1043313594E-01    0.2211655527E-01    0.6957415164E+00    0.1724776562E+00    0.2070211760E-03
    0.3500000000E+05    0.1052240583E-01    0.2232390211E-01    0.6957463266E+00    0.1762096040E+00    0.2076998733E-03
    0.3700000000E+05    0.1059715831E-01    0.2250022133E-01    0.6957505822E+00    0.1796952263E+00    0.2083428465E-03
    0.3900000000E+05    0.1065934174E-01    0.2264959882E-01    0.6957543700E+00    0.1829599551E+00    0.2089537640E-03
    0.4100000000E+05    0.1071060249E-01    0.2277549271E-01    0.6957577601E+00    0.1860257489E+00    0.2095357520E-03
    0.4300000000E+05    0.1075233918E-01    0.2288084564E-01    0.6957608090E+00    0.1889116721E+00    0.2100914970E-03
    0.4500000000E+05    0.1078574591E-01    0.2296817419E-01    0.6957635634E+00    0.1916343624E+00    0.2106233249E-03
    0.4700000000E+05    0.1081184685E-01    0.2303964055E-01    0.6957660618E+00    0.1942084095E+00    0.2111332629E-03
    0.4900000000E+05    0.1083152422E-01    0.2309711053E-01    0.6957683364E+00    0.1966466647E+00    0.2116230890E-03
    0.1000000000E+05    0.6912522682E-02    0.1448337985E-01    0.6955351427E+00    0.9480885105E-01    0.1937034593E-03
    0.3000000000E+05    0.1026681494E-01    0.2173648165E-01    0.6957330130E+00    0.1663516827E+00    0.2059264182E-03
    0.5000000000E+05    0.1083919661E-01    0.2312111065E-01    0.6957693983E+00    0.1978184748E+00    0.2118609573E-03
    0.7000000000E+05    0.1079479883E-01    0.2316268980E-01    0.6957836445E+00    0.2162968891E+00    0.2158616717E-03
    0.9000000000E+05    0.1056875825E-01    0.2278852207E-01    0.6957908030E+00    0.2287645493E+00    0.2188985805E-03
    0.1100000000E+06    0.1028909432E-01    0.2227800406E-01    0.6957948717E+00    0.2378928266E+00    0.2213539387E-03
    0.1300000000E+06    0.1000078839E-01    0.2173253360E-01    0.6957973482E+00    0.2449451656E+00    0.2234188501E-03
    0.1500000000E+06    0.9720845818E-02    0.2119238797E-01    0.6957989125E+00    0.2506046637E+00    0.2252029232E-03
    0.1700000000E+06    0.9455537255E-02    0.2067382280E-01    0.6957999146E+00    0.2552765835E+00    0.2267749936E-03
    0.1900000000E+06    0.9206691415E-02    0.2018282825E-01    0.6958005514E+00    0.2592183700E+00    0.2281811827E-03
    0.2100000000E+06    0.8974240741E-02    0.1972080100E-01    0.6958009411E+00    0.2626023819E+00    0.2294539347E-03
    0.2300000000E+06    0.8757325040E-02    0.1928706261E-01    0.6958011586E+00    0.2655489136E+00    0.2306169563E-03
    0.2500000000E+06    0.8554790831E-02    0.1888003546E-01    0.6958012530E+00    0.2681448058E+00    0.2316881067E-03
    0.2700000000E+06    0.8365421190E-02    0.1849780835E-01    0.6958012580E+00    0.2704545271E+00    0.2326811814E-03
    0.2900000000E+06    0.8188039938E-02    0.1813841092E-01    0.6958011969E+00    0.2725270775E+00    0.2336070626E-03
    0.3100000000E+06    0.8021555580E-02    0.1779994403E-01    0.6958010864E+00    0.2744004558E+00    0.2344744884E-03
    0.3300000000E+06    0.7864976028E-02    0.1748063741E-01    0.6958009389E+00    0.2761046449E+00    0.2352905834E-03
    0.3500000000E+06    0.7717409298E-02    0.1717887019E-01    0.6958007635E+00    0.2776636634E+00    0.2360612345E-03
    0.3700000000E+06    0.7578057779E-02    0.1689317283E-01    0.6958005668E+00    0.2790970097E+00    0.2367913629E-03
    0.3900000000E+06    0.7446209915E-02    0.1662221983E-01    0.6958003542E+00    0.2804207003E+00    0.2374851252E-03
    0.4100000000E+06    0.7321231199E-02    0.1636481858E-01    0.6958001296E+00    0.2816480313E+00    0.2381460646E-03
    0.4300000000E+06    0.7202555422E-02    0.1611989682E-01    0.6957998961E+00    0.2827901448E+00    0.2387772264E-03
    0.4500000000E+06    0.7089676596E-02    0.1588649012E-01    0.6957996562E+00    0.2838564582E+00    0.2393812473E-03
    0.4700000000E+06    0.6982141692E-02    0.1566373017E-01    0.6957994118E+00    0.2848549933E+00    0.2399604259E-03
    0.4900000000E+06    0.6879544221E-02    0.1545083404E-01    0.6957991643E+00    0.2857926310E+00    0.2405167784E-03
    0.1000000000E+06    0.1043182112E-01    0.2254180724E-01    0.6957931010E+00    0.2336479278E+00    0.2201843517E-03
    0.3000000000E+06    0.8103500035E-02    0.1796667518E-01    0.6958011470E+00    0.2734866290E+00    0.2340476044E-03
    0.5000000000E+06    0.6829981323E-02    0.1534786118E-01    0.6957990399E+00    0.2862405020E+00    0.2407869588E-03
    0.7000000000E+06    0.6026225300E-02    0.1366654204E-01    0.6957965814E+00    0.2930926344E+00    0.2453316011E-03
    0.9000000000E+06    0.5459761780E-02    0.1246864928E-01    0.6957943457E+00    0.2975264186E+00    0.2487818647E-03
    0.1100000000E+07    0.5032276738E-02    0.1155738617E-01    0.6957923641E+00    0.3006937055E+00    0.2515716324E-03
    0.1300000000E+07    0.4694478603E-02    0.1083272380E-01    0.6957906019E+00    0.3031007781E+00    0.2539178876E-03
    0.1500000000E+07    0.4418586435E-02    0.1023774593E-01    0.6957890209E+00    0.3050095906E+00    0.2559451062E-03
    0.1700000000E+07    0.4187583588E-02    0.9737334027E-02    0.6957875897E+00    0.3065710472E+00    0.2577314708E-03
    0.1900000000E+07    0.3990379864E-02    0.9308464286E-02    0.6957862830E+00    0.3078789998E+00    0.2593293704E-03
    0.2100000000E+07    0.3819392223E-02    0.8935315180E-02    0.6957850814E+00    0.3089952770E+00    0.2607756607E-03
    0.2300000000E+07    0.3669233613E-02    0.8606598453E-02    0.6957839692E+00    0.3099624828E+00    0.2620972733E-03
    0.2500000000E+07    0.3535955808E-02    0.8314009404E-02    0.6957829342E+00    0.3108110539E+00    0.2633144978E-03
    0.2700000000E+07    0.3416589085E-02    0.8051280364E-02    0.6957819661E+00    0.3115633891E+00    0.2644430076E-03
    0.2900000000E+07    0.3308850255E-02    0.7813577860E-02    0.6957810569E+00    0.3122363859E+00    0.2654951663E-03
    0.3100000000E+07    0.3210950711E-02    0.7597104896E-02    0.6957801996E+00    0.3128430636E+00    0.2664809022E-03
    0.3300000000E+07    0.3121466356E-02    0.7398830547E-02    0.6957793886E+00    0.3133936364E+00    0.2674083102E-03
    0.3500000000E+07    0.3039247097E-02    0.7216301262E-02    0.6957786190E+00    0.3138962455E+00    0.2682840791E-03
    0.3700000000E+07    0.2963352422E-02    0.7047506183E-02    0.6957778869E+00    0.3143574698E+00    0.2691138008E-03
    0.3900000000E+07    0.2893004594E-02    0.6890779060E-02    0.6957771885E+00    0.3147826916E+00    0.2699021982E-03
    0.4100000000E+07    0.2827554051E-02    0.6744725558E-02    0.6957765209E+00    0.3151763621E+00    0.2706532971E-03
    0.4300000000E+07    0.2766453391E-02    0.6608168510E-02    0.6957758815E+00    0.3155421986E+00    0.2713705581E-03
    0.4500000000E+07    0.2709237557E-02    0.6480106108E-02    0.6957752679E+00    0.3158833335E+00    0.2720569771E-03
    0.4700000000E+07    0.2655508524E-02    0.6359679545E-02    0.6957746780E+00    0.3162024271E+00    0.2727151662E-03
    0.4900000000E+07    0.2604923337E-02    0.6246147699E-02    0.6957741101E+00    0.3165017551E+00    0.2733474163E-03
    0.1000000000E+07    0.5232426900E-02    0.1198483604E-01    0.6957933250E+00    0.2992284570E+00    0.2502427325E-03
    0.3000000000E+07    0.3258766908E-02    0.7702892544E-02    0.6957806221E+00    0.3125473204E+00    0.2659957939E-03
    0.5000000000E+07    0.2580715204E-02    0.6191762853E-02    0.6957738338E+00    0.3166446304E+00    0.2736544550E-03
    0.7000000000E+07    0.2206587146E-02    0.5346668458E-02    0.6957691497E+00    0.3188232338E+00    0.2788191098E-03
    0.9000000000E+07    0.1960600131E-02    0.4785895932E-02    0.6957655555E+00    0.3202271207E+00    0.2827401075E-03
    0.1100000000E+08    0.1782895582E-02    0.4377938405E-02    0.6957626314E+00    0.3212282672E+00    0.2859105046E-03
    0.1300000000E+08    0.1646686756E-02    0.4063465448E-02    0.6957601622E+00    0.3219886751E+00    0.2885768817E-03
    0.1500000000E+08    0.1537935154E-02    0.3811185738E-02    0.6957580226E+00    0.3225916881E+00    0.2908806950E-03
    0.1700000000E+08    0.1448472904E-02    0.3602798655E-02    0.6957561333E+00    0.3230851371E+00    0.2929107930E-03
    0.1900000000E+08    0.1373179017E-02    0.3426779615E-02    0.6957544405E+00    0.3234986933E+00    0.2947267122E-03
    0.2100000000E+08    0.1308656925E-02    0.3275455382E-02    0.6957529063E+00    0.3238518689E+00    0.2963703363E-03
    0.2300000000E+08    0.1252552483E-02    0.3143489579E-02    0.6957515029E+00    0.3241580926E+00    0.2978722716E-03
    0.2500000000E+08    0.1203175299E-02    0.3027038710E-02    0.6957502093E+00    0.3244269498E+00    0.2992555759E-03
    0.2700000000E+08    0.1159275765E-02    0.2923253637E-02    0.6957490090E+00    0.3246654904E+00    0.3005380609E-03
