  Pressure (Pa) 22mC5-500 (mol/kg) 23mC5-500 (mol/kg) 24mC5-500 (mol/kg) 2mC6-500 (mol/kg) C7-500 (mol/kg)
    0.1000000000E+01    0.2158174363E-05    0.2478922800E-05    0.1514011082E+00    0.2243183699E-04    0.4168678934E-02
    0.3000000000E+01    0.4210063077E-05    0.4820665374E-05    0.3164825267E+00    0.4166584704E-04    0.4194574807E-02
    0.5000000000E+01    0.5156485555E-05    0.5893263133E-05    0.4047497619E+00    0.4998355579E-04    0.4205284672E-02
    0.7000000000E+01    0.5691118883E-05    0.6497058951E-05    0.4596990424E+00    0.5494661298E-04    0.4211542759E-02
    0.9000000000E+01    0.6041636067E-05    0.6893243215E-05    0.4972006310E+00    0.5873422133E-04    0.4215653225E-02
    0.1100000000E+02    0.6300586426E-05    0.7187341223E-05    0.5244263936E+00    0.6210997709E-04    0.4218535655E-02
    0.1300000000E+02    0.6510949680E-05    0.7428030230E-05    0.5450911147E+00    0.6537105471E-04    0.4220643424E-02
    0.1500000000E+02    0.6694579981E-05    0.7639876394E-05    0.5613115361E+00    0.6863840838E-04    0.4222228797E-02
    0.1700000000E+02    0.6863331562E-05    0.7836091670E-05    0.5743822442E+00    0.7196033136E-04    0.4223444157E-02
    0.1900000000E+02    0.7023943300E-05    0.8024112394E-05    0.5851395098E+00    0.7535354880E-04    0.4224387310E-02
    0.2100000000E+02    0.7180377460E-05    0.8208259129E-05    0.5941476195E+00    0.7882079002E-04    0.4225124056E-02
    0.2300000000E+02    0.7335017676E-05    0.8391093030E-05    0.6018011361E+00    0.8235870062E-04    0.4225700363E-02
    0.2500000000E+02    0.7489316596E-05    0.8574145599E-05    0.6083842481E+00    0.8596151932E-04    0.4226149358E-02
    0.2700000000E+02    0.7644161710E-05    0.8758328751E-05    0.6141068425E+00    0.8962280530E-04    0.4226495540E-02
    0.2900000000E+02    0.7800089596E-05    0.8944173614E-05    0.6191272983E+00    0.9333623649E-04    0.4226757435E-02
    0.3100000000E+02    0.7957415221E-05    0.9131973747E-05    0.6235673738E+00    0.9709595546E-04    0.4226949323E-02
    0.3300000000E+02    0.8116311948E-05    0.9321873151E-05    0.6275222130E+00    0.1008966936E-03    0.4227082390E-02
    0.3500000000E+02    0.8276862087E-05    0.9513921439E-05    0.6310672404E+00    0.1047337879E-03    0.4227165533E-02
    0.3700000000E+02    0.8439089385E-05    0.9708108983E-05    0.6342630185E+00    0.1086031482E-03    0.4227205919E-02
    0.3900000000E+02    0.8602980189E-05    0.9904389573E-05    0.6371587364E+00    0.1125012043E-03    0.4227209386E-02
    0.4100000000E+02    0.8768497389E-05    0.1010269516E-04    0.6397947602E+00    0.1164248468E-03    0.4227180741E-02
    0.4300000000E+02    0.8935589661E-05    0.1030294550E-04    0.6422045260E+00    0.1203713696E-03    0.4227123979E-02
    0.4500000000E+02    0.9104197624E-05    0.1050505444E-04    0.6444159662E+00    0.1243384176E-03    0.4227042450E-02
    0.4700000000E+02    0.9274257940E-05    0.1070893404E-04    0.6464525970E+00    0.1283239387E-03    0.4226938982E-02
    0.4900000000E+02    0.9445706036E-05    0.1091449722E-04    0.6483343580E+00    0.1323261431E-03    0.4226815981E-02
    0.1000000000E+02    0.6179172631E-05    0.7049212305E-05    0.5118145887E+00    0.6044890981E-04    0.4217213050E-02
    0.3000000000E+02    0.7878564239E-05    0.9037817535E-05    0.6214134061E+00    0.9521065363E-04    0.4226861369E-02
    0.5000000000E+02    0.9531930436E-05    0.1101788358E-04    0.6492225797E+00    0.1343330050E-03    0.4226747811E-02
    0.7000000000E+02    0.1131503504E-04    0.1315566751E-04    0.6619185401E+00    0.1750575108E-03    0.4224731707E-02
    0.9000000000E+02    0.1318117612E-04    0.1539142234E-04    0.6691890348E+00    0.2164946973E-03    0.4221994373E-02
    0.1100000000E+03    0.1510461478E-04    0.1769402352E-04    0.6738995473E+00    0.2583904397E-03    0.4218894809E-02
    0.1300000000E+03    0.1707217467E-04    0.2004789762E-04    0.6771997375E+00    0.3006741679E-03    0.4215579265E-02
    0.1500000000E+03    0.1907687909E-04    0.2244493931E-04    0.6796404978E+00    0.3433372851E-03    0.4212118055E-02
    0.1700000000E+03    0.2111495464E-04    0.2488084222E-04    0.6815188589E+00    0.3863940630E-03    0.4208548729E-02
    0.1900000000E+03    0.2318438711E-04    0.2735336233E-04    0.6830091147E+00    0.4298673646E-03    0.4204892787E-02
    0.2100000000E+03    0.2528418288E-04    0.2986144067E-04    0.6842202817E+00    0.4737830061E-03    0.4201163116E-02
    0.2300000000E+03    0.2741396918E-04    0.3240473281E-04    0.6852240427E+00    0.5181674517E-03    0.4197367644E-02
    0.2500000000E+03    0.2957376691E-04    0.3498334380E-04    0.6860694683E+00    0.5630468898E-03    0.4193511289E-02
    0.2700000000E+03    0.3176385619E-04    0.3759767227E-04    0.6867912809E+00    0.6084469065E-03    0.4189597050E-02
    0.2900000000E+03    0.3398469397E-04    0.4024831582E-04    0.6874147422E+00    0.6543924247E-03    0.4185626664E-02
    0.3100000000E+03    0.3623686224E-04    0.4293601182E-04    0.6879586695E+00    0.7009077559E-03    0.4181601004E-02
    0.3300000000E+03    0.3852103471E-04    0.4566159962E-04    0.6884373676E+00    0.7480166998E-03    0.4177520338E-02
    0.3500000000E+03    0.4083795495E-04    0.4842599608E-04    0.6888619050E+00    0.7957426566E-03    0.4173384497E-02
    0.3700000000E+03    0.4318842202E-04    0.5123017949E-04    0.6892409801E+00    0.8441087399E-03    0.4169192988E-02
    0.3900000000E+03    0.4557328081E-04    0.5407517901E-04    0.6895815233E+00    0.8931378826E-03    0.4164945074E-02
    0.4100000000E+03    0.4799341569E-04    0.5696206779E-04    0.6898891246E+00    0.9428529346E-03    0.4160639825E-02
    0.4300000000E+03    0.5044974640E-04    0.5989195855E-04    0.6901683424E+00    0.9932767516E-03    0.4156276158E-02
    0.4500000000E+03    0.5294322532E-04    0.6286600084E-04    0.6904229314E+00    0.1044432275E-02    0.4151852866E-02
    0.4700000000E+03    0.5547483599E-04    0.6588537957E-04    0.6906560119E+00    0.1096342606E-02    0.4147368634E-02
    0.4900000000E+03    0.5804559229E-04    0.6895131433E-04    0.6908701986E+00    0.1149031072E-02    0.4142822059E-02
    0.1000000000E+03    0.1413675406E-04    0.1653557982E-04    0.6717716287E+00    0.2373918823E-03    0.4220478108E-02
    0.3000000000E+03    0.3510682154E-04    0.4158748186E-04    0.6876956652E+00    0.6775773655E-03    0.4183620715E-02
    0.5000000000E+03    0.5934597511E-04    0.7050213080E-04    0.6909709103E+00    0.1175674472E-02    0.4140524931E-02
    0.7000000000E+03    0.8768345418E-04    0.1042919582E-03    0.6923837788E+00    0.1755437993E-02    0.4090904428E-02
    0.9000000000E+03    0.1213722557E-03    0.1444567698E-03    0.6931709684E+00    0.2443882002E-02    0.4032887622E-02
    0.1100000000E+04    0.1621149516E-03    0.1930289329E-03    0.6936726789E+00    0.3276413019E-02    0.3963878858E-02
    0.1300000000E+04    0.2122932016E-03    0.2528495700E-03    0.6940203259E+00    0.4302176278E-02    0.3880292828E-02
    0.1500000000E+04    0.2753295677E-03    0.3280008363E-03    0.6942754002E+00    0.5591685923E-02    0.3777064862E-02
    0.1700000000E+04    0.3562565487E-03    0.4244850413E-03    0.6944705143E+00    0.7248660813E-02    0.3646894986E-02
    0.1900000000E+04    0.4626000624E-03    0.5512789789E-03    0.6946245734E+00    0.9428398302E-02    0.3479130960E-02
    0.2100000000E+04    0.6056522036E-03    0.7218532408E-03    0.6947492919E+00    0.1236437358E-01    0.3258309876E-02
    0.2300000000E+04    0.8018541518E-03    0.9558246603E-03    0.6948523155E+00    0.1639760802E-01    0.2963037747E-02
    0.2500000000E+04    0.1072473186E-02    0.1278577868E-02    0.6949388461E+00    0.2197192924E-01    0.2568299620E-02
    0.2700000000E+04    0.1435459239E-02    0.1711564547E-02    0.6950125461E+00    0.2946948092E-01    0.2060120445E-02
    0.2900000000E+04    0.1879980693E-02    0.2241940076E-02    0.6950760685E+00    0.3868801608E-01    0.1473065746E-02
    0.3100000000E+04    0.2339107336E-02    0.2789952205E-02    0.6951313823E+00    0.4826923189E-01    0.9191527839E-03
    0.3300000000E+04    0.2725206746E-02    0.3251088787E-02    0.6951799795E+00    0.5640877923E-01    0.5184833803E-03
    0.3500000000E+04    0.3007321313E-02    0.3588361461E-02    0.6952230113E+00    0.6245018780E-01    0.2917175318E-03
    0.3700000000E+04    0.3210590226E-02    0.3831687617E-02    0.6952613801E+00    0.6689308923E-01    0.1828292750E-03
    0.3900000000E+04    0.3368599657E-02    0.4021091620E-02    0.6952958035E+00    0.7042033029E-01    0.1348666830E-03
    0.4100000000E+04    0.3502961779E-02    0.4182338004E-02    0.6953268587E+00    0.7347400247E-01    0.1145663828E-03
    0.4300000000E+04    0.3624648758E-02    0.4328509100E-02    0.6953550160E+00    0.7627915255E-01    0.1061559575E-03
    0.4500000000E+04    0.3738769314E-02    0.4465695983E-02    0.6953806620E+00    0.7894053756E-01    0.1027544961E-03
    0.4700000000E+04    0.3847658508E-02    0.4596681807E-02    0.6954041172E+00    0.8150579594E-01    0.1014516489E-03
    0.4900000000E+04    0.3952410342E-02    0.4722769371E-02    0.6954256502E+00    0.8399693853E-01    0.1010274780E-03
    0.1000000000E+04    0.1407323847E-03    0.1675374504E-03    0.6934468397E+00    0.2839461006E-02    0.3999953459E-02
    0.3000000000E+04    0.2113758107E-02    0.2520942455E-02    0.6951046489E+00    0.4355701974E-01    0.1183006812E-02
    0.5000000000E+04    0.4003417514E-02    0.4784193625E-02    0.6954357680E+00    0.8521830442E-01    0.1009707862E-03
    0.7000000000E+04    0.4871413546E-02    0.5832624391E-02    0.6955771678E+00    0.1069595962E+00    0.1025532316E-03
    0.9000000000E+04    0.5516359809E-02    0.6616651938E-02    0.6956554048E+00    0.1246652611E+00    0.1040015515E-03
    0.1100000000E+05    0.6003601850E-02    0.7213186832E-02    0.6957049787E+00    0.1393898213E+00    0.1051716691E-03
    0.1300000000E+05    0.6376048718E-02    0.7672822394E-02    0.6957391469E+00    0.1518446247E+00    0.1061552029E-03
    0.1500000000E+05    0.6663007933E-02    0.8030181333E-02    0.6957640897E+00    0.1625297947E+00    0.1070046630E-03
    0.1700000000E+05    0.6885083314E-02    0.8309652843E-02    0.6957830751E+00    0.1718074266E+00    0.1077529822E-03
    0.1900000000E+05    0.7057117444E-02    0.8528842745E-02    0.6957979929E+00    0.1799462820E+00    0.1084222050E-03
    0.2100000000E+05    0.7190028102E-02    0.8700729011E-02    0.6958100114E+00    0.1871501468E+00    0.1090278270E-03
    0.2300000000E+05    0.7291992309E-02    0.8835053064E-02    0.6958198915E+00    0.1935764253E+00    0.1095811646E-03
    0.2500000000E+05    0.7369231518E-02    0.8939243443E-02    0.6958281500E+00    0.1993486830E+00    0.1100907385E-03
    0.2700000000E+05    0.7426545248E-02    0.9019044278E-02    0.6958351500E+00    0.2045653189E+00    0.1105631286E-03
    0.2900000000E+05    0.7467681682E-02    0.9078952277E-02    0.6958411542E+00    0.2093056949E+00    0.1110035231E-03
    0.3100000000E+05    0.7495600029E-02    0.9122526460E-02    0.6958463571E+00    0.2136345520E+00    0.1114160872E-03
    0.3300000000E+05    0.7512659472E-02    0.9152611502E-02    0.6958509058E+00    0.2176052489E+00    0.1118042162E-03
    0.3500000000E+05    0.7520757355E-02    0.9171501290E-02    0.6958549138E+00    0.2212621735E+00    0.1121707149E-03
    0.3700000000E+05    0.7521431661E-02    0.9181060373E-02    0.6958584697E+00    0.2246425638E+00    0.1125179277E-03
    0.3900000000E+05    0.7515937990E-02    0.9182815305E-02    0.6958616441E+00    0.2277779018E+00    0.1128478344E-03
    0.4100000000E+05    0.7505308026E-02    0.9178024131E-02    0.6958644936E+00    0.2306949921E+00    0.1131621223E-03
    0.4300000000E+05    0.7490394446E-02    0.9167729819E-02    0.6958670640E+00    0.2334168056E+00    0.1134622415E-03
    0.4500000000E+05    0.7471905724E-02    0.9152801738E-02    0.6958693933E+00    0.2359631467E+00    0.1137494475E-03
    0.4700000000E+05    0.7450433363E-02    0.9133968159E-02    0.6958715127E+00    0.2383511847E+00    0.1140248347E-03
    0.4900000000E+05    0.7426473370E-02    0.9111841918E-02    0.6958734483E+00    0.2405958817E+00    0.1142893627E-03
    0.1000000000E+05    0.5776616840E-02    0.6934730105E-02    0.6956826972E+00    0.1323496363E+00    0.1046143861E-03
    0.3000000000E+05    0.7483133428E-02    0.9102588719E-02    0.6958438457E+00    0.2115179932E+00    0.1112130561E-03
    0.5000000000E+05    0.7413693677E-02    0.9099709111E-02    0.6958743542E+00    0.2416686361E+00    0.1144178229E-03
    0.7000000000E+05    0.7100036036E-02    0.8774810926E-02    0.6958867015E+00    0.2580575454E+00    0.1165784615E-03
    0.9000000000E+05    0.6763767038E-02    0.8405864669E-02    0.6958931526E+00    0.2685337939E+00    0.1182186465E-03
    0.1100000000E+06    0.6450601825E-02    0.8054262682E-02    0.6958969950E+00    0.2758883289E+00    0.1195447754E-03
    0.1300000000E+06    0.6168761667E-02    0.7733516115E-02    0.6958994713E+00    0.2813773006E+00    0.1206600423E-03
    0.1500000000E+06    0.5917021845E-02    0.7444314439E-02    0.6959011512E+00    0.2856546665E+00    0.1216236376E-03
    0.1700000000E+06    0.5691912557E-02    0.7183843534E-02    0.6959023310E+00    0.2890965838E+00    0.1224727352E-03
    0.1900000000E+06    0.5489770475E-02    0.6948589891E-02    0.6959031790E+00    0.2919357788E+00    0.1232322428E-03
    0.2100000000E+06    0.5307309575E-02    0.6735209207E-02    0.6959037975E+00    0.2943244888E+00    0.1239196823E-03
    0.2300000000E+06    0.5141732967E-02    0.6540764519E-02    0.6959042521E+00    0.2963667822E+00    0.1245478569E-03
    0.2500000000E+06    0.4990703318E-02    0.6362752360E-02    0.6959045863E+00    0.2981363848E+00    0.1251264119E-03
    0.2700000000E+06    0.4852276568E-02    0.6199061285E-02    0.6959048301E+00    0.2996870924E+00    0.1256627981E-03
    0.2900000000E+06    0.4724833593E-02    0.6047914212E-02    0.6959050050E+00    0.3010591465E+00    0.1261628927E-03
    0.3100000000E+06    0.4607020271E-02    0.5907812519E-02    0.6959051264E+00    0.3022832943E+00    0.1266314150E-03
    0.3300000000E+06    0.4497697906E-02    0.5777487393E-02    0.6959052059E+00    0.3033834634E+00    0.1270722130E-03
    0.3500000000E+06    0.4395903215E-02    0.5655859307E-02    0.6959052521E+00    0.3043785738E+00    0.1274884662E-03
    0.3700000000E+06    0.4300816330E-02    0.5542004917E-02    0.6959052715E+00    0.3052837982E+00    0.1278828326E-03
    0.3900000000E+06    0.4211735256E-02    0.5435130206E-02    0.6959052695E+00    0.3061114564E+00    0.1282575571E-03
    0.4100000000E+06    0.4128055440E-02    0.5334548756E-02    0.6959052500E+00    0.3068716640E+00    0.1286145533E-03
    0.4300000000E+06    0.4049253368E-02    0.5239664114E-02    0.6959052162E+00    0.3075728102E+00    0.1289554661E-03
    0.4500000000E+06    0.3974873330E-02    0.5149955463E-02    0.6959051707E+00    0.3082219157E+00    0.1292817197E-03
    0.4700000000E+06    0.3904516675E-02    0.5064965898E-02    0.6959051157E+00    0.3088249042E+00    0.1295945554E-03
    0.4900000000E+06    0.3837833038E-02    0.4984292811E-02    0.6959050527E+00    0.3093868115E+00    0.1298950622E-03
    0.1000000000E+06    0.6603406945E-02    0.8226554031E-02    0.6958952985E+00    0.2725025262E+00    0.1189130833E-03
    0.3000000000E+06    0.4664798931E-02    0.5976566867E-02    0.6959050716E+00    0.3016880779E+00    0.1264008421E-03
    0.5000000000E+06    0.3805770519E-02    0.4945461994E-02    0.6959050187E+00    0.3096537314E+00    0.1300409968E-03
    0.7000000000E+06    0.3298468342E-02    0.4327355321E-02    0.6959041558E+00    0.3136158630E+00    0.1324957415E-03
    0.9000000000E+06    0.2953737021E-02    0.3903151507E-02    0.6959032065E+00    0.3160548116E+00    0.1343593810E-03
    0.1100000000E+07    0.2699736416E-02    0.3588265951E-02    0.6959023005E+00    0.3177351335E+00    0.1358662648E-03
    0.1300000000E+07    0.2502460622E-02    0.3342243158E-02    0.6959014624E+00    0.3189768801E+00    0.1371335917E-03
    0.1500000000E+07    0.2343451847E-02    0.3142956122E-02    0.6959006919E+00    0.3199395943E+00    0.1382285948E-03
    0.1700000000E+07    0.2211707814E-02    0.2977135035E-02    0.6958999826E+00    0.3207124738E+00    0.1391935029E-03
    0.1900000000E+07    0.2100206439E-02    0.2836267701E-02    0.6958993271E+00    0.3213496297E+00    0.1400566134E-03
    0.2100000000E+07    0.2004225938E-02    0.2714605554E-02    0.6958987188E+00    0.3218859624E+00    0.1408378331E-03
    0.2300000000E+07    0.1920457827E-02    0.2608105392E-02    0.6958981518E+00    0.3223450830E+00    0.1415517090E-03
    0.2500000000E+07    0.1846505258E-02    0.2513828236E-02    0.6958976210E+00    0.3227435891E+00    0.1422092001E-03
    0.2700000000E+07    0.1780583261E-02    0.2429578749E-02    0.6958971222E+00    0.3230935205E+00    0.1428187724E-03
    0.2900000000E+07    0.1721331331E-02    0.2353679036E-02    0.6958966518E+00    0.3234038438E+00    0.1433871039E-03
    0.3100000000E+07    0.1667691762E-02    0.2284821344E-02    0.6958962068E+00    0.3236813871E+00    0.1439195573E-03
    0.3300000000E+07    0.1618828084E-02    0.2221969050E-02    0.6958957846E+00    0.3239314508E+00    0.1444205050E-03
    0.3500000000E+07    0.1574068854E-02    0.2164288244E-02    0.6958953830E+00    0.3241582181E+00    0.1448935599E-03
    0.3700000000E+07    0.1532867985E-02    0.2111099331E-02    0.6958950001E+00    0.3243650394E+00    0.1453417425E-03
    0.3900000000E+07    0.1494776145E-02    0.2061842070E-02    0.6958946341E+00    0.3245546328E+00    0.1457676037E-03
    0.4100000000E+07    0.1459419754E-02    0.2016049839E-02    0.6958942837E+00    0.3247292287E+00    0.1461733182E-03
    0.4300000000E+07    0.1426485304E-02    0.1973330388E-02    0.6958939475E+00    0.3248906765E+00    0.1465607550E-03
    0.4500000000E+07    0.1395707469E-02    0.1933351223E-02    0.6958936245E+00    0.3250405239E+00    0.1469315326E-03
    0.4700000000E+07    0.1366859976E-02    0.1895828359E-02    0.6958933135E+00    0.3251800770E+00    0.1472870617E-03
    0.4900000000E+07    0.1339748504E-02    0.1860517563E-02    0.6958930138E+00    0.3253104465E+00    0.1476285797E-03
    0.1000000000E+07    0.2818035566E-02    0.3735177367E-02    0.6959027456E+00    0.3169642850E+00    0.1351484632E-03
    0.3000000000E+07    0.1693866710E-02    0.2318440161E-02    0.6958964263E+00    0.3235463514E+00    0.1436575220E-03
    0.5000000000E+07    0.1326790390E-02    0.1843624508E-02    0.6958928679E+00    0.3253724900E+00    0.1477944307E-03
    0.7000000000E+07    0.1127850165E-02    0.1582889864E-02    0.6958903842E+00    0.3263036874E+00    0.1505841968E-03
    0.9000000000E+07    0.9983641277E-03    0.1411648015E-02    0.6958884685E+00    0.3268888274E+00    0.1527021943E-03
    0.1100000000E+08    0.9054489650E-03    0.1287921413E-02    0.6958869053E+00    0.3272988720E+00    0.1544147486E-03
    0.1300000000E+08    0.8345783287E-03    0.1193021341E-02    0.6958855829E+00    0.3276062552E+00    0.1558550513E-03
    0.1500000000E+08    0.7782069313E-03    0.1117181306E-02    0.6958844355E+00    0.3278475033E+00    0.1570995108E-03
    0.1700000000E+08    0.7319740331E-03    0.1054728499E-02    0.6958834213E+00    0.3280432560E+00    0.1581961192E-03
    0.1900000000E+08    0.6931599300E-03    0.1002109776E-02    0.6958825119E+00    0.3282061568E+00    0.1591770358E-03
    0.2100000000E+08    0.6599684408E-03    0.9569697715E-03    0.6958816873E+00    0.3283444337E+00    0.1600648846E-03
    0.2300000000E+08    0.6311590827E-03    0.9176764377E-03    0.6958809325E+00    0.3284636991E+00    0.1608761977E-03
    0.2500000000E+08    0.6058438340E-03    0.8830579677E-03    0.6958802365E+00    0.3285679282E+00    0.1616234301E-03
    0.2700000000E+08    0.5833679603E-03    0.8522480590E-03    0.6958795906E+00    0.3286600250E+00    0.1623162032E-03
