  Pressure (Pa) 22mC5-500 (mol/kg) 23mC5-500 (mol/kg) 24mC5-500 (mol/kg) 2mC6-500 (mol/kg) C7-500 (mol/kg)
    0.1000000000E+01    0.2240562032E-05    0.1929879629E-05    0.1266261861E+00    0.2023531830E-04    0.4202575084E-02
    0.3000000000E+01    0.4627373880E-05    0.3974272154E-05    0.2784952008E+00    0.3982025819E-04    0.4255467004E-02
    0.5000000000E+01    0.5827796706E-05    0.4995424004E-05    0.3663810282E+00    0.4878895670E-04    0.4285185255E-02
    0.7000000000E+01    0.6525375530E-05    0.5585672770E-05    0.4236842078E+00    0.5386529969E-04    0.4304714866E-02
    0.9000000000E+01    0.6976135352E-05    0.5965918496E-05    0.4640028827E+00    0.5733350068E-04    0.4318617719E-02
    0.1100000000E+02    0.7294062990E-05    0.6234056030E-05    0.4939139897E+00    0.6010598671E-04    0.4329056904E-02
    0.1300000000E+02    0.7535990251E-05    0.6438651706E-05    0.5169868528E+00    0.6258500771E-04    0.4337202997E-02
    0.1500000000E+02    0.7732618095E-05    0.6605800170E-05    0.5353260400E+00    0.6495888722E-04    0.4343747732E-02
    0.1700000000E+02    0.7901546225E-05    0.6750372277E-05    0.5502528335E+00    0.6731845825E-04    0.4349127266E-02
    0.1900000000E+02    0.8053330280E-05    0.6881228669E-05    0.5626386237E+00    0.6970744118E-04    0.4353630780E-02
    0.2100000000E+02    0.8194525654E-05    0.7003831602E-05    0.5730813745E+00    0.7214586201E-04    0.4357457883E-02
    0.2300000000E+02    0.8329314347E-05    0.7121636385E-05    0.5820050699E+00    0.7464154800E-04    0.4360750986E-02
    0.2500000000E+02    0.8460419103E-05    0.7236870577E-05    0.5897186998E+00    0.7719600812E-04    0.4363614538E-02
    0.2700000000E+02    0.8589638756E-05    0.7350988658E-05    0.5964527712E+00    0.7980753323E-04    0.4366126963E-02
    0.2900000000E+02    0.8718172820E-05    0.7464946655E-05    0.6023827393E+00    0.8247286323E-04    0.4368348349E-02
    0.3100000000E+02    0.8846824159E-05    0.7579372921E-05    0.6076445166E+00    0.8518809202E-04    0.4370325549E-02
    0.3300000000E+02    0.8976128755E-05    0.7694676998E-05    0.6123450186E+00    0.8794915690E-04    0.4372095664E-02
    0.3500000000E+02    0.9106440619E-05    0.7811120519E-05    0.6165695057E+00    0.9075209745E-04    0.4373688475E-02
    0.3700000000E+02    0.9237988384E-05    0.7928864227E-05    0.6203868017E+00    0.9359318514E-04    0.4375128181E-02
    0.3900000000E+02    0.9370913645E-05    0.8047999639E-05    0.6238530722E+00    0.9646898038E-04    0.4376434659E-02
    0.4100000000E+02    0.9505297289E-05    0.8168570677E-05    0.6270146075E+00    0.9937634904E-04    0.4377624401E-02
    0.4300000000E+02    0.9641177795E-05    0.8290588581E-05    0.6299099011E+00    0.1023124570E-03    0.4378711207E-02
    0.4500000000E+02    0.9778564083E-05    0.8414042311E-05    0.6325712251E+00    0.1052747534E-03    0.4379706726E-02
    0.4700000000E+02    0.9917444602E-05    0.8538905841E-05    0.6350258385E+00    0.1082609483E-03    0.4380620857E-02
    0.4900000000E+02    0.1005779381E-04    0.8665143303E-05    0.6372969240E+00    0.1112689893E-03    0.4381462075E-02
    0.1000000000E+02    0.7147307244E-05    0.6110238600E-05    0.4799901262E+00    0.5877442260E-04    0.4324181991E-02
    0.3000000000E+02    0.8782445241E-05    0.7522071504E-05    0.6050898885E+00    0.8382449437E-04    0.4369364958E-02
    0.5000000000E+02    0.1012850854E-04    0.8728764277E-05    0.6383699578E+00    0.1127806197E-03    0.4381857662E-02
    0.7000000000E+02    0.1160950825E-04    0.1006215490E-04    0.6537811218E+00    0.1438055493E-03    0.4387276099E-02
    0.9000000000E+02    0.1318908286E-04    0.1148403469E-04    0.6626687481E+00    0.1757842023E-03    0.4389864372E-02
    0.1100000000E+03    0.1483701866E-04    0.1296630659E-04    0.6684512844E+00    0.2083116465E-03    0.4390987109E-02
    0.1300000000E+03    0.1653552507E-04    0.1449289951E-04    0.6725139076E+00    0.2412263341E-03    0.4391230305E-02
    0.1500000000E+03    0.1827410761E-04    0.1605448529E-04    0.6755245542E+00    0.2744611723E-03    0.4390891849E-02
    0.1700000000E+03    0.2004638479E-04    0.1764546045E-04    0.6778449439E+00    0.3079899600E-03    0.4390141062E-02
    0.1900000000E+03    0.2184837222E-04    0.1926236492E-04    0.6796880170E+00    0.3418056395E-03    0.4389082145E-02
    0.2100000000E+03    0.2367754261E-04    0.2090302928E-04    0.6811872949E+00    0.3759106015E-03    0.4387783158E-02
    0.2300000000E+03    0.2553229011E-04    0.2256609409E-04    0.6824307477E+00    0.4103120494E-03    0.4386290641E-02
    0.2500000000E+03    0.2741161249E-04    0.2425072693E-04    0.6834786922E+00    0.4450196656E-03    0.4384637601E-02
    0.2700000000E+03    0.2931491540E-04    0.2595644945E-04    0.6843738662E+00    0.4800443938E-03    0.4382848148E-02
    0.2900000000E+03    0.3124188790E-04    0.2768302798E-04    0.6851473976E+00    0.5153977898E-03    0.4380940316E-02
    0.3100000000E+03    0.3319242102E-04    0.2943040226E-04    0.6858224959E+00    0.5510916734E-03    0.4378927869E-02
    0.3300000000E+03    0.3516655315E-04    0.3119863805E-04    0.6864168195E+00    0.5871379445E-03    0.4376821483E-02
    0.3500000000E+03    0.3716443258E-04    0.3298789463E-04    0.6869440418E+00    0.6235484916E-03    0.4374629547E-02
    0.3700000000E+03    0.3918629145E-04    0.3479840240E-04    0.6874149149E+00    0.6603351509E-03    0.4372358732E-02
    0.3900000000E+03    0.4123242720E-04    0.3663044696E-04    0.6878380105E+00    0.6975096961E-03    0.4370014382E-02
    0.4100000000E+03    0.4330318933E-04    0.3848435784E-04    0.6882202460E+00    0.7350838438E-03    0.4367600811E-02
    0.4300000000E+03    0.4539896971E-04    0.4036050022E-04    0.6885672647E+00    0.7730692684E-03    0.4365121514E-02
    0.4500000000E+03    0.4752019554E-04    0.4225926905E-04    0.6888837168E+00    0.8114776219E-03    0.4362579330E-02
    0.4700000000E+03    0.4966732413E-04    0.4418108465E-04    0.6891734682E+00    0.8503205553E-03    0.4359976567E-02
    0.4900000000E+03    0.5184083907E-04    0.4612638949E-04    0.6894397595E+00    0.8896097414E-03    0.4357315095E-02
    0.1000000000E+03    0.1400584000E-04    0.1221883386E-04    0.6658367254E+00    0.1919926480E-03    0.4390562481E-02
    0.3000000000E+03    0.3221420993E-04    0.2855411406E-04    0.6854960385E+00    0.5332014274E-03    0.4379946441E-02
    0.5000000000E+03    0.5293764900E-04    0.4710799412E-04    0.6895649798E+00    0.9094253383E-03    0.4355962826E-02
    0.7000000000E+03    0.7639501074E-04    0.6809649636E-04    0.6913221550E+00    0.1332095821E-02    0.4326060517E-02
    0.9000000000E+03    0.1032015668E-03    0.9207539318E-04    0.6923013710E+00    0.1813838960E-02    0.4290733662E-02
    0.1100000000E+04    0.1341652599E-03    0.1197694989E-03    0.6929253830E+00    0.2369756750E-02    0.4249397598E-02
    0.1300000000E+04    0.1703369984E-03    0.1521198899E-03    0.6933576457E+00    0.3019043212E-02    0.4200929270E-02
    0.1500000000E+04    0.2131065599E-03    0.1903703530E-03    0.6936746786E+00    0.3786903275E-02    0.4143699868E-02
    0.1700000000E+04    0.2643453287E-03    0.2361953451E-03    0.6939170762E+00    0.4707203739E-02    0.4075458335E-02
    0.1900000000E+04    0.3266176309E-03    0.2918892172E-03    0.6941083746E+00    0.5826336433E-02    0.3993110389E-02
    0.2100000000E+04    0.4034950976E-03    0.3606476136E-03    0.6942631586E+00    0.7208948035E-02    0.3892377629E-02
    0.2300000000E+04    0.5000206674E-03    0.4469828320E-03    0.6943909476E+00    0.8946405922E-02    0.3767302987E-02
    0.2500000000E+04    0.6233683312E-03    0.5573145232E-03    0.6944982180E+00    0.1116887580E-01    0.3609583190E-02
    0.2700000000E+04    0.7836810770E-03    0.7007202788E-03    0.6945895294E+00    0.1406077499E-01    0.3407818689E-02
    0.2900000000E+04    0.9947821238E-03    0.8895737774E-03    0.6946681845E+00    0.1787423953E-01    0.3147174800E-02
    0.3100000000E+04    0.1273536358E-02    0.1138976910E-02    0.6947366341E+00    0.2291871070E-01    0.2811099420E-02
    0.3300000000E+04    0.1634553925E-02    0.1462026418E-02    0.6947967353E+00    0.2946686282E-01    0.2389051200E-02
    0.3500000000E+04    0.2075314308E-02    0.1856508160E-02    0.6948499206E+00    0.3748666527E-01    0.1894979232E-02
    0.3700000000E+04    0.2555956883E-02    0.2286806007E-02    0.6948973130E+00    0.4627248116E-01    0.1388043258E-02
    0.3900000000E+04    0.3004425041E-02    0.2688473453E-02    0.6949398051E+00    0.5452796114E-01    0.9574064837E-03
    0.4100000000E+04    0.3365032970E-02    0.3011665552E-02    0.6949781152E+00    0.6123799016E-01    0.6594464290E-03
    0.4300000000E+04    0.3632254122E-02    0.3251392356E-02    0.6950128280E+00    0.6628765036E-01    0.4855654567E-03
    0.4500000000E+04    0.3831339291E-02    0.3430210508E-02    0.6950444242E+00    0.7012226720E-01    0.3948970178E-03
    0.4700000000E+04    0.3989147986E-02    0.3572133604E-02    0.6950733027E+00    0.7322209113E-01    0.3505636713E-03
    0.4900000000E+04    0.4123658967E-02    0.3693240470E-02    0.6950997970E+00    0.7591024912E-01    0.3296742573E-03
    0.1000000000E+04    0.1181047150E-03    0.1054051399E-03    0.6926445096E+00    0.2081442232E-02    0.4270875726E-02
    0.3000000000E+04    0.1124619545E-02    0.1005736427E-02    0.6947035573E+00    0.2022260032E-01    0.2989523037E-02
    0.5000000000E+04    0.4185539555E-02    0.3748994765E-02    0.6951122398E+00    0.7716052940E-01    0.3239532083E-03
    0.7000000000E+04    0.5173419746E-02    0.4641813462E-02    0.6952855850E+00    0.9806882871E-01    0.3164302611E-03
    0.9000000000E+04    0.5919933338E-02    0.5320210457E-02    0.6953808273E+00    0.1151901381E+00    0.3208934540E-03
    0.1100000000E+05    0.6499894577E-02    0.5850343264E-02    0.6954407420E+00    0.1296234419E+00    0.3245061531E-03
    0.1300000000E+05    0.6955455396E-02    0.6269445198E-02    0.6954817319E+00    0.1419697267E+00    0.3275422722E-03
    0.1500000000E+05    0.7316236085E-02    0.6603723030E-02    0.6955114274E+00    0.1526619279E+00    0.3301641969E-03
    0.1700000000E+05    0.7603585176E-02    0.6872097081E-02    0.6955338544E+00    0.1620200843E+00    0.3324737361E-03
    0.1900000000E+05    0.7833222724E-02    0.7088523765E-02    0.6955513359E+00    0.1702859937E+00    0.3345390176E-03
    0.2100000000E+05    0.8016940699E-02    0.7263490965E-02    0.6955653048E+00    0.1776458254E+00    0.3364079194E-03
    0.2300000000E+05    0.8163728697E-02    0.7405008919E-02    0.6955766922E+00    0.1842453061E+00    0.3381153991E-03
    0.2500000000E+05    0.8280538096E-02    0.7519283486E-02    0.6955861291E+00    0.1902001807E+00    0.3396877759E-03
    0.2700000000E+05    0.8372812338E-02    0.7611183817E-02    0.6955940580E+00    0.1956035793E+00    0.3411453698E-03
    0.2900000000E+05    0.8444862181E-02    0.7684573620E-02    0.6956007978E+00    0.2005313095E+00    0.3425042030E-03
    0.3100000000E+05    0.8500135919E-02    0.7742549963E-02    0.6956065845E+00    0.2050457252E+00    0.3437771363E-03
    0.3300000000E+05    0.8541417043E-02    0.7787618125E-02    0.6956115962E+00    0.2091986005E+00    0.3449746529E-03
    0.3500000000E+05    0.8570970889E-02    0.7821821464E-02    0.6956159696E+00    0.2130332949E+00    0.3461054122E-03
    0.3700000000E+05    0.8590654843E-02    0.7846839126E-02    0.6956198116E+00    0.2165864064E+00    0.3471766517E-03
    0.3900000000E+05    0.8602002140E-02    0.7864060415E-02    0.6956232068E+00    0.2198890481E+00    0.3481944828E-03
    0.4100000000E+05    0.8606286269E-02    0.7874642020E-02    0.6956262230E+00    0.2229678457E+00    0.3491641145E-03
    0.4300000000E+05    0.8604570965E-02    0.7879552487E-02    0.6956289151E+00    0.2258457232E+00    0.3500900227E-03
    0.4500000000E+05    0.8597749357E-02    0.7879607088E-02    0.6956313281E+00    0.2285425298E+00    0.3509760826E-03
    0.4700000000E+05    0.8586574902E-02    0.7875495404E-02    0.6956334994E+00    0.2310755423E+00    0.3518256719E-03
    0.4900000000E+05    0.8571686001E-02    0.7867803298E-02    0.6956354598E+00    0.2334598715E+00    0.3526417527E-03
    0.1000000000E+05    0.6227739290E-02    0.5601166872E-02    0.6954138667E+00    0.1227004462E+00    0.3227856470E-03
    0.3000000000E+05    0.8474408440E-02    0.7715319730E-02    0.6956037980E+00    0.2028367261E+00    0.3431507036E-03
    0.5000000000E+05    0.8563021612E-02    0.7862773725E-02    0.6956363693E+00    0.2346004929E+00    0.3530380560E-03
    0.7000000000E+05    0.8290916404E-02    0.7663235297E-02    0.6956480550E+00    0.2521132482E+00    0.3597034693E-03
    0.9000000000E+05    0.7954130833E-02    0.7391568473E-02    0.6956532745E+00    0.2633865033E+00    0.3647630996E-03
    0.1100000000E+06    0.7623611029E-02    0.7116681298E-02    0.6956557781E+00    0.2713324446E+00    0.3688538216E-03
    0.1300000000E+06    0.7317591131E-02    0.6857946672E-02    0.6956569400E+00    0.2772778089E+00    0.3722940314E-03
    0.1500000000E+06    0.7039237720E-02    0.6620024713E-02    0.6956573695E+00    0.2819186109E+00    0.3752663460E-03
    0.1700000000E+06    0.6787121678E-02    0.6402786880E-02    0.6956573724E+00    0.2856572999E+00    0.3778854510E-03
    0.1900000000E+06    0.6558548283E-02    0.6204578573E-02    0.6956571160E+00    0.2887438114E+00    0.3802281883E-03
    0.2100000000E+06    0.6350680620E-02    0.6023377398E-02    0.6956566977E+00    0.2913421041E+00    0.3823486122E-03
    0.2300000000E+06    0.6160908919E-02    0.5857210927E-02    0.6956561772E+00    0.2935645054E+00    0.3842862196E-03
    0.2500000000E+06    0.5986948003E-02    0.5704296012E-02    0.6956555923E+00    0.2954907302E+00    0.3860707654E-03
    0.2700000000E+06    0.5826836411E-02    0.5563070355E-02    0.6956549675E+00    0.2971790260E+00    0.3877252336E-03
    0.2900000000E+06    0.5678902789E-02    0.5432183221E-02    0.6956543195E+00    0.2986730139E+00    0.3892677545E-03
    0.3100000000E+06    0.5541724766E-02    0.5310472381E-02    0.6956536594E+00    0.3000060556E+00    0.3907128863E-03
    0.3300000000E+06    0.5414089646E-02    0.5196938271E-02    0.6956529948E+00    0.3012041334E+00    0.3920724992E-03
    0.3500000000E+06    0.5294959973E-02    0.5090719642E-02    0.6956523312E+00    0.3022878062E+00    0.3933564009E-03
    0.3700000000E+06    0.5183444464E-02    0.4991072144E-02    0.6956516722E+00    0.3032735698E+00    0.3945727904E-03
    0.3900000000E+06    0.5078773923E-02    0.4897350065E-02    0.6956510203E+00    0.3041748254E+00    0.3957285929E-03
    0.4100000000E+06    0.4980281408E-02    0.4808991011E-02    0.6956503773E+00    0.3050025806E+00    0.3968297114E-03
    0.4300000000E+06    0.4887385963E-02    0.4725503136E-02    0.6956497444E+00    0.3057659681E+00    0.3978812195E-03
    0.4500000000E+06    0.4799579243E-02    0.4646454531E-02    0.6956491222E+00    0.3064726329E+00    0.3988875102E-03
    0.4700000000E+06    0.4716414501E-02    0.4571464397E-02    0.6956485113E+00    0.3071290271E+00    0.3998524132E-03
    0.4900000000E+06    0.4637497490E-02    0.4500195691E-02    0.6956479119E+00    0.3077406373E+00    0.4007792872E-03
    0.1000000000E+06    0.7786377760E-02    0.7252768099E-02    0.6956547527E+00    0.2676713482E+00    0.3669052464E-03
    0.3000000000E+06    0.5609049605E-02    0.5370246752E-02    0.6956539904E+00    0.2993578827E+00    0.3900016975E-03
    0.5000000000E+06    0.4599521150E-02    0.4465861982E-02    0.6956476165E+00    0.3080311430E+00    0.4012294029E-03
    0.7000000000E+06    0.3996104864E-02    0.3916961770E-02    0.6956422847E+00    0.3123408214E+00    0.4088006659E-03
    0.9000000000E+06    0.3583621040E-02    0.3537960075E-02    0.6956378692E+00    0.3149901787E+00    0.4145486822E-03
    0.1100000000E+07    0.3278605925E-02    0.3255592732E-02    0.6956341260E+00    0.3168131094E+00    0.4191963115E-03
    0.1300000000E+07    0.3041131672E-02    0.3034427950E-02    0.6956308828E+00    0.3181586415E+00    0.4231050519E-03
    0.1500000000E+07    0.2849383922E-02    0.2854953605E-02    0.6956280227E+00    0.3192006879E+00    0.4264822813E-03
    0.1700000000E+07    0.2690300885E-02    0.2705413023E-02    0.6956254644E+00    0.3200364281E+00    0.4294582523E-03
    0.1900000000E+07    0.2555518303E-02    0.2578238582E-02    0.6956231499E+00    0.3207247812E+00    0.4321202449E-03
    0.2100000000E+07    0.2439397489E-02    0.2468306034E-02    0.6956210362E+00    0.3213037265E+00    0.4345296604E-03
    0.2300000000E+07    0.2337979436E-02    0.2372003659E-02    0.6956190907E+00    0.3217989433E+00    0.4367313668E-03
    0.2500000000E+07    0.2248391245E-02    0.2286701589E-02    0.6956172882E+00    0.3222284726E+00    0.4387591662E-03
    0.2700000000E+07    0.2168490444E-02    0.2210432551E-02    0.6956156088E+00    0.3226053948E+00    0.4406391701E-03
    0.2900000000E+07    0.2096642116E-02    0.2141691125E-02    0.6956140363E+00    0.3229394457E+00    0.4423919763E-03
    0.3100000000E+07    0.2031573932E-02    0.2079302757E-02    0.6956125577E+00    0.3232380357E+00    0.4440341248E-03
    0.3300000000E+07    0.1972278800E-02    0.2022335555E-02    0.6956111623E+00    0.3235069142E+00    0.4455791018E-03
    0.3500000000E+07    0.1917947692E-02    0.1970039261E-02    0.6956098408E+00    0.3237506172E+00    0.4470380507E-03
    0.3700000000E+07    0.1867922172E-02    0.1921802018E-02    0.6956085858E+00    0.3239727754E+00    0.4484202872E-03
    0.3900000000E+07    0.1821660133E-02    0.1877119108E-02    0.6956073907E+00    0.3241763333E+00    0.4497336794E-03
    0.4100000000E+07    0.1778710613E-02    0.1835569914E-02    0.6956062498E+00    0.3243637062E+00    0.4509849347E-03
    0.4300000000E+07    0.1738694976E-02    0.1796800676E-02    0.6956051585E+00    0.3245368958E+00    0.4521798176E-03
    0.4500000000E+07    0.1701292632E-02    0.1760511387E-02    0.6956041124E+00    0.3246975767E+00    0.4533233198E-03
    0.4700000000E+07    0.1666230067E-02    0.1726445701E-02    0.6956031079E+00    0.3248471615E+00    0.4544197927E-03
    0.4900000000E+07    0.1633272301E-02    0.1694383068E-02    0.6956021417E+00    0.3249868511E+00    0.4554730527E-03
    0.1000000000E+07    0.3420773144E-02    0.3387435189E-02    0.6956359259E+00    0.3159771186E+00    0.4169824260E-03
    0.3000000000E+07    0.2063328763E-02    0.2109765919E-02    0.6956132860E+00    0.3230927811E+00    0.4432259778E-03
    0.5000000000E+07    0.1617518142E-02    0.1679042209E-02    0.6956016720E+00    0.3250533124E+00    0.4559845454E-03
    0.7000000000E+07    0.1375514546E-02    0.1442127740E-02    0.6955937351E+00    0.3260493321E+00    0.4645882535E-03
    0.9000000000E+07    0.1217871031E-02    0.1286400699E-02    0.6955876719E+00    0.3266736269E+00    0.4711201246E-03
    0.1100000000E+08    0.1104694309E-02    0.1173826427E-02    0.6955827518E+00    0.3271102827E+00    0.4764015613E-03
    0.1300000000E+08    0.1018339701E-02    0.1087450156E-02    0.6955786041E+00    0.3274371236E+00    0.4808433493E-03
    0.1500000000E+08    0.9496349372E-03    0.1018404295E-02    0.6955750144E+00    0.3276933259E+00    0.4846811438E-03
    0.1700000000E+08    0.8932760062E-03    0.9615351798E-03    0.6955718473E+00    0.3279009954E+00    0.4880629588E-03
    0.1900000000E+08    0.8459535135E-03    0.9136134273E-03    0.6955690117E+00    0.3280736572E+00    0.4910879765E-03
    0.2100000000E+08    0.8054811075E-03    0.8724975662E-03    0.6955664432E+00    0.3282201039E+00    0.4938259716E-03
    0.2300000000E+08    0.7703484440E-03    0.8367033487E-03    0.6955640946E+00    0.3283463270E+00    0.4963279307E-03
    0.2500000000E+08    0.7394740786E-03    0.8051648474E-03    0.6955619305E+00    0.3284565672E+00    0.4986322658E-03
    0.2700000000E+08    0.7120605201E-03    0.7770938848E-03    0.6955599232E+00    0.3285539199E+00    0.5007686493E-03
