  Pressure (Pa) 22mC5-500 (mol/kg) 23mC5-500 (mol/kg) 24mC5-500 (mol/kg) 2mC6-500 (mol/kg) C7-500 (mol/kg)
    0.1000000000E+01    0.2508123016E-05    0.7207021640E-05    0.6965037995E-01    0.9844508038E-05    0.4196365006E-02
    0.3000000000E+01    0.6013708109E-05    0.1724812199E-04    0.1740825481E+00    0.2281588311E-04    0.4254810106E-02
    0.5000000000E+01    0.8325599576E-05    0.2384457441E-04    0.2486459919E+00    0.3082992121E-04    0.4294540336E-02
    0.7000000000E+01    0.9935578654E-05    0.2842152679E-04    0.3045523286E+00    0.3610951802E-04    0.4324328908E-02
    0.9000000000E+01    0.1110429124E-04    0.3173275486E-04    0.3480258346E+00    0.3978149213E-04    0.4347632291E-02
    0.1100000000E+02    0.1198185701E-04    0.3421152409E-04    0.3827991183E+00    0.4246676044E-04    0.4366414664E-02
    0.1300000000E+02    0.1266005477E-04    0.3612217050E-04    0.4112465193E+00    0.4452764621E-04    0.4381905975E-02
    0.1500000000E+02    0.1319766065E-04    0.3763361246E-04    0.4349504276E+00    0.4618499167E-04    0.4394921712E-02
    0.1700000000E+02    0.1363374677E-04    0.3885788862E-04    0.4550060639E+00    0.4757809099E-04    0.4406025695E-02
    0.1900000000E+02    0.1399509642E-04    0.3987162046E-04    0.4721955650E+00    0.4879723250E-04    0.4415620895E-02
    0.2100000000E+02    0.1430054657E-04    0.4072856587E-04    0.4870923980E+00    0.4990223033E-04    0.4424003321E-02
    0.2300000000E+02    0.1456363699E-04    0.4146726752E-04    0.5001266008E+00    0.5093340134E-04    0.4431395484E-02
    0.2500000000E+02    0.1479428303E-04    0.4211587617E-04    0.5116269853E+00    0.5191828617E-04    0.4437967993E-02
    0.2700000000E+02    0.1499986376E-04    0.4269528395E-04    0.5218492673E+00    0.5287588235E-04    0.4443853932E-02
    0.2900000000E+02    0.1518594827E-04    0.4322121269E-04    0.5309953092E+00    0.5381937618E-04    0.4449158694E-02
    0.3100000000E+02    0.1535679144E-04    0.4370563757E-04    0.5392265884E+00    0.5475794333E-04    0.4453966864E-02
    0.3300000000E+02    0.1551567925E-04    0.4415777712E-04    0.5466738157E+00    0.5569795776E-04    0.4458347143E-02
    0.3500000000E+02    0.1566517357E-04    0.4458479389E-04    0.5534439301E+00    0.5664381654E-04    0.4462355931E-02
    0.3700000000E+02    0.1580728844E-04    0.4499229843E-04    0.5596252678E+00    0.5759851068E-04    0.4466039978E-02
    0.3900000000E+02    0.1594361884E-04    0.4538471686E-04    0.5652914389E+00    0.5856402504E-04    0.4469438378E-02
    0.4100000000E+02    0.1607543612E-04    0.4576556246E-04    0.5705042733E+00    0.5954162169E-04    0.4472584083E-02
    0.4300000000E+02    0.1620375930E-04    0.4613763876E-04    0.5753160868E+00    0.6053204241E-04    0.4475505076E-02
    0.4500000000E+02    0.1632940915E-04    0.4650319299E-04    0.5797714434E+00    0.6153565476E-04    0.4478225275E-02
    0.4700000000E+02    0.1645304952E-04    0.4686403313E-04    0.5839085395E+00    0.6255255800E-04    0.4480765256E-02
    0.4900000000E+02    0.1657521916E-04    0.4722161813E-04    0.5877603023E+00    0.6358266049E-04    0.4483142818E-02
    0.1000000000E+02    0.1157274201E-04    0.3305681381E-04    0.3663281581E+00    0.4122051905E-04    0.4357499365E-02
    0.3000000000E+02    0.1527305020E-04    0.4346798170E-04    0.5352164961E+00    0.5428882272E-04    0.4451620234E-02
    0.5000000000E+02    0.1663589284E-04    0.4739956796E-04    0.5895882524E+00    0.6410259490E-04    0.4484275610E-02
    0.7000000000E+02    0.1784347071E-04    0.5097696311E-04    0.6164287710E+00    0.7510656249E-04    0.4501278300E-02
    0.9000000000E+02    0.1910896132E-04    0.5476246172E-04    0.6324245182E+00    0.8698076449E-04    0.4511776339E-02
    0.1100000000E+03    0.2045211135E-04    0.5879260076E-04    0.6430435294E+00    0.9941035858E-04    0.4518882474E-02
    0.1300000000E+03    0.2186403518E-04    0.6303247501E-04    0.6506066865E+00    0.1122072966E-03    0.4523965719E-02
    0.1500000000E+03    0.2333309888E-04    0.6744384657E-04    0.6562671239E+00    0.1252614078E-03    0.4527729739E-02
    0.1700000000E+03    0.2484944688E-04    0.7199574641E-04    0.6606626111E+00    0.1385063844E-03    0.4530576575E-02
    0.1900000000E+03    0.2640541713E-04    0.7666462103E-04    0.6641745313E+00    0.1519010972E-03    0.4532754281E-02
    0.2100000000E+03    0.2799517384E-04    0.8143277674E-04    0.6670449524E+00    0.1654193895E-03    0.4534425109E-02
    0.2300000000E+03    0.2961427569E-04    0.8628688139E-04    0.6694349169E+00    0.1790443287E-03    0.4535700179E-02
    0.2500000000E+03    0.3125932255E-04    0.9121680844E-04    0.6714557257E+00    0.1927648489E-03    0.4536658471E-02
    0.2700000000E+03    0.3292769065E-04    0.9621479553E-04    0.6731867663E+00    0.2065737205E-03    0.4537357858E-02
    0.2900000000E+03    0.3461733906E-04    0.1012748403E-03    0.6746861858E+00    0.2204662825E-03    0.4537841850E-02
    0.3100000000E+03    0.3632666870E-04    0.1063922659E-03    0.6759975493E+00    0.2344396299E-03    0.4538143875E-02
    0.3300000000E+03    0.3805441922E-04    0.1115634056E-03    0.6771541414E+00    0.2484920791E-03    0.4538290100E-02
    0.3500000000E+03    0.3979959274E-04    0.1167853720E-03    0.6781818294E+00    0.2626228088E-03    0.4538301344E-02
    0.3700000000E+03    0.4156139704E-04    0.1220558855E-03    0.6791010208E+00    0.2768316142E-03    0.4538194405E-02
    0.3900000000E+03    0.4333920267E-04    0.1273731459E-03    0.6799280315E+00    0.2911187367E-03    0.4537983009E-02
    0.4100000000E+03    0.4513251026E-04    0.1327357346E-03    0.6806760618E+00    0.3054847428E-03    0.4537678494E-02
    0.4300000000E+03    0.4694092542E-04    0.1381425399E-03    0.6813559071E+00    0.3199304383E-03    0.4537290322E-02
    0.4500000000E+03    0.4876413910E-04    0.1435926990E-03    0.6819764807E+00    0.3344568062E-03    0.4536826458E-02
    0.4700000000E+03    0.5060191230E-04    0.1490855528E-03    0.6825452077E+00    0.3490649611E-03    0.4536293658E-02
    0.4900000000E+03    0.5245406395E-04    0.1546206104E-03    0.6830683225E+00    0.3637561165E-03    0.4535697700E-02
    0.1000000000E+03    0.1977120433E-04    0.5674876689E-04    0.6382211365E+00    0.9314025519E-04    0.4515645300E-02
    0.3000000000E+03    0.3546962943E-04    0.1038266303E-03    0.6753630923E+00    0.2274429870E-03    0.4538013828E-02
    0.5000000000E+03    0.5338548852E-04    0.1574038508E-03    0.6833144557E+00    0.3711332193E-03    0.4535377615E-02
    0.7000000000E+03    0.7275536759E-04    0.2152530738E-03    0.6867782959E+00    0.5233714322E-03    0.4526566100E-02
    0.9000000000E+03    0.9357854112E-04    0.2774012794E-03    0.6887168838E+00    0.6855753481E-03    0.4514450315E-02
    0.1100000000E+04    0.1159862464E-03    0.3442530420E-03    0.6899555518E+00    0.8593083993E-03    0.4499901523E-02
    0.1300000000E+04    0.1401614416E-03    0.4163608095E-03    0.6908151990E+00    0.1046245764E-02    0.4483223329E-02
    0.1500000000E+04    0.1663247225E-03    0.4943863485E-03    0.6914465826E+00    0.1248234424E-02    0.4464487182E-02
    0.1700000000E+04    0.1947346582E-03    0.5791031613E-03    0.6919298785E+00    0.1467357968E-02    0.4443641495E-02
    0.1900000000E+04    0.2256930907E-03    0.6714129538E-03    0.6923116571E+00    0.1706004619E-02    0.4420553034E-02
    0.2100000000E+04    0.2595532833E-03    0.7723702741E-03    0.6926208192E+00    0.1966943544E-02    0.4395022566E-02
    0.2300000000E+04    0.2967306072E-03    0.8832145752E-03    0.6928762493E+00    0.2253414796E-02    0.4366788594E-02
    0.2500000000E+04    0.3377160802E-03    0.1005410708E-02    0.6930908086E+00    0.2569238484E-02    0.4335524323E-02
    0.2700000000E+04    0.3830933932E-03    0.1140699777E-02    0.6932735586E+00    0.2918949590E-02    0.4300829796E-02
    0.2900000000E+04    0.4335603243E-03    0.1291163065E-02    0.6934310676E+00    0.3307966164E-02    0.4262219787E-02
    0.3100000000E+04    0.4899557104E-03    0.1459302521E-02    0.6935682131E+00    0.3742800477E-02    0.4219107347E-02
    0.3300000000E+04    0.5532934396E-03    0.1648142198E-02    0.6936886926E+00    0.4231324845E-02    0.4170782465E-02
    0.3500000000E+04    0.6248052284E-03    0.1861355896E-02    0.6937953601E+00    0.4783106181E-02    0.4116385131E-02
    0.3700000000E+04    0.7059941692E-03    0.2103426950E-02    0.6938904536E+00    0.5409825183E-02    0.4054871942E-02
    0.3900000000E+04    0.7987010036E-03    0.2379846021E-02    0.6939757528E+00    0.6125795971E-02    0.3984975714E-02
    0.4100000000E+04    0.9051843970E-03    0.2697350696E-02    0.6940526905E+00    0.6948597079E-02    0.3905158306E-02
    0.4300000000E+04    0.1028214361E-02    0.3064204403E-02    0.6941224334E+00    0.7899808639E-02    0.3813558995E-02
    0.4500000000E+04    0.1171172839E-02    0.3490496845E-02    0.6941859409E+00    0.9005811490E-02    0.3707945074E-02
    0.4700000000E+04    0.1338144508E-02    0.3988415460E-02    0.6942440094E+00    0.1029851977E-01    0.3585680054E-02
    0.4900000000E+04    0.1533959293E-02    0.4572373196E-02    0.6942973051E+00    0.1181575231E-01    0.3443741000E-02
    0.1000000000E+04    0.1045738257E-03    0.3102073776E-03    0.6893976877E+00    0.7708993046E-03    0.4507453514E-02
    0.3000000000E+04    0.4609581490E-03    0.1372847859E-02    0.6935019317E+00    0.3519199507E-02    0.4241267576E-02
    0.5000000000E+04    0.1644380130E-02    0.4901682368E-02    0.6943223423E+00    0.1267188927E-01    0.3364370530E-02
    0.7000000000E+04    0.5534411994E-02    0.1651078517E-01    0.6946717612E+00    0.4316875021E-01    0.9303509997E-03
    0.9000000000E+04    0.7292206834E-02    0.2177695239E-01    0.6948644469E+00    0.5782454892E-01    0.5007264966E-03
    0.1100000000E+05    0.8270399047E-02    0.2472263168E-01    0.6949860881E+00    0.6664289167E-01    0.4994733269E-03
    0.1300000000E+05    0.9096845113E-02    0.2721894453E-01    0.6950695987E+00    0.7443716862E-01    0.5040560707E-03
    0.1500000000E+05    0.9808199970E-02    0.2937418483E-01    0.6951303116E+00    0.8144884423E-01    0.5081017498E-03
    0.1700000000E+05    0.1042448379E-01    0.3124728700E-01    0.6951763274E+00    0.8780036374E-01    0.5116655783E-03
    0.1900000000E+05    0.1096133617E-01    0.3288432432E-01    0.6952123261E+00    0.9358841563E-01    0.5148514300E-03
    0.2100000000E+05    0.1143124373E-01    0.3432211469E-01    0.6952411977E+00    0.9889126681E-01    0.5177335599E-03
    0.2300000000E+05    0.1184428933E-01    0.3559041567E-01    0.6952648228E+00    0.1037730031E+00    0.5203661661E-03
    0.2500000000E+05    0.1220869670E-01    0.3671352053E-01    0.6952844769E+00    0.1082866291E+00    0.5227900234E-03
    0.2700000000E+05    0.1253123423E-01    0.3771144237E-01    0.6953010553E+00    0.1124763856E+00    0.5250365931E-03
    0.2900000000E+05    0.1281751871E-01    0.3860080502E-01    0.6953152048E+00    0.1163795061E+00    0.5271306690E-03
    0.3100000000E+05    0.1307224653E-01    0.3939552170E-01    0.6953274038E+00    0.1200275658E+00    0.5290921443E-03
    0.3300000000E+05    0.1329937177E-01    0.4010731799E-01    0.6953380140E+00    0.1234475285E+00    0.5309372277E-03
    0.3500000000E+05    0.1350224479E-01    0.4074613912E-01    0.6953473135E+00    0.1266625684E+00    0.5326793040E-03
    0.3700000000E+05    0.1368372121E-01    0.4132047015E-01    0.6953555197E+00    0.1296927216E+00    0.5343295566E-03
    0.3900000000E+05    0.1384624824E-01    0.4183759001E-01    0.6953628050E+00    0.1325554063E+00    0.5358974269E-03
    0.4100000000E+05    0.1399193375E-01    0.4230377475E-01    0.6953693078E+00    0.1352658427E+00    0.5373909597E-03
    0.4300000000E+05    0.1412260188E-01    0.4272446136E-01    0.6953751403E+00    0.1378373938E+00    0.5388170668E-03
    0.4500000000E+05    0.1423983825E-01    0.4310438073E-01    0.6953803945E+00    0.1402818446E+00    0.5401817309E-03
    0.4700000000E+05    0.1434502678E-01    0.4344766644E-01    0.6953851467E+00    0.1426096316E+00    0.5414901659E-03
    0.4900000000E+05    0.1443938005E-01    0.4375794414E-01    0.6953894604E+00    0.1448300334E+00    0.5427469435E-03
    0.1000000000E+05    0.7805172021E-02    0.2332050687E-01    0.6949314726E+00    0.6239676341E-01    0.4975542087E-03
    0.3000000000E+05    0.1294856447E-01    0.3900921524E-01    0.6953215232E+00    0.1182336359E+00    0.5281268938E-03
    0.5000000000E+05    0.1448283179E-01    0.4390171759E-01    0.6953914698E+00    0.1459025875E+00    0.5433572393E-03
    0.7000000000E+05    0.1498388399E-01    0.4564683422E-01    0.6954180213E+00    0.1633217541E+00    0.5536203037E-03
    0.9000000000E+05    0.1508827329E-01    0.4615703403E-01    0.6954308466E+00    0.1756885040E+00    0.5614093732E-03
    0.1100000000E+06    0.1501707632E-01    0.4610507028E-01    0.6954377677E+00    0.1851216725E+00    0.5677061553E-03
    0.1300000000E+06    0.1486277163E-01    0.4577644879E-01    0.6954416911E+00    0.1926665057E+00    0.5730012318E-03
    0.1500000000E+06    0.1466879682E-01    0.4530753808E-01    0.6954439256E+00    0.1989065572E+00    0.5775759037E-03
    0.1700000000E+06    0.1445716211E-01    0.4476883911E-01    0.6954451387E+00    0.2041972875E+00    0.5816067999E-03
    0.1900000000E+06    0.1423957950E-01    0.4419881466E-01    0.6954457023E+00    0.2087697055E+00    0.5852122503E-03
    0.2100000000E+06    0.1402245536E-01    0.4361919657E-01    0.6954458374E+00    0.2127816417E+00    0.5884754859E-03
    0.2300000000E+06    0.1380931795E-01    0.4304249792E-01    0.6954456821E+00    0.2163453048E+00    0.5914573181E-03
    0.2500000000E+06    0.1360207352E-01    0.4247594027E-01    0.6954453263E+00    0.2195430931E+00    0.5942035558E-03
    0.2700000000E+06    0.1340168901E-01    0.4192361257E-01    0.6954448302E+00    0.2224371605E+00    0.5967495825E-03
    0.2900000000E+06    0.1320857798E-01    0.4138770699E-01    0.6954442353E+00    0.2250754612E+00    0.5991233080E-03
    0.3100000000E+06    0.1302282560E-01    0.4086925016E-01    0.6954435711E+00    0.2274957145E+00    0.6013471426E-03
    0.3300000000E+06    0.1284432311E-01    0.4036854743E-01    0.6954428583E+00    0.2297280867E+00    0.6034393578E-03
    0.3500000000E+06    0.1267284971E-01    0.3988545874E-01    0.6954421124E+00    0.2317970559E+00    0.6054150506E-03
    0.3700000000E+06    0.1250812300E-01    0.3941957275E-01    0.6954413445E+00    0.2337227393E+00    0.6072868410E-03
    0.3900000000E+06    0.1234983038E-01    0.3897031820E-01    0.6954405629E+00    0.2355218573E+00    0.6090653881E-03
    0.4100000000E+06    0.1219764849E-01    0.3853703560E-01    0.6954397739E+00    0.2372084481E+00    0.6107597778E-03
    0.4300000000E+06    0.1205125528E-01    0.3811902362E-01    0.6954389822E+00    0.2387944043E+00    0.6123778188E-03
    0.4500000000E+06    0.1191033722E-01    0.3771556898E-01    0.6954381914E+00    0.2402898835E+00    0.6139262726E-03
    0.4700000000E+06    0.1177459354E-01    0.3732596558E-01    0.6954374041E+00    0.2417036251E+00    0.6154110333E-03
    0.4900000000E+06    0.1164373851E-01    0.3694952637E-01    0.6954366223E+00    0.2430431997E+00    0.6168372704E-03
    0.1000000000E+06    0.1506716859E-01    0.4617840429E-01    0.6954348068E+00    0.1806913657E+00    0.5647068129E-03
    0.3000000000E+06    0.1311478536E-01    0.4112626535E-01    0.6954439104E+00    0.2263108064E+00    0.6002527355E-03
    0.5000000000E+06    0.1158005931E-01    0.3676603569E-01    0.6954362339E+00    0.2436872696E+00    0.6175298887E-03
    0.7000000000E+06    0.1050621167E-01    0.3364421132E-01    0.6954289657E+00    0.2539078261E+00    0.6291800356E-03
    0.9000000000E+06    0.9704125350E-02    0.3128114928E-01    0.6954227019E+00    0.2609316147E+00    0.6380244994E-03
    0.1100000000E+07    0.9074528981E-02    0.2940872256E-01    0.6954172856E+00    0.2661760191E+00    0.6451756968E-03
    0.1300000000E+07    0.8562284138E-02    0.2787416619E-01    0.6954125366E+00    0.2703013740E+00    0.6511899204E-03
    0.1500000000E+07    0.8134231936E-02    0.2658419366E-01    0.6954083152E+00    0.2736653486E+00    0.6563862867E-03
    0.1700000000E+07    0.7769093151E-02    0.2547828927E-01    0.6954045178E+00    0.2764818612E+00    0.6609652272E-03
    0.1900000000E+07    0.7452493022E-02    0.2451523180E-01    0.6954010675E+00    0.2788882212E+00    0.6650610458E-03
    0.2100000000E+07    0.7174314519E-02    0.2366581375E-01    0.6953979060E+00    0.2809773726E+00    0.6687682241E-03
    0.2300000000E+07    0.6927195789E-02    0.2290866138E-01    0.6953949884E+00    0.2828148936E+00    0.6721558023E-03
    0.2500000000E+07    0.6705629976E-02    0.2222770877E-01    0.6953922793E+00    0.2844486229E+00    0.6752757927E-03
    0.2700000000E+07    0.6505401195E-02    0.2161060385E-01    0.6953897504E+00    0.2859144282E+00    0.6781683737E-03
    0.2900000000E+07    0.6323217528E-02    0.2104766504E-01    0.6953873790E+00    0.2872398266E+00    0.6808652395E-03
    0.3100000000E+07    0.6156464412E-02    0.2053117662E-01    0.6953851463E+00    0.2884463444E+00    0.6833918402E-03
    0.3300000000E+07    0.6003034276E-02    0.2005489969E-01    0.6953830366E+00    0.2895511068E+00    0.6857689271E-03
    0.3500000000E+07    0.5861205980E-02    0.1961372479E-01    0.6953810368E+00    0.2905679385E+00    0.6880136465E-03
    0.3700000000E+07    0.5729557675E-02    0.1920341988E-01    0.6953791358E+00    0.2915081437E+00    0.6901403322E-03
    0.3900000000E+07    0.5606902632E-02    0.1882044411E-01    0.6953773240E+00    0.2923810713E+00    0.6921610909E-03
    0.4100000000E+07    0.5492241191E-02    0.1846180804E-01    0.6953755934E+00    0.2931945325E+00    0.6940862431E-03
    0.4300000000E+07    0.5384724244E-02    0.1812496704E-01    0.6953739368E+00    0.2939551125E+00    0.6959246585E-03
    0.4500000000E+07    0.5283625099E-02    0.1780773898E-01    0.6953723479E+00    0.2946684094E+00    0.6976840177E-03
    0.4700000000E+07    0.5188317548E-02    0.1750823994E-01    0.6953708214E+00    0.2953392175E+00    0.6993710160E-03
    0.4900000000E+07    0.5098258566E-02    0.1722483330E-01    0.6953693524E+00    0.2959716708E+00    0.7009915256E-03
    0.1000000000E+07    0.9371901889E-02    0.3029500384E-01    0.6954199000E+00    0.2637248932E+00    0.6417692541E-03
    0.3000000000E+07    0.6238054149E-02    0.2078403445E-01    0.6953862464E+00    0.2878567868E+00    0.6821484305E-03
    0.5000000000E+07    0.5055046892E-02    0.1708871068E-01    0.6953686380E+00    0.2962746540E+00    0.7017784898E-03
    0.7000000000E+07    0.4377845390E-02    0.1494309516E-01    0.6953565457E+00    0.3009854327E+00    0.7150157519E-03
    0.9000000000E+07    0.3922851046E-02    0.1348758593E-01    0.6953472867E+00    0.3041153370E+00    0.7250652698E-03
    0.1100000000E+08    0.3589260807E-02    0.1241263553E-01    0.6953397630E+00    0.3063949673E+00    0.7331908797E-03
    0.1300000000E+08    0.3330748620E-02    0.1157470403E-01    0.6953334148E+00    0.3081539335E+00    0.7400246233E-03
    0.1500000000E+08    0.3122572784E-02    0.1089659981E-01    0.6953279172E+00    0.3095661803E+00    0.7459290808E-03
    0.1700000000E+08    0.2950129274E-02    0.1033250324E-01    0.6953230644E+00    0.3107335171E+00    0.7511319859E-03
    0.1900000000E+08    0.2804156005E-02    0.9853216721E-02    0.6953187178E+00    0.3117201070E+00    0.7557859391E-03
    0.2100000000E+08    0.2678451326E-02    0.9439109790E-02    0.6953147794E+00    0.3125687025E+00    0.7599982944E-03
    0.2300000000E+08    0.2568682438E-02    0.9076417803E-02    0.6953111774E+00    0.3133090563E+00    0.7638474985E-03
    0.2500000000E+08    0.2471716756E-02    0.8755156677E-02    0.6953078576E+00    0.3139626114E+00    0.7673926508E-03
    0.2700000000E+08    0.2385224652E-02    0.8467879680E-02    0.6953047778E+00    0.3145452724E+00    0.7706794043E-03
