  Pressure (Pa) 22mC5-500 (mol/kg) 23mC5-500 (mol/kg) 24mC5-500 (mol/kg) 2mC6-500 (mol/kg) C7-500 (mol/kg)
    0.1000000000E+01    0.2394071023E-05    0.2751626791E-05    0.9949649346E-01    0.3140119039E-04    0.4169939906E-02
    0.3000000000E+01    0.5294887976E-05    0.6071121158E-05    0.2320965922E+00    0.6662704415E-04    0.4201265242E-02
    0.5000000000E+01    0.6953959844E-05    0.7959820875E-05    0.3164451283E+00    0.8528586168E-04    0.4217134564E-02
    0.7000000000E+01    0.8002015617E-05    0.9147721423E-05    0.3748272659E+00    0.9657573370E-04    0.4227601318E-02
    0.9000000000E+01    0.8714900283E-05    0.9953080713E-05    0.4176352370E+00    0.1042512704E-03    0.4235091918E-02
    0.1100000000E+02    0.9229990953E-05    0.1053388802E-04    0.4503682067E+00    0.1100506938E-03    0.4240713498E-02
    0.1300000000E+02    0.9622089753E-05    0.1097587717E-04    0.4762088618E+00    0.1148482829E-03    0.4245072090E-02
    0.1500000000E+02    0.9934703948E-05    0.1132873504E-04    0.4971269779E+00    0.1191102197E-03    0.4248533113E-02
    0.1700000000E+02    0.1019445683E-04    0.1162275095E-04    0.5144069729E+00    0.1230955956E-03    0.4251331633E-02
    0.1900000000E+02    0.1041830774E-04    0.1187714154E-04    0.5289221410E+00    0.1269525170E-03    0.4253626310E-02
    0.2100000000E+02    0.1061741588E-04    0.1210449660E-04    0.5412869647E+00    0.1307670393E-03    0.4255528356E-02
    0.2300000000E+02    0.1079932116E-04    0.1231328304E-04    0.5519463826E+00    0.1345893673E-03    0.4257118160E-02
    0.2500000000E+02    0.1096923069E-04    0.1250931856E-04    0.5612304930E+00    0.1384484657E-03    0.4258455339E-02
    0.2700000000E+02    0.1113080616E-04    0.1269667161E-04    0.5693893604E+00    0.1423604837E-03    0.4259585079E-02
    0.2900000000E+02    0.1128666132E-04    0.1287822855E-04    0.5766158860E+00    0.1463337467E-03    0.4260542278E-02
    0.3100000000E+02    0.1143868484E-04    0.1305606086E-04    0.5830612594E+00    0.1503717811E-03    0.4261354329E-02
    0.3300000000E+02    0.1158825495E-04    0.1323166855E-04    0.5888456553E+00    0.1544751796E-03    0.4262043047E-02
    0.3500000000E+02    0.1173638504E-04    0.1340614490E-04    0.5940657986E+00    0.1586427682E-03    0.4262626029E-02
    0.3700000000E+02    0.1188382428E-04    0.1358028994E-04    0.5988004183E+00    0.1628723421E-03    0.4263117628E-02
    0.3900000000E+02    0.1203112832E-04    0.1375468996E-04    0.6031142472E+00    0.1671611328E-03    0.4263529677E-02
    0.4100000000E+02    0.1217870962E-04    0.1392977392E-04    0.6070609995E+00    0.1715061050E-03    0.4263872015E-02
    0.4300000000E+02    0.1232687383E-04    0.1410585410E-04    0.6106856199E+00    0.1759041437E-03    0.4264152900E-02
    0.4500000000E+02    0.1247584628E-04    0.1428315562E-04    0.6140260032E+00    0.1803521698E-03    0.4264379310E-02
    0.4700000000E+02    0.1262579162E-04    0.1446183815E-04    0.6171143243E+00    0.1848472110E-03    0.4264557185E-02
    0.4900000000E+02    0.1277682832E-04    0.1464201205E-04    0.6199780782E+00    0.1893864417E-03    0.4264691616E-02
    0.1000000000E+02    0.8991514382E-05    0.1026506467E-04    0.4350248629E+00    0.1073177755E-03    0.4238090892E-02
    0.3000000000E+02    0.1136305590E-04    0.1296750537E-04    0.5799280799E+00    0.1483445779E-03    0.4260964971E-02
    0.5000000000E+02    0.1285278310E-04    0.1473268229E-04    0.6213332607E+00    0.1916717907E-03    0.4264743935E-02
    0.7000000000E+02    0.1443837362E-04    0.1663069696E-04    0.6409488194E+00    0.2391483983E-03    0.4264311745E-02
    0.9000000000E+02    0.1614282022E-04    0.1867453037E-04    0.6523923117E+00    0.2890140623E-03    0.4262213454E-02
    0.1100000000E+03    0.1794419017E-04    0.2083442406E-04    0.6598902787E+00    0.3404704021E-03    0.4259259136E-02
    0.1300000000E+03    0.1982463238E-04    0.2308802807E-04    0.6651832196E+00    0.3931567026E-03    0.4255788833E-02
    0.1500000000E+03    0.2177229703E-04    0.2542091179E-04    0.6691191359E+00    0.4469055784E-03    0.4251970297E-02
    0.1700000000E+03    0.2377955840E-04    0.2782393980E-04    0.6721606037E+00    0.5016417639E-03    0.4247895478E-02
    0.1900000000E+03    0.2584154812E-04    0.3029135442E-04    0.6745814076E+00    0.5573372249E-03    0.4243618570E-02
    0.2100000000E+03    0.2795520560E-04    0.3281958158E-04    0.6765539386E+00    0.6139897126E-03    0.4239173182E-02
    0.2300000000E+03    0.3011868350E-04    0.3540649825E-04    0.6781921544E+00    0.6716118502E-03    0.4234580887E-02
    0.2500000000E+03    0.3233097227E-04    0.3805097579E-04    0.6795744039E+00    0.7302252900E-03    0.4229855817E-02
    0.2700000000E+03    0.3459165823E-04    0.4075258859E-04    0.6807563276E+00    0.7898574578E-03    0.4225007295E-02
    0.2900000000E+03    0.3690076433E-04    0.4351142365E-04    0.6817785294E+00    0.8505396854E-03    0.4220041405E-02
    0.3100000000E+03    0.3925864313E-04    0.4632795347E-04    0.6826713342E+00    0.9123061179E-03    0.4214961978E-02
    0.3300000000E+03    0.4166590360E-04    0.4920294957E-04    0.6834578472E+00    0.9751930703E-03    0.4209771230E-02
    0.3500000000E+03    0.4412336027E-04    0.5213742268E-04    0.6841559819E+00    0.1039238652E-02    0.4204470182E-02
    0.3700000000E+03    0.4663199745E-04    0.5513258097E-04    0.6847798405E+00    0.1104482556E-02    0.4199058950E-02
    0.3900000000E+03    0.4919294396E-04    0.5818980058E-04    0.6853406764E+00    0.1170965951E-02    0.4193536945E-02
    0.4100000000E+03    0.5180745518E-04    0.6131060487E-04    0.6858475793E+00    0.1238731441E-02    0.4187903013E-02
    0.4300000000E+03    0.5447690035E-04    0.6449664980E-04    0.6863079707E+00    0.1307823066E-02    0.4182155541E-02
    0.4500000000E+03    0.5720275373E-04    0.6774971383E-04    0.6867279705E+00    0.1378286335E-02    0.4176292526E-02
    0.4700000000E+03    0.5998658861E-04    0.7107169119E-04    0.6871126700E+00    0.1450168281E-02    0.4170311631E-02
    0.4900000000E+03    0.6283007349E-04    0.7446458761E-04    0.6874663393E+00    0.1523517527E-02    0.4164210222E-02
    0.1000000000E+03    0.1703266413E-04    0.1974158396E-04    0.6564949206E+00    0.3145723043E-03    0.4260816143E-02
    0.3000000000E+03    0.3807357440E-04    0.4491243469E-04    0.6822395208E+00    0.8812851518E-03    0.4217515713E-02
    0.5000000000E+03    0.6427473157E-04    0.7618828716E-04    0.6876326875E+00    0.1560758035E-02    0.4161113430E-02
    0.7000000000E+03    0.9678744886E-04    0.1149701459E-03    0.6899698233E+00    0.2396079370E-02    0.4092002518E-02
    0.9000000000E+03    0.1379852656E-03    0.1640973293E-03    0.6912748034E+00    0.3451228672E-02    0.4005951686E-02
    0.1100000000E+04    0.1915737468E-03    0.2279922745E-03    0.6921075964E+00    0.4822477074E-02    0.3896143031E-02
    0.1300000000E+04    0.2634218990E-03    0.3136558324E-03    0.6926851555E+00    0.6661228506E-02    0.3751933663E-02
    0.1500000000E+04    0.3630761977E-03    0.4324746937E-03    0.6931091830E+00    0.9213598688E-02    0.3556450227E-02
    0.1700000000E+04    0.5062524544E-03    0.6031957643E-03    0.6934336874E+00    0.1288543139E-01    0.3282942713E-02
    0.1900000000E+04    0.7177963179E-03    0.8554633042E-03    0.6936900063E+00    0.1832074833E-01    0.2891737923E-02
    0.2100000000E+04    0.1029350706E-02    0.1227053082E-02    0.6938975722E+00    0.2634737064E-01    0.2339796603E-02
    0.2300000000E+04    0.1450610539E-02    0.1729614881E-02    0.6940690748E+00    0.3724576713E-01    0.1638991479E-02
    0.2500000000E+04    0.1907502402E-02    0.2274921681E-02    0.6942131526E+00    0.4914987237E-01    0.9539929278E-03
    0.2700000000E+04    0.2275516296E-02    0.2714496219E-02    0.6943358895E+00    0.5886069697E-01    0.4986468507E-03
    0.2900000000E+04    0.2523423614E-02    0.3010996756E-02    0.6944416941E+00    0.6554009932E-01    0.2850367383E-03
    0.3100000000E+04    0.2696683949E-02    0.3218560293E-02    0.6945338395E+00    0.7033043457E-01    0.2032833495E-03
    0.3300000000E+04    0.2834930508E-02    0.3384425719E-02    0.6946148064E+00    0.7424189114E-01    0.1746694810E-03
    0.3500000000E+04    0.2957009740E-02    0.3531062159E-02    0.6946865091E+00    0.7775699071E-01    0.1651049125E-03
    0.3700000000E+04    0.3070403154E-02    0.3667389135E-02    0.6947504489E+00    0.8106728466E-01    0.1621185483E-03
    0.3900000000E+04    0.3177985146E-02    0.3796831853E-02    0.6948078192E+00    0.8424580830E-01    0.1613816965E-03
    0.4100000000E+04    0.3280918497E-02    0.3920773928E-02    0.6948595809E+00    0.8732143068E-01    0.1614094279E-03
    0.4300000000E+04    0.3379741734E-02    0.4039854359E-02    0.6949065163E+00    0.9030690335E-01    0.1616914774E-03
    0.4500000000E+04    0.3474762381E-02    0.4154436695E-02    0.6949492688E+00    0.9320904306E-01    0.1620517138E-03
    0.4700000000E+04    0.3566198249E-02    0.4264777631E-02    0.6949883723E+00    0.9603240122E-01    0.1624293045E-03
    0.4900000000E+04    0.3654228566E-02    0.4371088029E-02    0.6950242735E+00    0.9878059350E-01    0.1628035201E-03
    0.1000000000E+04    0.1629282263E-03    0.1938380239E-03    0.6917326200E+00    0.4089529238E-02    0.3954570529E-02
    0.3000000000E+04    0.2616341066E-02    0.3122268407E-02    0.6944893037E+00    0.6809397166E-01    0.2339157049E-03
    0.5000000000E+04    0.3697017025E-02    0.4422791009E-02    0.6950411434E+00    0.1001275041E+00    0.1629870261E-03
    0.7000000000E+04    0.4407438562E-02    0.5284567402E-02    0.6952769671E+00    0.1237831098E+00    0.1660927535E-03
    0.9000000000E+04    0.4908491098E-02    0.5897602204E-02    0.6954075073E+00    0.1425437320E+00    0.1684461256E-03
    0.1100000000E+05    0.5268204278E-02    0.6342082667E-02    0.6954902512E+00    0.1578118373E+00    0.1703459777E-03
    0.1300000000E+05    0.5529198241E-02    0.6668365150E-02    0.6955472985E+00    0.1704979984E+00    0.1719421645E-03
    0.1500000000E+05    0.5719335965E-02    0.6909452141E-02    0.6955889542E+00    0.1812196294E+00    0.1733203269E-03
    0.1700000000E+05    0.5857476004E-02    0.7087738695E-02    0.6956206689E+00    0.1904104670E+00    0.1745341161E-03
    0.1900000000E+05    0.5956755373E-02    0.7218867438E-02    0.6956455947E+00    0.1983843418E+00    0.1756194156E-03
    0.2100000000E+05    0.6026550120E-02    0.7314033975E-02    0.6956656808E+00    0.2053740700E+00    0.1766014336E-03
    0.2300000000E+05    0.6073691864E-02    0.7381419443E-02    0.6956821969E+00    0.2115561057E+00    0.1774985698E-03
    0.2500000000E+05    0.6103247699E-02    0.7427110256E-02    0.6956960053E+00    0.2170666917E+00    0.1783246737E-03
    0.2700000000E+05    0.6119034483E-02    0.7455705535E-02    0.6957077122E+00    0.2220127462E+00    0.1790904359E-03
    0.2900000000E+05    0.6123966397E-02    0.7470728263E-02    0.6957177558E+00    0.2264793866E+00    0.1798042844E-03
    0.3100000000E+05    0.6120294985E-02    0.7474909693E-02    0.6957264609E+00    0.2305352446E+00    0.1804729833E-03
    0.3300000000E+05    0.6109778117E-02    0.7470389892E-02    0.6957340732E+00    0.2342362937E+00    0.1811020454E-03
    0.3500000000E+05    0.6093801004E-02    0.7458861599E-02    0.6957407821E+00    0.2376286558E+00    0.1816960242E-03
    0.3700000000E+05    0.6073464191E-02    0.7441675025E-02    0.6957467357E+00    0.2407506894E+00    0.1822587248E-03
    0.3900000000E+05    0.6049648441E-02    0.7419915263E-02    0.6957520517E+00    0.2436345675E+00    0.1827933603E-03
    0.4100000000E+05    0.6023063187E-02    0.7394460195E-02    0.6957568245E+00    0.2463074838E+00    0.1833026689E-03
    0.4300000000E+05    0.5994283117E-02    0.7366024313E-02    0.6957611310E+00    0.2487925866E+00    0.1837890034E-03
    0.4500000000E+05    0.5963776109E-02    0.7335192220E-02    0.6957650343E+00    0.2511097092E+00    0.1842544009E-03
    0.4700000000E+05    0.5931924743E-02    0.7302444505E-02    0.6957685866E+00    0.2532759468E+00    0.1847006366E-03
    0.4900000000E+05    0.5899043033E-02    0.7268177889E-02    0.6957718318E+00    0.2553061169E+00    0.1851292673E-03
    0.1000000000E+05    0.5102913263E-02    0.6137249646E-02    0.6954530579E+00    0.1505488295E+00    0.1694412776E-03
    0.3000000000E+05    0.6123086279E-02    0.7474028442E-02    0.6957222587E+00    0.2285549054E+00    0.1801439076E-03
    0.5000000000E+05    0.5882298466E-02    0.7250580002E-02    0.6957733508E+00    0.2562742768E+00    0.1853374162E-03
    0.7000000000E+05    0.5536310193E-02    0.6874250860E-02    0.6957940779E+00    0.2708969094E+00    0.1888381245E-03
    0.9000000000E+05    0.5214200803E-02    0.6512368993E-02    0.6958049354E+00    0.2800741101E+00    0.1914953301E-03
    0.1100000000E+06    0.4932256601E-02    0.6190442753E-02    0.6958114211E+00    0.2864332718E+00    0.1936436266E-03
    0.1300000000E+06    0.4687588275E-02    0.5908117096E-02    0.6958156147E+00    0.2911320225E+00    0.1954502678E-03
    0.1500000000E+06    0.4474341955E-02    0.5660127837E-02    0.6958184706E+00    0.2947640540E+00    0.1970111747E-03
    0.1700000000E+06    0.4287030973E-02    0.5440953471E-02    0.6958204852E+00    0.2976669635E+00    0.1983865838E-03
    0.1900000000E+06    0.4121123561E-02    0.5245830976E-02    0.6958219411E+00    0.3000477004E+00    0.1996168536E-03
    0.2100000000E+06    0.3972999137E-02    0.5070862743E-02    0.6958230101E+00    0.3020406007E+00    0.2007303730E-03
    0.2300000000E+06    0.3839781884E-02    0.4912904078E-02    0.6958238020E+00    0.3037368916E+00    0.2017478855E-03
    0.2500000000E+06    0.3719178069E-02    0.4769418326E-02    0.6958243902E+00    0.3052008307E+00    0.2026850175E-03
    0.2700000000E+06    0.3609343624E-02    0.4638348328E-02    0.6958248253E+00    0.3064790665E+00    0.2035538397E-03
    0.2900000000E+06    0.3508782188E-02    0.4518013103E-02    0.6958251434E+00    0.3076063346E+00    0.2043638734E-03
    0.3100000000E+06    0.3416267974E-02    0.4407027593E-02    0.6958253705E+00    0.3086090657E+00    0.2051227639E-03
    0.3300000000E+06    0.3330787532E-02    0.4304240976E-02    0.6958255261E+00    0.3095077506E+00    0.2058367451E-03
    0.3500000000E+06    0.3251495605E-02    0.4208689269E-02    0.6958256247E+00    0.3103185357E+00    0.2065109674E-03
    0.3700000000E+06    0.3177681410E-02    0.4119558757E-02    0.6958256776E+00    0.3110543278E+00    0.2071497366E-03
    0.3900000000E+06    0.3108742663E-02    0.4036157585E-02    0.6958256935E+00    0.3117255756E+00    0.2077566893E-03
    0.4100000000E+06    0.3044165388E-02    0.3957893511E-02    0.6958256794E+00    0.3123408348E+00    0.2083349256E-03
    0.4300000000E+06    0.2983508073E-02    0.3884256363E-02    0.6958256405E+00    0.3129071820E+00    0.2088871098E-03
    0.4500000000E+06    0.2926389133E-02    0.3814804076E-02    0.6958255814E+00    0.3134305255E+00    0.2094155488E-03
    0.4700000000E+06    0.2872476898E-02    0.3749151493E-02    0.6958255055E+00    0.3139158384E+00    0.2099222537E-03
    0.4900000000E+06    0.2821481565E-02    0.3686961328E-02    0.6958254157E+00    0.3143673394E+00    0.2104089884E-03
    0.1000000000E+06    0.5068240295E-02    0.6346212428E-02    0.6958085550E+00    0.2835145185E+00    0.1926203123E-03
    0.3000000000E+06    0.3461586920E-02    0.4461428434E-02    0.6958252670E+00    0.3081218690E+00    0.2047492932E-03
    0.5000000000E+06    0.2796996987E-02    0.3657070499E-02    0.6958253664E+00    0.3145815575E+00    0.2106453604E-03
    0.7000000000E+06    0.2412399733E-02    0.3184803226E-02    0.6958240507E+00    0.3177410546E+00    0.2146213098E-03
    0.9000000000E+06    0.2153783065E-02    0.2864150812E-02    0.6958225598E+00    0.3196655881E+00    0.2176398179E-03
    0.1100000000E+07    0.1964487927E-02    0.2627732483E-02    0.6958211227E+00    0.3209815941E+00    0.2200804799E-03
    0.1300000000E+07    0.1818143578E-02    0.2443883975E-02    0.6958197866E+00    0.3219485412E+00    0.2221331287E-03
    0.1500000000E+07    0.1700590838E-02    0.2295480788E-02    0.6958185546E+00    0.3226947597E+00    0.2239066643E-03
    0.1700000000E+07    0.1603454372E-02    0.2172334751E-02    0.6958174181E+00    0.3232915530E+00    0.2254694859E-03
    0.1900000000E+07    0.1521419596E-02    0.2067949559E-02    0.6958163665E+00    0.3237819569E+00    0.2268674269E-03
    0.2100000000E+07    0.1450929125E-02    0.1977958675E-02    0.6958153894E+00    0.3241936093E+00    0.2281327309E-03
    0.2300000000E+07    0.1389499541E-02    0.1899302645E-02    0.6958144777E+00    0.3245451389E+00    0.2292889594E-03
    0.2500000000E+07    0.1335337233E-02    0.1829764611E-02    0.6958136238E+00    0.3248495984E+00    0.2303538629E-03
    0.2700000000E+07    0.1287109931E-02    0.1767693071E-02    0.6958128209E+00    0.3251164291E+00    0.2313411534E-03
    0.2900000000E+07    0.1243804441E-02    0.1711828689E-02    0.6958120634E+00    0.3253526442E+00    0.2322616475E-03
    0.3100000000E+07    0.1204634598E-02    0.1661191901E-02    0.6958113465E+00    0.3255635718E+00    0.2331240309E-03
    0.3300000000E+07    0.1168979735E-02    0.1615007596E-02    0.6958106661E+00    0.3257533391E+00    0.2339353855E-03
    0.3500000000E+07    0.1136342390E-02    0.1572653213E-02    0.6958100187E+00    0.3259251975E+00    0.2347015633E-03
    0.3700000000E+07    0.1106318527E-02    0.1533622106E-02    0.6958094012E+00    0.3260817459E+00    0.2354274562E-03
    0.3900000000E+07    0.1078576098E-02    0.1497497133E-02    0.6958088110E+00    0.3262250895E+00    0.2361171960E-03
    0.4100000000E+07    0.1052839345E-02    0.1463931255E-02    0.6958082456E+00    0.3263569532E+00    0.2367743050E-03
    0.4300000000E+07    0.1028877082E-02    0.1432633051E-02    0.6958077032E+00    0.3264787650E+00    0.2374018104E-03
    0.4500000000E+07    0.1006493835E-02    0.1403355729E-02    0.6958071819E+00    0.3265917186E+00    0.2380023335E-03
    0.4700000000E+07    0.9855230455E-03    0.1375888689E-02    0.6958066800E+00    0.3266968198E+00    0.2385781593E-03
    0.4900000000E+07    0.9658217850E-03    0.1350050955E-02    0.6958061962E+00    0.3267949230E+00    0.2391312921E-03
    0.1000000000E+07    0.2052524952E-02    0.2737873969E-02    0.6958218298E+00    0.3203789227E+00    0.2189178760E-03
    0.3000000000E+07    0.1223744665E-02    0.1685909383E-02    0.6958117001E+00    0.3254609872E+00    0.2326996278E-03
    0.5000000000E+07    0.9564079869E-03    0.1337693330E-02    0.6958059606E+00    0.3268415830E+00    0.2393999093E-03
    0.7000000000E+07    0.8120839561E-03    0.1147232425E-02    0.6958019489E+00    0.3275396723E+00    0.2439182837E-03
    0.9000000000E+07    0.7183422719E-03    0.1022409627E-02    0.6957988527E+00    0.3279761158E+00    0.2473486309E-03
    0.1100000000E+08    0.6511666780E-03    0.9323456305E-03    0.6957963253E+00    0.3282808861E+00    0.2501223062E-03
    0.1300000000E+08    0.5999778675E-03    0.8633326766E-03    0.6957941866E+00    0.3285087507E+00    0.2524550331E-03
    0.1500000000E+08    0.5592911622E-03    0.8082212458E-03    0.6957923306E+00    0.3286872181E+00    0.2544705663E-03
    0.1700000000E+08    0.5259411410E-03    0.7628645185E-03    0.6957906899E+00    0.3288317844E+00    0.2562466359E-03
    0.1900000000E+08    0.4979557153E-03    0.7246680149E-03    0.6957892186E+00    0.3289519188E+00    0.2578353280E-03
    0.2100000000E+08    0.4740335756E-03    0.6919133891E-03    0.6957878843E+00    0.3290537705E+00    0.2592732853E-03
    0.2300000000E+08    0.4532766471E-03    0.6634108564E-03    0.6957866630E+00    0.3291415268E+00    0.2605872839E-03
    0.2500000000E+08    0.4350424118E-03    0.6383066805E-03    0.6957855367E+00    0.3292181486E+00    0.2617974963E-03
    0.2700000000E+08    0.4188573870E-03    0.6159700375E-03    0.6957844913E+00    0.3292857964E+00    0.2629195054E-03
