  Pressure (Pa) 22mC5-500 (mol/kg) 23mC5-500 (mol/kg) 24mC5-500 (mol/kg) 2mC6-500 (mol/kg) C7-500 (mol/kg)
    0.1000000000E+01    0.4226370001E-05    0.1819088797E-05    0.1513944753E+00    0.2694568431E-05    0.4235011390E-02
    0.3000000000E+01    0.8220489984E-05    0.3526526473E-05    0.3164500504E+00    0.4965671272E-05    0.4315267220E-02
    0.5000000000E+01    0.1001920239E-04    0.4289024805E-05    0.4046922547E+00    0.5891086698E-05    0.4358724193E-02
    0.7000000000E+01    0.1100126232E-04    0.4703006540E-05    0.4596203884E+00    0.6405493309E-05    0.4386468644E-02
    0.9000000000E+01    0.1161922893E-04    0.4963122200E-05    0.4971043797E+00    0.6777901454E-05    0.4405906791E-02
    0.1100000000E+02    0.1205683704E-04    0.5147908068E-05    0.5243154028E+00    0.7102113078E-05    0.4420390972E-02
    0.1300000000E+02    0.1239925064E-04    0.5293517768E-05    0.5449676387E+00    0.7414319188E-05    0.4431669247E-02
    0.1500000000E+02    0.1268966413E-04    0.5418147060E-05    0.5611773599E+00    0.7729023889E-05    0.4440745879E-02
    0.1700000000E+02    0.1295143046E-04    0.5531546624E-05    0.5742387962E+00    0.8051839342E-05    0.4448240490E-02
    0.1900000000E+02    0.1319776903E-04    0.5639178689E-05    0.5849879476E+00    0.8384548139E-05    0.4454556980E-02
    0.2100000000E+02    0.1343640940E-04    0.5744196891E-05    0.5939888926E+00    0.8727259170E-05    0.4459970401E-02
    0.2300000000E+02    0.1367196730E-04    0.5848454644E-05    0.6016360322E+00    0.9079372639E-05    0.4464674861E-02
    0.2500000000E+02    0.1390722738E-04    0.5953046874E-05    0.6082134278E+00    0.9440024664E-05    0.4468811470E-02
    0.2700000000E+02    0.1414386666E-04    0.6058613910E-05    0.6139308653E+00    0.9808293382E-05    0.4472485411E-02
    0.2900000000E+02    0.1438287738E-04    0.6165518081E-05    0.6189466420E+00    0.1018329205E-04    0.4475776789E-02
    0.3100000000E+02    0.1462482170E-04    0.6273949389E-05    0.6233824499E+00    0.1056420762E-04    0.4478747756E-02
    0.3300000000E+02    0.1486998884E-04    0.6383990245E-05    0.6273333784E+00    0.1095031285E-04    0.4481447326E-02
    0.3500000000E+02    0.1511849416E-04    0.6495655921E-05    0.6308748067E+00    0.1134096598E-04    0.4483914707E-02
    0.3700000000E+02    0.1537034248E-04    0.6608920203E-05    0.6340672595E+00    0.1173560471E-04    0.4486181669E-02
    0.3900000000E+02    0.1562546925E-04    0.6723731856E-05    0.6369598942E+00    0.1213373817E-04    0.4488274250E-02
    0.4100000000E+02    0.1588376750E-04    0.6840025259E-05    0.6395930495E+00    0.1253493843E-04    0.4490214008E-02
    0.4300000000E+02    0.1614510556E-04    0.6957727310E-05    0.6420001386E+00    0.1293883247E-04    0.4492018960E-02
    0.4500000000E+02    0.1640933882E-04    0.7076761887E-05    0.6442090740E+00    0.1334509483E-04    0.4493704291E-02
    0.4700000000E+02    0.1667631742E-04    0.7197052717E-05    0.6462433546E+00    0.1375344120E-04    0.4495282897E-02
    0.4900000000E+02    0.1694589135E-04    0.7318525185E-05    0.6481229053E+00    0.1416362274E-04    0.4496765810E-02
    0.1000000000E+02    0.1185386732E-04    0.5062076875E-05    0.5117106513E+00    0.6943018292E-05    0.4413635071E-02
    0.3000000000E+02    0.1450345974E-04    0.6219535735E-05    0.6212305683E+00    0.1037305772E-04    0.4477298998E-02
    0.5000000000E+02    0.1708160545E-04    0.7379681952E-05    0.6490100701E+00    0.1436933245E-04    0.4497474402E-02
    0.7000000000E+02    0.1989986748E-04    0.8649416989E-05    0.6616897960E+00    0.1853923073E-04    0.4508358688E-02
    0.9000000000E+02    0.2285211820E-04    0.9978263942E-05    0.6689497378E+00    0.2275621930E-04    0.4515481730E-02
    0.1100000000E+03    0.2588048773E-04    0.1134003128E-04    0.6736526782E+00    0.2698076415E-04    0.4520631515E-02
    0.1300000000E+03    0.2895461729E-04    0.1272125311E-04    0.6769470769E+00    0.3119914092E-04    0.4524585074E-02
    0.1500000000E+03    0.3205766000E-04    0.1411456002E-04    0.6793832058E+00    0.3540670899E-04    0.4527743096E-02
    0.1700000000E+03    0.3517976070E-04    0.1551569226E-04    0.6812577406E+00    0.3960238862E-04    0.4530336860E-02
    0.1900000000E+03    0.3831491302E-04    0.1692208400E-04    0.6827447553E+00    0.4378656953E-04    0.4532511007E-02
    0.2100000000E+03    0.4145934588E-04    0.1833214451E-04    0.6839531226E+00    0.4796024153E-04    0.4534361594E-02
    0.2300000000E+03    0.4461064483E-04    0.1974487013E-04    0.6849544270E+00    0.5212461083E-04    0.4535955453E-02
    0.2500000000E+03    0.4776724887E-04    0.2115962362E-04    0.6857976689E+00    0.5628092560E-04    0.4537340850E-02
    0.2700000000E+03    0.5092814982E-04    0.2257600325E-04    0.6865175196E+00    0.6043039692E-04    0.4538553718E-02
    0.2900000000E+03    0.5409270619E-04    0.2399376216E-04    0.6871392020E+00    0.6457416505E-04    0.4539621495E-02
    0.3100000000E+03    0.5726052428E-04    0.2541275725E-04    0.6876815039E+00    0.6871328761E-04    0.4540565584E-02
    0.3300000000E+03    0.6043138045E-04    0.2683291587E-04    0.6881587068E+00    0.7284873844E-04    0.4541402989E-02
    0.3500000000E+03    0.6360516899E-04    0.2825421368E-04    0.6885818609E+00    0.7698141139E-04    0.4542147434E-02
    0.3700000000E+03    0.6678186662E-04    0.2967665966E-04    0.6889596494E+00    0.8111212629E-04    0.4542810152E-02
    0.3900000000E+03    0.6996150787E-04    0.3110028575E-04    0.6892989907E+00    0.8524163556E-04    0.4543400446E-02
    0.4100000000E+03    0.7314416782E-04    0.3252513965E-04    0.6896054646E+00    0.8937063081E-04    0.4543926105E-02
    0.4300000000E+03    0.7632994978E-04    0.3395127978E-04    0.6898836212E+00    0.9349974904E-04    0.4544393716E-02
    0.4500000000E+03    0.7951897654E-04    0.3537877161E-04    0.6901372079E+00    0.9762957831E-04    0.4544808895E-02
    0.4700000000E+03    0.8271138396E-04    0.3680768516E-04    0.6903693390E+00    0.1017606628E-03    0.4545176468E-02
    0.4900000000E+03    0.8590731640E-04    0.3823809308E-04    0.6905826240E+00    0.1058935076E-03    0.4545500614E-02
    0.1000000000E+03    0.2435911548E-04    0.1065606944E-04    0.6715282676E+00    0.2486872531E-04    0.4518241914E-02
    0.3000000000E+03    0.5567622477E-04    0.2470311107E-04    0.6874192947E+00    0.6664424422E-04    0.4540107849E-02
    0.5000000000E+03    0.8750665109E-04    0.3895388053E-04    0.6906829013E+00    0.1079607381E-03    0.4545647557E-02
    0.7000000000E+03    0.1197153142E-03    0.5336594461E-04    0.6920887646E+00    0.1494966818E-03    0.4546986578E-02
    0.9000000000E+03    0.1524419202E-03    0.6800613958E-04    0.6928709436E+00    0.1915956608E-03    0.4546313165E-02
    0.1100000000E+04    0.1858047013E-03    0.8292898513E-04    0.6933687488E+00    0.2344652854E-03    0.4544415629E-02
    0.1300000000E+04    0.2199000305E-03    0.9817835798E-04    0.6937131923E+00    0.2782537968E-03    0.4541664369E-02
    0.1500000000E+04    0.2548106324E-03    0.1137916757E-03    0.6939655479E+00    0.3230799663E-03    0.4538260631E-02
    0.1700000000E+04    0.2906112457E-03    0.1298026146E-03    0.6941582984E+00    0.3690469317E-03    0.4534323971E-02
    0.1900000000E+04    0.3273722077E-03    0.1462427929E-03    0.6943102655E+00    0.4162494758E-03    0.4529929548E-02
    0.2100000000E+04    0.3651617879E-03    0.1631428522E-03    0.6944331064E+00    0.4647782607E-03    0.4525126217E-02
    0.2300000000E+04    0.4040477859E-03    0.1805331934E-03    0.6945344261E+00    0.5147225092E-03    0.4519946155E-02
    0.2500000000E+04    0.4440986912E-03    0.1984445060E-03    0.6946193963E+00    0.5661718363E-03    0.4514410368E-02
    0.2700000000E+04    0.4853845747E-03    0.2169081744E-03    0.6946916566E+00    0.6192175950E-03    0.4508532012E-02
    0.2900000000E+04    0.5279778181E-03    0.2359566078E-03    0.6947538423E+00    0.6739539328E-03    0.4502318476E-02
    0.3100000000E+04    0.5719537413E-03    0.2556235241E-03    0.6948079082E+00    0.7304786775E-03    0.4495772749E-02
    0.3300000000E+04    0.6173911737E-03    0.2759442070E-03    0.6948553350E+00    0.7888941215E-03    0.4488894322E-02
    0.3500000000E+04    0.6643729947E-03    0.2969557494E-03    0.6948972646E+00    0.8493077540E-03    0.4481679803E-02
    0.3700000000E+04    0.7129866643E-03    0.3186972913E-03    0.6949345917E+00    0.9118329697E-03    0.4474123338E-02
    0.3900000000E+04    0.7633247596E-03    0.3412102606E-03    0.6949680273E+00    0.9765897792E-03    0.4466216893E-02
    0.4100000000E+04    0.8154855286E-03    0.3645386218E-03    0.6949981434E+00    0.1043705539E-02    0.4457950445E-02
    0.4300000000E+04    0.8695734710E-03    0.3887291355E-03    0.6950254055E+00    0.1113315712E-02    0.4449312101E-02
    0.4500000000E+04    0.9256999564E-03    0.4138316358E-03    0.6950501959E+00    0.1185564678E-02    0.4440288161E-02
    0.4700000000E+04    0.9839838866E-03    0.4398993268E-03    0.6950728321E+00    0.1260606599E-02    0.4430863143E-02
    0.4900000000E+04    0.1044552412E-02    0.4669891034E-03    0.6950935794E+00    0.1338606352E-02    0.4421019769E-02
    0.1000000000E+04    0.1690373607E-03    0.7542929589E-04    0.6931447556E+00    0.2129239526E-03    0.4545488662E-02
    0.3000000000E+04    0.5497881065E-03    0.2457105899E-03    0.6947817884E+00    0.7019864744E-03    0.4499087094E-02
    0.5000000000E+04    0.1075735578E-02    0.4809361477E-03    0.6951033159E+00    0.1378770118E-02    0.4415935300E-02
    0.7000000000E+04    0.1859686643E-02    0.8315902685E-03    0.6952383319E+00    0.2389683465E-02    0.4286341032E-02
    0.9000000000E+04    0.3132890063E-02    0.1401154775E-02    0.6953117513E+00    0.4035105539E-02    0.4075304827E-02
    0.1100000000E+05    0.5434099499E-02    0.2430754532E-02    0.6953574429E+00    0.7016760410E-02    0.3700505405E-02
    0.1300000000E+05    0.1005029208E-01    0.4496572552E-02    0.6953883530E+00    0.1301966890E-01    0.2976173735E-02
    0.1500000000E+05    0.1850836540E-01    0.8283224654E-02    0.6954104849E+00    0.2409151630E-01    0.1744822069E-02
    0.1700000000E+05    0.2647511970E-01    0.1185349275E-01    0.6954269960E+00    0.3469096601E-01    0.7842318597E-03
    0.1900000000E+05    0.3027550360E-01    0.1356117585E-01    0.6954397022E+00    0.3996585377E-01    0.5340627069E-03
    0.2100000000E+05    0.3255137681E-01    0.1458725144E-01    0.6954497201E+00    0.4329045191E-01    0.4971968440E-03
    0.2300000000E+05    0.3444804035E-01    0.1544412093E-01    0.6954577731E+00    0.4614770027E-01    0.4939087945E-03
    0.2500000000E+05    0.3617774147E-01    0.1622671765E-01    0.6954643494E+00    0.4881132707E-01    0.4953294012E-03
    0.2700000000E+05    0.3778345293E-01    0.1695420840E-01    0.6954697903E+00    0.5133424908E-01    0.4973157221E-03
    0.2900000000E+05    0.3928081658E-01    0.1763353059E-01    0.6954743412E+00    0.5373388602E-01    0.4992728196E-03
    0.3100000000E+05    0.4068017729E-01    0.1826925818E-01    0.6954781828E+00    0.5602107812E-01    0.5011235829E-03
    0.3300000000E+05    0.4199014528E-01    0.1886519621E-01    0.6954814511E+00    0.5820474002E-01    0.5028677131E-03
    0.3500000000E+05    0.4321828791E-01    0.1942468963E-01    0.6954842502E+00    0.6029272643E-01    0.5045151758E-03
    0.3700000000E+05    0.4437134455E-01    0.1995071848E-01    0.6954866609E+00    0.6229207175E-01    0.5060760414E-03
    0.3900000000E+05    0.4545534711E-01    0.2044595105E-01    0.6954887473E+00    0.6420911099E-01    0.5075591238E-03
    0.4100000000E+05    0.4647571176E-01    0.2091278425E-01    0.6954905602E+00    0.6604956843E-01    0.5089719927E-03
    0.4300000000E+05    0.4743731522E-01    0.2135337717E-01    0.6954921410E+00    0.6781863092E-01    0.5103211640E-03
    0.4500000000E+05    0.4834455983E-01    0.2176967965E-01    0.6954935232E+00    0.6952101047E-01    0.5116122814E-03
    0.4700000000E+05    0.4920142930E-01    0.2216345689E-01    0.6954947346E+00    0.7116099808E-01    0.5128502647E-03
    0.4900000000E+05    0.5001153689E-01    0.2253631059E-01    0.6954957980E+00    0.7274251039E-01    0.5140394286E-03
    0.1000000000E+05    0.4099203331E-02    0.1833477848E-02    0.6953370094E+00    0.5286107449E-02    0.3916761265E-02
    0.3000000000E+05    0.3999218084E-01    0.1795659338E-01    0.6954763413E+00    0.5489095109E-01    0.5002120168E-03
    0.5000000000E+05    0.5040009319E-01    0.2271535152E-01    0.6954962803E+00    0.7351246997E-01    0.5146169102E-03
    0.7000000000E+05    0.5637344991E-01    0.2548940589E-01    0.6955015046E+00    0.8656805966E-01    0.5243297658E-03
    0.9000000000E+05    0.6006823927E-01    0.2723649061E-01    0.6955025491E+00    0.9646897992E-01    0.5317028678E-03
    0.1100000000E+06    0.6245795463E-01    0.2839102142E-01    0.6955020203E+00    0.1043775179E+00    0.5376641178E-03
    0.1300000000E+06    0.6404209540E-01    0.2917693986E-01    0.6955008203E+00    0.1109298737E+00    0.5426774401E-03
    0.1500000000E+06    0.6510114392E-01    0.2972060121E-01    0.6954993239E+00    0.1165070242E+00    0.5470089317E-03
    0.1700000000E+06    0.6580354285E-01    0.3009826544E-01    0.6954977047E+00    0.1213529338E+00    0.5508257091E-03
    0.1900000000E+06    0.6625584830E-01    0.3035842295E-01    0.6954960490E+00    0.1256321685E+00    0.5542397462E-03
    0.2100000000E+06    0.6652831635E-01    0.3053321612E-01    0.6954944014E+00    0.1294604419E+00    0.5573298120E-03
    0.2300000000E+06    0.6666885655E-01    0.3064468572E-01    0.6954927850E+00    0.1329219233E+00    0.5601534635E-03
    0.2500000000E+06    0.6671106403E-01    0.3070837687E-01    0.6954912119E+00    0.1360795874E+00    0.5627540604E-03
    0.2700000000E+06    0.6667905455E-01    0.3073551615E-01    0.6954896874E+00    0.1389816868E+00    0.5651650967E-03
    0.2900000000E+06    0.6659048671E-01    0.3073437643E-01    0.6954882135E+00    0.1416659534E+00    0.5674129931E-03
    0.3100000000E+06    0.6645851278E-01    0.3071116068E-01    0.6954867903E+00    0.1441624162E+00    0.5695189648E-03
    0.3300000000E+06    0.6629307333E-01    0.3067059021E-01    0.6954854164E+00    0.1464953431E+00    0.5715003100E-03
    0.3500000000E+06    0.6610177746E-01    0.3061630597E-01    0.6954840902E+00    0.1486846132E+00    0.5733713214E-03
    0.3700000000E+06    0.6589051423E-01    0.3055114820E-01    0.6954828094E+00    0.1507467059E+00    0.5751439474E-03
    0.3900000000E+06    0.6566388529E-01    0.3047735497E-01    0.6954815718E+00    0.1526954291E+00    0.5768282798E-03
    0.4100000000E+06    0.6542551641E-01    0.3039670563E-01    0.6954803752E+00    0.1545424633E+00    0.5784329212E-03
    0.4300000000E+06    0.6517828504E-01    0.3031062593E-01    0.6954792174E+00    0.1562977749E+00    0.5799652652E-03
    0.4500000000E+06    0.6492448893E-01    0.3022026628E-01    0.6954780962E+00    0.1579699345E+00    0.5814317138E-03
    0.4700000000E+06    0.6466597251E-01    0.3012656055E-01    0.6954770096E+00    0.1595663648E+00    0.5828378479E-03
    0.4900000000E+06    0.6440422284E-01    0.3003027088E-01    0.6954759558E+00    0.1610935364E+00    0.5841885623E-03
    0.1000000000E+06    0.6138798192E-01    0.2787070042E-01    0.6955024060E+00    0.1006244914E+00    0.5348245277E-03
    0.3000000000E+06    0.6652924086E-01    0.3072520368E-01    0.6954874956E+00    0.1429360268E+00    0.5684825588E-03
    0.5000000000E+06    0.6427252094E-01    0.2998135694E-01    0.6954754405E+00    0.1618329508E+00    0.5848445064E-03
    0.7000000000E+06    0.6166279757E-01    0.2897111927E-01    0.6954664830E+00    0.1740574557E+00    0.5958779127E-03
    0.9000000000E+06    0.5928274838E-01    0.2800994401E-01    0.6954593879E+00    0.1830728229E+00    0.6042543005E-03
    0.1100000000E+07    0.5717866058E-01    0.2714129141E-01    0.6954535122E+00    0.1901915554E+00    0.6110270983E-03
    0.1300000000E+07    0.5531870473E-01    0.2636227275E-01    0.6954484944E+00    0.1960552956E+00    0.6167231191E-03
    0.1500000000E+07    0.5366343293E-01    0.2566160447E-01    0.6954441124E+00    0.2010267538E+00    0.6216445756E-03
    0.1700000000E+07    0.5217850301E-01    0.2502779313E-01    0.6954402205E+00    0.2053313520E+00    0.6259812849E-03
    0.1900000000E+07    0.5083608460E-01    0.2445088705E-01    0.6954367183E+00    0.2091189009E+00    0.6298604398E-03
    0.2100000000E+07    0.4961396812E-01    0.2392263978E-01    0.6954335332E+00    0.2124940684E+00    0.6333715202E-03
    0.2300000000E+07    0.4849439583E-01    0.2343629185E-01    0.6954306115E+00    0.2155328767E+00    0.6365799118E-03
    0.2500000000E+07    0.4746305715E-01    0.2298629718E-01    0.6954279120E+00    0.2182922821E+00    0.6395348739E-03
    0.2700000000E+07    0.4650830551E-01    0.2256807942E-01    0.6954254025E+00    0.2208160542E+00    0.6422744586E-03
    0.2900000000E+07    0.4562056550E-01    0.2217783426E-01    0.6954230575E+00    0.2231385490E+00    0.6448286826E-03
    0.3100000000E+07    0.4479188653E-01    0.2181237390E-01    0.6954208562E+00    0.2252872212E+00    0.6472216494E-03
    0.3300000000E+07    0.4401560557E-01    0.2146900601E-01    0.6954187816E+00    0.2272843516E+00    0.6494730122E-03
    0.3500000000E+07    0.4328609026E-01    0.2114543947E-01    0.6954168196E+00    0.2291482651E+00    0.6515990100E-03
    0.3700000000E+07    0.4259854144E-01    0.2083971056E-01    0.6954149582E+00    0.2308942109E+00    0.6536132182E-03
    0.3900000000E+07    0.4194883981E-01    0.2055012494E-01    0.6954131875E+00    0.2325350110E+00    0.6555271030E-03
    0.4100000000E+07    0.4133342570E-01    0.2027521156E-01    0.6954114988E+00    0.2340815462E+00    0.6573504386E-03
    0.4300000000E+07    0.4074920383E-01    0.2001368587E-01    0.6954098846E+00    0.2355431268E+00    0.6590916258E-03
    0.4500000000E+07    0.4019346725E-01    0.1976442007E-01    0.6954083384E+00    0.2369277790E+00    0.6607579385E-03
    0.4700000000E+07    0.3966383603E-01    0.1952641909E-01    0.6954068547E+00    0.2382424689E+00    0.6623557180E-03
    0.4900000000E+07    0.3915820744E-01    0.1929880087E-01    0.6954054284E+00    0.2394932796E+00    0.6638905258E-03
    0.1000000000E+07    0.5819770129E-01    0.2756384830E-01    0.6954563246E+00    0.1868200042E+00    0.6078008985E-03
    0.3000000000E+07    0.4519928666E-01    0.2199218464E-01    0.6954219400E+00    0.2242331154E+00    0.6460440044E-03
    0.5000000000E+07    0.3891380264E-01    0.1918863649E-01    0.6954047355E+00    0.2400964255E+00    0.6646358710E-03
    0.7000000000E+07    0.3492652754E-01    0.1737845850E-01    0.6953930490E+00    0.2498169105E+00    0.6771730950E-03
    0.9000000000E+07    0.3207364790E-01    0.1606827750E-01    0.6953841465E+00    0.2566552358E+00    0.6866911783E-03
    0.1100000000E+08    0.2988742856E-01    0.1505564442E-01    0.6953769340E+00    0.2618423946E+00    0.6943871060E-03
    0.1300000000E+08    0.2813554630E-01    0.1423866868E-01    0.6953708602E+00    0.2659705268E+00    0.7008594899E-03
    0.1500000000E+08    0.2668675587E-01    0.1355923031E-01    0.6953656076E+00    0.2693675268E+00    0.7064517330E-03
    0.1700000000E+08    0.2546014443E-01    0.1298122377E-01    0.6953609758E+00    0.2722327667E+00    0.7113795247E-03
    0.1900000000E+08    0.2440255812E-01    0.1248078051E-01    0.6953568306E+00    0.2746958908E+00    0.7157873949E-03
    0.2100000000E+08    0.2347734707E-01    0.1204135471E-01    0.6953530771E+00    0.2768455888E+00    0.7197770198E-03
    0.2300000000E+08    0.2265825763E-01    0.1165103872E-01    0.6953496460E+00    0.2787449949E+00    0.7234226976E-03
    0.2500000000E+08    0.2192589268E-01    0.1130099852E-01    0.6953464851E+00    0.2804405161E+00    0.7267804021E-03
    0.2700000000E+08    0.2126554964E-01    0.1098451343E-01    0.6953435538E+00    0.2819671774E+00    0.7298933722E-03
