  Pressure (Pa) 22mC5-500 (mol/kg) 23mC5-500 (mol/kg) 24mC5-500 (mol/kg) 2mC6-500 (mol/kg) C7-500 (mol/kg)
    0.1000000000E+01    0.4512173453E-05    0.3239529521E-05    0.1266289929E+00    0.1757095564E-04    0.4182437823E-02
    0.3000000000E+01    0.9323334371E-05    0.6674727745E-05    0.2785087112E+00    0.3463099016E-04    0.4217885614E-02
    0.5000000000E+01    0.1175603552E-04    0.8400304458E-05    0.3664043404E+00    0.4254999795E-04    0.4236266033E-02
    0.7000000000E+01    0.1318036371E-04    0.9405716356E-05    0.4237153338E+00    0.4711335259E-04    0.4248095708E-02
    0.9000000000E+01    0.1410935893E-04    0.1005986547E-04    0.4640401960E+00    0.5028614737E-04    0.4256409843E-02
    0.1100000000E+02    0.1477148494E-04    0.1052627368E-04    0.4939562805E+00    0.5285399175E-04    0.4262585889E-02
    0.1300000000E+02    0.1528069303E-04    0.1088609835E-04    0.5170332257E+00    0.5516373104E-04    0.4267356031E-02
    0.1500000000E+02    0.1569857173E-04    0.1118296898E-04    0.5353758223E+00    0.5737811712E-04    0.4271148819E-02
    0.1700000000E+02    0.1606044994E-04    0.1144176640E-04    0.5503055103E+00    0.5957592944E-04    0.4274232854E-02
    0.1900000000E+02    0.1638753329E-04    0.1167732831E-04    0.5626937930E+00    0.6179531462E-04    0.4276785484E-02
    0.2100000000E+02    0.1669300398E-04    0.1189881146E-04    0.5731387169E+00    0.6405394637E-04    0.4278928743E-02
    0.2300000000E+02    0.1698528166E-04    0.1211201595E-04    0.5820643274E+00    0.6635893036E-04    0.4280749482E-02
    0.2500000000E+02    0.1726985624E-04    0.1232068736E-04    0.5897796610E+00    0.6871187691E-04    0.4282311270E-02
    0.2700000000E+02    0.1755036159E-04    0.1252727665E-04    0.5965152606E+00    0.7111157938E-04    0.4283661753E-02
    0.2900000000E+02    0.1782922671E-04    0.1273339943E-04    0.6024466095E+00    0.7355545758E-04    0.4284837382E-02
    0.3100000000E+02    0.1810808248E-04    0.1294012164E-04    0.6077096424E+00    0.7604034353E-04    0.4285866537E-02
    0.3300000000E+02    0.1838802230E-04    0.1314814173E-04    0.6124112930E+00    0.7856290824E-04    0.4286771661E-02
    0.3500000000E+02    0.1866977258E-04    0.1335790941E-04    0.6166368361E+00    0.8111988896E-04    0.4287570750E-02
    0.3700000000E+02    0.1895380656E-04    0.1356970442E-04    0.6204551074E+00    0.8370820440E-04    0.4288278408E-02
    0.3900000000E+02    0.1924042138E-04    0.1378368966E-04    0.6239222828E+00    0.8632500665E-04    0.4288906619E-02
    0.4100000000E+02    0.1952979115E-04    0.1399994747E-04    0.6270846605E+00    0.8896769781E-04    0.4289465314E-02
    0.4300000000E+02    0.1982200373E-04    0.1421850468E-04    0.6299807412E+00    0.9163392722E-04    0.4289962797E-02
    0.4500000000E+02    0.2011708671E-04    0.1443935013E-04    0.6326428031E+00    0.9432157854E-04    0.4290406065E-02
    0.4700000000E+02    0.2041502573E-04    0.1466244693E-04    0.6350981102E+00    0.9702875211E-04    0.4290801065E-02
    0.4900000000E+02    0.2071577761E-04    0.1488774114E-04    0.6373698495E+00    0.9975374549E-04    0.4291152879E-02
    0.1000000000E+02    0.1446496758E-04    0.1031025121E-04    0.4800300574E+00    0.5161786377E-04    0.4259709717E-02
    0.3000000000E+02    0.1796857717E-04    0.1283663497E-04    0.6051544009E+00    0.7479298225E-04    0.4285368747E-02
    0.5000000000E+02    0.2086718934E-04    0.1500119233E-04    0.6384431966E+00    0.1011224417E-03    0.4291313982E-02
    0.7000000000E+02    0.2402372804E-04    0.1736804255E-04    0.6538592388E+00    0.1291383075E-03    0.4293067099E-02
    0.9000000000E+02    0.2737025107E-04    0.1987705299E-04    0.6627501377E+00    0.1579193547E-03    0.4293164609E-02
    0.1100000000E+03    0.3084865746E-04    0.2248312240E-04    0.6685350940E+00    0.1871353802E-03    0.4292413698E-02
    0.1300000000E+03    0.3442472238E-04    0.2516047273E-04    0.6725996179E+00    0.2166577741E-03    0.4291157452E-02
    0.1500000000E+03    0.3807833522E-04    0.2789420923E-04    0.6756118196E+00    0.2464354176E-03    0.4289568440E-02
    0.1700000000E+03    0.4179734263E-04    0.3067544548E-04    0.6779335195E+00    0.2764502870E-03    0.4287743668E-02
    0.1900000000E+03    0.4557422034E-04    0.3349874478E-04    0.6797777212E+00    0.3066995650E-03    0.4285742136E-02
    0.2100000000E+03    0.4940425002E-04    0.3636074111E-04    0.6812779883E+00    0.3371877436E-03    0.4283601901E-02
    0.2300000000E+03    0.5328448167E-04    0.3925936300E-04    0.6825223200E+00    0.3679228959E-03    0.4281348637E-02
    0.2500000000E+03    0.5721311906E-04    0.4219337774E-04    0.6835710543E+00    0.3989148297E-03    0.4279000288E-02
    0.2700000000E+03    0.6118914221E-04    0.4516211334E-04    0.6844669448E+00    0.4301741452E-03    0.4276569749E-02
    0.2900000000E+03    0.6521206796E-04    0.4816528327E-04    0.6852411312E+00    0.4617117479E-03    0.4274066495E-02
    0.3100000000E+03    0.6928179370E-04    0.5120287271E-04    0.6859168324E+00    0.4935385982E-03    0.4271497613E-02
    0.3300000000E+03    0.7339849298E-04    0.5427506306E-04    0.6865117143E+00    0.5256655899E-03    0.4268868471E-02
    0.3500000000E+03    0.7756254423E-04    0.5738218051E-04    0.6870394561E+00    0.5581034969E-03    0.4266183180E-02
    0.3700000000E+03    0.8177448123E-04    0.6052466061E-04    0.6875108148E+00    0.5908629584E-03    0.4263444905E-02
    0.3900000000E+03    0.8603495820E-04    0.6370302335E-04    0.6879343663E+00    0.6239544845E-03    0.4260656089E-02
    0.4100000000E+03    0.9034472476E-04    0.6691785544E-04    0.6883170311E+00    0.6573884730E-03    0.4257818617E-02
    0.4300000000E+03    0.9470460792E-04    0.7016979759E-04    0.6886644554E+00    0.6911752308E-03    0.4254933931E-02
    0.4500000000E+03    0.9911549892E-04    0.7345953531E-04    0.6889812919E+00    0.7253249982E-03    0.4252003122E-02
    0.4700000000E+03    0.1035783436E-03    0.7678779225E-04    0.6892714085E+00    0.7598479732E-03    0.4249026996E-02
    0.4900000000E+03    0.1080941355E-03    0.8015532525E-04    0.6895380476E+00    0.7947543355E-03    0.4246006124E-02
    0.1000000000E+03    0.2909553799E-04    0.2116990175E-04    0.6659194054E+00    0.1724836905E-03    0.4292867933E-02
    0.3000000000E+03    0.6724107549E-04    0.4967976812E-04    0.6855900795E+00    0.4775883338E-03    0.4272789888E-02
    0.5000000000E+03    0.1103722088E-03    0.8185406501E-04    0.6896634357E+00    0.8123544687E-03    0.4244479034E-02
    0.7000000000E+03    0.1589883615E-03    0.1180985782E-03    0.6914233414E+00    0.1187015167E-02    0.4211603574E-02
    0.9000000000E+03    0.2143234039E-03    0.1593419290E-03    0.6924045296E+00    0.1612393998E-02    0.4173990650E-02
    0.1100000000E+04    0.2779682958E-03    0.2067734210E-03    0.6930300839E+00    0.2101219176E-02    0.4130844156E-02
    0.1300000000E+04    0.3519679787E-03    0.2619189546E-03    0.6934636126E+00    0.2669475409E-02    0.4080986405E-02
    0.1500000000E+04    0.4389974626E-03    0.3267733682E-03    0.6937817190E+00    0.3337923468E-02    0.4022825908E-02
    0.1700000000E+04    0.5426178703E-03    0.4039917383E-03    0.6940250486E+00    0.4134140347E-02    0.3954234999E-02
    0.1900000000E+04    0.6676480136E-03    0.4971666240E-03    0.6942171704E+00    0.5095428471E-02    0.3872352634E-02
    0.2100000000E+04    0.8207058689E-03    0.6112319559E-03    0.6943726920E+00    0.6273040621E-02    0.3773295765E-02
    0.2300000000E+04    0.1010990405E-02    0.7530462145E-03    0.6945011490E+00    0.7738285358E-02    0.3651754223E-02
    0.2500000000E+04    0.1251368317E-02    0.9322031979E-03    0.6946090301E+00    0.9591041375E-02    0.3500459312E-02
    0.2700000000E+04    0.1559729109E-02    0.1162043440E-02    0.6947009038E+00    0.1197045121E-01    0.3309600883E-02
    0.2900000000E+04    0.1960157413E-02    0.1460530554E-02    0.6947800800E+00    0.1506440052E-01    0.3066552845E-02
    0.3100000000E+04    0.2482214293E-02    0.1849719877E-02    0.6948490153E+00    0.1910470816E-01    0.2757041147E-02
    0.3300000000E+04    0.3153784849E-02    0.2350433298E-02    0.6949095712E+00    0.2431294080E-01    0.2370438412E-02
    0.3500000000E+04    0.3980035065E-02    0.2966577816E-02    0.6949631840E+00    0.3073857951E-01    0.1912870132E-02
    0.3700000000E+04    0.4909747346E-02    0.3660041306E-02    0.6950109799E+00    0.3799717860E-01    0.1425071711E-02
    0.3900000000E+04    0.5826220284E-02    0.4343872570E-02    0.6950538539E+00    0.4519385567E-01    0.9810767143E-03
    0.4100000000E+04    0.6609404950E-02    0.4928564045E-02    0.6950925266E+00    0.5139750460E-01    0.6456002271E-03
    0.4300000000E+04    0.7214095589E-02    0.5380354242E-02    0.6951275847E+00    0.5624796360E-01    0.4318234748E-03
    0.4500000000E+04    0.7668252510E-02    0.5720025621E-02    0.6951595103E+00    0.5995120146E-01    0.3114881635E-03
    0.4700000000E+04    0.8022024283E-02    0.5984926214E-02    0.6951887038E+00    0.6288904529E-01    0.2486883571E-03
    0.4900000000E+04    0.8315847526E-02    0.6205184518E-02    0.6952155000E+00    0.6537165366E-01    0.2172543061E-03
    0.1000000000E+04    0.2449916827E-03    0.1821979870E-03    0.6927484812E+00    0.1847969114E-02    0.4153173943E-02
    0.3000000000E+04    0.2204040264E-02    0.1642338038E-02    0.6948156998E+00    0.1695094951E-01    0.2920962559E-02
    0.5000000000E+04    0.8448637330E-02    0.6304802137E-02    0.6952280891E+00    0.6650658059E-01    0.2081936350E-03
    0.7000000000E+04    0.1050428883E-01    0.7851658600E-02    0.6954038719E+00    0.8491178028E-01    0.1899053854E-03
    0.9000000000E+04    0.1206441643E-01    0.9031673545E-02    0.6955009388E+00    0.9997666590E-01    0.1925674056E-03
    0.1100000000E+05    0.1329227366E-01    0.9965312377E-02    0.6955623149E+00    0.1127570066E+00    0.1947357270E-03
    0.1300000000E+05    0.1427041283E-01    0.1071333978E-01    0.6956045256E+00    0.1237577702E+00    0.1965580204E-03
    0.1500000000E+05    0.1505705195E-01    0.1131867308E-01    0.6956352702E+00    0.1333433242E+00    0.1981317161E-03
    0.1700000000E+05    0.1569432367E-01    0.1181242017E-01    0.6956586179E+00    0.1417836030E+00    0.1995179190E-03
    0.1900000000E+05    0.1621338416E-01    0.1221762153E-01    0.6956769200E+00    0.1492829941E+00    0.2007575189E-03
    0.2100000000E+05    0.1663770650E-01    0.1255166439E-01    0.6956916295E+00    0.1559992068E+00    0.2018792519E-03
    0.2300000000E+05    0.1698526578E-01    0.1282788586E-01    0.6957036920E+00    0.1620559628E+00    0.2029040995E-03
    0.2500000000E+05    0.1727002571E-01    0.1305666455E-01    0.6957137494E+00    0.1675517463E+00    0.2038478582E-03
    0.2700000000E+05    0.1750297271E-01    0.1324618056E-01    0.6957222523E+00    0.1725659759E+00    0.2047227240E-03
    0.2900000000E+05    0.1769284939E-01    0.1340295509E-01    0.6957295265E+00    0.1771634424E+00    0.2055383135E-03
    0.3100000000E+05    0.1784668403E-01    0.1353224027E-01    0.6957358132E+00    0.1813975579E+00    0.2063023457E-03
    0.3300000000E+05    0.1797017892E-01    0.1363830538E-01    0.6957412945E+00    0.1853127715E+00    0.2070211125E-03
    0.3500000000E+05    0.1806799915E-01    0.1372464990E-01    0.6957461109E+00    0.1889463927E+00    0.2076998113E-03
    0.3700000000E+05    0.1814399027E-01    0.1379416424E-01    0.6957503721E+00    0.1923299840E+00    0.2083427860E-03
    0.3900000000E+05    0.1820134425E-01    0.1384925243E-01    0.6957541652E+00    0.1954904387E+00    0.2089537048E-03
    0.4100000000E+05    0.1824272727E-01    0.1389192669E-01    0.6957575600E+00    0.1984508235E+00    0.2095356940E-03
    0.4300000000E+05    0.1827037939E-01    0.1392388120E-01    0.6957606135E+00    0.2012310436E+00    0.2100914402E-03
    0.4500000000E+05    0.1828619263E-01    0.1394655007E-01    0.6957633721E+00    0.2038483733E+00    0.2106232691E-03
    0.4700000000E+05    0.1829177298E-01    0.1396115331E-01    0.6957658744E+00    0.2063178825E+00    0.2111332082E-03
    0.4900000000E+05    0.1828848982E-01    0.1396873362E-01    0.6957681526E+00    0.2086527817E+00    0.2116230352E-03
    0.1000000000E+05    0.1271402151E-01    0.9524980593E-02    0.6955347450E+00    0.1066168364E+00    0.1937030745E-03
    0.3000000000E+05    0.1777388828E-01    0.1347074678E-01    0.6957327808E+00    0.1793229547E+00    0.2059263520E-03
    0.5000000000E+05    0.1828389761E-01    0.1397017492E-01    0.6957692163E+00    0.2097734430E+00    0.2118609040E-03
    0.7000000000E+05    0.1793712013E-01    0.1379163992E-01    0.6957834893E+00    0.2273253477E+00    0.2158616254E-03
    0.9000000000E+05    0.1738577135E-01    0.1343665814E-01    0.6957906650E+00    0.2390497004E+00    0.2188985387E-03
    0.1100000000E+06    0.1680240485E-01    0.1304253168E-01    0.6957947461E+00    0.2475779371E+00    0.2213539002E-03
    0.1300000000E+06    0.1624011975E-01    0.1265387210E-01    0.6957972320E+00    0.2541353629E+00    0.2234188142E-03
    0.1500000000E+06    0.1571488392E-01    0.1228566097E-01    0.6957988038E+00    0.2593779743E+00    0.2252028894E-03
    0.1700000000E+06    0.1522973485E-01    0.1194214256E-01    0.6957998120E+00    0.2636923218E+00    0.2267749615E-03
    0.1900000000E+06    0.1478305427E-01    0.1162343831E-01    0.6958004539E+00    0.2673227353E+00    0.2281811520E-03
    0.2100000000E+06    0.1437166916E-01    0.1132810466E-01    0.6958008481E+00    0.2704321557E+00    0.2294539052E-03
    0.2300000000E+06    0.1399206822E-01    0.1105418287E-01    0.6958010694E+00    0.2731339448E+00    0.2306169278E-03
    0.2500000000E+06    0.1364087702E-01    0.1079964002E-01    0.6958011672E+00    0.2755097219E+00    0.2316880792E-03
    0.2700000000E+06    0.1331502739E-01    0.1056254985E-01    0.6958011752E+00    0.2776199409E+00    0.2326811548E-03
    0.2900000000E+06    0.1301179820E-01    0.1034115880E-01    0.6958011167E+00    0.2795104583E+00    0.2336070368E-03
    0.3100000000E+06    0.1272880342E-01    0.1013390094E-01    0.6958010087E+00    0.2812167708E+00    0.2344744632E-03
    0.3300000000E+06    0.1246396046E-01    0.9939390667E-02    0.6958008634E+00    0.2827668418E+00    0.2352905588E-03
    0.3500000000E+06    0.1221545320E-01    0.9756406733E-02    0.6958006900E+00    0.2841830381E+00    0.2360612105E-03
    0.3700000000E+06    0.1198169624E-01    0.9583873730E-02    0.6958004952E+00    0.2854834923E+00    0.2367913395E-03
    0.3900000000E+06    0.1176130242E-01    0.9420843912E-02    0.6958002842E+00    0.2866830795E+00    0.2374851023E-03
    0.4100000000E+06    0.1155305458E-01    0.9266480523E-02    0.6958000612E+00    0.2877941333E+00    0.2381460422E-03
    0.4300000000E+06    0.1135588120E-01    0.9120043021E-02    0.6957998292E+00    0.2888269775E+00    0.2387772043E-03
    0.4500000000E+06    0.1116883585E-01    0.8980874224E-02    0.6957995907E+00    0.2897903282E+00    0.2393812256E-03
    0.4700000000E+06    0.1099107970E-01    0.8848389228E-02    0.6957993476E+00    0.2906916019E+00    0.2399604046E-03
    0.4900000000E+06    0.1082186677E-01    0.8722065914E-02    0.6957991014E+00    0.2915371545E+00    0.2405167575E-03
    0.1000000000E+06    0.1709341102E-01    0.1324062556E-01    0.6957929697E+00    0.2436178060E+00    0.2201843117E-03
    0.3000000000E+06    0.1286790836E-01    0.1023585388E-01    0.6958010681E+00    0.2803847420E+00    0.2340475788E-03
    0.5000000000E+06    0.1074025316E-01    0.8661066871E-02    0.6957989775E+00    0.2919407785E+00    0.2407869380E-03
    0.7000000000E+06    0.9427534408E-02    0.7673496520E-02    0.6957965280E+00    0.2980937745E+00    0.2453315830E-03
    0.9000000000E+06    0.8513176779E-02    0.6978335176E-02    0.6957942980E+00    0.3020512915E+00    0.2487818483E-03
    0.1100000000E+07    0.7828277190E-02    0.6453539665E-02    0.6957923206E+00    0.3048657526E+00    0.2515716172E-03
    0.1300000000E+07    0.7289905962E-02    0.6038446062E-02    0.6957905616E+00    0.3069971711E+00    0.2539178734E-03
    0.1500000000E+07    0.6851931205E-02    0.5699010663E-02    0.6957889832E+00    0.3086825262E+00    0.2559450928E-03
    0.1700000000E+07    0.6486353587E-02    0.5414429065E-02    0.6957875540E+00    0.3100578488E+00    0.2577314581E-03
    0.1900000000E+07    0.6175050165E-02    0.5171159586E-02    0.6957862491E+00    0.3112074865E+00    0.2593293583E-03
    0.2100000000E+07    0.5905695817E-02    0.4959948857E-02    0.6957850490E+00    0.3121868622E+00    0.2607756490E-03
    0.2300000000E+07    0.5669572882E-02    0.4774224836E-02    0.6957839381E+00    0.3130340799E+00    0.2620972621E-03
    0.2500000000E+07    0.5460315269E-02    0.4609170755E-02    0.6957829042E+00    0.3137763066E+00    0.2633144869E-03
    0.2700000000E+07    0.5273149361E-02    0.4461162950E-02    0.6957819372E+00    0.3144334986E+00    0.2644429970E-03
    0.2900000000E+07    0.5104414810E-02    0.4327414625E-02    0.6957810289E+00    0.3150206867E+00    0.2654951561E-03
    0.3100000000E+07    0.4951250803E-02    0.4205741825E-02    0.6957801724E+00    0.3155494344E+00    0.2664808922E-03
    0.3300000000E+07    0.4811384193E-02    0.4094404904E-02    0.6957793622E+00    0.3160288016E+00    0.2674083004E-03
    0.3500000000E+07    0.4682982533E-02    0.3991998258E-02    0.6957785933E+00    0.3164660004E+00    0.2682840696E-03
    0.3700000000E+07    0.4564549740E-02    0.3897371839E-02    0.6957778618E+00    0.3168668521E+00    0.2691137915E-03
    0.3900000000E+07    0.4454850486E-02    0.3809574134E-02    0.6957771640E+00    0.3172361141E+00    0.2699021890E-03
    0.4100000000E+07    0.4352854405E-02    0.3727810013E-02    0.6957764970E+00    0.3175777167E+00    0.2706532882E-03
    0.4300000000E+07    0.4257694253E-02    0.3651409036E-02    0.6957758581E+00    0.3178949393E+00    0.2713705493E-03
    0.4500000000E+07    0.4168634066E-02    0.3579801296E-02    0.6957752449E+00    0.3181905426E+00    0.2720569685E-03
    0.4700000000E+07    0.4085044614E-02    0.3512498762E-02    0.6957746555E+00    0.3184668694E+00    0.2727151578E-03
    0.4900000000E+07    0.4006384249E-02    0.3449080696E-02    0.6957740880E+00    0.3187259223E+00    0.2733474079E-03
    0.1000000000E+07    0.8148432184E-02    0.6699301039E-02    0.6957932796E+00    0.3035650877E+00    0.2502427168E-03
    0.3000000000E+07    0.5026040360E-02    0.4265186447E-02    0.6957805945E+00    0.3152917495E+00    0.2659957838E-03
    0.5000000000E+07    0.3968753373E-02    0.3418712372E-02    0.6957738120E+00    0.3188495191E+00    0.2736544467E-03
    0.7000000000E+07    0.3388224820E-02    0.2947678082E-02    0.6957691310E+00    0.3207296490E+00    0.2788191026E-03
    0.9000000000E+07    0.3007565435E-02    0.2635980103E-02    0.6957655388E+00    0.3219364479E+00    0.2827401010E-03
    0.1100000000E+08    0.2733063282E-02    0.2409634946E-02    0.6957626161E+00    0.3227945815E+00    0.2859104986E-03
    0.1300000000E+08    0.2522932137E-02    0.2235387037E-02    0.6957601480E+00    0.3234449039E+00    0.2885768761E-03
    0.1500000000E+08    0.2355325997E-02    0.2095741167E-02    0.6957580093E+00    0.3239596700E+00    0.2908806897E-03
    0.1700000000E+08    0.2217557452E-02    0.1980484372E-02    0.6957561207E+00    0.3243802524E+00    0.2929107880E-03
    0.1900000000E+08    0.2101683171E-02    0.1883194516E-02    0.6957544286E+00    0.3247322672E+00    0.2947267073E-03
    0.2100000000E+08    0.2002440656E-02    0.1799600679E-02    0.6957528949E+00    0.3250325324E+00    0.2963703317E-03
    0.2300000000E+08    0.1916185972E-02    0.1726735541E-02    0.6957514920E+00    0.3252926064E+00    0.2978722671E-03
    0.2500000000E+08    0.1840304709E-02    0.1662463681E-02    0.6957501987E+00    0.3255207293E+00    0.2992555715E-03
    0.2700000000E+08    0.1772865537E-02    0.1605203270E-02    0.6957489988E+00    0.3257229549E+00    0.3005380566E-03
