  Pressure (Pa) 22mC5-500 (mol/kg) 23mC5-500 (mol/kg) 24mC5-500 (mol/kg) 2mC6-500 (mol/kg) C7-500 (mol/kg)
    0.1000000000E+01    0.4471105554E-05    0.6418049707E-06    0.1266245480E+00    0.2015018876E-04    0.4211688281E-02
    0.3000000000E+01    0.9232260386E-05    0.1321417590E-05    0.2784872823E+00    0.3962975003E-04    0.4273915257E-02
    0.5000000000E+01    0.1162247050E-04    0.1660222335E-05    0.3663673286E+00    0.4850863103E-04    0.4309417665E-02
    0.7000000000E+01    0.1300788272E-04    0.1855524787E-05    0.4236658910E+00    0.5350256596E-04    0.4332842101E-02
    0.9000000000E+01    0.1390022422E-04    0.1980910344E-05    0.4639809139E+00    0.5689303808E-04    0.4349561126E-02
    0.1100000000E+02    0.1452730561E-04    0.2068986430E-05    0.4938890940E+00    0.5959111872E-04    0.4362143450E-02
    0.1300000000E+02    0.1500269391E-04    0.2135927504E-05    0.5169595706E+00    0.6199826317E-04    0.4371983703E-02
    0.1500000000E+02    0.1538772819E-04    0.2190422463E-05    0.5352967789E+00    0.6430228096E-04    0.4379907456E-02
    0.1700000000E+02    0.1571756424E-04    0.2237421796E-05    0.5502219064E+00    0.6659364950E-04    0.4386435812E-02
    0.1900000000E+02    0.1601328157E-04    0.2279874346E-05    0.5626062752E+00    0.6891583067E-04    0.4391914534E-02
    0.2100000000E+02    0.1628796701E-04    0.2319597312E-05    0.5730477988E+00    0.7128865529E-04    0.4396582425E-02
    0.2300000000E+02    0.1654996592E-04    0.2357739705E-05    0.5819704237E+00    0.7371979871E-04    0.4400609933E-02
    0.2500000000E+02    0.1680470894E-04    0.2395041842E-05    0.5896831111E+00    0.7621064876E-04    0.4404122122E-02
    0.2700000000E+02    0.1705578168E-04    0.2431986765E-05    0.5964163461E+00    0.7875939766E-04    0.4407212925E-02
    0.2900000000E+02    0.1730557320E-04    0.2468891673E-05    0.6023455663E+00    0.8136270367E-04    0.4409954334E-02
    0.3100000000E+02    0.1755568087E-04    0.2505964776E-05    0.6076066706E+00    0.8401659212E-04    0.4412402500E-02
    0.3300000000E+02    0.1780716957E-04    0.2543341539E-05    0.6123065635E+00    0.8671694197E-04    0.4414601896E-02
    0.3500000000E+02    0.1806074122E-04    0.2581108271E-05    0.6165304964E+00    0.8945974264E-04    0.4416588232E-02
    0.3700000000E+02    0.1831684783E-04    0.2619317770E-05    0.6203472855E+00    0.9224122207E-04    0.4418390531E-02
    0.3900000000E+02    0.1857576798E-04    0.2657999859E-05    0.6238130906E+00    0.9505790254E-04    0.4420032637E-02
    0.4100000000E+02    0.1883765938E-04    0.2697168579E-05    0.6269741967E+00    0.9790661633E-04    0.4421534337E-02
    0.4300000000E+02    0.1910259540E-04    0.2736827141E-05    0.6298690930E+00    0.1007844995E-03    0.4422912195E-02
    0.4500000000E+02    0.1937059067E-04    0.2776971393E-05    0.6325300482E+00    0.1036889745E-03    0.4424180191E-02
    0.4700000000E+02    0.1964161922E-04    0.2817592231E-05    0.6349843179E+00    0.1066177275E-03    0.4425350212E-02
    0.4900000000E+02    0.1991562738E-04    0.2858677315E-05    0.6372550824E+00    0.1095686846E-03    0.4426432434E-02
    0.1000000000E+02    0.1423813761E-04    0.2028359058E-05    0.4799666163E+00    0.5829640022E-04    0.4356264265E-02
    0.3000000000E+02    0.1743051081E-04    0.2487397353E-05    0.6050523704E+00    0.8268358305E-04    0.4411212058E-02
    0.5000000000E+02    0.2005372680E-04    0.2879389513E-05    0.6383279634E+00    0.1110519010E-03    0.4426943408E-02
    0.7000000000E+02    0.2295087326E-04    0.3314216735E-05    0.6537368361E+00    0.1415234165E-03    0.4434157134E-02
    0.9000000000E+02    0.2604766069E-04    0.3778910392E-05    0.6626230229E+00    0.1729699257E-03    0.4437953813E-02
    0.1100000000E+03    0.2928290185E-04    0.4263992028E-05    0.6684045453E+00    0.2049800834E-03    0.4439977139E-02
    0.1300000000E+03    0.3262057366E-04    0.4764039002E-05    0.6724664008E+00    0.2373885990E-03    0.4440934531E-02
    0.1500000000E+03    0.3603940194E-04    0.5275899574E-05    0.6754764363E+00    0.2701259608E-03    0.4441186436E-02
    0.1700000000E+03    0.3952642672E-04    0.5797676668E-05    0.6777963218E+00    0.3031642964E-03    0.4440938223E-02
    0.1900000000E+03    0.4307353657E-04    0.6328195746E-05    0.6796389676E+00    0.3364953395E-03    0.4440316603E-02
    0.2100000000E+03    0.4667557003E-04    0.6866717796E-05    0.6811378757E+00    0.3701205759E-03    0.4439404556E-02
    0.2300000000E+03    0.5032923322E-04    0.7412777466E-05    0.6823810030E+00    0.4040465151E-03    0.4438258986E-02
    0.2500000000E+03    0.5403245728E-04    0.7966087730E-05    0.6834286571E+00    0.4382822972E-03    0.4436920375E-02
    0.2700000000E+03    0.5778400233E-04    0.8526481544E-05    0.6843235692E+00    0.4728384367E-03    0.4435418388E-02
    0.2900000000E+03    0.6158320547E-04    0.9093874920E-05    0.6850968621E+00    0.5077261466E-03    0.4433775299E-02
    0.3100000000E+03    0.6542981563E-04    0.9668242867E-05    0.6857717416E+00    0.5429569719E-03    0.4432008172E-02
    0.3300000000E+03    0.6932388278E-04    0.1024960332E-04    0.6863658631E+00    0.5785425918E-03    0.4430130301E-02
    0.3500000000E+03    0.7326568189E-04    0.1083800619E-04    0.6868928974E+00    0.6144947187E-03    0.4428152190E-02
    0.3700000000E+03    0.7725565990E-04    0.1143352569E-04    0.6873635951E+00    0.6508250495E-03    0.4426082231E-02
    0.3900000000E+03    0.8129439800E-04    0.1203625500E-04    0.6877865262E+00    0.6875452499E-03    0.4423927198E-02
    0.4100000000E+03    0.8538258456E-04    0.1264630240E-04    0.6881686066E+00    0.7246669551E-03    0.4421692596E-02
    0.4300000000E+03    0.8952099541E-04    0.1326378844E-04    0.6885154787E+00    0.7622017816E-03    0.4419382927E-02
    0.4500000000E+03    0.9371047943E-04    0.1388884398E-04    0.6888317919E+00    0.8001613441E-03    0.4417001887E-02
    0.4700000000E+03    0.9795194782E-04    0.1452160861E-04    0.6891214112E+00    0.8385572748E-03    0.4414552516E-02
    0.4900000000E+03    0.1022463663E-03    0.1516222961E-04    0.6893875766E+00    0.8774012443E-03    0.4412037318E-02
    0.1000000000E+03    0.2765067581E-04    0.4019311615E-05    0.6657904544E+00    0.1889181460E-03    0.4439131103E-02
    0.3000000000E+03    0.6350058758E-04    0.9380186809E-05    0.6854453914E+00    0.5252979415E-03    0.4432906334E-02
    0.5000000000E+03    0.1044137470E-03    0.1548553417E-04    0.6895127361E+00    0.8969949065E-03    0.4410755692E-02
    0.7000000000E+03    0.1508139570E-03    0.2240530554E-04    0.6912689146E+00    0.1315331632E-02    0.4381994081E-02
    0.9000000000E+03    0.2039402246E-03    0.3032603038E-04    0.6922473984E+00    0.1793020556E-02    0.4347436604E-02
    0.1100000000E+04    0.2654306786E-03    0.3949263996E-04    0.6928708284E+00    0.2345374347E-02    0.4306593792E-02
    0.1300000000E+04    0.3374265970E-03    0.5022472183E-04    0.6933026063E+00    0.2991955087E-02    0.4258358841E-02
    0.1500000000E+04    0.4227729694E-03    0.6294664321E-04    0.6936192228E+00    0.3758573912E-02    0.4201071365E-02
    0.1700000000E+04    0.5253194397E-03    0.7823251285E-04    0.6938612548E+00    0.4680083978E-02    0.4132402771E-02
    0.1900000000E+04    0.6503691559E-03    0.9687316269E-04    0.6940522269E+00    0.5804483757E-02    0.4049122314E-02
    0.2100000000E+04    0.8053512151E-03    0.1199764725E-03    0.6942067160E+00    0.7199048214E-02    0.3946729139E-02
    0.2300000000E+04    0.1000819799E-02    0.1491164413E-03    0.6943342356E+00    0.8959449110E-02    0.3818913176E-02
    0.2500000000E+04    0.1251881071E-02    0.1865461241E-03    0.6944412581E+00    0.1122282559E-01    0.3656824183E-02
    0.2700000000E+04    0.1579997551E-02    0.2354670300E-03    0.6945323397E+00    0.1418444200E-01    0.3448258391E-02
    0.2900000000E+04    0.2014432428E-02    0.3002451748E-03    0.6946107806E+00    0.1811143303E-01    0.3177356830E-02
    0.3100000000E+04    0.2590396477E-02    0.3861360351E-03    0.6946790295E+00    0.2332730841E-01    0.2826797073E-02
    0.3300000000E+04    0.3336103456E-02    0.4973561571E-03    0.6947389417E+00    0.3009669021E-01    0.2387145803E-02
    0.3500000000E+04    0.4238344954E-02    0.6319506461E-03    0.6947919486E+00    0.3831469834E-01    0.1878174515E-02
    0.3700000000E+04    0.5201675329E-02    0.7757022408E-03    0.6948391719E+00    0.4713299475E-01    0.1369026618E-02
    0.3900000000E+04    0.6074090635E-02    0.9059491143E-03    0.6948815032E+00    0.5518084908E-01    0.9527101399E-03
    0.4100000000E+04    0.6756967611E-02    0.1007974098E-02    0.6949196601E+00    0.6155533244E-01    0.6765859441E-03
    0.4300000000E+04    0.7256715561E-02    0.1082717287E-02    0.6949542266E+00    0.6629899240E-01    0.5213693560E-03
    0.4500000000E+04    0.7630384646E-02    0.1138675276E-02    0.6949856827E+00    0.6991759848E-01    0.4428122006E-03
    0.4700000000E+04    0.7930235552E-02    0.1183636300E-02    0.6950144267E+00    0.7287936146E-01    0.4053395957E-03
    0.4900000000E+04    0.8189054267E-02    0.1222487675E-02    0.6950407918E+00    0.7547933976E-01    0.3881120268E-03
    0.1000000000E+04    0.2335198291E-03    0.3473566769E-04    0.6925902314E+00    0.2058761944E-02    0.4327857522E-02
    0.3000000000E+04    0.2282515216E-02    0.3402217917E-03    0.6946460515E+00    0.2053782393E-01    0.3012996570E-02
    0.5000000000E+04    0.8309000049E-02    0.1240505358E-02    0.6950531719E+00    0.7669708632E-01    0.3835059727E-03
    0.7000000000E+04    0.1024412370E-01    0.1532081588E-02    0.6952254592E+00    0.9727097201E-01    0.3796807805E-03
    0.9000000000E+04    0.1170444864E-01    0.1753350906E-02    0.6953198955E+00    0.1141150308E+00    0.3850403701E-03
    0.1100000000E+05    0.1283554433E-01    0.1925761764E-02    0.6953791564E+00    0.1282920896E+00    0.3893749179E-03
    0.1300000000E+05    0.1372180217E-01    0.2061741067E-02    0.6954195953E+00    0.1404061222E+00    0.3930176670E-03
    0.1500000000E+05    0.1442219268E-01    0.2169986900E-02    0.6954488136E+00    0.1508899720E+00    0.3961634585E-03
    0.1700000000E+05    0.1497901613E-01    0.2256749286E-02    0.6954708195E+00    0.1600622144E+00    0.3989344451E-03
    0.1900000000E+05    0.1542329478E-01    0.2326620043E-02    0.6954879237E+00    0.1681626635E+00    0.4014123680E-03
    0.2100000000E+05    0.1577821876E-01    0.2383037991E-02    0.6955015506E+00    0.1753753932E+00    0.4036546720E-03
    0.2300000000E+05    0.1606141437E-01    0.2428621830E-02    0.6955126252E+00    0.1818441145E+00    0.4057033002E-03
    0.2500000000E+05    0.1628647627E-01    0.2465395194E-02    0.6955217738E+00    0.1876827177E+00    0.4075898306E-03
    0.2700000000E+05    0.1646402603E-01    0.2494942305E-02    0.6955294350E+00    0.1929826673E+00    0.4093386434E-03
    0.2900000000E+05    0.1660245843E-01    0.2518517809E-02    0.6955359251E+00    0.1978182943E+00    0.4109689624E-03
    0.3100000000E+05    0.1670847697E-01    0.2537125687E-02    0.6955414777E+00    0.2022506532E+00    0.4124962182E-03
    0.3300000000E+05    0.1678748446E-01    0.2551576857E-02    0.6955462689E+00    0.2063303788E+00    0.4139329886E-03
    0.3500000000E+05    0.1684387192E-01    0.2562531840E-02    0.6955504341E+00    0.2100998335E+00    0.4152896632E-03
    0.3700000000E+05    0.1688123529E-01    0.2570532790E-02    0.6955540787E+00    0.2135947427E+00    0.4165749257E-03
    0.3900000000E+05    0.1690253973E-01    0.2576027807E-02    0.6955572862E+00    0.2168454552E+00    0.4177961087E-03
    0.4100000000E+05    0.1691024569E-01    0.2579389623E-02    0.6955601234E+00    0.2198779265E+00    0.4189594618E-03
    0.4300000000E+05    0.1690640662E-01    0.2580930088E-02    0.6955626446E+00    0.2227144921E+00    0.4200703554E-03
    0.4500000000E+05    0.1689274531E-01    0.2580911509E-02    0.6955648940E+00    0.2253744832E+00    0.4211334389E-03
    0.4700000000E+05    0.1687071410E-01    0.2579555612E-02    0.6955669083E+00    0.2278747196E+00    0.4221527650E-03
    0.4900000000E+05    0.1684154284E-01    0.2577050666E-02    0.6955687179E+00    0.2302299085E+00    0.4231318876E-03
    0.1000000000E+05    0.1230514492E-01    0.1844779821E-02    0.6953525928E+00    0.1214943038E+00    0.3873106438E-03
    0.3000000000E+05    0.1665915507E-01    0.2528388055E-02    0.6955388064E+00    0.2000815014E+00    0.4117446291E-03
    0.5000000000E+05    0.1682461275E-01    0.2575418417E-02    0.6955695541E+00    0.2313572097E+00    0.4236073667E-03
    0.7000000000E+05    0.1629622011E-01    0.2511023439E-02    0.6955800052E+00    0.2487264667E+00    0.4316044201E-03
    0.9000000000E+05    0.1564366993E-01    0.2423453101E-02    0.6955842853E+00    0.2599861230E+00    0.4376748620E-03
    0.1100000000E+06    0.1500316551E-01    0.2334795341E-02    0.6955860282E+00    0.2679727867E+00    0.4425828152E-03
    0.1300000000E+06    0.1440973847E-01    0.2251272247E-02    0.6955865495E+00    0.2739822730E+00    0.4467102905E-03
    0.1500000000E+06    0.1386951579E-01    0.2174393294E-02    0.6955864250E+00    0.2786966305E+00    0.4502763911E-03
    0.1700000000E+06    0.1337979635E-01    0.2104130851E-02    0.6955859394E+00    0.2825116011E+00    0.4534187160E-03
    0.1900000000E+06    0.1293543674E-01    0.2039964825E-02    0.6955852457E+00    0.2856737992E+00    0.4562294593E-03
    0.2100000000E+06    0.1253100868E-01    0.1981254267E-02    0.6955844315E+00    0.2883455427E+00    0.4587734747E-03
    0.2300000000E+06    0.1216151086E-01    0.1927371949E-02    0.6955835490E+00    0.2906383879E+00    0.4610981506E-03
    0.2500000000E+06    0.1182255864E-01    0.1877749620E-02    0.6955826305E+00    0.2926317416E+00    0.4632391861E-03
    0.2700000000E+06    0.1151038451E-01    0.1831888609E-02    0.6955816964E+00    0.2943837925E+00    0.4652241573E-03
    0.2900000000E+06    0.1122177511E-01    0.1789357202E-02    0.6955807599E+00    0.2959382359E+00    0.4670748166E-03
    0.3100000000E+06    0.1095399335E-01    0.1749783506E-02    0.6955798294E+00    0.2973285762E+00    0.4688086307E-03
    0.3300000000E+06    0.1070470370E-01    0.1712847351E-02    0.6955789104E+00    0.2985809705E+00    0.4704398412E-03
    0.3500000000E+06    0.1047190656E-01    0.1678272613E-02    0.6955780065E+00    0.2997161638E+00    0.4719802153E-03
    0.3700000000E+06    0.1025388285E-01    0.1645820442E-02    0.6955771197E+00    0.3007508383E+00    0.4734395902E-03
    0.3900000000E+06    0.1004914790E-01    0.1615283476E-02    0.6955762514E+00    0.3016985745E+00    0.4748262742E-03
    0.4100000000E+06    0.9856413609E-02    0.1586480975E-02    0.6955754022E+00    0.3025705500E+00    0.4761473499E-03
    0.4300000000E+06    0.9674557229E-02    0.1559254760E-02    0.6955745723E+00    0.3033760560E+00    0.4774089044E-03
    0.4500000000E+06    0.9502595767E-02    0.1533465838E-02    0.6955737616E+00    0.3041228842E+00    0.4786162083E-03
    0.4700000000E+06    0.9339664858E-02    0.1508991588E-02    0.6955729699E+00    0.3048176225E+00    0.4797738564E-03
    0.4900000000E+06    0.9185001306E-02    0.1485723414E-02    0.6955721968E+00    0.3054658816E+00    0.4808858785E-03
    0.1000000000E+06    0.1531862866E-01    0.2378695639E-02    0.6955853653E+00    0.2642870536E+00    0.4402449613E-03
    0.3000000000E+06    0.1108543534E-01    0.1769221769E-02    0.6955802935E+00    0.2966521381E+00    0.4679553736E-03
    0.5000000000E+06    0.9110555331E-02    0.1474511017E-02    0.6955718170E+00    0.3057741122E+00    0.4814259071E-03
    0.7000000000E+06    0.7925989963E-02    0.1294994307E-02    0.6955650654E+00    0.3103723842E+00    0.4905095485E-03
    0.9000000000E+06    0.7114407857E-02    0.1170753794E-02    0.6955595711E+00    0.3132253975E+00    0.4974057212E-03
    0.1100000000E+07    0.6513304249E-02    0.1078037338E-02    0.6955549553E+00    0.3152015413E+00    0.5029816915E-03
    0.1300000000E+07    0.6044730017E-02    0.1005325500E-02    0.6955509778E+00    0.3166676050E+00    0.5076711730E-03
    0.1500000000E+07    0.5666012308E-02    0.9462612244E-03    0.6955474831E+00    0.3178076227E+00    0.5117229706E-03
    0.1700000000E+07    0.5351559363E-02    0.8970078591E-03    0.6955443655E+00    0.3187250018E+00    0.5152933564E-03
    0.1900000000E+07    0.5084962037E-02    0.8550924816E-03    0.6955415506E+00    0.3194827266E+00    0.5184870458E-03
    0.2100000000E+07    0.4855146298E-02    0.8188387293E-03    0.6955389838E+00    0.3201215555E+00    0.5213777055E-03
    0.2300000000E+07    0.4654329730E-02    0.7870639244E-03    0.6955366243E+00    0.3206691401E+00    0.5240191662E-03
    0.2500000000E+07    0.4476860425E-02    0.7589061894E-03    0.6955344404E+00    0.3211449648E+00    0.5264519821E-03
    0.2700000000E+07    0.4318520502E-02    0.7337203297E-03    0.6955324074E+00    0.3215631933E+00    0.5287074808E-03
    0.2900000000E+07    0.4176089306E-02    0.7110123047E-03    0.6955305052E+00    0.3219343926E+00    0.5308103745E-03
    0.3100000000E+07    0.4047059049E-02    0.6903964341E-03    0.6955287177E+00    0.3222666231E+00    0.5327805072E-03
    0.3300000000E+07    0.3929443744E-02    0.6715665602E-03    0.6955270315E+00    0.3225661505E+00    0.5346340589E-03
    0.3500000000E+07    0.3821647260E-02    0.6542760826E-03    0.6955254355E+00    0.3228379263E+00    0.5363843990E-03
    0.3700000000E+07    0.3722370024E-02    0.6383238055E-03    0.6955239204E+00    0.3230859210E+00    0.5380427038E-03
    0.3900000000E+07    0.3630541658E-02    0.6235436974E-03    0.6955224781E+00    0.3233133590E+00    0.5396184134E-03
    0.4100000000E+07    0.3545271438E-02    0.6097973430E-03    0.6955211018E+00    0.3235228889E+00    0.5411195747E-03
    0.4300000000E+07    0.3465811249E-02    0.5969682892E-03    0.6955197856E+00    0.3237167088E+00    0.5425531039E-03
    0.4500000000E+07    0.3391527475E-02    0.5849577464E-03    0.6955185243E+00    0.3238966597E+00    0.5439249896E-03
    0.4700000000E+07    0.3321879386E-02    0.5736812775E-03    0.6955173134E+00    0.3240642963E+00    0.5452404523E-03
    0.4900000000E+07    0.3256402315E-02    0.5630662165E-03    0.6955161490E+00    0.3242209416E+00    0.5465040709E-03
    0.1000000000E+07    0.6793581221E-02    0.1121344661E-02    0.6955571709E+00    0.3142938931E+00    0.5003255950E-03
    0.3000000000E+07    0.4110033640E-02    0.7004635805E-03    0.6955295980E+00    0.3221049519E+00    0.5318109502E-03
    0.5000000000E+07    0.3225100182E-02    0.5579867147E-03    0.6955155830E+00    0.3242955034E+00    0.5471177194E-03
    0.7000000000E+07    0.2743984804E-02    0.4794962023E-03    0.6955060263E+00    0.3254154912E+00    0.5574397440E-03
    0.9000000000E+07    0.2430305041E-02    0.4278569440E-03    0.6954987332E+00    0.3261199135E+00    0.5652761178E-03
    0.1100000000E+08    0.2204972242E-02    0.3905046735E-03    0.6954928183E+00    0.3266136797E+00    0.5716123093E-03
    0.1300000000E+08    0.2032967471E-02    0.3618323016E-03    0.6954878340E+00    0.3269838093E+00    0.5769411528E-03
    0.1500000000E+08    0.1896072784E-02    0.3389049237E-03    0.6954835214E+00    0.3272742461E+00    0.5815453713E-03
    0.1700000000E+08    0.1783747254E-02    0.3200158157E-03    0.6954797172E+00    0.3275098440E+00    0.5856025417E-03
    0.1900000000E+08    0.1689410932E-02    0.3040950074E-03    0.6954763117E+00    0.3277058374E+00    0.5892316557E-03
    0.2100000000E+08    0.1608715144E-02    0.2904327054E-03    0.6954732273E+00    0.3278721445E+00    0.5925164238E-03
    0.2300000000E+08    0.1538654857E-02    0.2785367949E-03    0.6954704074E+00    0.3280155324E+00    0.5955180160E-03
    0.2500000000E+08    0.1477077813E-02    0.2680537610E-03    0.6954678091E+00    0.3281407950E+00    0.5982825158E-03
    0.2700000000E+08    0.1422396500E-02    0.2587221423E-03    0.6954653992E+00    0.3282514346E+00    0.6008455220E-03
