  Pressure (Pa) 22mC5-500 (mol/kg) 23mC5-500 (mol/kg) 24mC5-500 (mol/kg) 2mC6-500 (mol/kg) C7-500 (mol/kg)
    0.1000000000E+01    0.3813964843E-05    0.2737238265E-05    0.2142813619E+00    0.9932710429E-05    0.4146136853E-02
    0.3000000000E+01    0.6549862753E-05    0.4684726188E-05    0.3978530020E+00    0.1635890582E-04    0.4170350389E-02
    0.5000000000E+01    0.7627838535E-05    0.5448786920E-05    0.4801165820E+00    0.1912723142E-04    0.4176454427E-02
    0.7000000000E+01    0.8254439090E-05    0.5895552326E-05    0.5268000927E+00    0.2121457589E-04    0.4179287010E-02
    0.9000000000E+01    0.8721292149E-05    0.6232215108E-05    0.5568827789E+00    0.2318084553E-04    0.4180873207E-02
    0.1100000000E+02    0.9124667096E-05    0.6526368261E-05    0.5778829855E+00    0.2515836089E-04    0.4181841473E-02
    0.1300000000E+02    0.9502215703E-05    0.6804072430E-05    0.5933745219E+00    0.2717689361E-04    0.4182456111E-02
    0.1500000000E+02    0.9870216952E-05    0.7076389132E-05    0.6052736097E+00    0.2923832616E-04    0.4182848837E-02
    0.1700000000E+02    0.1023611092E-04    0.7348245493E-05    0.6147000508E+00    0.3133716273E-04    0.4183092996E-02
    0.1900000000E+02    0.1060335587E-04    0.7621842041E-05    0.6223520440E+00    0.3346666026E-04    0.4183232782E-02
    0.2100000000E+02    0.1097350912E-04    0.7898099526E-05    0.6286875330E+00    0.3562063956E-04    0.4183296459E-02
    0.2300000000E+02    0.1134718703E-04    0.8177319329E-05    0.6340193627E+00    0.3779391383E-04    0.4183302960E-02
    0.2500000000E+02    0.1172453277E-04    0.8459501289E-05    0.6385685295E+00    0.3998227526E-04    0.4183265455E-02
    0.2700000000E+02    0.1210545368E-04    0.8744502475E-05    0.6424955840E+00    0.4218235714E-04    0.4183193389E-02
    0.2900000000E+02    0.1248974503E-04    0.9032118337E-05    0.6459199742E+00    0.4439147875E-04    0.4183093713E-02
    0.3100000000E+02    0.1287715554E-04    0.9322124535E-05    0.6489324082E+00    0.4660750700E-04    0.4182971658E-02
    0.3300000000E+02    0.1326742209E-04    0.9614298245E-05    0.6516030071E+00    0.4882874230E-04    0.4182831232E-02
    0.3500000000E+02    0.1366028776E-04    0.9908428578E-05    0.6539868322E+00    0.5105382760E-04    0.4182675562E-02
    0.3700000000E+02    0.1405551075E-04    0.1020432114E-04    0.6561277220E+00    0.5328167699E-04    0.4182507117E-02
    0.3900000000E+02    0.1445286823E-04    0.1050179949E-04    0.6580610126E+00    0.5551141979E-04    0.4182327878E-02
    0.4100000000E+02    0.1485215744E-04    0.1080070494E-04    0.6598155041E+00    0.5774235693E-04    0.4182139447E-02
    0.4300000000E+02    0.1525319531E-04    0.1110089553E-04    0.6614149046E+00    0.5997392675E-04    0.4181943136E-02
    0.4500000000E+02    0.1565581734E-04    0.1140224470E-04    0.6628789083E+00    0.6220567813E-04    0.4181740027E-02
    0.4700000000E+02    0.1605987610E-04    0.1170463978E-04    0.6642240102E+00    0.6443724922E-04    0.4181531024E-02
    0.4900000000E+02    0.1646523970E-04    0.1200798054E-04    0.6654641304E+00    0.6666835066E-04    0.4181316882E-02
    0.1000000000E+02    0.8927818398E-05    0.6382453502E-05    0.5682401198E+00    0.2416525173E-04    0.4181413519E-02
    0.3000000000E+02    0.1268307683E-04    0.9176836766E-05    0.6474728955E+00    0.4549874476E-04    0.4183035208E-02
    0.5000000000E+02    0.1666837344E-04    0.1215997729E-04    0.6660485896E+00    0.6778365127E-04    0.4181208087E-02
    0.7000000000E+02    0.2077690424E-04    0.1523258190E-04    0.6743402848E+00    0.9003035664E-04    0.4178875370E-02
    0.9000000000E+02    0.2493784365E-04    0.1834170331E-04    0.6790367298E+00    0.1121469651E-03    0.4176392424E-02
    0.1100000000E+03    0.2912658163E-04    0.2146962513E-04    0.6820596416E+00    0.1341575381E-03    0.4173853061E-02
    0.1300000000E+03    0.3333425027E-04    0.2461023488E-04    0.6841682683E+00    0.1560999424E-03    0.4171290183E-02
    0.1500000000E+03    0.3755798316E-04    0.2776174391E-04    0.6857229136E+00    0.1780089638E-03    0.4168716926E-02
    0.1700000000E+03    0.4179741212E-04    0.3092412096E-04    0.6869165430E+00    0.1999139666E-03    0.4166138718E-02
    0.1900000000E+03    0.4605325641E-04    0.3409807571E-04    0.6878618254E+00    0.2218393962E-03    0.4163557620E-02
    0.2100000000E+03    0.5032670610E-04    0.3728462214E-04    0.6886289635E+00    0.2438057177E-03    0.4160974117E-02
    0.2300000000E+03    0.5461913765E-04    0.4048488123E-04    0.6892639788E+00    0.2658302661E-03    0.4158387926E-02
    0.2500000000E+03    0.5893197884E-04    0.4369998980E-04    0.6897982974E+00    0.2879279242E-03    0.4155798390E-02
    0.2700000000E+03    0.6326664472E-04    0.4693105906E-04    0.6902541110E+00    0.3101116435E-03    0.4153204677E-02
    0.2900000000E+03    0.6762450834E-04    0.5017915715E-04    0.6906475367E+00    0.3323928421E-03    0.4150605885E-02
    0.3100000000E+03    0.7200688932E-04    0.5344530348E-04    0.6909905624E+00    0.3547817089E-03    0.4148001091E-02
    0.3300000000E+03    0.7641505115E-04    0.5673046895E-04    0.6912922896E+00    0.3772874393E-03    0.4145389388E-02
    0.3500000000E+03    0.8085020307E-04    0.6003557880E-04    0.6915597528E+00    0.3999184188E-03    0.4142769894E-02
    0.3700000000E+03    0.8531350398E-04    0.6336151671E-04    0.6917984745E+00    0.4226823677E-03    0.4140141758E-02
    0.3900000000E+03    0.8980606727E-04    0.6670912917E-04    0.6920128512E+00    0.4455864568E-03    0.4137504166E-02
    0.4100000000E+03    0.9432896576E-04    0.7007922988E-04    0.6922064261E+00    0.4686374001E-03    0.4134856339E-02
    0.4300000000E+03    0.9888323658E-04    0.7347260379E-04    0.6923820865E+00    0.4918415309E-03    0.4132197529E-02
    0.4500000000E+03    0.1034698857E-03    0.7689001094E-04    0.6925422093E+00    0.5152048631E-03    0.4129527019E-02
    0.4700000000E+03    0.1080898921E-03    0.8033218982E-04    0.6926887685E+00    0.5387331433E-03    0.4126844122E-02
    0.4900000000E+03    0.1127442115E-03    0.8379986047E-04    0.6928234174E+00    0.5624318932E-03    0.4124148175E-02
    0.1000000000E+03    0.2702949899E-04    0.1990384643E-04    0.6806960018E+00    0.1231631385E-03    0.4175127034E-02
    0.3000000000E+03    0.6981255389E-04    0.5180991249E-04    0.6908247243E+00    0.3435732213E-03    0.4149304295E-02
    0.5000000000E+03    0.1150845318E-03    0.8554347586E-04    0.6928867200E+00    0.5743468674E-03    0.4122795107E-02
    0.7000000000E+03    0.1639142621E-03    0.1219207196E-03    0.6937741375E+00    0.8228306172E-03    0.4094902186E-02
    0.9000000000E+03    0.2171969501E-03    0.1616127932E-03    0.6942680795E+00    0.1093919995E-02    0.4065060735E-02
    0.1100000000E+04    0.2758385233E-03    0.2052962025E-03    0.6945827353E+00    0.1392351755E-02    0.4032763633E-02
    0.1300000000E+04    0.3408527051E-03    0.2537270085E-03    0.6948007128E+00    0.1723359801E-02    0.3997484822E-02
    0.1500000000E+04    0.4134284437E-03    0.3077915640E-03    0.6949606277E+00    0.2093058758E-02    0.3958635050E-02
    0.1700000000E+04    0.4949961989E-03    0.3685560911E-03    0.6950829475E+00    0.2508797071E-02    0.3915526049E-02
    0.1900000000E+04    0.5873054969E-03    0.4373245635E-03    0.6951795316E+00    0.2979561346E-02    0.3867333524E-02
    0.2100000000E+04    0.6925225358E-03    0.5157115034E-03    0.6952577262E+00    0.3516482085E-02    0.3813053723E-02
    0.2300000000E+04    0.8133566880E-03    0.6057363141E-03    0.6953223246E+00    0.4133488322E-02    0.3751449565E-02
    0.2500000000E+04    0.9532260995E-03    0.7099467632E-03    0.6953765877E+00    0.4848165041E-02    0.3680982502E-02
    0.2700000000E+04    0.1116473977E-02    0.8315802752E-03    0.6954228107E+00    0.5682874704E-02    0.3599726614E-02
    0.2900000000E+04    0.1308646793E-02    0.9747714249E-03    0.6954626563E+00    0.6666203168E-02    0.3505262906E-02
    0.3100000000E+04    0.1536839438E-02    0.1144809419E-02    0.6954973582E+00    0.7834760010E-02    0.3394556579E-02
    0.3300000000E+04    0.1810091069E-02    0.1348433510E-02    0.6955278514E+00    0.9235256391E-02    0.3263832729E-02
    0.3500000000E+04    0.2139759244E-02    0.1594112471E-02    0.6955548570E+00    0.1092649848E-01    0.3108495321E-02
    0.3700000000E+04    0.2539670797E-02    0.1892158027E-02    0.6955789406E+00    0.1298027466E-01    0.2923196316E-02
    0.3900000000E+04    0.3025587519E-02    0.2254328106E-02    0.6956005516E+00    0.1547877664E-01    0.2702277243E-02
    0.4100000000E+04    0.3613095928E-02    0.2692256006E-02    0.6956200517E+00    0.1850397538E-01    0.2440974914E-02
    0.4300000000E+04    0.4312610030E-02    0.3213727809E-02    0.6956377355E+00    0.2211215541E-01    0.2137894217E-02
    0.4500000000E+04    0.5120621695E-02    0.3816161410E-02    0.6956538452E+00    0.2628897381E-01    0.1798886971E-02
    0.4700000000E+04    0.6009430900E-02    0.4478947914E-02    0.6956685818E+00    0.3089618159E-01    0.1440914786E-02
    0.4900000000E+04    0.6923653734E-02    0.5160837966E-02    0.6956821133E+00    0.3565242904E-01    0.1091948482E-02
    0.1000000000E+04    0.2457878815E-03    0.1829108233E-03    0.6944411098E+00    0.1239407544E-02    0.4049250981E-02
    0.3000000000E+04    0.1417726049E-02    0.1056050924E-02    0.6954805859E+00    0.7224670634E-02    0.3452157323E-02
    0.5000000000E+04    0.7368347201E-02    0.5492592277E-02    0.6956884724E+00    0.3797405839E-01    0.9307988678E-03
    0.7000000000E+04    0.1174370132E-01    0.8764569475E-02    0.6957774304E+00    0.6171229679E-01    0.4018951132E-04
    0.9000000000E+04    0.1380622493E-01    0.1031609421E-01    0.6958267604E+00    0.7396331815E-01    0.3341512029E-04
    0.1100000000E+05    0.1550000619E-01    0.1159480369E-01    0.6958580896E+00    0.8457427691E-01    0.3374153161E-04
    0.1300000000E+05    0.1691743907E-01    0.1266881260E-01    0.6958797339E+00    0.9393701780E-01    0.3405632338E-04
    0.1500000000E+05    0.1811322507E-01    0.1357836195E-01    0.6958955721E+00    0.1022728880E+00    0.3432861818E-04
    0.1700000000E+05    0.1912888217E-01    0.1435402560E-01    0.6959076570E+00    0.1097525289E+00    0.3456852638E-04
    0.1900000000E+05    0.1999651869E-01    0.1501947382E-01    0.6959171762E+00    0.1165101134E+00    0.3478309702E-04
    0.2100000000E+05    0.2074132058E-01    0.1559329431E-01    0.6959248647E+00    0.1226526585E+00    0.3497729013E-04
    0.2300000000E+05    0.2138329418E-01    0.1609026877E-01    0.6959312013E+00    0.1282666128E+00    0.3515472892E-04
    0.2500000000E+05    0.2193851155E-01    0.1652228569E-01    0.6959365115E+00    0.1334226075E+00    0.3531814222E-04
    0.2700000000E+05    0.2242001579E-01    0.1689900431E-01    0.6959410243E+00    0.1381789454E+00    0.3546963747E-04
    0.2900000000E+05    0.2283848955E-01    0.1722834519E-01    0.6959449053E+00    0.1425842016E+00    0.3561087680E-04
    0.3100000000E+05    0.2320275554E-01    0.1751685773E-01    0.6959482773E+00    0.1466791897E+00    0.3574319467E-04
    0.3300000000E+05    0.2352015608E-01    0.1776999905E-01    0.6959512333E+00    0.1504984680E+00    0.3586767899E-04
    0.3500000000E+05    0.2379684432E-01    0.1799234813E-01    0.6959538451E+00    0.1540715060E+00    0.3598522858E-04
    0.3700000000E+05    0.2403801000E-01    0.1818777186E-01    0.6959561687E+00    0.1574235981E+00    0.3609659475E-04
    0.3900000000E+05    0.2424805633E-01    0.1835955531E-01    0.6959582488E+00    0.1605765868E+00    0.3620241202E-04
    0.4100000000E+05    0.2443073967E-01    0.1851050457E-01    0.6959601212E+00    0.1635494384E+00    0.3630322124E-04
    0.4300000000E+05    0.2458928087E-01    0.1864302888E-01    0.6959618151E+00    0.1663587084E+00    0.3639948720E-04
    0.4500000000E+05    0.2472645468E-01    0.1875920659E-01    0.6959633545E+00    0.1690189168E+00    0.3649161237E-04
    0.4700000000E+05    0.2484466208E-01    0.1886083850E-01    0.6959647592E+00    0.1715428567E+00    0.3657994755E-04
    0.4900000000E+05    0.2494598914E-01    0.1894949143E-01    0.6959660459E+00    0.1739418469E+00    0.3666480040E-04
    0.1000000000E+05    0.1469175424E-01    0.1098404765E-01    0.6958439994E+00    0.7944128211E-01    0.3356698420E-04
    0.3000000000E+05    0.2302690870E-01    0.1737734111E-01    0.6959466485E+00    0.1446681878E+00    0.3567807791E-04
    0.5000000000E+05    0.2499090041E-01    0.1898938532E-01    0.6959666495E+00    0.1750976722E+00    0.3670600701E-04
    0.7000000000E+05    0.2534056301E-01    0.1936053559E-01    0.6959749948E+00    0.1935888450E+00    0.3739910879E-04
    0.9000000000E+05    0.2513788119E-01    0.1929326264E-01    0.6959795031E+00    0.2063794226E+00    0.3792528345E-04
    0.1100000000E+06    0.2472410404E-01    0.1904994247E-01    0.6959822896E+00    0.2159318826E+00    0.3835072079E-04
    0.1300000000E+06    0.2423152351E-01    0.1873445922E-01    0.6959841607E+00    0.2234355672E+00    0.3870851807E-04
    0.1500000000E+06    0.2371717759E-01    0.1839283767E-01    0.6959854900E+00    0.2295440460E+00    0.3901766065E-04
    0.1700000000E+06    0.2320703643E-01    0.1804683770E-01    0.6959864735E+00    0.2346503383E+00    0.3929007257E-04
    0.1900000000E+06    0.2271302121E-01    0.1770703834E-01    0.6959872235E+00    0.2390070576E+00    0.3953374370E-04
    0.2100000000E+06    0.2224030175E-01    0.1737851897E-01    0.6959878092E+00    0.2427851074E+00    0.3975429476E-04
    0.2300000000E+06    0.2179068040E-01    0.1706353163E-01    0.6959882751E+00    0.2461049062E+00    0.3995583292E-04
    0.2500000000E+06    0.2136425443E-01    0.1676283626E-01    0.6959886514E+00    0.2490541489E+00    0.4014145238E-04
    0.2700000000E+06    0.2096026797E-01    0.1647639895E-01    0.6959889591E+00    0.2516984693E+00    0.4031354331E-04
    0.2900000000E+06    0.2057756145E-01    0.1620376968E-01    0.6959892130E+00    0.2540881342E+00    0.4047399117E-04
    0.3100000000E+06    0.2021481248E-01    0.1594429153E-01    0.6959894245E+00    0.2562624038E+00    0.4062430997E-04
    0.3300000000E+06    0.1987066540E-01    0.1569721807E-01    0.6959896016E+00    0.2582524659E+00    0.4076573417E-04
    0.3500000000E+06    0.1954379960E-01    0.1546177940E-01    0.6959897508E+00    0.2600834646E+00    0.4089928379E-04
    0.3700000000E+06    0.1923296392E-01    0.1523721886E-01    0.6959898770E+00    0.2617759357E+00    0.4102581153E-04
    0.3900000000E+06    0.1893699195E-01    0.1502281260E-01    0.6959899840E+00    0.2633468457E+00    0.4114603763E-04
    0.4100000000E+06    0.1865480664E-01    0.1481787928E-01    0.6959900750E+00    0.2648103568E+00    0.4126057602E-04
    0.4300000000E+06    0.1838541914E-01    0.1462178392E-01    0.6959901524E+00    0.2661783997E+00    0.4136995436E-04
    0.4500000000E+06    0.1812792448E-01    0.1443393835E-01    0.6959902183E+00    0.2674611091E+00    0.4147462957E-04
    0.4700000000E+06    0.1788149582E-01    0.1425379979E-01    0.6959902743E+00    0.2686671591E+00    0.4157499994E-04
    0.4900000000E+06    0.1764537815E-01    0.1408086845E-01    0.6959903217E+00    0.2698040254E+00    0.4167141481E-04
    0.1000000000E+06    0.2494649138E-01    0.1918511144E-01    0.6959810459E+00    0.2114684542E+00    0.3814806553E-04
    0.3000000000E+06    0.2039377723E-01    0.1607243223E-01    0.6959893235E+00    0.2552000822E+00    0.4055033386E-04
    0.5000000000E+06    0.1753096807E-01    0.1399696032E-01    0.6959903426E+00    0.2703485745E+00    0.4171823666E-04
    0.7000000000E+06    0.1564553580E-01    0.1260375723E-01    0.6959905121E+00    0.2788080962E+00    0.4250582332E-04
    0.9000000000E+06    0.1428463040E-01    0.1158628482E-01    0.6959904566E+00    0.2844194900E+00    0.4310376217E-04
    0.1100000000E+07    0.1324105832E-01    0.1079940068E-01    0.6959903250E+00    0.2884998679E+00    0.4358724004E-04
    0.1300000000E+07    0.1240670118E-01    0.1016605375E-01    0.6959901666E+00    0.2916432038E+00    0.4399385832E-04
    0.1500000000E+07    0.1171902557E-01    0.9641170530E-02    0.6959900006E+00    0.2941629243E+00    0.4434518792E-04
    0.1700000000E+07    0.1113900466E-01    0.9196381985E-02    0.6959898354E+00    0.2962424561E+00    0.4465477751E-04
    0.1900000000E+07    0.1064083430E-01    0.8812804140E-02    0.6959896745E+00    0.2979973766E+00    0.4493170596E-04
    0.2100000000E+07    0.1020666492E-01    0.8477301212E-02    0.6959895193E+00    0.2995046732E+00    0.4518236024E-04
    0.2300000000E+07    0.9823693778E-02    0.8180406393E-02    0.6959893706E+00    0.3008179036E+00    0.4541140759E-04
    0.2500000000E+07    0.9482461024E-02    0.7915095550E-02    0.6959892282E+00    0.3019756496E+00    0.4562236417E-04
    0.2700000000E+07    0.9175801257E-02    0.7676028564E-02    0.6959890920E+00    0.3030065138E+00    0.4581794616E-04
    0.2900000000E+07    0.8898171719E-02    0.7459060899E-02    0.6959889617E+00    0.3039322163E+00    0.4600029622E-04
    0.3100000000E+07    0.8645206759E-02    0.7260918362E-02    0.6959888369E+00    0.3047695910E+00    0.4617113490E-04
    0.3300000000E+07    0.8413413592E-02    0.7078974185E-02    0.6959887173E+00    0.3055319161E+00    0.4633186507E-04
    0.3500000000E+07    0.8199959171E-02    0.6911092353E-02    0.6959886025E+00    0.3062298264E+00    0.4648364594E-04
    0.3700000000E+07    0.8002517563E-02    0.6755515073E-02    0.6959884921E+00    0.3068719547E+00    0.4662744655E-04
    0.3900000000E+07    0.7819158468E-02    0.6610780348E-02    0.6959883860E+00    0.3074653925E+00    0.4676408541E-04
    0.4100000000E+07    0.7648264378E-02    0.6475660577E-02    0.6959882838E+00    0.3080160271E+00    0.4689426022E-04
    0.4300000000E+07    0.7488468045E-02    0.6349116089E-02    0.6959881852E+00    0.3085287927E+00    0.4701857069E-04
    0.4500000000E+07    0.7338604619E-02    0.6230259512E-02    0.6959880900E+00    0.3090078605E+00    0.4713753604E-04
    0.4700000000E+07    0.7197674547E-02    0.6118328084E-02    0.6959879980E+00    0.3094567840E+00    0.4725160895E-04
    0.4900000000E+07    0.7064814474E-02    0.6012661900E-02    0.6959879090E+00    0.3098786123E+00    0.4736118643E-04
    0.1000000000E+07    0.1373139724E-01    0.1116985465E-01    0.6959903961E+00    0.2866045031E+00    0.4335693592E-04
    0.3000000000E+07    0.8768842071E-02    0.7357813742E-02    0.6959888986E+00    0.3043610437E+00    0.4608706034E-04
    0.5000000000E+07    0.7001172359E-02    0.5961995858E-02    0.6959878655E+00    0.3100802027E+00    0.4741440044E-04
    0.7000000000E+07    0.6012664946E-02    0.5170644828E-02    0.6959871159E+00    0.3131736336E+00    0.4830951116E-04
    0.9000000000E+07    0.5357710339E-02    0.4641401028E-02    0.6959865279E+00    0.3151864327E+00    0.4898908444E-04
    0.1100000000E+08    0.4882110428E-02    0.4254346704E-02    0.6959860435E+00    0.3166310215E+00    0.4953857047E-04
    0.1300000000E+08    0.4516185562E-02    0.3954833853E-02    0.6959856312E+00    0.3177332975E+00    0.5000070376E-04
    0.1500000000E+08    0.4223168114E-02    0.3713837774E-02    0.6959852719E+00    0.3186104713E+00    0.5040000003E-04
    0.1700000000E+08    0.3981555854E-02    0.3514293525E-02    0.6959849534E+00    0.3193302442E+00    0.5075185767E-04
    0.1900000000E+08    0.3777812771E-02    0.3345409703E-02    0.6959846670E+00    0.3199348272E+00    0.5106659499E-04
    0.2100000000E+08    0.3602931083E-02    0.3199976678E-02    0.6959844069E+00    0.3204520934E+00    0.5135147098E-04
    0.2300000000E+08    0.3450650170E-02    0.3072966135E-02    0.6959841684E+00    0.3209012919E+00    0.5161179006E-04
    0.2500000000E+08    0.3316463916E-02    0.2960747614E-02    0.6959839483E+00    0.3212962028E+00    0.5185154845E-04
    0.2700000000E+08    0.3197034353E-02    0.2860624194E-02    0.6959837437E+00    0.3216469870E+00    0.5207383317E-04
