  Pressure (Pa) 22mC5-500 (mol/kg) 23mC5-500 (mol/kg) 24mC5-500 (mol/kg) 2mC6-500 (mol/kg) C7-500 (mol/kg)
    0.1000000000E+01    0.4512168403E-05    0.3887430344E-05    0.1266295273E+00    0.1464237378E-04    0.4182507829E-02
    0.3000000000E+01    0.9323240586E-05    0.8009587056E-05    0.2785109623E+00    0.2885832590E-04    0.4218038533E-02
    0.5000000000E+01    0.1175572211E-04    0.1008008159E-04    0.3664077768E+00    0.3545599314E-04    0.4236489108E-02
    0.7000000000E+01    0.1317971529E-04    0.1128627587E-04    0.4237194329E+00    0.3925661663E-04    0.4248383066E-02
    0.9000000000E+01    0.1410827456E-04    0.1207086502E-04    0.4640446240E+00    0.4189784273E-04    0.4256757827E-02
    0.1100000000E+02    0.1476987275E-04    0.1263008327E-04    0.4939608365E+00    0.4403438701E-04    0.4262991926E-02
    0.1300000000E+02    0.1527846680E-04    0.1306132438E-04    0.5170377903E+00    0.4595531282E-04    0.4267818176E-02
    0.1500000000E+02    0.1569564894E-04    0.1341694702E-04    0.5353803249E+00    0.4779626392E-04    0.4271665535E-02
    0.1700000000E+02    0.1605675062E-04    0.1372681038E-04    0.5503099099E+00    0.4962290226E-04    0.4274802883E-02
    0.1900000000E+02    0.1638297933E-04    0.1400872139E-04    0.5626980666E+00    0.5146702615E-04    0.4277407773E-02
    0.2100000000E+02    0.1668751868E-04    0.1427366937E-04    0.5731428528E+00    0.5334337122E-04    0.4279602395E-02
    0.2300000000E+02    0.1697878947E-04    0.1452861546E-04    0.5820683209E+00    0.5525786509E-04    0.4281473721E-02
    0.2500000000E+02    0.1726228252E-04    0.1477805515E-04    0.5897835117E+00    0.5721185496E-04    0.4283085416E-02
    0.2700000000E+02    0.1754163248E-04    0.1502493029E-04    0.5965189708E+00    0.5920433979E-04    0.4284485205E-02
    0.2900000000E+02    0.1781926900E-04    0.1527118021E-04    0.6024501832E+00    0.6123317338E-04    0.4285709604E-02
    0.3100000000E+02    0.1809682355E-04    0.1551808454E-04    0.6077130846E+00    0.6329571918E-04    0.4286787047E-02
    0.3300000000E+02    0.1837539001E-04    0.1576648185E-04    0.6124146089E+00    0.6538920611E-04    0.4287740025E-02
    0.3500000000E+02    0.1865569524E-04    0.1601691220E-04    0.6166400314E+00    0.6751091795E-04    0.4288586573E-02
    0.3700000000E+02    0.1893821287E-04    0.1626971162E-04    0.6204581877E+00    0.6965828938E-04    0.4289341331E-02
    0.3900000000E+02    0.1922324040E-04    0.1652507592E-04    0.6239252535E+00    0.7182894934E-04    0.4290016313E-02
    0.4100000000E+02    0.1951095224E-04    0.1678310417E-04    0.6270875270E+00    0.7402073486E-04    0.4290621477E-02
    0.4300000000E+02    0.1980143655E-04    0.1704382883E-04    0.6299835086E+00    0.7623168885E-04    0.4291165150E-02
    0.4500000000E+02    0.2009472115E-04    0.1730723672E-04    0.6326454763E+00    0.7846004928E-04    0.4291654352E-02
    0.4700000000E+02    0.2039079194E-04    0.1757328379E-04    0.6351006938E+00    0.8070423451E-04    0.4292095048E-02
    0.4900000000E+02    0.2068960591E-04    0.1784190550E-04    0.6373723478E+00    0.8296282716E-04    0.4292492338E-02
    0.1000000000E+02    0.1446363037E-04    0.1237110198E-04    0.4800345685E+00    0.4300601108E-04    0.4260087004E-02
    0.3000000000E+02    0.1795797789E-04    0.1539448978E-04    0.6051579082E+00    0.6226040510E-04    0.4286265170E-02
    0.5000000000E+02    0.2084002263E-04    0.1797715794E-04    0.6384456538E+00    0.8409712425E-04    0.4292676101E-02
    0.7000000000E+02    0.2397303935E-04    0.2079636188E-04    0.6538610491E+00    0.1072950111E-03    0.4294873996E-02
    0.9000000000E+02    0.2728919129E-04    0.2378003644E-04    0.6627515260E+00    0.1310870282E-03    0.4295405902E-02
    0.1100000000E+03    0.3073038737E-04    0.2687406880E-04    0.6685361893E+00    0.1551980471E-03    0.4295084191E-02
    0.1300000000E+03    0.3426235861E-04    0.3004748567E-04    0.6726004998E+00    0.1795205906E-03    0.4294255021E-02
    0.1500000000E+03    0.3786491485E-04    0.3328234206E-04    0.6756125399E+00    0.2040115328E-03    0.4293093001E-02
    0.1700000000E+03    0.4152579747E-04    0.3656788006E-04    0.6779341140E+00    0.2286551655E-03    0.4291696594E-02
    0.1900000000E+03    0.4523735708E-04    0.3989746360E-04    0.6797782152E+00    0.2534483267E-03    0.4290125911E-02
    0.2100000000E+03    0.4899473386E-04    0.4326692685E-04    0.6812784005E+00    0.2783938424E-03    0.4288419886E-02
    0.2300000000E+03    0.5279482229E-04    0.4667364491E-04    0.6825226646E+00    0.3034974344E-03    0.4286604919E-02
    0.2500000000E+03    0.5663565812E-04    0.5011598822E-04    0.6835713422E+00    0.3287661907E-03    0.4284699569E-02
    0.2700000000E+03    0.6051604199E-04    0.5359298988E-04    0.6844671845E+00    0.3542077879E-03    0.4282717269E-02
    0.2900000000E+03    0.6443530060E-04    0.5710413597E-04    0.6852413297E+00    0.3798300883E-03    0.4280667973E-02
    0.3100000000E+03    0.6839313104E-04    0.6064922959E-04    0.6859169953E+00    0.4056409359E-03    0.4278559204E-02
    0.3300000000E+03    0.7238949668E-04    0.6422830036E-04    0.6865118461E+00    0.4316480559E-03    0.4276396735E-02
    0.3500000000E+03    0.7642455610E-04    0.6784154308E-04    0.6870395607E+00    0.4578590121E-03    0.4274185054E-02
    0.3700000000E+03    0.8049861366E-04    0.7148927522E-04    0.6875108954E+00    0.4842811947E-03    0.4271927686E-02
    0.3900000000E+03    0.8461208459E-04    0.7517190700E-04    0.6879344255E+00    0.5109218257E-03    0.4269627421E-02
    0.4100000000E+03    0.8876546998E-04    0.7888992019E-04    0.6883170712E+00    0.5377879720E-03    0.4267286477E-02
    0.4300000000E+03    0.9295933863E-04    0.8264385269E-04    0.6886644785E+00    0.5648865632E-03    0.4264906623E-02
    0.4500000000E+03    0.9719431378E-04    0.8643428743E-04    0.6889812997E+00    0.5922244103E-03    0.4262489273E-02
    0.4700000000E+03    0.1014710634E-03    0.9026184417E-04    0.6892714024E+00    0.6198082259E-03    0.4260035550E-02
    0.4900000000E+03    0.1057902927E-03    0.9412717350E-04    0.6895380290E+00    0.6476446418E-03    0.4257546342E-02
    0.1000000000E+03    0.2899672973E-04    0.2531559520E-04    0.6659206348E+00    0.1431115878E-03    0.4295324251E-02
    0.3000000000E+03    0.6640940191E-04    0.5887244197E-04    0.6855902596E+00    0.3927114574E-03    0.4279620627E-02
    0.5000000000E+03    0.1079660666E-03    0.9607421350E-04    0.6896634112E+00    0.6616596298E-03    0.4256288655E-02
    0.7000000000E+03    0.1539069223E-03    0.1371759967E-03    0.6914232407E+00    0.9568169092E-03    0.4229366272E-02
    0.9000000000E+03    0.2050944996E-03    0.1829600191E-03    0.6924043931E+00    0.1284817144E-02    0.4199023618E-02
    0.1100000000E+04    0.2625992315E-03    0.2343878884E-03    0.6930299288E+00    0.1652921844E-02    0.4164886515E-02
    0.1300000000E+04    0.3277340570E-03    0.2926359615E-03    0.6934634472E+00    0.2069744265E-02    0.4126334000E-02
    0.1500000000E+04    0.4021354370E-03    0.3591690930E-03    0.6937815480E+00    0.2545901278E-02    0.4082531074E-02
    0.1700000000E+04    0.4878752456E-03    0.4358412145E-03    0.6940248746E+00    0.3094780881E-02    0.4032396861E-02
    0.1900000000E+04    0.5876135715E-03    0.5250322584E-03    0.6942169951E+00    0.3733549041E-02    0.3974538650E-02
    0.2100000000E+04    0.7048098114E-03    0.6298371488E-03    0.6943725165E+00    0.4484525478E-02    0.3907153437E-02
    0.2300000000E+04    0.8440162158E-03    0.7543285485E-03    0.6945009739E+00    0.5377092044E-02    0.3827890004E-02
    0.2500000000E+04    0.1011285025E-02    0.9039212763E-03    0.6946088559E+00    0.6450340828E-02    0.3733661138E-02
    0.2700000000E+04    0.1214723258E-02    0.1085868941E-02    0.6947007308E+00    0.7756690314E-02    0.3620397126E-02
    0.2900000000E+04    0.1465213725E-02    0.1309909540E-02    0.6947799084E+00    0.9366603955E-02    0.3482746229E-02
    0.3100000000E+04    0.1777247009E-02    0.1589010784E-02    0.6948488452E+00    0.1137408013E-01    0.3313777208E-02
    0.3300000000E+04    0.2169577438E-02    0.1939958810E-02    0.6949094026E+00    0.1390110478E-01    0.3104874770E-02
    0.3500000000E+04    0.2664819951E-02    0.2383000723E-02    0.6949630171E+00    0.1709542767E-01    0.2846337466E-02
    0.3700000000E+04    0.3285880961E-02    0.2938656427E-02    0.6950108146E+00    0.2110810318E-01    0.2529778158E-02
    0.3900000000E+04    0.4045626169E-02    0.3618480487E-02    0.6950536902E+00    0.2602743568E-01    0.2153971887E-02
    0.4100000000E+04    0.4927730555E-02    0.4407930073E-02    0.6950923646E+00    0.3175539495E-01    0.1734433443E-02
    0.4300000000E+04    0.5868619245E-02    0.5250192921E-02    0.6951274243E+00    0.3788919561E-01    0.1310361512E-02
    0.4500000000E+04    0.6768152515E-02    0.6055713275E-02    0.6951593515E+00    0.4378634646E-01    0.9349368285E-03
    0.4700000000E+04    0.7539612772E-02    0.6746889104E-02    0.6951885465E+00    0.4888460801E-01    0.6474445138E-03
    0.4900000000E+04    0.8152927366E-02    0.7296757639E-02    0.6952153443E+00    0.5298297717E-01    0.4541303607E-03
    0.1000000000E+04    0.2329816562E-03    0.2079007294E-03    0.6927483340E+00    0.1463357194E-02    0.4182463250E-02
    0.3000000000E+04    0.1612469190E-02    0.1441621451E-02    0.6948155289E+00    0.1031370715E-01    0.3402677142E-02
    0.5000000000E+04    0.8405643987E-02    0.7523481259E-02    0.6952279341E+00    0.5468957274E-01    0.3873527036E-03
    0.7000000000E+04    0.1101801637E-01    0.9876079803E-02    0.6954037303E+00    0.7340546062E-01    0.1903326954E-03
    0.9000000000E+04    0.1277079718E-01    0.1146305252E-01    0.6955008076E+00    0.8701315847E-01    0.1925687303E-03
    0.1100000000E+05    0.1418145892E-01    0.1274596438E-01    0.6955621921E+00    0.9869356587E-01    0.1947357004E-03
    0.1300000000E+05    0.1533041093E-01    0.1379580567E-01    0.6956044096E+00    0.1088541804E+00    0.1965579890E-03
    0.1500000000E+05    0.1627488129E-01    0.1466315538E-01    0.6956351600E+00    0.1177895686E+00    0.1981316859E-03
    0.1700000000E+05    0.1705711989E-01    0.1538540417E-01    0.6956585127E+00    0.1257216334E+00    0.1995178900E-03
    0.1900000000E+05    0.1770893157E-01    0.1599073731E-01    0.6956768191E+00    0.1328208572E+00    0.2007574909E-03
    0.2100000000E+05    0.1825466671E-01    0.1650076398E-01    0.6956915323E+00    0.1392204740E+00    0.2018792248E-03
    0.2300000000E+05    0.1871324780E-01    0.1693230039E-01    0.6957035982E+00    0.1450261853E+00    0.2029040732E-03
    0.2500000000E+05    0.1909957452E-01    0.1729860693E-01    0.6957136586E+00    0.1503229768E+00    0.2038478326E-03
    0.2700000000E+05    0.1942551776E-01    0.1761026405E-01    0.6957221642E+00    0.1551799982E+00    0.2047226991E-03
    0.2900000000E+05    0.1970063563E-01    0.1787580368E-01    0.6957294409E+00    0.1596541200E+00    0.2055382892E-03
    0.3100000000E+05    0.1993269769E-01    0.1810217189E-01    0.6957357298E+00    0.1637925691E+00    0.2063023219E-03
    0.3300000000E+05    0.2012807431E-01    0.1829507277E-01    0.6957412132E+00    0.1676349109E+00    0.2070210892E-03
    0.3500000000E+05    0.2029202986E-01    0.1845922761E-01    0.6957460315E+00    0.1712145586E+00    0.2076997885E-03
    0.3700000000E+05    0.2042894599E-01    0.1859857244E-01    0.6957502945E+00    0.1745599383E+00    0.2083427637E-03
    0.3900000000E+05    0.2054249373E-01    0.1871641040E-01    0.6957540893E+00    0.1776953966E+00    0.2089536829E-03
    0.4100000000E+05    0.2063576738E-01    0.1881553042E-01    0.6957574857E+00    0.1806419167E+00    0.2095356725E-03
    0.4300000000E+05    0.2071138969E-01    0.1889830046E-01    0.6957605406E+00    0.1834176872E+00    0.2100914190E-03
    0.4500000000E+05    0.2077159521E-01    0.1896674158E-01    0.6957633005E+00    0.1860385584E+00    0.2106232483E-03
    0.4700000000E+05    0.2081829685E-01    0.1902258700E-01    0.6957658041E+00    0.1885184125E+00    0.2111331877E-03
    0.4900000000E+05    0.2085313945E-01    0.1906732981E-01    0.6957680836E+00    0.1908694636E+00    0.2116230150E-03
    0.1000000000E+05    0.1351317403E-01    0.1213746830E-01    0.6955346182E+00    0.9306537900E-01    0.1937031294E-03
    0.3000000000E+05    0.1982162153E-01    0.1799350199E-01    0.6957326963E+00    0.1617626709E+00    0.2059263280E-03
    0.5000000000E+05    0.2086656519E-01    0.1908594833E-01    0.6957691479E+00    0.1920001107E+00    0.2118608839E-03
    0.7000000000E+05    0.2077127749E-01    0.1911166654E-01    0.6957834300E+00    0.2099095048E+00    0.2158616077E-03
    0.9000000000E+05    0.2034346088E-01    0.1880962597E-01    0.6957906118E+00    0.2221063442E+00    0.2188985226E-03
    0.1100000000E+06    0.1981831695E-01    0.1840042212E-01    0.6957946975E+00    0.2311147838E+00    0.2213538853E-03
    0.1300000000E+06    0.1927805329E-01    0.1796380266E-01    0.6957971869E+00    0.2381299567E+00    0.2234188003E-03
    0.1500000000E+06    0.1875364475E-01    0.1753140761E-01    0.6957987614E+00    0.2437999390E+00    0.2252028762E-03
    0.1700000000E+06    0.1825647505E-01    0.1711601627E-01    0.6957997720E+00    0.2485106684E+00    0.2267749489E-03
    0.1900000000E+06    0.1778983795E-01    0.1672235404E-01    0.6958004159E+00    0.2525083238E+00    0.2281811400E-03
    0.2100000000E+06    0.1735357836E-01    0.1635154043E-01    0.6958008117E+00    0.2559584163E+00    0.2294538936E-03
    0.2300000000E+06    0.1694610130E-01    0.1600306289E-01    0.6958010345E+00    0.2589769450E+00    0.2306169167E-03
    0.2500000000E+06    0.1656528012E-01    0.1567569871E-01    0.6958011336E+00    0.2616479927E+00    0.2316880684E-03
    0.2700000000E+06    0.1620887437E-01    0.1536795913E-01    0.6958011427E+00    0.2640342280E+00    0.2326811444E-03
    0.2900000000E+06    0.1587471915E-01    0.1507830514E-01    0.6958010853E+00    0.2661834644E+00    0.2336070266E-03
    0.3100000000E+06    0.1556080496E-01    0.1480525055E-01    0.6958009783E+00    0.2681329163E+00    0.2344744533E-03
    0.3300000000E+06    0.1526530444E-01    0.1454740781E-01    0.6958008339E+00    0.2699120506E+00    0.2352905492E-03
    0.3500000000E+06    0.1498657363E-01    0.1430350472E-01    0.6958006612E+00    0.2715445515E+00    0.2360612011E-03
    0.3700000000E+06    0.1472314150E-01    0.1407238639E-01    0.6958004671E+00    0.2730497080E+00    0.2367913303E-03
    0.3900000000E+06    0.1447369475E-01    0.1385300991E-01    0.6958002569E+00    0.2744434132E+00    0.2374850933E-03
    0.4100000000E+06    0.1423706142E-01    0.1364443585E-01    0.6958000345E+00    0.2757388992E+00    0.2381460333E-03
    0.4300000000E+06    0.1401219493E-01    0.1344581871E-01    0.6957998031E+00    0.2769472861E+00    0.2387771957E-03
    0.4500000000E+06    0.1379815926E-01    0.1325639724E-01    0.6957995651E+00    0.2780779979E+00    0.2393812171E-03
    0.4700000000E+06    0.1359411573E-01    0.1307548538E-01    0.6957993225E+00    0.2791390826E+00    0.2399603963E-03
    0.4900000000E+06    0.1339931127E-01    0.1290246395E-01    0.6957990767E+00    0.2801374610E+00    0.2405167493E-03
    0.1000000000E+06    0.2008608890E-01    0.1861173138E-01    0.6957929190E+00    0.2269163037E+00    0.2201842963E-03
    0.3000000000E+06    0.1571535050E-01    0.1493979225E-01    0.6958010372E+00    0.2671811666E+00    0.2340475688E-03
    0.5000000000E+06    0.1330515920E-01    0.1281873507E-01    0.6957989531E+00    0.2806150391E+00    0.2407869299E-03
    0.7000000000E+06    0.1177402086E-01    0.1144762702E-01    0.6957965071E+00    0.2879798576E+00    0.2453315759E-03
    0.9000000000E+06    0.1068987950E-01    0.1046602741E-01    0.6957942795E+00    0.2928068969E+00    0.2487818419E-03
    0.1100000000E+07    0.9868848382E-02    0.9716596184E-02    0.6957923038E+00    0.2962866921E+00    0.2515716114E-03
    0.1300000000E+07    0.9218272794E-02    0.9118928938E-02    0.6957905460E+00    0.2989496405E+00    0.2539178680E-03
    0.1500000000E+07    0.8685724053E-02    0.8627081864E-02    0.6957889686E+00    0.3010729950E+00    0.2559450877E-03
    0.1700000000E+07    0.8238982817E-02    0.8212608641E-02    0.6957875403E+00    0.3028177792E+00    0.2577314532E-03
    0.1900000000E+07    0.7856992975E-02    0.7856805795E-02    0.6957862361E+00    0.3042848124E+00    0.2593293536E-03
    0.2100000000E+07    0.7525323133E-02    0.7546788839E-02    0.6957850366E+00    0.3055408894E+00    0.2607756445E-03
    0.2300000000E+07    0.7233700013E-02    0.7273345270E-02    0.6957839263E+00    0.3066322609E+00    0.2620972578E-03
    0.2500000000E+07    0.6974580550E-02    0.7029684696E-02    0.6957828928E+00    0.3075921087E+00    0.2633144828E-03
    0.2700000000E+07    0.6742281948E-02    0.6810673703E-02    0.6957819262E+00    0.3084449431E+00    0.2644429930E-03
    0.2900000000E+07    0.6532428797E-02    0.6612347563E-02    0.6957810183E+00    0.3092093165E+00    0.2654951522E-03
    0.3100000000E+07    0.6341588990E-02    0.6431587485E-02    0.6957801622E+00    0.3098995657E+00    0.2664808884E-03
    0.3300000000E+07    0.6167026593E-02    0.6265900830E-02    0.6957793522E+00    0.3105269694E+00    0.2674082967E-03
    0.3500000000E+07    0.6006529666E-02    0.6113267503E-02    0.6957785836E+00    0.3111005391E+00    0.2682840660E-03
    0.3700000000E+07    0.5858287516E-02    0.5972030161E-02    0.6957778524E+00    0.3116275738E+00    0.2691137880E-03
    0.3900000000E+07    0.5720801441E-02    0.5840814162E-02    0.6957771548E+00    0.3121140570E+00    0.2699021856E-03
    0.4100000000E+07    0.5592818639E-02    0.5718468160E-02    0.6957764880E+00    0.3125649467E+00    0.2706532848E-03
    0.4300000000E+07    0.5473282498E-02    0.5604019321E-02    0.6957758493E+00    0.3129843912E+00    0.2713705460E-03
    0.4500000000E+07    0.5361294669E-02    0.5496639083E-02    0.6957752363E+00    0.3133758915E+00    0.2720569653E-03
    0.4700000000E+07    0.5256085745E-02    0.5395616640E-02    0.6957746471E+00    0.3137424254E+00    0.2727151546E-03
    0.4900000000E+07    0.5156992333E-02    0.5300338164E-02    0.6957740798E+00    0.3140865446E+00    0.2733474048E-03
    0.1000000000E+07    0.1025357158E-01    0.1006842929E-01    0.6957932620E+00    0.2946735111E+00    0.2502427107E-03
    0.3000000000E+07    0.6434817229E-02    0.6519940174E-02    0.6957805841E+00    0.3095629407E+00    0.2659957799E-03
    0.5000000000E+07    0.5109556082E-02    0.5254683490E-02    0.6957738038E+00    0.3142508982E+00    0.2736544436E-03
    0.7000000000E+07    0.4375293691E-02    0.4544109322E-02    0.6957691240E+00    0.3167648782E+00    0.2788190999E-03
    0.9000000000E+07    0.3891334885E-02    0.4071419065E-02    0.6957655326E+00    0.3183926200E+00    0.2827400986E-03
    0.1100000000E+08    0.3541127404E-02    0.3726950615E-02    0.6957626105E+00    0.3195570193E+00    0.2859104964E-03
    0.1300000000E+08    0.3272361219E-02    0.3461079871E-02    0.6957601428E+00    0.3204433791E+00    0.2885768740E-03
    0.1500000000E+08    0.3057563874E-02    0.3247578150E-02    0.6957580045E+00    0.3211474373E+00    0.2908806877E-03
    0.1700000000E+08    0.2880725586E-02    0.3071080275E-02    0.6957561162E+00    0.3217243142E+00    0.2929107861E-03
    0.1900000000E+08    0.2731795783E-02    0.2921897375E-02    0.6957544243E+00    0.3222082886E+00    0.2947267056E-03
    0.2100000000E+08    0.2604101161E-02    0.2793571388E-02    0.6957528908E+00    0.3226219489E+00    0.2963703300E-03
    0.2300000000E+08    0.2493012317E-02    0.2681606869E-02    0.6957514881E+00    0.3229808671E+00    0.2978722655E-03
    0.2500000000E+08    0.2395202530E-02    0.2582763422E-02    0.6957501950E+00    0.3232961743E+00    0.2992555700E-03
    0.2700000000E+08    0.2308210888E-02    0.2494637307E-02    0.6957489952E+00    0.3235760678E+00    0.3005380551E-03
