  Pressure (Pa) 22mC5-500 (mol/kg) 23mC5-500 (mol/kg) 24mC5-500 (mol/kg) 2mC6-500 (mol/kg) C7-500 (mol/kg)
    0.1000000000E+01    0.4170609476E-05    0.4791395205E-05    0.1741117423E+00    0.8193586583E-05    0.4146769411E-02
    0.3000000000E+01    0.7754350955E-05    0.8879747565E-05    0.3481387004E+00    0.1453935356E-04    0.4172601766E-02
    0.5000000000E+01    0.9309030362E-05    0.1064236110E-04    0.4351223784E+00    0.1725248502E-04    0.4179864652E-02
    0.7000000000E+01    0.1018870635E-04    0.1163930065E-04    0.4873039567E+00    0.1901740148E-04    0.4183514441E-02
    0.9000000000E+01    0.1078997351E-04    0.1232425950E-04    0.5220884539E+00    0.2050076087E-04    0.4185706825E-02
    0.1100000000E+02    0.1126213308E-04    0.1286671456E-04    0.5469331221E+00    0.2190915047E-04    0.4187146030E-02
    0.1300000000E+02    0.1167043765E-04    0.1334009430E-04    0.5655659498E+00    0.2331311861E-04    0.4188140437E-02
    0.1500000000E+02    0.1204633912E-04    0.1377943763E-04    0.5800578029E+00    0.2473664316E-04    0.4188848676E-02
    0.1700000000E+02    0.1240604406E-04    0.1420258456E-04    0.5916510995E+00    0.2618641303E-04    0.4189361342E-02
    0.1900000000E+02    0.1275828925E-04    0.1461901095E-04    0.6011364216E+00    0.2766252798E-04    0.4189734173E-02
    0.2100000000E+02    0.1310791828E-04    0.1503387011E-04    0.6090408001E+00    0.2916269169E-04    0.4190003441E-02
    0.2300000000E+02    0.1345764850E-04    0.1544997766E-04    0.6157290896E+00    0.3068391520E-04    0.4190193811E-02
    0.2500000000E+02    0.1380899449E-04    0.1586884207E-04    0.6214618936E+00    0.3222320737E-04    0.4190322666E-02
    0.2700000000E+02    0.1416277271E-04    0.1629122369E-04    0.6264303170E+00    0.3377783679E-04    0.4190402619E-02
    0.2900000000E+02    0.1451938746E-04    0.1671744903E-04    0.6307776861E+00    0.3534540999E-04    0.4190443051E-02
    0.3100000000E+02    0.1487899769E-04    0.1714759225E-04    0.6346136016E+00    0.3692387193E-04    0.4190451087E-02
    0.3300000000E+02    0.1524161656E-04    0.1758158233E-04    0.6380233079E+00    0.3851147633E-04    0.4190432242E-02
    0.3500000000E+02    0.1560717188E-04    0.1801926730E-04    0.6410741022E+00    0.4010674653E-04    0.4190390847E-02
    0.3700000000E+02    0.1597554332E-04    0.1846045312E-04    0.6438198221E+00    0.4170843635E-04    0.4190330355E-02
    0.3900000000E+02    0.1634658543E-04    0.1890492722E-04    0.6463040500E+00    0.4331549428E-04    0.4190253554E-02
    0.4100000000E+02    0.1672014193E-04    0.1935247276E-04    0.6485624442E+00    0.4492703240E-04    0.4190162718E-02
    0.4300000000E+02    0.1709605445E-04    0.1980287705E-04    0.6506244614E+00    0.4654229997E-04    0.4190059718E-02
    0.4500000000E+02    0.1747416790E-04    0.2025593637E-04    0.6525146486E+00    0.4816066119E-04    0.4189946115E-02
    0.4700000000E+02    0.1785433356E-04    0.2071145856E-04    0.6542536254E+00    0.4978157677E-04    0.4189823214E-02
    0.4900000000E+02    0.1823641075E-04    0.2116926416E-04    0.6558588391E+00    0.5140458851E-04    0.4189692118E-02
    0.1000000000E+02    0.1103697521E-04    0.1260741497E-04    0.5354664873E+00    0.2120825113E-04    0.4186496230E-02
    0.3000000000E+02    0.1469881475E-04    0.1693203285E-04    0.6327537634E+00    0.3613339580E-04    0.4190450742E-02
    0.5000000000E+02    0.1842812462E-04    0.2139897072E-04    0.6566160169E+00    0.5221675623E-04    0.4189623796E-02
    0.7000000000E+02    0.2233558373E-04    0.2607915966E-04    0.6674033478E+00    0.6850180207E-04    0.4187994948E-02
    0.9000000000E+02    0.2633415402E-04    0.3086466747E-04    0.6735511284E+00    0.8478434426E-04    0.4186094523E-02
    0.1100000000E+03    0.3038441930E-04    0.3570864147E-04    0.6775227936E+00    0.1010282684E-03    0.4184074010E-02
    0.1300000000E+03    0.3446829889E-04    0.4059011168E-04    0.6803000262E+00    0.1172366679E-03    0.4181991844E-02
    0.1500000000E+03    0.3857714449E-04    0.4549929217E-04    0.6823512181E+00    0.1334222257E-03    0.4179874592E-02
    0.1700000000E+03    0.4270679741E-04    0.5043163429E-04    0.6839281673E+00    0.1495991399E-03    0.4177735600E-02
    0.1900000000E+03    0.4685537805E-04    0.5538520884E-04    0.6851783020E+00    0.1657808063E-03    0.4175582001E-02
    0.2100000000E+03    0.5102222063E-04    0.6035946015E-04    0.6861936795E+00    0.1819792439E-03    0.4173417731E-02
    0.2300000000E+03    0.5520732729E-04    0.6535457476E-04    0.6870347499E+00    0.1982050740E-03    0.4171244980E-02
    0.2500000000E+03    0.5941107438E-04    0.7037114546E-04    0.6877428496E+00    0.2144676660E-03    0.4169064927E-02
    0.2700000000E+03    0.6363404832E-04    0.7540998583E-04    0.6883472016E+00    0.2307753168E-03    0.4166878154E-02
    0.2900000000E+03    0.6787695125E-04    0.8047202501E-04    0.6888690506E+00    0.2471354211E-03    0.4164684874E-02
    0.3100000000E+03    0.7214054575E-04    0.8555824712E-04    0.6893242112E+00    0.2635546187E-03    0.4162485073E-02
    0.3300000000E+03    0.7642562204E-04    0.9066965595E-04    0.6897246988E+00    0.2800389180E-03    0.4160278589E-02
    0.3500000000E+03    0.8073297858E-04    0.9580725470E-04    0.6900798061E+00    0.2965937980E-03    0.4158065173E-02
    0.3700000000E+03    0.8506341065E-04    0.1009720346E-03    0.6903968325E+00    0.3132242928E-03    0.4155844515E-02
    0.3900000000E+03    0.8941770394E-04    0.1061649686E-03    0.6906815917E+00    0.3299350606E-03    0.4153616273E-02
    0.4100000000E+03    0.9379663111E-04    0.1113870090E-03    0.6909387712E+00    0.3467304412E-03    0.4151380081E-02
    0.4300000000E+03    0.9820095032E-04    0.1166390864E-03    0.6911721927E+00    0.3636145033E-03    0.4149135566E-02
    0.4500000000E+03    0.1026314048E-03    0.1219221097E-03    0.6913850027E+00    0.3805910846E-03    0.4146882348E-02
    0.4700000000E+03    0.1070887234E-03    0.1272369679E-03    0.6915798157E+00    0.3976638246E-03    0.4144620046E-02
    0.4900000000E+03    0.1115736212E-03    0.1325845308E-03    0.6917588220E+00    0.4148361932E-03    0.4142348282E-02
    0.1000000000E+03    0.2835426503E-04    0.3328102705E-04    0.6757297501E+00    0.9291133579E-04    0.4185094511E-02
    0.3000000000E+03    0.7000611304E-04    0.8301205063E-04    0.6891041416E+00    0.2553372442E-03    0.4163585796E-02
    0.5000000000E+03    0.1138266322E-03    0.1352708437E-03    0.6918429869E+00    0.4234607822E-03    0.4141208734E-02
    0.7000000000E+03    0.1605011643E-03    0.1909153881E-03    0.6930234277E+00    0.6019375224E-03    0.4117832225E-02
    0.9000000000E+03    0.2106929962E-03    0.2507457439E-03    0.6936809327E+00    0.7936815393E-03    0.4093110481E-02
    0.1100000000E+04    0.2650500924E-03    0.3155378572E-03    0.6940999618E+00    0.1001302283E-02    0.4066724120E-02
    0.1300000000E+04    0.3242661347E-03    0.3861203790E-03    0.6943903283E+00    0.1227516986E-02    0.4038351862E-02
    0.1500000000E+04    0.3891215328E-03    0.4634246577E-03    0.6946033958E+00    0.1475351956E-02    0.4007647966E-02
    0.1700000000E+04    0.4605188630E-03    0.5485273897E-03    0.6947663993E+00    0.1748293655E-02    0.3974224604E-02
    0.1900000000E+04    0.5395200608E-03    0.6426951418E-03    0.6948951247E+00    0.2050438100E-02    0.3937635343E-02
    0.2100000000E+04    0.6273897135E-03    0.7474360659E-03    0.6949993526E+00    0.2386660891E-02    0.3897357384E-02
    0.2300000000E+04    0.7256480048E-03    0.8645630940E-03    0.6950854660E+00    0.2762823472E-02    0.3852770922E-02
    0.2500000000E+04    0.8361369787E-03    0.9962730061E-03    0.6951578077E+00    0.3186030620E-02    0.3803134197E-02
    0.2700000000E+04    0.9611043059E-03    0.1145246375E-02    0.6952194352E+00    0.3664955842E-02    0.3747552842E-02
    0.2900000000E+04    0.1103309384E-02    0.1314774162E-02    0.6952725634E+00    0.4210253837E-02    0.3684942095E-02
    0.3100000000E+04    0.1266157020E-02    0.1508917230E-02    0.6953188361E+00    0.4835080905E-02    0.3613980647E-02
    0.3300000000E+04    0.1453863434E-02    0.1732704454E-02    0.6953594988E+00    0.5555742579E-02    0.3533055572E-02
    0.3500000000E+04    0.1671656416E-02    0.1992371626E-02    0.6953955127E+00    0.6392476937E-02    0.3440199665E-02
    0.3700000000E+04    0.1926003094E-02    0.2295633418E-02    0.6954276313E+00    0.7370350641E-02    0.3333026871E-02
    0.3900000000E+04    0.2224839133E-02    0.2651957212E-02    0.6954564536E+00    0.8520169842E-02    0.3208680640E-02
    0.4100000000E+04    0.2577731441E-02    0.3072757911E-02    0.6954824617E+00    0.9879148514E-02    0.3063827991E-02
    0.4300000000E+04    0.2995826093E-02    0.3571336953E-02    0.6955060483E+00    0.1149076736E-01    0.2894764410E-02
    0.4500000000E+04    0.3491295251E-02    0.4162224306E-02    0.6955275362E+00    0.1340272333E-01    0.2697745977E-02
    0.4700000000E+04    0.4075805705E-02    0.4859354043E-02    0.6955471931E+00    0.1566112442E-01    0.2469727415E-02
    0.4900000000E+04    0.4757388545E-02    0.5672333072E-02    0.6955652433E+00    0.1829851127E-01    0.2209707447E-02
    0.1000000000E+04    0.2373091356E-03    0.2824716792E-03    0.6939113406E+00    0.8953428109E-03    0.4080145112E-02
    0.3000000000E+04    0.1181910567E-02    0.1408479773E-02    0.6952964711E+00    0.4511789474E-02    0.3650598477E-02
    0.5000000000E+04    0.5134874491E-02    0.6122626464E-02    0.6955737261E+00    0.1976107416E-01    0.2068426375E-02
    0.7000000000E+04    0.1197083907E-01    0.1428700979E-01    0.6956924084E+00    0.4677668314E-01    0.1185967556E-03
    0.9000000000E+04    0.1440252015E-01    0.1720730869E-01    0.6957582371E+00    0.5725324668E-01    0.4466297962E-04
    0.1100000000E+05    0.1628179354E-01    0.1947222087E-01    0.6958000528E+00    0.6579493312E-01    0.4428508380E-04
    0.1300000000E+05    0.1787987205E-01    0.2140414933E-01    0.6958289467E+00    0.7339473846E-01    0.4468652711E-04
    0.1500000000E+05    0.1925131673E-01    0.2306734016E-01    0.6958500932E+00    0.8022008774E-01    0.4504377133E-04
    0.1700000000E+05    0.2043614739E-01    0.2450892381E-01    0.6958662308E+00    0.8639362464E-01    0.4535868853E-04
    0.1900000000E+05    0.2146570421E-01    0.2576584247E-01    0.6958789440E+00    0.9201274166E-01    0.4564033577E-04
    0.2100000000E+05    0.2236487917E-01    0.2686746503E-01    0.6958892136E+00    0.9715590833E-01    0.4589522502E-04
    0.2300000000E+05    0.2315367512E-01    0.2783741442E-01    0.6958976785E+00    0.1018870941E+00    0.4612811564E-04
    0.2500000000E+05    0.2384833562E-01    0.2869489241E-01    0.6959047732E+00    0.1062590000E+00    0.4634259180E-04
    0.2700000000E+05    0.2446217710E-01    0.2945565594E-01    0.6959108032E+00    0.1103154587E+00    0.4654142130E-04
    0.2900000000E+05    0.2500621079E-01    0.3013274723E-01    0.6959159897E+00    0.1140932443E+00    0.4672678689E-04
    0.3100000000E+05    0.2548961368E-01    0.3073704674E-01    0.6959204965E+00    0.1176234536E+00    0.4690044087E-04
    0.3300000000E+05    0.2592008931E-01    0.3127769727E-01    0.6959244477E+00    0.1209325741E+00    0.4706381177E-04
    0.3500000000E+05    0.2630414729E-01    0.3176243254E-01    0.6959279392E+00    0.1240433175E+00    0.4721807973E-04
    0.3700000000E+05    0.2664732204E-01    0.3219783452E-01    0.6959310458E+00    0.1269752788E+00    0.4736423117E-04
    0.3900000000E+05    0.2695434554E-01    0.3258953672E-01    0.6959338271E+00    0.1297454599E+00    0.4750309915E-04
    0.4100000000E+05    0.2722928490E-01    0.3294238630E-01    0.6959363310E+00    0.1323686914E+00    0.4763539370E-04
    0.4300000000E+05    0.2747565290E-01    0.3326057420E-01    0.6959385965E+00    0.1348579737E+00    0.4776172504E-04
    0.4500000000E+05    0.2769649731E-01    0.3354774057E-01    0.6959406555E+00    0.1372247548E+00    0.4788262149E-04
    0.4700000000E+05    0.2789447373E-01    0.3380706061E-01    0.6959425346E+00    0.1394791597E+00    0.4799854355E-04
    0.4900000000E+05    0.2807190524E-01    0.3404131504E-01    0.6959442561E+00    0.1416301790E+00    0.4810989512E-04
    0.1000000000E+05    0.1538188970E-01    0.1838679200E-01    0.6957812454E+00    0.6165629399E-01    0.4414058038E-04
    0.3000000000E+05    0.2525497870E-01    0.3044338805E-01    0.6959183195E+00    0.1158875433E+00    0.4681498196E-04
    0.5000000000E+05    0.2815356400E-01    0.3414981828E-01    0.6959450636E+00    0.1426694578E+00    0.4816396993E-04
    0.7000000000E+05    0.2909144912E-01    0.3546430776E-01    0.6959562347E+00    0.1595786985E+00    0.4907349823E-04
    0.9000000000E+05    0.2928250052E-01    0.3584699225E-01    0.6959622760E+00    0.1716337296E+00    0.4976395657E-04
    0.1100000000E+06    0.2914426891E-01    0.3580680229E-01    0.6959660138E+00    0.1808685238E+00    0.5032221661E-04
    0.1300000000E+06    0.2885051260E-01    0.3555869215E-01    0.6959685267E+00    0.1882845189E+00    0.5079171458E-04
    0.1500000000E+06    0.2848260216E-01    0.3520507571E-01    0.6959703138E+00    0.1944407486E+00    0.5119736560E-04
    0.1700000000E+06    0.2808169847E-01    0.3479884029E-01    0.6959716375E+00    0.1996780232E+00    0.5155481758E-04
    0.1900000000E+06    0.2766968510E-01    0.3436883487E-01    0.6959726483E+00    0.2042181321E+00    0.5187455540E-04
    0.2100000000E+06    0.2725852963E-01    0.3393137002E-01    0.6959734387E+00    0.2082128552E+00    0.5216395490E-04
    0.2300000000E+06    0.2685482551E-01    0.3349585108E-01    0.6959740683E+00    0.2117702926E+00    0.5242840571E-04
    0.2500000000E+06    0.2646213885E-01    0.3306771960E-01    0.6959745776E+00    0.2149699734E+00    0.5267196810E-04
    0.2700000000E+06    0.2608228269E-01    0.3265006929E-01    0.6959749947E+00    0.2178719989E+00    0.5289777852E-04
    0.2900000000E+06    0.2571603691E-01    0.3224457088E-01    0.6959753396E+00    0.2205228264E+00    0.5310831111E-04
    0.3100000000E+06    0.2536356780E-01    0.3185201933E-01    0.6959756273E+00    0.2229590645E+00    0.5330555254E-04
    0.3300000000E+06    0.2502467891E-01    0.3147266654E-01    0.6959758688E+00    0.2252100431E+00    0.5349112269E-04
    0.3500000000E+06    0.2469896372E-01    0.3110642801E-01    0.6959760727E+00    0.2272996031E+00    0.5366636003E-04
    0.3700000000E+06    0.2438589988E-01    0.3075301347E-01    0.6959762456E+00    0.2292473707E+00    0.5383238347E-04
    0.3900000000E+06    0.2408490780E-01    0.3041201052E-01    0.6959763927E+00    0.2310696848E+00    0.5399013808E-04
    0.4100000000E+06    0.2379538704E-01    0.3008293861E-01    0.6959765181E+00    0.2327802846E+00    0.5414042947E-04
    0.4300000000E+06    0.2351673891E-01    0.2976528398E-01    0.6959766251E+00    0.2343908270E+00    0.5428395003E-04
    0.4500000000E+06    0.2324838001E-01    0.2945852232E-01    0.6959767166E+00    0.2359112828E+00    0.5442129931E-04
    0.4700000000E+06    0.2298975026E-01    0.2916213328E-01    0.6959767947E+00    0.2373502429E+00    0.5455299994E-04
    0.4900000000E+06    0.2274031716E-01    0.2887560957E-01    0.6959768613E+00    0.2387151589E+00    0.5467951032E-04
    0.1000000000E+06    0.2924052523E-01    0.3586248694E-01    0.6959643451E+00    0.1765265924E+00    0.5005629263E-04
    0.3000000000E+06    0.2553808619E-01    0.3204665116E-01    0.6959754898E+00    0.2217657894E+00    0.5320848451E-04
    0.5000000000E+06    0.2261889100E-01    0.2873589367E-01    0.6959768908E+00    0.2393719152E+00    0.5474094739E-04
    0.7000000000E+06    0.2056692128E-01    0.2635338611E-01    0.6959771426E+00    0.2498377232E+00    0.5577437404E-04
    0.9000000000E+06    0.1902870496E-01    0.2454298034E-01    0.6959770870E+00    0.2570782002E+00    0.5655895385E-04
    0.1100000000E+07    0.1781781826E-01    0.2310412064E-01    0.6959769259E+00    0.2625099269E+00    0.5719334393E-04
    0.1300000000E+07    0.1683032302E-01    0.2192200316E-01    0.6959767264E+00    0.2667978462E+00    0.5772688309E-04
    0.1500000000E+07    0.1600351684E-01    0.2092626718E-01    0.6959765150E+00    0.2703041922E+00    0.5818787556E-04
    0.1700000000E+07    0.1529705401E-01    0.2007113253E-01    0.6959763032E+00    0.2732466038E+00    0.5859409924E-04
    0.1900000000E+07    0.1468361700E-01    0.1932533629E-01    0.6959760961E+00    0.2757653041E+00    0.5895746688E-04
    0.2100000000E+07    0.1414394082E-01    0.1866667825E-01    0.6959758959E+00    0.2779555101E+00    0.5928635914E-04
    0.2300000000E+07    0.1366398185E-01    0.1807888124E-01    0.6959757036E+00    0.2798845857E+00    0.5958690010E-04
    0.2500000000E+07    0.1323321835E-01    0.1754968926E-01    0.6959755192E+00    0.2816017885E+00    0.5986370345E-04
    0.2700000000E+07    0.1284358353E-01    0.1706966491E-01    0.6959753427E+00    0.2831441267E+00    0.6012033323E-04
    0.2900000000E+07    0.1248877032E-01    0.1663140085E-01    0.6959751736E+00    0.2845400447E+00    0.6035960088E-04
    0.3100000000E+07    0.1216376340E-01    0.1622898626E-01    0.6959750115E+00    0.2858118313E+00    0.6058376401E-04
    0.3300000000E+07    0.1186451554E-01    0.1585763615E-01    0.6959748561E+00    0.2869772444E+00    0.6079466341E-04
    0.3500000000E+07    0.1158771820E-01    0.1551342754E-01    0.6959747068E+00    0.2880506390E+00    0.6099382009E-04
    0.3700000000E+07    0.1133063562E-01    0.1519310788E-01    0.6959745633E+00    0.2890437676E+00    0.6118250558E-04
    0.3900000000E+07    0.1109098241E-01    0.1489395336E-01    0.6959744251E+00    0.2899663610E+00    0.6136179387E-04
    0.4100000000E+07    0.1086683186E-01    0.1461366231E-01    0.6959742920E+00    0.2908265575E+00    0.6153260047E-04
    0.4300000000E+07    0.1065654618E-01    0.1435027400E-01    0.6959741636E+00    0.2916312253E+00    0.6169571223E-04
    0.4500000000E+07    0.1045872267E-01    0.1410210571E-01    0.6959740396E+00    0.2923862080E+00    0.6185181049E-04
    0.4700000000E+07    0.1027215179E-01    0.1386770367E-01    0.6959739197E+00    0.2930965144E+00    0.6200148920E-04
    0.4900000000E+07    0.1009578400E-01    0.1364580408E-01    0.6959738036E+00    0.2937664669E+00    0.6214526929E-04
    0.1000000000E+07    0.1839013401E-01    0.2378566213E-01    0.6959770140E+00    0.2599685440E+00    0.5689115304E-04
    0.3000000000E+07    0.1232281366E-01    0.1642603430E-01    0.6959750917E+00    0.2851902535E+00    0.6047344699E-04
    0.5000000000E+07    0.1001113541E-01    0.1353919197E-01    0.6959737470E+00    0.2940875027E+00    0.6221509308E-04
    0.7000000000E+07    0.8682456895E-02    0.1185601094E-01    0.6959727687E+00    0.2990860272E+00    0.6338959572E-04
    0.9000000000E+07    0.7787543531E-02    0.1071130571E-01    0.6959720005E+00    0.3024139456E+00    0.6428128434E-04
    0.1100000000E+08    0.7130288432E-02    0.9864408358E-02    0.6959713671E+00    0.3048408482E+00    0.6500228119E-04
    0.1300000000E+08    0.6620300642E-02    0.9203376852E-02    0.6959708278E+00    0.3067150134E+00    0.6560865967E-04
    0.1500000000E+08    0.6209200592E-02    0.8667877800E-02    0.6959703577E+00    0.3082206270E+00    0.6613258769E-04
    0.1700000000E+08    0.5868384190E-02    0.8222036518E-02    0.6959699408E+00    0.3094656591E+00    0.6659426998E-04
    0.1900000000E+08    0.5579685920E-02    0.7842960794E-02    0.6959695660E+00    0.3105182366E+00    0.6700724555E-04
    0.2100000000E+08    0.5330929041E-02    0.7515241719E-02    0.6959692254E+00    0.3114237956E+00    0.6738103914E-04
    0.2300000000E+08    0.5113598188E-02    0.7228064159E-02    0.6959689131E+00    0.3122139807E+00    0.6772261087E-04
    0.2500000000E+08    0.4921531769E-02    0.6973576810E-02    0.6959686247E+00    0.3129116122E+00    0.6803720429E-04
    0.2700000000E+08    0.4750144283E-02    0.6745919369E-02    0.6959683568E+00    0.3135336256E+00    0.6832886999E-04
