  Pressure (Pa) 22mC5-500 (mol/kg) 23mC5-500 (mol/kg) 24mC5-500 (mol/kg) 2mC6-500 (mol/kg) C7-500 (mol/kg)
    0.1000000000E+01    0.4034925536E-05    0.2315065414E-05    0.1741031479E+00    0.2566200384E-05    0.4216265846E-02
    0.3000000000E+01    0.7460833285E-05    0.4265450176E-05    0.3481026559E+00    0.4489625404E-05    0.4272589568E-02
    0.5000000000E+01    0.8882406267E-05    0.5067658313E-05    0.4350640851E+00    0.5232170835E-05    0.4300873825E-02
    0.7000000000E+01    0.9640206075E-05    0.5493700497E-05    0.4872288812E+00    0.5672208037E-05    0.4318305930E-02
    0.9000000000E+01    0.1012651945E-04    0.5767863802E-05    0.5220004438E+00    0.6026736609E-05    0.4330268392E-02
    0.1100000000E+02    0.1048856244E-04    0.5973648008E-05    0.5468348536E+00    0.6362100279E-05    0.4339063041E-02
    0.1300000000E+02    0.1079037878E-04    0.6147049321E-05    0.5654593352E+00    0.6700357370E-05    0.4345847813E-02
    0.1500000000E+02    0.1106264122E-04    0.6305124414E-05    0.5799442511E+00    0.7048561575E-05    0.4351271583E-02
    0.1700000000E+02    0.1132101732E-04    0.6456473169E-05    0.5915316771E+00    0.7408293112E-05    0.4355727470E-02
    0.1900000000E+02    0.1157385154E-04    0.6605600494E-05    0.6010119562E+00    0.7779112442E-05    0.4359468202E-02
    0.2100000000E+02    0.1182569065E-04    0.6754906780E-05    0.6089119470E+00    0.8159896374E-05    0.4362664038E-02
    0.2300000000E+02    0.1207902068E-04    0.6905662438E-05    0.6155963772E+00    0.8549369590E-05    0.4365434103E-02
    0.2500000000E+02    0.1233517144E-04    0.7058511949E-05    0.6213257543E+00    0.8946312105E-05    0.4367864396E-02
    0.2700000000E+02    0.1259480883E-04    0.7213746087E-05    0.6262911097E+00    0.9349631734E-05    0.4370018660E-02
    0.2900000000E+02    0.1285821245E-04    0.7371454022E-05    0.6306357121E+00    0.9758380030E-05    0.4371945212E-02
    0.3100000000E+02    0.1312543646E-04    0.7531610594E-05    0.6344691167E+00    0.1017174537E-04    0.4373681393E-02
    0.3300000000E+02    0.1339640489E-04    0.7694127351E-05    0.6378765311E+00    0.1058903792E-04    0.4375256556E-02
    0.3500000000E+02    0.1367096892E-04    0.7858882799E-05    0.6409252228E+00    0.1100967281E-04    0.4376694119E-02
    0.3700000000E+02    0.1394894176E-04    0.8025740427E-05    0.6436690047E+00    0.1143315422E-04    0.4378013009E-02
    0.3900000000E+02    0.1423011980E-04    0.8194559409E-05    0.6461514390E+00    0.1185906127E-04    0.4379228712E-02
    0.4100000000E+02    0.1451429551E-04    0.8365200883E-05    0.6484081668E+00    0.1228703596E-04    0.4380354027E-02
    0.4300000000E+02    0.1480126507E-04    0.8537531498E-05    0.6504686303E+00    0.1271677300E-04    0.4381399635E-02
    0.4500000000E+02    0.1509083284E-04    0.8711425305E-05    0.6523573645E+00    0.1314801133E-04    0.4382374529E-02
    0.4700000000E+02    0.1538281370E-04    0.8886764605E-05    0.6540949785E+00    0.1358052709E-04    0.4383286339E-02
    0.4900000000E+02    0.1567703417E-04    0.9063440185E-05    0.6556989103E+00    0.1401412779E-04    0.4384141585E-02
    0.1000000000E+02    0.1031794714E-04    0.5876413603E-05    0.5353730688E+00    0.6194896084E-05    0.4334972825E-02
    0.3000000000E+02    0.1299134942E-04    0.7451230704E-05    0.6326105045E+00    0.9964531342E-05    0.4372835105E-02
    0.5000000000E+02    0.1582493332E-04    0.9152247241E-05    0.6564554751E+00    0.1423128222E-04    0.4384549781E-02
    0.7000000000E+02    0.1886737239E-04    0.1097809733E-04    0.6672333549E+00    0.1860132945E-04    0.4390769004E-02
    0.9000000000E+02    0.2201175943E-04    0.1286301047E-04    0.6733749122E+00    0.2298250976E-04    0.4394758699E-02
    0.1100000000E+03    0.2520900628E-04    0.1477781352E-04    0.6773420423E+00    0.2735103531E-04    0.4397573755E-02
    0.1300000000E+03    0.2843536026E-04    0.1670865103E-04    0.6801157531E+00    0.3170103862E-04    0.4399673740E-02
    0.1500000000E+03    0.3167845229E-04    0.1864841887E-04    0.6821640886E+00    0.3603221634E-04    0.4401296397E-02
    0.1700000000E+03    0.3493148712E-04    0.2059327573E-04    0.6837386475E+00    0.4034608588E-04    0.4402579399E-02
    0.1900000000E+03    0.3819060617E-04    0.2254108071E-04    0.6849867339E+00    0.4464469511E-04    0.4403609104E-02
    0.2100000000E+03    0.4145358948E-04    0.2449063206E-04    0.6860003236E+00    0.4893014818E-04    0.4404443014E-02
    0.2300000000E+03    0.4471917277E-04    0.2644127011E-04    0.6868398106E+00    0.5320443223E-04    0.4405121233E-02
    0.2500000000E+03    0.4798666824E-04    0.2839265846E-04    0.6875464908E+00    0.5746936208E-04    0.4405672782E-02
    0.2700000000E+03    0.5125574444E-04    0.3034465804E-04    0.6881495578E+00    0.6172657224E-04    0.4406119303E-02
    0.2900000000E+03    0.5452629407E-04    0.3229725195E-04    0.6886702336E+00    0.6597752752E-04    0.4406477347E-02
    0.3100000000E+03    0.5779835199E-04    0.3425049932E-04    0.6891243154E+00    0.7022353984E-04    0.4406759840E-02
    0.3300000000E+03    0.6107204333E-04    0.3620450631E-04    0.6895238050E+00    0.7446578614E-04    0.4406977064E-02
    0.3500000000E+03    0.6434754993E-04    0.3815940761E-04    0.6898779839E+00    0.7870532534E-04    0.4407137323E-02
    0.3700000000E+03    0.6762508836E-04    0.4011535435E-04    0.6901941428E+00    0.8294311352E-04    0.4407247416E-02
    0.3900000000E+03    0.7090489537E-04    0.4207250634E-04    0.6904780879E+00    0.8718001711E-04    0.4407312981E-02
    0.4100000000E+03    0.7418721812E-04    0.4403102683E-04    0.6907345008E+00    0.9141682438E-04    0.4407338738E-02
    0.4300000000E+03    0.7747230772E-04    0.4599107919E-04    0.6909671977E+00    0.9565425524E-04    0.4407328680E-02
    0.4500000000E+03    0.8076041491E-04    0.4795282469E-04    0.6911793211E+00    0.9989296961E-04    0.4407286210E-02
    0.4700000000E+03    0.8405178719E-04    0.4991642116E-04    0.6913734816E+00    0.1041335747E-03    0.4407214256E-02
    0.4900000000E+03    0.8734666702E-04    0.5188202209E-04    0.6915518664E+00    0.1083766309E-03    0.4407115349E-02
    0.1000000000E+03    0.2360563100E-04    0.1381776301E-04    0.6755511086E+00    0.2516892681E-04    0.4396276794E-02
    0.3000000000E+03    0.5616212833E-04    0.3327378816E-04    0.6889047743E+00    0.6810107503E-04    0.4406627342E-02
    0.5000000000E+03    0.8899549634E-04    0.5286562089E-04    0.6916357311E+00    0.1104992420E-03    0.4407056488E-02
    0.7000000000E+03    0.1222098729E-03    0.7267630057E-04    0.6928112780E+00    0.1531888799E-03    0.4404876115E-02
    0.9000000000E+03    0.1560004556E-03    0.9282697261E-04    0.6934652270E+00    0.1965473025E-03    0.4401409451E-02
    0.1100000000E+04    0.1905109841E-03    0.1134050943E-03    0.6938814585E+00    0.2408009254E-03    0.4397128555E-02
    0.1300000000E+04    0.2258546124E-03    0.1344789492E-03    0.6941695161E+00    0.2861129880E-03    0.4392251261E-02
    0.1500000000E+04    0.2621277469E-03    0.1561064576E-03    0.6943806159E+00    0.3326162916E-03    0.4386892622E-02
    0.1700000000E+04    0.2994177556E-03    0.1783399725E-03    0.6945419038E+00    0.3804280932E-03    0.4381118079E-02
    0.1900000000E+04    0.3378074735E-03    0.2012290515E-03    0.6946691073E+00    0.4296578986E-03    0.4374966064E-02
    0.2100000000E+04    0.3773780299E-03    0.2248221827E-03    0.6947719671E+00    0.4804120082E-03    0.4368458907E-02
    0.2300000000E+04    0.4182107580E-03    0.2491679447E-03    0.6948568373E+00    0.5327964285E-03    0.4361608614E-02
    0.2500000000E+04    0.4603885813E-03    0.2743158457E-03    0.6949280396E+00    0.5869189015E-03    0.4354420136E-02
    0.2700000000E+04    0.5039970962E-03    0.3003169754E-03    0.6949886150E+00    0.6428904370E-03    0.4346893316E-02
    0.2900000000E+04    0.5491254754E-03    0.3272245483E-03    0.6950407658E+00    0.7008265605E-03    0.4339024089E-02
    0.3100000000E+04    0.5958672694E-03    0.3550943852E-03    0.6950861255E+00    0.7608483988E-03    0.4330805247E-02
    0.3300000000E+04    0.6443211573E-03    0.3839853618E-03    0.6951259316E+00    0.8230836825E-03    0.4322226919E-02
    0.3500000000E+04    0.6945916787E-03    0.4139598477E-03    0.6951611387E+00    0.8876677148E-03    0.4313276877E-02
    0.3700000000E+04    0.7467899735E-03    0.4450841477E-03    0.6951924945E+00    0.9547443437E-03    0.4303940723E-02
    0.3900000000E+04    0.8010345470E-03    0.4774289592E-03    0.6952205934E+00    0.1024466964E-02    0.4294201981E-02
    0.4100000000E+04    0.8574520772E-03    0.5110698547E-03    0.6952459136E+00    0.1096999571E-02    0.4284042133E-02
    0.4300000000E+04    0.9161782786E-03    0.5460877966E-03    0.6952688444E+00    0.1172517887E-02    0.4273440603E-02
    0.4500000000E+04    0.9773588352E-03    0.5825696950E-03    0.6952897055E+00    0.1251210579E-02    0.4262374702E-02
    0.4700000000E+04    0.1041150416E-02    0.6206090134E-03    0.6953087623E+00    0.1333280576E-02    0.4250819534E-02
    0.4900000000E+04    0.1107721787E-02    0.6603064328E-03    0.6953262367E+00    0.1418946524E-02    0.4238747874E-02
    0.1000000000E+04    0.1731581393E-03    0.1030580148E-03    0.6936941622E+00    0.2185510449E-03    0.4399353763E-02
    0.3000000000E+04    0.5722886569E-03    0.3410355808E-03    0.6950642094E+00    0.7305689484E-03    0.4334958929E-02
    0.5000000000E+04    0.1142106240E-02    0.6808105450E-03    0.6953344402E+00    0.1463200991E-02    0.4232509178E-02
    0.7000000000E+04    0.2030873969E-02    0.1210838884E-02    0.6954484455E+00    0.2608573222E-02    0.4071491904E-02
    0.9000000000E+04    0.3568321258E-02    0.2127848540E-02    0.6955107462E+00    0.4594788396E-02    0.3797294170E-02
    0.1100000000E+05    0.6584178428E-02    0.3926989093E-02    0.6955497206E+00    0.8502947010E-02    0.3276160178E-02
    0.1300000000E+05    0.1291335052E-01    0.7703846203E-02    0.6955762314E+00    0.1674484383E-01    0.2242798304E-02
    0.1500000000E+05    0.2198979118E-01    0.1312363535E-01    0.6955953230E+00    0.2869037206E-01    0.9343341629E-03
    0.1700000000E+05    0.2727871158E-01    0.1628772642E-01    0.6956096526E+00    0.3586391175E-01    0.4145953384E-03
    0.1900000000E+05    0.2989107447E-01    0.1785616011E-01    0.6956207506E+00    0.3960910221E-01    0.3321786501E-03
    0.2100000000E+05    0.3188060802E-01    0.1905371948E-01    0.6956295596E+00    0.4257367892E-01    0.3228801688E-03
    0.2300000000E+05    0.3366127831E-01    0.2012731786E-01    0.6956366911E+00    0.4529273836E-01    0.3230277791E-03
    0.2500000000E+05    0.3530376463E-01    0.2111903163E-01    0.6956425585E+00    0.4785484096E-01    0.3243197535E-03
    0.2700000000E+05    0.3682855088E-01    0.2204098688E-01    0.6956474514E+00    0.5028325627E-01    0.3256796874E-03
    0.2900000000E+05    0.3824780411E-01    0.2290035813E-01    0.6956515783E+00    0.5259079784E-01    0.3269714967E-03
    0.3100000000E+05    0.3957138703E-01    0.2370295685E-01    0.6956550928E+00    0.5478768298E-01    0.3281854098E-03
    0.3300000000E+05    0.4080788264E-01    0.2445384154E-01    0.6956581109E+00    0.5688282307E-01    0.3293280448E-03
    0.3500000000E+05    0.4196487887E-01    0.2515748598E-01    0.6956607215E+00    0.5888414264E-01    0.3304071142E-03
    0.3700000000E+05    0.4304912136E-01    0.2581786902E-01    0.6956629939E+00    0.6079873269E-01    0.3314294267E-03
    0.3900000000E+05    0.4406662854E-01    0.2643854216E-01    0.6956649828E+00    0.6263296198E-01    0.3324007935E-03
    0.4100000000E+05    0.4502278670E-01    0.2702268522E-01    0.6956667319E+00    0.6439256839E-01    0.3333261788E-03
    0.4300000000E+05    0.4592243020E-01    0.2757315346E-01    0.6956682768E+00    0.6608273626E-01    0.3342098506E-03
    0.4500000000E+05    0.4676990983E-01    0.2809251768E-01    0.6956696464E+00    0.6770816254E-01    0.3350555043E-03
    0.4700000000E+05    0.4756915126E-01    0.2858309849E-01    0.6956708646E+00    0.6927311350E-01    0.3358663615E-03
    0.4900000000E+05    0.4832370529E-01    0.2904699584E-01    0.6956719513E+00    0.7078147374E-01    0.3366452475E-03
    0.1000000000E+05    0.4803318530E-02    0.2864552085E-02    0.6955322655E+00    0.6193512827E-02    0.3581393580E-02
    0.3000000000E+05    0.3892099237E-01    0.2330842288E-01    0.6956534041E+00    0.5370249006E-01    0.3275878583E-03
    0.5000000000E+05    0.4868524241E-01    0.2926954043E-01    0.6956724507E+00    0.7151555245E-01    0.3370234915E-03
    0.7000000000E+05    0.5421095240E-01    0.3269919412E-01    0.6956784414E+00    0.8394182422E-01    0.3433854389E-03
    0.9000000000E+05    0.5759451764E-01    0.3483992504E-01    0.6956805542E+00    0.9335059482E-01    0.3482149826E-03
    0.1100000000E+06    0.5976476813E-01    0.3624490741E-01    0.6956811177E+00    0.1008662722E+00    0.3521198031E-03
    0.1300000000E+06    0.6119216824E-01    0.3719571650E-01    0.6956809621E+00    0.1070983465E+00    0.3554037405E-03
    0.1500000000E+06    0.6213841192E-01    0.3784977493E-01    0.6956804445E+00    0.1124094615E+00    0.3582410770E-03
    0.1700000000E+06    0.6275952186E-01    0.3830143220E-01    0.6956797380E+00    0.1170308327E+00    0.3607412696E-03
    0.1900000000E+06    0.6315362763E-01    0.3861035207E-01    0.6956789331E+00    0.1211179614E+00    0.3629776597E-03
    0.2100000000E+06    0.6338512226E-01    0.3881590759E-01    0.6956780804E+00    0.1247799649E+00    0.3650018405E-03
    0.2300000000E+06    0.6349774130E-01    0.3894499827E-01    0.6956772089E+00    0.1280961054E+00    0.3668515120E-03
    0.2500000000E+06    0.6352204708E-01    0.3901653696E-01    0.6956763358E+00    0.1311256337E+00    0.3685550752E-03
    0.2700000000E+06    0.6347991170E-01    0.3904414579E-01    0.6956754713E+00    0.1339139254E+00    0.3701344691E-03
    0.2900000000E+06    0.6338730728E-01    0.3903783952E-01    0.6956746216E+00    0.1364964536E+00    0.3716069998E-03
    0.3100000000E+06    0.6325610047E-01    0.3900511157E-01    0.6956737901E+00    0.1389014483E+00    0.3729865638E-03
    0.3300000000E+06    0.6309523957E-01    0.3895165493E-01    0.6956729788E+00    0.1411517261E+00    0.3742844916E-03
    0.3500000000E+06    0.6291155933E-01    0.3888185248E-01    0.6956721886E+00    0.1432659812E+00    0.3755101457E-03
    0.3700000000E+06    0.6271033851E-01    0.3879911793E-01    0.6956714197E+00    0.1452597159E+00    0.3766713523E-03
    0.3900000000E+06    0.6249569365E-01    0.3870613736E-01    0.6956706720E+00    0.1471459244E+00    0.3777747222E-03
    0.4100000000E+06    0.6227086185E-01    0.3860504341E-01    0.6956699449E+00    0.1489356038E+00    0.3788258901E-03
    0.4300000000E+06    0.6203840702E-01    0.3849754273E-01    0.6956692380E+00    0.1506381419E+00    0.3798296993E-03
    0.4500000000E+06    0.6180037243E-01    0.3838501062E-01    0.6956685506E+00    0.1522616159E+00    0.3807903434E-03
    0.4700000000E+06    0.6155839486E-01    0.3826856219E-01    0.6956678818E+00    0.1538130251E+00    0.3817114780E-03
    0.4900000000E+06    0.6131379110E-01    0.3814910641E-01    0.6956672310E+00    0.1552984741E+00    0.3825963094E-03
    0.1000000000E+06    0.5879517102E-01    0.3561278830E-01    0.6956809607E+00    0.9729916917E-01    0.3502597683E-03
    0.3000000000E+06    0.6332591240E-01    0.3902438688E-01    0.6956742034E+00    0.1377196070E+00    0.3723076423E-03
    0.5000000000E+06    0.6119084499E-01    0.3808848887E-01    0.6956669121E+00    0.1560181633E+00    0.3830260083E-03
    0.7000000000E+06    0.5876471432E-01    0.3684150992E-01    0.6956613048E+00    0.1679624335E+00    0.3902538693E-03
    0.9000000000E+06    0.5655929031E-01    0.3565831707E-01    0.6956568021E+00    0.1768279206E+00    0.3957412014E-03
    0.1100000000E+07    0.5461076295E-01    0.3458924845E-01    0.6956530458E+00    0.1838632672E+00    0.4001780622E-03
    0.1300000000E+07    0.5288782793E-01    0.3362994986E-01    0.6956498230E+00    0.1896819403E+00    0.4039095485E-03
    0.1500000000E+07    0.5135350103E-01    0.3276638700E-01    0.6956469996E+00    0.1946321770E+00    0.4071336306E-03
    0.1700000000E+07    0.4997595555E-01    0.3198445912E-01    0.6956444864E+00    0.1989311815E+00    0.4099746526E-03
    0.1900000000E+07    0.4872952601E-01    0.3127201307E-01    0.6956422207E+00    0.2027237560E+00    0.4125159359E-03
    0.2100000000E+07    0.4759378150E-01    0.3061899846E-01    0.6956401574E+00    0.2061113502E+00    0.4148160967E-03
    0.2300000000E+07    0.4655240838E-01    0.3001718470E-01    0.6956382627E+00    0.2091678332E+00    0.4169179679E-03
    0.2500000000E+07    0.4559226918E-01    0.2945982108E-01    0.6956365104E+00    0.2119486741E+00    0.4188538186E-03
    0.2700000000E+07    0.4470267565E-01    0.2894133742E-01    0.6956348802E+00    0.2144965883E+00    0.4206485762E-03
    0.2900000000E+07    0.4387484100E-01    0.2845710249E-01    0.6956333559E+00    0.2168451688E+00    0.4223219043E-03
    0.3100000000E+07    0.4310146895E-01    0.2800323445E-01    0.6956319242E+00    0.2190213089E+00    0.4238895927E-03
    0.3300000000E+07    0.4237644364E-01    0.2757645359E-01    0.6956305743E+00    0.2210468700E+00    0.4253645161E-03
    0.3500000000E+07    0.4169459390E-01    0.2717396769E-01    0.6956292971E+00    0.2229398604E+00    0.4267573126E-03
    0.3700000000E+07    0.4105151211E-01    0.2679338250E-01    0.6956280850E+00    0.2247152880E+00    0.4280768751E-03
    0.3900000000E+07    0.4044341371E-01    0.2643263115E-01    0.6956269315E+00    0.2263857896E+00    0.4293307153E-03
    0.4100000000E+07    0.3986702701E-01    0.2608991827E-01    0.6956258311E+00    0.2279621031E+00    0.4305252362E-03
    0.4300000000E+07    0.3931950599E-01    0.2576367528E-01    0.6956247789E+00    0.2294534280E+00    0.4316659410E-03
    0.4500000000E+07    0.3879836065E-01    0.2545252433E-01    0.6956237709E+00    0.2308677047E+00    0.4327575950E-03
    0.4700000000E+07    0.3830140085E-01    0.2515524909E-01    0.6956228034E+00    0.2322118326E+00    0.4338043521E-03
    0.4900000000E+07    0.3782669073E-01    0.2487077078E-01    0.6956218731E+00    0.2334918434E+00    0.4348098559E-03
    0.1000000000E+07    0.5555446244E-01    0.3510934090E-01    0.6956548464E+00    0.1805273209E+00    0.3980645747E-03
    0.3000000000E+07    0.4348175399E-01    0.2822659022E-01    0.6956326292E+00    0.2179533254E+00    0.4231180895E-03
    0.5000000000E+07    0.3759713453E-01    0.2473302605E-01    0.6956214210E+00    0.2341094872E+00    0.4352981569E-03
    0.7000000000E+07    0.3384288448E-01    0.2246381362E-01    0.6956137922E+00    0.2441018259E+00    0.4435117672E-03
    0.9000000000E+07    0.3114549710E-01    0.2081423519E-01    0.6956079751E+00    0.2511757782E+00    0.4497474851E-03
    0.1100000000E+08    0.2907169198E-01    0.1953497228E-01    0.6956032597E+00    0.2565670659E+00    0.4547894666E-03
    0.1300000000E+08    0.2740548515E-01    0.1850005589E-01    0.6955992874E+00    0.2608737758E+00    0.4590298707E-03
    0.1500000000E+08    0.2602449019E-01    0.1763739706E-01    0.6955958512E+00    0.2644287037E+00    0.4626936671E-03
    0.1700000000E+08    0.2485305809E-01    0.1690208773E-01    0.6955928206E+00    0.2674350118E+00    0.4659221587E-03
    0.1900000000E+08    0.2384137918E-01    0.1626436835E-01    0.6955901079E+00    0.2700252571E+00    0.4688100304E-03
    0.2100000000E+08    0.2295503994E-01    0.1570356542E-01    0.6955876513E+00    0.2722903884E+00    0.4714238931E-03
    0.2300000000E+08    0.2216934404E-01    0.1520477241E-01    0.6955854055E+00    0.2742953158E+00    0.4738124217E-03
    0.2500000000E+08    0.2146601515E-01    0.1475691154E-01    0.6955833363E+00    0.2760878615E+00    0.4760122865E-03
    0.2700000000E+08    0.2083117967E-01    0.1435154205E-01    0.6955814173E+00    0.2777041938E+00    0.4780518146E-03
