  Pressure (Pa) 22mC5-500 (mol/kg) 23mC5-500 (mol/kg) 24mC5-500 (mol/kg) 2mC6-500 (mol/kg) C7-500 (mol/kg)
    0.1000000000E+01    0.4226372339E-05    0.6063634537E-06    0.1513932750E+00    0.8083776870E-05    0.4234909386E-02
    0.3000000000E+01    0.8220637127E-05    0.1175531390E-05    0.3164456210E+00    0.1489780165E-04    0.4315035066E-02
    0.5000000000E+01    0.1001971299E-04    0.1429751897E-05    0.4046860179E+00    0.1767551320E-04    0.4358380528E-02
    0.7000000000E+01    0.1100231883E-04    0.1567827216E-05    0.4596133505E+00    0.1922083357E-04    0.4386022367E-02
    0.9000000000E+01    0.1162098947E-04    0.1654637303E-05    0.4970970824E+00    0.2034072860E-04    0.4405363493E-02
    0.1100000000E+02    0.1205944631E-04    0.1716358964E-05    0.5243081293E+00    0.2131656849E-04    0.4419754611E-02
    0.1300000000E+02    0.1240284545E-04    0.1765042250E-05    0.5449605350E+00    0.2225690442E-04    0.4430942828E-02
    0.1500000000E+02    0.1269437615E-04    0.1806751667E-05    0.5611704988E+00    0.2320523373E-04    0.4439931797E-02
    0.1700000000E+02    0.1295738779E-04    0.1844736913E-05    0.5742322102E+00    0.2417838162E-04    0.4447340716E-02
    0.1900000000E+02    0.1320509701E-04    0.1880818329E-05    0.5849816472E+00    0.2518168685E-04    0.4453573178E-02
    0.2100000000E+02    0.1344523120E-04    0.1916046805E-05    0.5939828758E+00    0.2621546857E-04    0.4458904004E-02
    0.2300000000E+02    0.1368240430E-04    0.1951039877E-05    0.6016302906E+00    0.2727792094E-04    0.4463527121E-02
    0.2500000000E+02    0.1391939940E-04    0.1986162292E-05    0.6082079494E+00    0.2836644663E-04    0.4467583496E-02
    0.2700000000E+02    0.1415789215E-04    0.2021627289E-05    0.6139256365E+00    0.2947827502E-04    0.4471178192E-02
    0.2900000000E+02    0.1439887359E-04    0.2057555467E-05    0.6189416488E+00    0.3061074136E-04    0.4474391219E-02
    0.3100000000E+02    0.1464290479E-04    0.2094009997E-05    0.6233776784E+00    0.3176140238E-04    0.4477284647E-02
    0.3300000000E+02    0.1489027400E-04    0.2131018204E-05    0.6273288151E+00    0.3292807265E-04    0.4479907418E-02
    0.3500000000E+02    0.1514109566E-04    0.2168585042E-05    0.6308704391E+00    0.3410882341E-04    0.4482298682E-02
    0.3700000000E+02    0.1539537376E-04    0.2206701651E-05    0.6340630757E+00    0.3530196462E-04    0.4484490156E-02
    0.3900000000E+02    0.1565304299E-04    0.2245350837E-05    0.6369558829E+00    0.3650602075E-04    0.4486507831E-02
    0.4100000000E+02    0.1591399567E-04    0.2284510622E-05    0.6395892004E+00    0.3771970532E-04    0.4488373226E-02
    0.4300000000E+02    0.1617809945E-04    0.2324156539E-05    0.6419964422E+00    0.3894189670E-04    0.4490104322E-02
    0.4500000000E+02    0.1644520912E-04    0.2364263121E-05    0.6442055213E+00    0.4017161618E-04    0.4491716270E-02
    0.4700000000E+02    0.1671517423E-04    0.2404804858E-05    0.6462399374E+00    0.4140800859E-04    0.4493221939E-02
    0.4900000000E+02    0.1698784421E-04    0.2445756797E-05    0.6481196159E+00    0.4265032538E-04    0.4494632333E-02
    0.1000000000E+02    0.1185603471E-04    0.1687682778E-05    0.5117033411E+00    0.2083761640E-04    0.4413044816E-02
    0.3000000000E+02    0.1452048494E-04    0.2075714578E-05    0.6212256876E+00    0.3118394027E-04    0.4475874561E-02
    0.5000000000E+02    0.1712514726E-04    0.2466379041E-05    0.6490068419E+00    0.4327349704E-04    0.4495304815E-02
    0.7000000000E+02    0.1998082999E-04    0.2895197717E-05    0.6616875058E+00    0.5592561686E-04    0.4505484127E-02
    0.9000000000E+02    0.2298102087E-04    0.3345287711E-05    0.6689480353E+00    0.6875925007E-04    0.4511926354E-02
    0.1100000000E+03    0.2606761736E-04    0.3807883896E-05    0.6736513734E+00    0.8165492759E-04    0.4516411555E-02
    0.1300000000E+03    0.2921011240E-04    0.4278475599E-05    0.6769460567E+00    0.9457092998E-04    0.4519712078E-02
    0.1500000000E+03    0.3239156413E-04    0.4754592230E-05    0.6793823980E+00    0.1074929904E-03    0.4522225540E-02
    0.1700000000E+03    0.3560205887E-04    0.5234805199E-05    0.6812570964E+00    0.1204176623E-03    0.4524181062E-02
    0.1900000000E+03    0.3883555832E-04    0.5718254502E-05    0.6827442404E+00    0.1333460071E-03    0.4525721694E-02
    0.2100000000E+03    0.4208827956E-04    0.6204408165E-05    0.6839527120E+00    0.1462809623E-03    0.4526942268E-02
    0.2300000000E+03    0.4535781212E-04    0.6692932255E-05    0.6849541021E+00    0.1592261741E-03    0.4527908652E-02
    0.2500000000E+03    0.4864261178E-04    0.7183616888E-05    0.6857974152E+00    0.1721854625E-03    0.4528668330E-02
    0.2700000000E+03    0.5194169771E-04    0.7676332247E-05    0.6865173260E+00    0.1851625759E-03    0.4529256588E-02
    0.2900000000E+03    0.5525446465E-04    0.8171001476E-05    0.6871390595E+00    0.1981610840E-03    0.4529700321E-02
    0.3100000000E+03    0.5858056285E-04    0.8667583440E-05    0.6876814053E+00    0.2111843373E-03    0.4530020468E-02
    0.3300000000E+03    0.6191981928E-04    0.9166061486E-05    0.6881586463E+00    0.2242354602E-03    0.4530233633E-02
    0.3500000000E+03    0.6527218475E-04    0.9666435944E-05    0.6885818336E+00    0.2373173592E-03    0.4530353189E-02
    0.3700000000E+03    0.6863769776E-04    0.1016871903E-04    0.6889596513E+00    0.2504327390E-03    0.4530390059E-02
    0.3900000000E+03    0.7201645943E-04    0.1067293133E-04    0.6892990183E+00    0.2635841199E-03    0.4530353270E-02
    0.4100000000E+03    0.7540861576E-04    0.1117909934E-04    0.6896055149E+00    0.2767738563E-03    0.4530250363E-02
    0.4300000000E+03    0.7881434503E-04    0.1168725372E-04    0.6898836918E+00    0.2900041539E-03    0.4530087699E-02
    0.4500000000E+03    0.8223384871E-04    0.1219742802E-04    0.6901372967E+00    0.3032770861E-03    0.4529870690E-02
    0.4700000000E+03    0.8566734485E-04    0.1270965786E-04    0.6903694441E+00    0.3165946076E-03    0.4529603973E-02
    0.4900000000E+03    0.8911506329E-04    0.1322398021E-04    0.6905827438E+00    0.3299585679E-03    0.4529291551E-02
    0.1000000000E+03    0.2451585656E-04    0.3575369758E-05    0.6715267817E+00    0.7520290754E-04    0.4514352560E-02
    0.3000000000E+03    0.5691586158E-04    0.8419054879E-05    0.6874191750E+00    0.2046694170E-03    0.4529874718E-02
    0.5000000000E+03    0.9084433003E-04    0.1348193789E-04    0.6906830279E+00    0.3366585147E-03    0.4529119306E-02
    0.7000000000E+03    0.1262366183E-03    0.1876038892E-04    0.6920889776E+00    0.4734835417E-03    0.4523920551E-02
    0.9000000000E+03    0.1633365227E-03    0.2429221342E-04    0.6928711943E+00    0.6165810382E-03    0.4516342548E-02
    0.1100000000E+04    0.2023901402E-03    0.3011465416E-04    0.6933690173E+00    0.7670708289E-03    0.4507086471E-02
    0.1300000000E+04    0.2436443185E-03    0.3626477668E-04    0.6937134691E+00    0.9259818534E-03    0.4496446216E-02
    0.1500000000E+04    0.2873562203E-03    0.4278106638E-04    0.6939658280E+00    0.1094347367E-02    0.4484547754E-02
    0.1700000000E+04    0.3338016281E-03    0.4970472883E-04    0.6941585791E+00    0.1273256847E-02    0.4471431976E-02
    0.1900000000E+04    0.3832821421E-03    0.5708078984E-04    0.6943105450E+00    0.1463891970E-02    0.4457089008E-02
    0.2100000000E+04    0.4361320612E-03    0.6495913455E-04    0.6944333839E+00    0.1667557054E-02    0.4441473916E-02
    0.2300000000E+04    0.4927255452E-03    0.7339558243E-04    0.6945347008E+00    0.1885708809E-02    0.4424514088E-02
    0.2500000000E+04    0.5534845136E-03    0.8245306928E-04    0.6946196681E+00    0.2119988107E-02    0.4406112382E-02
    0.2700000000E+04    0.6188876750E-03    0.9220299627E-04    0.6946919252E+00    0.2372255745E-02    0.4386147842E-02
    0.2900000000E+04    0.6894810803E-03    0.1027268056E-03    0.6947541076E+00    0.2644633941E-02    0.4364474775E-02
    0.3100000000E+04    0.7658906300E-03    0.1141178471E-03    0.6948081702E+00    0.2939555332E-02    0.4340920601E-02
    0.3300000000E+04    0.8488370378E-03    0.1264836109E-03    0.6948555938E+00    0.3259821512E-02    0.4315282580E-02
    0.3500000000E+04    0.9391538478E-03    0.1399484161E-03    0.6948975201E+00    0.3608673480E-02    0.4287323446E-02
    0.3700000000E+04    0.1037809232E-02    0.1546566622E-03    0.6949348441E+00    0.3989876864E-02    0.4256765833E-02
    0.3900000000E+04    0.1145932448E-02    0.1707767774E-03    0.6949682766E+00    0.4407825416E-02    0.4223285364E-02
    0.4100000000E+04    0.1264846019E-02    0.1885060194E-03    0.6949983897E+00    0.4867666956E-02    0.4186502151E-02
    0.4300000000E+04    0.1396104897E-02    0.2080763191E-03    0.6950256489E+00    0.5375456770E-02    0.4145970474E-02
    0.4500000000E+04    0.1541544065E-02    0.2297613839E-03    0.6950504365E+00    0.5938344247E-02    0.4101166313E-02
    0.4700000000E+04    0.1703336171E-02    0.2538852982E-03    0.6950730699E+00    0.6564799137E-02    0.4051472441E-02
    0.4900000000E+04    0.1884060800E-02    0.2808328620E-03    0.6950938145E+00    0.7264883894E-02    0.3996160850E-02
    0.1000000000E+04    0.1826038226E-03    0.2716480610E-04    0.6931450168E+00    0.6908368934E-03    0.4511900402E-02
    0.3000000000E+04    0.7269162093E-03    0.1083075646E-03    0.6947820521E+00    0.2789111046E-02    0.4352944745E-02
    0.5000000000E+04    0.1982460144E-02    0.2955053406E-03    0.6951035498E+00    0.7646196039E-02    0.3966135668E-02
    0.7000000000E+04    0.6124211399E-02    0.9132437379E-03    0.6952385436E+00    0.2376335619E-01    0.2757502034E-02
    0.9000000000E+04    0.1454176552E-01    0.2169984358E-02    0.6953119461E+00    0.5706391707E-01    0.7292433145E-03
    0.1100000000E+05    0.1764388813E-01    0.2635176788E-02    0.6953576246E+00    0.7021980641E-01    0.4801849354E-03
    0.1300000000E+05    0.1958116088E-01    0.2926997571E-02    0.6953885241E+00    0.7901146501E-01    0.4776736188E-03
    0.1500000000E+05    0.2125040957E-01    0.3179125629E-02    0.6954106471E+00    0.8689546722E-01    0.4812973554E-03
    0.1700000000E+05    0.2271563029E-01    0.3401029152E-02    0.6954271506E+00    0.9408884503E-01    0.4846551944E-03
    0.1900000000E+05    0.2400786981E-01    0.3597276698E-02    0.6954398503E+00    0.1006861875E+00    0.4876635506E-03
    0.2100000000E+05    0.2515187042E-01    0.3771510437E-02    0.6954498626E+00    0.1067631462E+00    0.4903861939E-03
    0.2300000000E+05    0.2616802364E-01    0.3926734376E-02    0.6954579104E+00    0.1123828001E+00    0.4928737822E-03
    0.2500000000E+05    0.2707328875E-01    0.4065448881E-02    0.6954644822E+00    0.1175982476E+00    0.4951646163E-03
    0.2700000000E+05    0.2788187518E-01    0.4189750588E-02    0.6954699190E+00    0.1224545208E+00    0.4972882775E-03
    0.2900000000E+05    0.2860576904E-01    0.4301409513E-02    0.6954744662E+00    0.1269900721E+00    0.4992680926E-03
    0.3100000000E+05    0.2925514404E-01    0.4401929282E-02    0.6954783045E+00    0.1312379422E+00    0.5011227878E-03
    0.3300000000E+05    0.2983868540E-01    0.4492594597E-02    0.6954815697E+00    0.1352266877E+00    0.5028676279E-03
    0.3500000000E+05    0.3036384723E-01    0.4574508999E-02    0.6954843659E+00    0.1389811223E+00    0.5045152232E-03
    0.3700000000E+05    0.3083705888E-01    0.4648625133E-02    0.6954867740E+00    0.1425229168E+00    0.5060761136E-03
    0.3900000000E+05    0.3126389150E-01    0.4715769200E-02    0.6954888578E+00    0.1458710853E+00    0.5075592000E-03
    0.4100000000E+05    0.3164919347E-01    0.4776660849E-02    0.6954906685E+00    0.1490423842E+00    0.5089720686E-03
    0.4300000000E+05    0.3199720129E-01    0.4831929463E-02    0.6954922471E+00    0.1520516413E+00    0.5103212388E-03
    0.4500000000E+05    0.3231163081E-01    0.4882127580E-02    0.6954936273E+00    0.1549120280E+00    0.5116123550E-03
    0.4700000000E+05    0.3259575292E-01    0.4927742008E-02    0.6954948367E+00    0.1576352869E+00    0.5128503371E-03
    0.4900000000E+05    0.3285245643E-01    0.4969203093E-02    0.6954958984E+00    0.1602319228E+00    0.5140395000E-03
    0.1000000000E+05    0.1644383689E-01    0.2454879946E-02    0.6953371974E+00    0.6498348460E-01    0.5148086506E-03
    0.3000000000E+05    0.2893919698E-01    0.4352976851E-02    0.6954764646E+00    0.1291480869E+00    0.5002100558E-03
    0.5000000000E+05    0.3297133765E-01    0.4988497110E-02    0.6954963799E+00    0.1614857413E+00    0.5146169810E-03
    0.7000000000E+05    0.3439788349E-01    0.5229287870E-02    0.6955015906E+00    0.1817605191E+00    0.5243298282E-03
    0.9000000000E+05    0.3477411071E-01    0.5308023037E-02    0.6955026261E+00    0.1959708152E+00    0.5317029244E-03
    0.1100000000E+06    0.3466930787E-01    0.5310800991E-02    0.6955020907E+00    0.2066448664E+00    0.5376641701E-03
    0.1300000000E+06    0.3432973222E-01    0.5275322788E-02    0.6955008857E+00    0.2150488641E+00    0.5426774892E-03
    0.1500000000E+06    0.3387391194E-01    0.5219991567E-02    0.6954993851E+00    0.2218940179E+00    0.5470089780E-03
    0.1700000000E+06    0.3336311909E-01    0.5154480419E-02    0.6954977625E+00    0.2276140002E+00    0.5508257531E-03
    0.1900000000E+06    0.3283056373E-01    0.5084140207E-02    0.6954961040E+00    0.2324901027E+00    0.5542397883E-03
    0.2100000000E+06    0.3229476530E-01    0.5012033231E-02    0.6954944539E+00    0.2367137847E+00    0.5573298525E-03
    0.2300000000E+06    0.3176616180E-01    0.4939946417E-02    0.6954928354E+00    0.2404204932E+00    0.5601535025E-03
    0.2500000000E+06    0.3125057690E-01    0.4868927424E-02    0.6954912603E+00    0.2437091298E+00    0.5627540981E-03
    0.2700000000E+06    0.3075112676E-01    0.4799582312E-02    0.6954897342E+00    0.2466538427E+00    0.5651651333E-03
    0.2900000000E+06    0.3026930945E-01    0.4732247412E-02    0.6954882588E+00    0.2493114775E+00    0.5674130286E-03
    0.3100000000E+06    0.2980564663E-01    0.4667091784E-02    0.6954868342E+00    0.2517264576E+00    0.5695189994E-03
    0.3300000000E+06    0.2936007085E-01    0.4604179901E-02    0.6954854591E+00    0.2539340793E+00    0.5715003437E-03
    0.3500000000E+06    0.2893216386E-01    0.4543510836E-02    0.6954841317E+00    0.2559627969E+00    0.5733713543E-03
    0.3700000000E+06    0.2852130518E-01    0.4485043158E-02    0.6954828498E+00    0.2578358447E+00    0.5751439796E-03
    0.3900000000E+06    0.2812676568E-01    0.4428710960E-02    0.6954816113E+00    0.2595724111E+00    0.5768283113E-03
    0.4100000000E+06    0.2774776658E-01    0.4374434262E-02    0.6954804138E+00    0.2611885054E+00    0.5784329521E-03
    0.4300000000E+06    0.2738351671E-01    0.4322125803E-02    0.6954792551E+00    0.2626976066E+00    0.5799652955E-03
    0.4500000000E+06    0.2703323552E-01    0.4271695454E-02    0.6954781331E+00    0.2641111582E+00    0.5814317435E-03
    0.4700000000E+06    0.2669616719E-01    0.4223053087E-02    0.6954770458E+00    0.2654389480E+00    0.5828378771E-03
    0.4900000000E+06    0.2637158864E-01    0.4176110398E-02    0.6954759912E+00    0.2666894057E+00    0.5841885910E-03
    0.1000000000E+06    0.3476213028E-01    0.5315900194E-02    0.6955024794E+00    0.2016526987E+00    0.5348245820E-03
    0.3000000000E+06    0.3003520248E-01    0.4699391254E-02    0.6954875402E+00    0.2505469102E+00    0.5684825938E-03
    0.5000000000E+06    0.2621376714E-01    0.4153249624E-02    0.6954754757E+00    0.2672879565E+00    0.5848445348E-03
    0.7000000000E+06    0.2356738685E-01    0.3766677486E-02    0.6954665130E+00    0.2765503072E+00    0.5958779375E-03
    0.9000000000E+06    0.2161234232E-01    0.3477442833E-02    0.6954594145E+00    0.2826533570E+00    0.6042543227E-03
    0.1100000000E+07    0.2009252189E-01    0.3250564547E-02    0.6954535364E+00    0.2870683238E+00    0.6110271187E-03
    0.1300000000E+07    0.1886628304E-01    0.3066230496E-02    0.6954485168E+00    0.2904550515E+00    0.6167231382E-03
    0.1500000000E+07    0.1784900088E-01    0.2912433646E-02    0.6954441332E+00    0.2931601789E+00    0.6216445936E-03
    0.1700000000E+07    0.1698673714E-01    0.2781443394E-02    0.6954402402E+00    0.2953858149E+00    0.6259813019E-03
    0.1900000000E+07    0.1624329248E-01    0.2668031132E-02    0.6954367369E+00    0.2972589013E+00    0.6298604561E-03
    0.2100000000E+07    0.1559334530E-01    0.2568516329E-02    0.6954335510E+00    0.2988637579E+00    0.6333715358E-03
    0.2300000000E+07    0.1501857442E-01    0.2480221861E-02    0.6954306285E+00    0.3002588963E+00    0.6365799268E-03
    0.2500000000E+07    0.1450534726E-01    0.2401146610E-02    0.6954279283E+00    0.3014863716E+00    0.6395348884E-03
    0.2700000000E+07    0.1404327806E-01    0.2329759945E-02    0.6954254183E+00    0.3025772967E+00    0.6422744726E-03
    0.2900000000E+07    0.1362429403E-01    0.2264867868E-02    0.6954230727E+00    0.3035552533E+00    0.6448286962E-03
    0.3100000000E+07    0.1324201055E-01    0.2205523032E-02    0.6954208709E+00    0.3044384857E+00    0.6472216627E-03
    0.3300000000E+07    0.1289130140E-01    0.2150962578E-02    0.6954187959E+00    0.3052413610E+00    0.6494730251E-03
    0.3500000000E+07    0.1256799574E-01    0.2100564156E-02    0.6954168335E+00    0.3059753686E+00    0.6515990226E-03
    0.3700000000E+07    0.1226865996E-01    0.2053814154E-02    0.6954149718E+00    0.3066498213E+00    0.6536132305E-03
    0.3900000000E+07    0.1199043762E-01    0.2010284308E-02    0.6954132007E+00    0.3072723589E+00    0.6555271150E-03
    0.4100000000E+07    0.1173092997E-01    0.1969614205E-02    0.6954115117E+00    0.3078493156E+00    0.6573504504E-03
    0.4300000000E+07    0.1148810548E-01    0.1931497986E-02    0.6954098972E+00    0.3083859938E+00    0.6590916373E-03
    0.4500000000E+07    0.1126023029E-01    0.1895674119E-02    0.6954083508E+00    0.3088868705E+00    0.6607579498E-03
    0.4700000000E+07    0.1104581422E-01    0.1861917425E-02    0.6954068668E+00    0.3093557558E+00    0.6623557291E-03
    0.4900000000E+07    0.1084356827E-01    0.1830032791E-02    0.6954054403E+00    0.3097959150E+00    0.6638905367E-03
    0.1000000000E+07    0.2080867344E-01    0.3357690564E-02    0.6954563499E+00    0.2850200665E+00    0.6078009198E-03
    0.3000000000E+07    0.1342891056E-01    0.2234553461E-02    0.6954219550E+00    0.3040077347E+00    0.6460440178E-03
    0.5000000000E+07    0.1074665284E-01    0.1814738497E-02    0.6954047472E+00    0.3100061180E+00    0.6646358818E-03
    0.7000000000E+07    0.9238518398E-02    0.1575398438E-02    0.6953930590E+00    0.3132191229E+00    0.6771731043E-03
    0.9000000000E+07    0.8236664101E-02    0.1414902698E-02    0.6953841553E+00    0.3152960580E+00    0.6866911867E-03
    0.1100000000E+08    0.7508041711E-02    0.1297341427E-02    0.6953769420E+00    0.3167793645E+00    0.6943871137E-03
    0.1300000000E+08    0.6946875455E-02    0.1206274989E-02    0.6953708676E+00    0.3179067623E+00    0.7008594971E-03
    0.1500000000E+08    0.6497196386E-02    0.1132946813E-02    0.6953656145E+00    0.3188010281E+00    0.7064517398E-03
    0.1700000000E+08    0.6126210458E-02    0.1072198277E-02    0.6953609823E+00    0.3195328102E+00    0.7113795311E-03
    0.1900000000E+08    0.5813244296E-02    0.1020762449E-02    0.6953568368E+00    0.3201460159E+00    0.7157874010E-03
    0.2100000000E+08    0.5544525639E-02    0.9764542835E-03    0.6953530830E+00    0.3206695581E+00    0.7197770256E-03
    0.2300000000E+08    0.5310474313E-02    0.9377484870E-03    0.6953496516E+00    0.3211233552E+00    0.7234227032E-03
    0.2500000000E+08    0.5104190185E-02    0.9035430030E-03    0.6953464904E+00    0.3215216355E+00    0.7267804075E-03
    0.2700000000E+08    0.4920558987E-02    0.8730186748E-03    0.6953435590E+00    0.3218748696E+00    0.7298933774E-03
