  Pressure (Pa) 22mC5-500 (mol/kg) 23mC5-500 (mol/kg) 24mC5-500 (mol/kg) 2mC6-500 (mol/kg) C7-500 (mol/kg)
    0.1000000000E+01    0.4374545547E-05    0.5027012536E-05    0.1514046231E+00    0.1149889166E-04    0.4146970450E-02
    0.3000000000E+01    0.8542685986E-05    0.9786988779E-05    0.3164964778E+00    0.2142861177E-04    0.4173694822E-02
    0.5000000000E+01    0.1048861220E-04    0.1199526883E-04    0.4047708595E+00    0.2584544245E-04    0.4181667455E-02
    0.7000000000E+01    0.1160567260E-04    0.1325966278E-04    0.4597245609E+00    0.2855935481E-04    0.4185824047E-02
    0.9000000000E+01    0.1235112077E-04    0.1410481759E-04    0.4972289299E+00    0.3066916243E-04    0.4188382015E-02
    0.1100000000E+02    0.1291097679E-04    0.1474287835E-04    0.5244564958E+00    0.3256110202E-04    0.4190090567E-02
    0.1300000000E+02    0.1337173353E-04    0.1527183311E-04    0.5451224223E+00    0.3438632972E-04    0.4191287065E-02
    0.1500000000E+02    0.1377744291E-04    0.1574122235E-04    0.5613436715E+00    0.3620697899E-04    0.4192148922E-02
    0.1700000000E+02    0.1415205122E-04    0.1617775249E-04    0.5744149618E+00    0.3804834424E-04    0.4192779257E-02
    0.1900000000E+02    0.1450920954E-04    0.1659650210E-04    0.5851726458E+00    0.3991962556E-04    0.4193242418E-02
    0.2100000000E+02    0.1485697375E-04    0.1700626834E-04    0.5941810621E+00    0.4182282299E-04    0.4193580770E-02
    0.2300000000E+02    0.1520021370E-04    0.1741229542E-04    0.6018348079E+00    0.4375675615E-04    0.4193823400E-02
    0.2500000000E+02    0.1554191682E-04    0.1781774392E-04    0.6084180943E+00    0.4571894241E-04    0.4193990971E-02
    0.2700000000E+02    0.1588392515E-04    0.1822451736E-04    0.6141408240E+00    0.4770648663E-04    0.4194098582E-02
    0.2900000000E+02    0.1622736752E-04    0.1863374415E-04    0.6191613869E+00    0.4971649799E-04    0.4194157529E-02
    0.3100000000E+02    0.1657292076E-04    0.1904606714E-04    0.6236015489E+00    0.5174627545E-04    0.4194176437E-02
    0.3300000000E+02    0.1692097156E-04    0.1946182181E-04    0.6275564594E+00    0.5379337878E-04    0.4194162008E-02
    0.3500000000E+02    0.1727171894E-04    0.1988114828E-04    0.6311015470E+00    0.5585564368E-04    0.4194119531E-02
    0.3700000000E+02    0.1762524031E-04    0.2030406285E-04    0.6342973770E+00    0.5793117044E-04    0.4194053234E-02
    0.3900000000E+02    0.1798153455E-04    0.2073050420E-04    0.6371931407E+00    0.6001830124E-04    0.4193966543E-02
    0.4100000000E+02    0.1834055056E-04    0.2116036373E-04    0.6398292057E+00    0.6211559372E-04    0.4193862259E-02
    0.4300000000E+02    0.1870220620E-04    0.2159350530E-04    0.6422390094E+00    0.6422179465E-04    0.4193742695E-02
    0.4500000000E+02    0.1906640102E-04    0.2202977839E-04    0.6444504849E+00    0.6633581539E-04    0.4193609782E-02
    0.4700000000E+02    0.1943302479E-04    0.2246902666E-04    0.6464871491E+00    0.6845670988E-04    0.4193465139E-02
    0.4900000000E+02    0.1980196316E-04    0.2291109352E-04    0.6483689423E+00    0.7058365523E-04    0.4193310138E-02
    0.1000000000E+02    0.1264743961E-04    0.1444200671E-04    0.5118438828E+00    0.3162984123E-04    0.4189316013E-02
    0.3000000000E+02    0.1639985074E-04    0.1883949201E-04    0.6214475402E+00    0.5072907495E-04    0.4194171531E-02
    0.5000000000E+02    0.1998726444E-04    0.2313313585E-04    0.6492571797E+00    0.7164916931E-04    0.4193229125E-02
    0.7000000000E+02    0.2378900207E-04    0.2768848023E-04    0.6619534376E+00    0.9314583631E-04    0.4191274579E-02
    0.9000000000E+02    0.2772054295E-04    0.3239658777E-04    0.6692242313E+00    0.1148174848E-03    0.4188969912E-02
    0.1100000000E+03    0.3173454545E-04    0.3720012376E-04    0.6739350427E+00    0.1365570731E-03    0.4186506428E-02
    0.1300000000E+03    0.3580685847E-04    0.4207055616E-04    0.6772355235E+00    0.1583398996E-03    0.4183958401E-02
    0.1500000000E+03    0.3992474602E-04    0.4699311912E-04    0.6796765617E+00    0.1801674431E-03    0.4181359765E-02
    0.1700000000E+03    0.4408130499E-04    0.5195996256E-04    0.6815551866E+00    0.2020498109E-03    0.4178727642E-02
    0.1900000000E+03    0.4827278239E-04    0.5696692340E-04    0.6830456916E+00    0.2239996028E-03    0.4176071219E-02
    0.2100000000E+03    0.5249721232E-04    0.6201190635E-04    0.6842570939E+00    0.2460296479E-03    0.4173395586E-02
    0.2300000000E+03    0.5675368438E-04    0.6709402389E-04    0.6852610773E+00    0.2681521838E-03    0.4170703582E-02
    0.2500000000E+03    0.6104193220E-04    0.7221311683E-04    0.6861067132E+00    0.2903786029E-03    0.4167996740E-02
    0.2700000000E+03    0.6536209252E-04    0.7736947615E-04    0.6868287251E+00    0.3127194265E-03    0.4165275811E-02
    0.2900000000E+03    0.6971455966E-04    0.8256367624E-04    0.6874523754E+00    0.3351843667E-03    0.4162541064E-02
    0.3100000000E+03    0.7409989501E-04    0.8779647229E-04    0.6879964824E+00    0.3577824170E-03    0.4159792459E-02
    0.3300000000E+03    0.7851876968E-04    0.9306873578E-04    0.6884753517E+00    0.3805219466E-03    0.4157029763E-02
    0.3500000000E+03    0.8297192750E-04    0.9838141328E-04    0.6889000524E+00    0.4034107888E-03    0.4154252617E-02
    0.3700000000E+03    0.8746016078E-04    0.1037354999E-03    0.6892792836E+00    0.4264563199E-03    0.4151460577E-02
    0.3900000000E+03    0.9198429442E-04    0.1091320222E-03    0.6896199762E+00    0.4496655276E-03    0.4148653148E-02
    0.4100000000E+03    0.9654517540E-04    0.1145720268E-03    0.6899277207E+00    0.4730450708E-03    0.4145829802E-02
    0.4300000000E+03    0.1011436658E-03    0.1200565732E-03    0.6902070760E+00    0.4966013296E-03    0.4142989986E-02
    0.4500000000E+03    0.1057806386E-03    0.1255867297E-03    0.6904617972E+00    0.5203404499E-03    0.4140133139E-02
    0.4700000000E+03    0.1104569742E-03    0.1311635702E-03    0.6906950050E+00    0.5442683802E-03    0.4137258688E-02
    0.4900000000E+03    0.1151735595E-03    0.1367881732E-03    0.6909093143E+00    0.5683909047E-03    0.4134366061E-02
    0.1000000000E+03    0.2971911033E-04    0.3478865327E-04    0.6718069752E+00    0.1256812944E-03    0.4187751971E-02
    0.3000000000E+03    0.7190307892E-04    0.8517519746E-04    0.6877333894E+00    0.3464662165E-03    0.4161168504E-02
    0.5000000000E+03    0.1175472243E-03    0.1396187235E-03    0.6910100857E+00    0.5805269091E-03    0.4132912752E-02
    0.7000000000E+03    0.1673552694E-03    0.1990050347E-03    0.6924239673E+00    0.8347982464E-03    0.4102751953E-02
    0.9000000000E+03    0.2222581985E-03    0.2644554398E-03    0.6932119306E+00    0.1114685287E-02    0.4070116344E-02
    0.1100000000E+04    0.2832945972E-03    0.3372124926E-03    0.6937142651E+00    0.1425724038E-02    0.4034416088E-02
    0.1300000000E+04    0.3516802264E-03    0.4187277717E-03    0.6940624345E+00    0.1774239893E-02    0.3994997176E-02
    0.1500000000E+04    0.4288835407E-03    0.5107532742E-03    0.6943179575E+00    0.2167811328E-02    0.3951096554E-02
    0.1700000000E+04    0.5167140713E-03    0.6154473103E-03    0.6945134646E+00    0.2615750571E-02    0.3901795945E-02
    0.1900000000E+04    0.6174343415E-03    0.7355081984E-03    0.6946678732E+00    0.3129691124E-02    0.3845967834E-02
    0.2100000000E+04    0.7339068290E-03    0.8743496686E-03    0.6947929063E+00    0.3724351423E-02    0.3782207887E-02
    0.2300000000E+04    0.8697896077E-03    0.1036334307E-02    0.6948962159E+00    0.4418548993E-02    0.3708748190E-02
    0.2500000000E+04    0.1029796725E-02    0.1227084236E-02    0.6949830086E+00    0.5236550728E-02    0.3623345869E-02
    0.2700000000E+04    0.1220039701E-02    0.1453888636E-02    0.6950569504E+00    0.6209847274E-02    0.3523143439E-02
    0.2900000000E+04    0.1448458907E-02    0.1726218618E-02    0.6951206973E+00    0.7379402269E-02    0.3404503997E-02
    0.3100000000E+04    0.1725323669E-02    0.2056324376E-02    0.6951762205E+00    0.8798277134E-02    0.3262843642E-02
    0.3300000000E+04    0.2063695611E-02    0.2459789017E-02    0.6952250140E+00    0.1053410398E-01    0.3092530811E-02
    0.3500000000E+04    0.2479546621E-02    0.2955671351E-02    0.6952682305E+00    0.1266984107E-01    0.2887026166E-02
    0.3700000000E+04    0.2990803321E-02    0.3565369623E-02    0.6953067737E+00    0.1529908839E-01    0.2639633167E-02
    0.3900000000E+04    0.3613919988E-02    0.4308538854E-02    0.6953413621E+00    0.1850876708E-01    0.2345502463E-02
    0.4100000000E+04    0.4356121423E-02    0.5193843851E-02    0.6953725742E+00    0.2233949239E-01    0.2005598264E-02
    0.4300000000E+04    0.5203056518E-02    0.6204233960E-02    0.6954008809E+00    0.2672197094E-01    0.1632274764E-02
    0.4500000000E+04    0.6108073451E-02    0.7284139221E-02    0.6954266693E+00    0.3142085874E-01    0.1252861170E-02
    0.4700000000E+04    0.6997409716E-02    0.8345632893E-02    0.6954502608E+00    0.3605955793E-01    0.9045793951E-03
    0.4900000000E+04    0.7798429473E-02    0.9302084180E-02    0.6954719244E+00    0.4026390367E-01    0.6193129184E-03
    0.1000000000E+04    0.2519387299E-03    0.2998358445E-03    0.6934881290E+00    0.1265939503E-02    0.4052688132E-02
    0.3000000000E+04    0.1580088938E-02    0.1883158786E-02    0.6951493842E+00    0.8053812472E-02    0.3336878681E-02
    0.5000000000E+04    0.8151642687E-02    0.9723996098E-02    0.6954821055E+00    0.4212923477E-01    0.5051228692E-03
    0.7000000000E+04    0.1147950515E-01    0.1371143648E-01    0.6956245586E+00    0.6058702207E-01    0.5346299635E-04
    0.9000000000E+04    0.1342159724E-01    0.1605105608E-01    0.6957035819E+00    0.7228138935E-01    0.5201590917E-04
    0.1100000000E+05    0.1501328403E-01    0.1797578895E-01    0.6957537838E+00    0.8241440340E-01    0.5258939339E-04
    0.1300000000E+05    0.1633552887E-01    0.1958097795E-01    0.6957884753E+00    0.9131791459E-01    0.5308114342E-04
    0.1500000000E+05    0.1744377028E-01    0.2093191131E-01    0.6958138667E+00    0.9921822300E-01    0.5350593327E-04
    0.1700000000E+05    0.1837963370E-01    0.2207766537E-01    0.6958332450E+00    0.1062882074E+00    0.5388014660E-04
    0.1900000000E+05    0.1917494916E-01    0.2305581120E-01    0.6958485123E+00    0.1126624096E+00    0.5421480625E-04
    0.2100000000E+05    0.1985443622E-01    0.2389556140E-01    0.6958608456E+00    0.1184471804E+00    0.5451766113E-04
    0.2300000000E+05    0.2043755715E-01    0.2461994339E-01    0.6958710123E+00    0.1237277536E+00    0.5479437011E-04
    0.2500000000E+05    0.2093982328E-01    0.2524733234E-01    0.6958795338E+00    0.1285732852E+00    0.5504919426E-04
    0.2700000000E+05    0.2137373312E-01    0.2579255274E-01    0.6958867769E+00    0.1330405085E+00    0.5528542383E-04
    0.2900000000E+05    0.2174945744E-01    0.2626768338E-01    0.6958930071E+00    0.1371764317E+00    0.5550565340E-04
    0.3100000000E+05    0.2207534709E-01    0.2668265442E-01    0.6958984211E+00    0.1410203586E+00    0.5571196582E-04
    0.3300000000E+05    0.2235831471E-01    0.2704569651E-01    0.6959031680E+00    0.1446054231E+00    0.5590605895E-04
    0.3500000000E+05    0.2260412506E-01    0.2736368265E-01    0.6959073628E+00    0.1479597684E+00    0.5608933542E-04
    0.3700000000E+05    0.2281761856E-01    0.2764239151E-01    0.6959110953E+00    0.1511074650E+00    0.5626296755E-04
    0.3900000000E+05    0.2300288506E-01    0.2788671236E-01    0.6959144372E+00    0.1540692315E+00    0.5642794538E-04
    0.4100000000E+05    0.2316340026E-01    0.2810080602E-01    0.6959174459E+00    0.1568630066E+00    0.5658511273E-04
    0.4300000000E+05    0.2330213383E-01    0.2828823252E-01    0.6959201682E+00    0.1595044072E+00    0.5673519473E-04
    0.4500000000E+05    0.2342163570E-01    0.2845205306E-01    0.6959226426E+00    0.1620070981E+00    0.5687881921E-04
    0.4700000000E+05    0.2352410557E-01    0.2859491220E-01    0.6959249009E+00    0.1643830926E+00    0.5701653341E-04
    0.4900000000E+05    0.2361144914E-01    0.2871910443E-01    0.6959269698E+00    0.1666429990E+00    0.5714881726E-04
    0.1000000000E+05    0.1425527928E-01    0.1705825968E-01    0.6957312040E+00    0.7751839812E-01    0.5231160005E-04
    0.3000000000E+05    0.2191816963E-01    0.2648213905E-01    0.6958958059E+00    0.1391326945E+00    0.5561043531E-04
    0.5000000000E+05    0.2364997522E-01    0.2877483538E-01    0.6959279404E+00    0.1677324008E+00    0.5721305705E-04
    0.7000000000E+05    0.2393264116E-01    0.2927984391E-01    0.6959413699E+00    0.1852305801E+00    0.5829353988E-04
    0.9000000000E+05    0.2372845253E-01    0.2916315712E-01    0.6959486363E+00    0.1974429049E+00    0.5911375820E-04
    0.1100000000E+06    0.2334095422E-01    0.2879946105E-01    0.6959531343E+00    0.2066454089E+00    0.5977692539E-04
    0.1300000000E+06    0.2288647058E-01    0.2833562578E-01    0.6959561598E+00    0.2139351322E+00    0.6033464598E-04
    0.1500000000E+06    0.2241471002E-01    0.2783627925E-01    0.6959583128E+00    0.2199154795E+00    0.6081651950E-04
    0.1700000000E+06    0.2194810995E-01    0.2733181089E-01    0.6959599083E+00    0.2249501804E+00    0.6124113554E-04
    0.1900000000E+06    0.2149685686E-01    0.2683691592E-01    0.6959611275E+00    0.2292737698E+00    0.6162094986E-04
    0.2100000000E+06    0.2106528447E-01    0.2635860103E-01    0.6959620814E+00    0.2330454912E+00    0.6196472465E-04
    0.2300000000E+06    0.2065482471E-01    0.2589993389E-01    0.6959628420E+00    0.2363779723E+00    0.6227886248E-04
    0.2500000000E+06    0.2026545074E-01    0.2546191033E-01    0.6959634575E+00    0.2393535502E+00    0.6256818675E-04
    0.2700000000E+06    0.1989641331E-01    0.2504442805E-01    0.6959639620E+00    0.2420340855E+00    0.6283642334E-04
    0.2900000000E+06    0.1954662733E-01    0.2464681210E-01    0.6959643796E+00    0.2444671339E+00    0.6308651133E-04
    0.3100000000E+06    0.1921487811E-01    0.2426810515E-01    0.6959647283E+00    0.2466899762E+00    0.6332081076E-04
    0.3300000000E+06    0.1889993141E-01    0.2390723009E-01    0.6959650213E+00    0.2487323341E+00    0.6354124589E-04
    0.3500000000E+06    0.1860059098E-01    0.2356308115E-01    0.6959652689E+00    0.2506182532E+00    0.6374940672E-04
    0.3700000000E+06    0.1831572700E-01    0.2323457431E-01    0.6959654792E+00    0.2523674390E+00    0.6394662241E-04
    0.3900000000E+06    0.1804428828E-01    0.2292067410E-01    0.6959656583E+00    0.2539962250E+00    0.6413401562E-04
    0.4100000000E+06    0.1778530548E-01    0.2262040670E-01    0.6959658113E+00    0.2555182883E+00    0.6431254334E-04
    0.4300000000E+06    0.1753788935E-01    0.2233286489E-01    0.6959659421E+00    0.2569451860E+00    0.6448302806E-04
    0.4500000000E+06    0.1730122652E-01    0.2205720851E-01    0.6959660541E+00    0.2582867645E+00    0.6464618198E-04
    0.4700000000E+06    0.1707457407E-01    0.2179266223E-01    0.6959661499E+00    0.2595514754E+00    0.6480262594E-04
    0.4900000000E+06    0.1685725369E-01    0.2153851198E-01    0.6959662319E+00    0.2607466223E+00    0.6495290448E-04
    0.1000000000E+06    0.2354802003E-01    0.2900014853E-01    0.6959511259E+00    0.2023355602E+00    0.5946103031E-04
    0.3000000000E+06    0.1937857566E-01    0.2445516083E-01    0.6959645616E+00    0.2456028213E+00    0.6320550549E-04
    0.5000000000E+06    0.1675189729E-01    0.2141512793E-01    0.6959662682E+00    0.2613201265E+00    0.6502588403E-04
    0.7000000000E+06    0.1501016776E-01    0.1935962777E-01    0.6959665864E+00    0.2703198981E+00    0.6625346389E-04
    0.9000000000E+06    0.1374595766E-01    0.1784971847E-01    0.6959665314E+00    0.2763896428E+00    0.6718544357E-04
    0.1100000000E+07    0.1277216253E-01    0.1667654627E-01    0.6959663472E+00    0.2808575458E+00    0.6793901637E-04
    0.1300000000E+07    0.1199070315E-01    0.1572866864E-01    0.6959661153E+00    0.2843323854E+00    0.6857279094E-04
    0.1500000000E+07    0.1134461462E-01    0.1494059594E-01    0.6959658681E+00    0.2871395006E+00    0.6912038926E-04
    0.1700000000E+07    0.1079821281E-01    0.1427094470E-01    0.6959656195E+00    0.2894712683E+00    0.6960292925E-04
    0.1900000000E+07    0.1032782573E-01    0.1369207121E-01    0.6959653760E+00    0.2914499619E+00    0.7003456179E-04
    0.2100000000E+07    0.9917030505E-02    0.1318468666E-01    0.6959651402E+00    0.2931576376E+00    0.7042524204E-04
    0.2300000000E+07    0.9554016608E-02    0.1273485131E-01    0.6959649134E+00    0.2946517507E+00    0.7078224462E-04
    0.2500000000E+07    0.9230036532E-02    0.1233219640E-01    0.6959646959E+00    0.2959739289E+00    0.7111105002E-04
    0.2700000000E+07    0.8938450119E-02    0.1196882126E-01    0.6959644874E+00    0.2971551910E+00    0.7141589184E-04
    0.2900000000E+07    0.8674110749E-02    0.1163858142E-01    0.6959642876E+00    0.2982192011E+00    0.7170010974E-04
    0.3100000000E+07    0.8432957426E-02    0.1133661356E-01    0.6959640961E+00    0.2991843766E+00    0.7196638545E-04
    0.3300000000E+07    0.8211735656E-02    0.1105900923E-01    0.6959639123E+00    0.3000653004E+00    0.7221690558E-04
    0.3500000000E+07    0.8007801581E-02    0.1080258503E-01    0.6959637358E+00    0.3008736937E+00    0.7245347691E-04
    0.3700000000E+07    0.7818981450E-02    0.1056471735E-01    0.6959635660E+00    0.3016191020E+00    0.7267760986E-04
    0.3900000000E+07    0.7643468829E-02    0.1034322100E-01    0.6959634025E+00    0.3023093903E+00    0.7289058017E-04
    0.4100000000E+07    0.7479748091E-02    0.1013625873E-01    0.6959632450E+00    0.3029511062E+00    0.7309347535E-04
    0.4300000000E+07    0.7326536585E-02    0.9942272649E-02    0.6959630930E+00    0.3035497522E+00    0.7328723009E-04
    0.4500000000E+07    0.7182740313E-02    0.9759931528E-02    0.6959629462E+00    0.3041099910E+00    0.7347265372E-04
    0.4700000000E+07    0.7047419528E-02    0.9588089834E-02    0.6959628042E+00    0.3046358043E+00    0.7365045176E-04
    0.4900000000E+07    0.6919761724E-02    0.9425755484E-02    0.6959626667E+00    0.3051306159E+00    0.7382124305E-04
    0.1000000000E+07    0.1323020500E-01    0.1722946834E-01    0.6959664485E+00    0.2787762949E+00    0.6758005302E-04
    0.3000000000E+07    0.8550855520E-02    0.1148432708E-01    0.6959641909E+00    0.2987131549E+00    0.7183534363E-04
    0.5000000000E+07    0.6858581959E-02    0.9347879084E-02    0.6959625996E+00    0.3053673377E+00    0.7390418425E-04
    0.7000000000E+07    0.5905822571E-02    0.8128265060E-02    0.6959614405E+00    0.3090208445E+00    0.7529933375E-04
    0.9000000000E+07    0.5271916217E-02    0.7309134587E-02    0.6959605297E+00    0.3114199547E+00    0.7635853806E-04
    0.1100000000E+08    0.4810250189E-02    0.6708286734E-02    0.6959597786E+00    0.3131529173E+00    0.7721498348E-04
    0.1300000000E+08    0.4454258797E-02    0.6242285988E-02    0.6959591388E+00    0.3144816945E+00    0.7793527776E-04
    0.1500000000E+08    0.4168695308E-02    0.5866659537E-02    0.6959585810E+00    0.3155432191E+00    0.7855763205E-04
    0.1700000000E+08    0.3932890898E-02    0.5555186797E-02    0.6959580863E+00    0.3164170419E+00    0.7910604686E-04
    0.1900000000E+08    0.3733805457E-02    0.5291248984E-02    0.6959576415E+00    0.3171529948E+00    0.7959660470E-04
    0.2100000000E+08    0.3562745185E-02    0.5063722217E-02    0.6959572373E+00    0.3177841127E+00    0.8004061969E-04
    0.2300000000E+08    0.3413658171E-02    0.4864835667E-02    0.6959568667E+00    0.3183332862E+00    0.8044635950E-04
    0.2500000000E+08    0.3282182556E-02    0.4688970900E-02    0.6959565244E+00    0.3188169500E+00    0.8082005276E-04
    0.2700000000E+08    0.3165083356E-02    0.4531949065E-02    0.6959562064E+00    0.3192472535E+00    0.8116651103E-04
