  Pressure (Pa) 22mC5-500 (mol/kg) 23mC5-500 (mol/kg) 24mC5-500 (mol/kg) 2mC6-500 (mol/kg) C7-500 (mol/kg)
    0.1000000000E+01    0.3657286253E-05    0.1574538619E-05    0.2321329675E+00    0.1187763208E-04    0.4145800912E-02
    0.3000000000E+01    0.6081337233E-05    0.2609215249E-05    0.4177364798E+00    0.1902169177E-04    0.4169327214E-02
    0.5000000000E+01    0.7011847982E-05    0.3005406101E-05    0.4972553296E+00    0.2221016635E-04    0.4174974392E-02
    0.7000000000E+01    0.7570948075E-05    0.3245675449E-05    0.5414267141E+00    0.2478398370E-04    0.4177487267E-02
    0.9000000000E+01    0.8008094277E-05    0.3436003802E-05    0.5695339200E+00    0.2729183320E-04    0.4178831812E-02
    0.1100000000E+02    0.8400931650E-05    0.3608909743E-05    0.5889920230E+00    0.2984349208E-04    0.4179606372E-02
    0.1300000000E+02    0.8778228572E-05    0.3776224319E-05    0.6032609716E+00    0.3245446146E-04    0.4180058846E-02
    0.1500000000E+02    0.9151699810E-05    0.3942644609E-05    0.6141723616E+00    0.3511834861E-04    0.4180311334E-02
    0.1700000000E+02    0.9526297934E-05    0.4110078827E-05    0.6227865352E+00    0.3782485727E-04    0.4180431171E-02
    0.1900000000E+02    0.9904063072E-05    0.4279255691E-05    0.6297598705E+00    0.4056441749E-04    0.4180458602E-02
    0.2100000000E+02    0.1028571666E-04    0.4450382977E-05    0.6355204286E+00    0.4332916309E-04    0.4180419185E-02
    0.2300000000E+02    0.1067137069E-04    0.4623436485E-05    0.6403592850E+00    0.4611289478E-04    0.4180329933E-02
    0.2500000000E+02    0.1106085973E-04    0.4798292918E-05    0.6444812676E+00    0.4891080092E-04    0.4180202609E-02
    0.2700000000E+02    0.1145390156E-04    0.4974792634E-05    0.6480346981E+00    0.5171916351E-04    0.4180045605E-02
    0.2900000000E+02    0.1185017593E-04    0.5152769407E-05    0.6511296207E+00    0.5453510924E-04    0.4179865068E-02
    0.3100000000E+02    0.1224936292E-04    0.5332064156E-05    0.6538494016E+00    0.5735641319E-04    0.4179665598E-02
    0.3300000000E+02    0.1265116088E-04    0.5512530745E-05    0.6562583515E+00    0.6018134829E-04    0.4179450705E-02
    0.3500000000E+02    0.1305529380E-04    0.5694037842E-05    0.6584068758E+00    0.6300857117E-04    0.4179223112E-02
    0.3700000000E+02    0.1346151341E-04    0.5876468862E-05    0.6603350402E+00    0.6583703550E-04    0.4178984963E-02
    0.3900000000E+02    0.1386959852E-04    0.6059721021E-05    0.6620750926E+00    0.6866592628E-04    0.4178737967E-02
    0.4100000000E+02    0.1427935319E-04    0.6243704041E-05    0.6636532812E+00    0.7149460957E-04    0.4178483501E-02
    0.4300000000E+02    0.1469060438E-04    0.6428338762E-05    0.6650911879E+00    0.7432259398E-04    0.4178222686E-02
    0.4500000000E+02    0.1510319952E-04    0.6613555816E-05    0.6664067210E+00    0.7714950086E-04    0.4177956446E-02
    0.4700000000E+02    0.1551700411E-04    0.6799294395E-05    0.6676148650E+00    0.7997504114E-04    0.4177685545E-02
    0.4900000000E+02    0.1593189957E-04    0.6985501161E-05    0.6687282538E+00    0.8279899724E-04    0.4177410619E-02
    0.1000000000E+02    0.8207652384E-05    0.3523642563E-05    0.5800737941E+00    0.2856031021E-04    0.4179270516E-02
    0.3000000000E+02    0.1204942475E-04    0.5242261506E-05    0.6525320076E+00    0.5594520955E-04    0.4179767459E-02
    0.5000000000E+02    0.1613972319E-04    0.7078765247E-05    0.6692528316E+00    0.8421032920E-04    0.4177271819E-02
    0.7000000000E+02    0.2033384329E-04    0.8959908699E-05    0.6766843883E+00    0.1123347794E-03    0.4174378416E-02
    0.9000000000E+02    0.2457106332E-04    0.1085879789E-04    0.6808848712E+00    0.1402809349E-03    0.4171381276E-02
    0.1100000000E+03    0.2883279541E-04    0.1276755566E-04    0.6835851982E+00    0.1681074364E-03    0.4168352576E-02
    0.1300000000E+03    0.3311358466E-04    0.1468404585E-04    0.6854672513E+00    0.1958746503E-03    0.4165314970E-02
    0.1500000000E+03    0.3741263789E-04    0.1660811591E-04    0.6868540296E+00    0.2236330376E-03    0.4162275846E-02
    0.1700000000E+03    0.4173094156E-04    0.1854034460E-04    0.6879183013E+00    0.2514235601E-03    0.4159237024E-02
    0.1900000000E+03    0.4607016037E-04    0.2048157294E-04    0.6887608486E+00    0.2792796807E-03    0.4156198117E-02
    0.2100000000E+03    0.5043218437E-04    0.2243271595E-04    0.6894444230E+00    0.3072291686E-03    0.4153157843E-02
    0.2300000000E+03    0.5481893634E-04    0.2439468523E-04    0.6900101378E+00    0.3352954803E-03    0.4150114588E-02
    0.2500000000E+03    0.5923229101E-04    0.2636835841E-04    0.6904860545E+00    0.3634987790E-03    0.4147066645E-02
    0.2700000000E+03    0.6367404433E-04    0.2835456897E-04    0.6908919814E+00    0.3918566837E-03    0.4144012334E-02
    0.2900000000E+03    0.6814590581E-04    0.3035410529E-04    0.6912422998E+00    0.4203848246E-03    0.4140950041E-02
    0.3100000000E+03    0.7264950114E-04    0.3236771342E-04    0.6915477036E+00    0.4490972608E-03    0.4137878243E-02
    0.3300000000E+03    0.7718637928E-04    0.3439610149E-04    0.6918163099E+00    0.4780067975E-03    0.4134795503E-02
    0.3500000000E+03    0.8175802109E-04    0.3643994435E-04    0.6920543910E+00    0.5071252316E-03    0.4131700469E-02
    0.3700000000E+03    0.8636584811E-04    0.3849988813E-04    0.6922668703E+00    0.5364635434E-03    0.4128591870E-02
    0.3900000000E+03    0.9101123093E-04    0.4057655449E-04    0.6924576665E+00    0.5660320488E-03    0.4125468504E-02
    0.4100000000E+03    0.9569549683E-04    0.4267054429E-04    0.6926299372E+00    0.5958405211E-03    0.4122329231E-02
    0.4300000000E+03    0.1004199367E-03    0.4478244101E-04    0.6927862555E+00    0.6258982894E-03    0.4119172968E-02
    0.4500000000E+03    0.1051858111E-03    0.4691281370E-04    0.6929287390E+00    0.6562143203E-03    0.4115998680E-02
    0.4700000000E+03    0.1099943557E-03    0.4906221951E-04    0.6930591464E+00    0.6867972841E-03    0.4112805372E-02
    0.4900000000E+03    0.1148467864E-03    0.5123120606E-04    0.6931789504E+00    0.7176556114E-03    0.4109592089E-02
    0.1000000000E+03    0.2669937121E-04    0.1181214757E-04    0.6823674021E+00    0.1542051635E-03    0.4169868900E-02
    0.3000000000E+03    0.7039363823E-04    0.3135910528E-04    0.6914000583E+00    0.4347171793E-03    0.4139415422E-02
    0.5000000000E+03    0.1172898345E-03    0.5232321112E-04    0.6932352721E+00    0.7331906171E-03    0.4107977666E-02
    0.7000000000E+03    0.1687447599E-03    0.7532159164E-04    0.6940246981E+00    0.1060304099E-02    0.4074426687E-02
    0.9000000000E+03    0.2259594621E-03    0.1008933268E-03    0.6944639914E+00    0.1424064196E-02    0.4037920577E-02
    0.1100000000E+04    0.2902377428E-03    0.1296220738E-03    0.6947437931E+00    0.1832914892E-02    0.3997653945E-02
    0.1300000000E+04    0.3631237244E-03    0.1621985534E-03    0.6949376057E+00    0.2296785917E-02    0.3952736250E-02
    0.1500000000E+04    0.4465204644E-03    0.1994738442E-03    0.6950797819E+00    0.2827893581E-02    0.3902112435E-02
    0.1700000000E+04    0.5428277116E-03    0.2425210812E-03    0.6951885267E+00    0.3441639994E-02    0.3844485949E-02
    0.1900000000E+04    0.6551207983E-03    0.2927155074E-03    0.6952743877E+00    0.4157771361E-02    0.3778227521E-02
    0.2100000000E+04    0.7873919920E-03    0.3518424560E-03    0.6953438980E+00    0.5001938841E-02    0.3701258358E-02
    0.2300000000E+04    0.9448789696E-03    0.4222443122E-03    0.6954013202E+00    0.6007824963E-02    0.3610897709E-02
    0.2500000000E+04    0.1134507020E-02    0.5070183833E-03    0.6954495536E+00    0.7220012576E-02    0.3503667062E-02
    0.2700000000E+04    0.1365462592E-02    0.6102735957E-03    0.6954906393E+00    0.8697719619E-02    0.3375053181E-02
    0.2900000000E+04    0.1649871867E-02    0.7374343255E-03    0.6955260555E+00    0.1051924810E-01    0.3219263216E-02
    0.3100000000E+04    0.2003421011E-02    0.8955184388E-03    0.6955568991E+00    0.1278612686E-01    0.3029087884E-02
    0.3300000000E+04    0.2445402046E-02    0.1093158943E-02    0.6955840013E+00    0.1562367433E-01    0.2796181289E-02
    0.3500000000E+04    0.2996914295E-02    0.1339801451E-02    0.6956080033E+00    0.1916985840E-01    0.2512439087E-02
    0.3700000000E+04    0.3674808963E-02    0.1642998448E-02    0.6956294079E+00    0.2353690618E-01    0.2173627981E-02
    0.3900000000E+04    0.4478758213E-02    0.2002627885E-02    0.6956486146E+00    0.2872850481E-01    0.1786175436E-02
    0.4100000000E+04    0.5373919566E-02    0.2403137590E-02    0.6956659450E+00    0.3452765074E-01    0.1374890466E-02
    0.4300000000E+04    0.6285047936E-02    0.2810901356E-02    0.6956816610E+00    0.4045626476E-01    0.9827970401E-03
    0.4500000000E+04    0.7122318189E-02    0.3185753259E-02    0.6956959778E+00    0.4593797366E-01    0.6544603479E-03
    0.4700000000E+04    0.7826451653E-02    0.3501165852E-02    0.6957090740E+00    0.5058758112E-01    0.4130124432E-03
    0.4900000000E+04    0.8389112948E-02    0.3753384053E-02    0.6957210993E+00    0.5434507832E-01    0.2537800881E-03
    0.1000000000E+04    0.2571261379E-03    0.1148230245E-03    0.6946178594E+00    0.1622276817E-02    0.4018309992E-02
    0.3000000000E+04    0.1816875216E-02    0.8121059146E-03    0.6955419917E+00    0.1158969977E-01    0.3128977137E-02
    0.5000000000E+04    0.8624886092E-02    0.3859139166E-02    0.6957267504E+00    0.5593566195E-01    0.1988801504E-03
    0.7000000000E+04    0.1127516738E-01    0.5052024553E-02    0.6958058006E+00    0.7480404507E-01    0.2991985354E-04
    0.9000000000E+04    0.1312125092E-01    0.5887013232E-02    0.6958496320E+00    0.8895112427E-01    0.2985596233E-04
    0.1100000000E+05    0.1461889038E-01    0.6567245929E-02    0.6958774667E+00    0.1011522497E+00    0.3018954049E-04
    0.1300000000E+05    0.1584710608E-01    0.7127587788E-02    0.6958966952E+00    0.1118047170E+00    0.3047152234E-04
    0.1500000000E+05    0.1686283328E-01    0.7593184301E-02    0.6959107648E+00    0.1211988199E+00    0.3071512161E-04
    0.1700000000E+05    0.1770860730E-01    0.7982844838E-02    0.6959214994E+00    0.1295556316E+00    0.3092974815E-04
    0.1900000000E+05    0.1841678013E-01    0.8310894075E-02    0.6959299546E+00    0.1370465915E+00    0.3112171037E-04
    0.2100000000E+05    0.1901234599E-01    0.8588413450E-02    0.6959367832E+00    0.1438067668E+00    0.3129544446E-04
    0.2300000000E+05    0.1951488334E-01    0.8824094939E-02    0.6959424107E+00    0.1499440685E+00    0.3145419106E-04
    0.2500000000E+05    0.1993991798E-01    0.9024840815E-02    0.6959471266E+00    0.1555457925E+00    0.3160039095E-04
    0.2700000000E+05    0.2029989828E-01    0.9196192964E-02    0.6959511340E+00    0.1606833515E+00    0.3173592920E-04
    0.2900000000E+05    0.2060490451E-01    0.9342645450E-02    0.6959545802E+00    0.1654157574E+00    0.3186229258E-04
    0.3100000000E+05    0.2086317291E-01    0.9467875557E-02    0.6959575742E+00    0.1697922216E+00    0.3198067476E-04
    0.3300000000E+05    0.2108148802E-01    0.9574916935E-02    0.6959601988E+00    0.1738541262E+00    0.3209204895E-04
    0.3500000000E+05    0.2126548031E-01    0.9666291000E-02    0.6959625176E+00    0.1776365348E+00    0.3219721916E-04
    0.3700000000E+05    0.2141985437E-01    0.9744107800E-02    0.6959645805E+00    0.1811693658E+00    0.3229685750E-04
    0.3900000000E+05    0.2154856583E-01    0.9810144260E-02    0.6959664270E+00    0.1844783116E+00    0.3239153158E-04
    0.4100000000E+05    0.2165495981E-01    0.9865905460E-02    0.6959680891E+00    0.1875855678E+00    0.3248172524E-04
    0.4300000000E+05    0.2174188022E-01    0.9912673068E-02    0.6959695927E+00    0.1905104140E+00    0.3256785430E-04
    0.4500000000E+05    0.2181175683E-01    0.9951543930E-02    0.6959709591E+00    0.1932696837E+00    0.3265027877E-04
    0.4700000000E+05    0.2186667507E-01    0.9983461058E-02    0.6959722059E+00    0.1958781443E+00    0.3272931250E-04
    0.4900000000E+05    0.2190843247E-01    0.1000923869E-01    0.6959733479E+00    0.1983488088E+00    0.3280523073E-04
    0.1000000000E+05    0.1390802644E-01    0.6244003892E-02    0.6958649484E+00    0.9526684178E-01    0.3002991035E-04
    0.3000000000E+05    0.2073942676E-01    0.9407710325E-02    0.6959561280E+00    0.1676457319E+00    0.3192241601E-04
    0.5000000000E+05    0.2192487034E-01    0.1002004952E-01    0.6959738836E+00    0.1995361182E+00    0.3284209852E-04
    0.7000000000E+05    0.2184717340E-01    0.1004349472E-01    0.6959812883E+00    0.2182486170E+00    0.3346222470E-04
    0.9000000000E+05    0.2139470357E-01    0.9883493816E-02    0.6959852866E+00    0.2308562046E+00    0.3393300330E-04
    0.1100000000E+06    0.2083020225E-01    0.9662801383E-02    0.6959877566E+00    0.2400721017E+00    0.3431365215E-04
    0.1300000000E+06    0.2024643338E-01    0.9426150763E-02    0.6959894145E+00    0.2471805302E+00    0.3463378284E-04
    0.1500000000E+06    0.1967867896E-01    0.9191393123E-02    0.6959905917E+00    0.2528759532E+00    0.3491038148E-04
    0.1700000000E+06    0.1914008542E-01    0.8965781948E-02    0.6959914622E+00    0.2575703225E+00    0.3515411655E-04
    0.1900000000E+06    0.1863460248E-01    0.8752027342E-02    0.6959921256E+00    0.2615252490E+00    0.3537213664E-04
    0.2100000000E+06    0.1816223229E-01    0.8550798394E-02    0.6959926434E+00    0.2649158030E+00    0.3556947067E-04
    0.2300000000E+06    0.1772131210E-01    0.8361837045E-02    0.6959930551E+00    0.2678641082E+00    0.3574979340E-04
    0.2500000000E+06    0.1730955104E-01    0.8184479626E-02    0.6959933874E+00    0.2704582758E+00    0.3591587325E-04
    0.2700000000E+06    0.1692450962E-01    0.8017908610E-02    0.6959936588E+00    0.2727636784E+00    0.3606984877E-04
    0.2900000000E+06    0.1656381886E-01    0.7861275301E-02    0.6959938827E+00    0.2748299722E+00    0.3621340691E-04
    0.3100000000E+06    0.1622527407E-01    0.7713758567E-02    0.6959940689E+00    0.2766956409E+00    0.3634790228E-04
    0.3300000000E+06    0.1590686747E-01    0.7574591154E-02    0.6959942248E+00    0.2783910304E+00    0.3647443939E-04
    0.3500000000E+06    0.1560679142E-01    0.7443069416E-02    0.6959943559E+00    0.2799404349E+00    0.3659393088E-04
    0.3700000000E+06    0.1532342788E-01    0.7318554624E-02    0.6959944667E+00    0.2813635637E+00    0.3670713969E-04
    0.3900000000E+06    0.1505533225E-01    0.7200470156E-02    0.6959945606E+00    0.2826765969E+00    0.3681471021E-04
    0.4100000000E+06    0.1480121557E-01    0.7088296831E-02    0.6959946403E+00    0.2838929576E+00    0.3691719177E-04
    0.4300000000E+06    0.1455992707E-01    0.6981567599E-02    0.6959947079E+00    0.2850238878E+00    0.3701505646E-04
    0.4500000000E+06    0.1433043794E-01    0.6879862207E-02    0.6959947654E+00    0.2860788834E+00    0.3710871312E-04
    0.4700000000E+06    0.1411182678E-01    0.6782802145E-02    0.6959948141E+00    0.2870660282E+00    0.3719851809E-04
    0.4900000000E+06    0.1390326660E-01    0.6690046014E-02    0.6959948554E+00    0.2879922524E+00    0.3728478394E-04
    0.1000000000E+06    0.2111861349E-01    0.9776988195E-02    0.6959866544E+00    0.2357883270E+00    0.3413233152E-04
    0.3000000000E+06    0.1639190846E-01    0.7786426748E-02    0.6959939800E+00    0.2757858255E+00    0.3628171332E-04
    0.5000000000E+06    0.1380252020E-01    0.6645184350E-02    0.6959948735E+00    0.2884344204E+00    0.3732667714E-04
    0.7000000000E+06    0.1216929765E-01    0.5912952892E-02    0.6959950166E+00    0.2951773006E+00    0.3803135971E-04
    0.9000000000E+06    0.1101906586E-01    0.5391633132E-02    0.6959949618E+00    0.2995155480E+00    0.3856635782E-04
    0.1100000000E+07    0.1015159243E-01    0.4995311054E-02    0.6959948407E+00    0.3026006712E+00    0.3899894362E-04
    0.1300000000E+07    0.9466500980E-02    0.4680323645E-02    0.6959946965E+00    0.3049366282E+00    0.3936276036E-04
    0.1500000000E+07    0.8907237212E-02    0.4421834859E-02    0.6959945462E+00    0.3067832317E+00    0.3967710830E-04
    0.1700000000E+07    0.8439172797E-02    0.4204526091E-02    0.6959943968E+00    0.3082896894E+00    0.3995410992E-04
    0.1900000000E+07    0.8039747987E-02    0.4018358248E-02    0.6959942516E+00    0.3095485459E+00    0.4020188839E-04
    0.2100000000E+07    0.7693542885E-02    0.3856435183E-02    0.6959941118E+00    0.3106206209E+00    0.4042615840E-04
    0.2300000000E+07    0.7389606835E-02    0.3713838390E-02    0.6959939779E+00    0.3115477324E+00    0.4063109587E-04
    0.2500000000E+07    0.7119916571E-02    0.3586950541E-02    0.6959938497E+00    0.3123596962E+00    0.4081984685E-04
    0.2700000000E+07    0.6878439103E-02    0.3473042432E-02    0.6959937272E+00    0.3130784144E+00    0.4099484161E-04
    0.2900000000E+07    0.6660537443E-02    0.3370009976E-02    0.6959936101E+00    0.3137203823E+00    0.4115799726E-04
    0.3100000000E+07    0.6462580042E-02    0.3276200733E-02    0.6959934979E+00    0.3142982896E+00    0.4131085323E-04
    0.3300000000E+07    0.6281676169E-02    0.3190295990E-02    0.6959933904E+00    0.3148220774E+00    0.4145466475E-04
    0.3500000000E+07    0.6115491841E-02    0.3111228498E-02    0.6959932873E+00    0.3152996587E+00    0.4159046899E-04
    0.3700000000E+07    0.5962118819E-02    0.3038123774E-02    0.6959931882E+00    0.3157374199E+00    0.4171913298E-04
    0.3900000000E+07    0.5819979465E-02    0.2970257351E-02    0.6959930929E+00    0.3161405793E+00    0.4184138908E-04
    0.4100000000E+07    0.5687756401E-02    0.2907023113E-02    0.6959930011E+00    0.3165134476E+00    0.4195786156E-04
    0.4300000000E+07    0.5564339661E-02    0.2847909446E-02    0.6959929126E+00    0.3168596214E+00    0.4206908698E-04
    0.4500000000E+07    0.5448786413E-02    0.2792481030E-02    0.6959928272E+00    0.3171821278E+00    0.4217552992E-04
    0.4700000000E+07    0.5340289864E-02    0.2740364749E-02    0.6959927446E+00    0.3174835352E+00    0.4227759541E-04
    0.4900000000E+07    0.5238154963E-02    0.2691238671E-02    0.6959926647E+00    0.3177660391E+00    0.4237563866E-04
    0.1000000000E+07    0.1055768240E-01    0.5181185616E-02    0.6959949059E+00    0.3011749744E+00    0.3879288186E-04
    0.3000000000E+07    0.6559261275E-02    0.3322041592E-02    0.6959935534E+00    0.3140166675E+00    0.4123562847E-04
    0.5000000000E+07    0.5189281675E-02    0.2667708163E-02    0.6959926258E+00    0.3179008030E+00    0.4242325132E-04
    0.7000000000E+07    0.4434349316E-02    0.2302253756E-02    0.6959919534E+00    0.3199488992E+00    0.4322414200E-04
    0.9000000000E+07    0.3938398913E-02    0.2059956179E-02    0.6959914263E+00    0.3212613472E+00    0.4383218301E-04
    0.1100000000E+08    0.3580332417E-02    0.1883793679E-02    0.6959909922E+00    0.3221933867E+00    0.4432382991E-04
    0.1300000000E+08    0.3306004971E-02    0.1748062874E-02    0.6959906228E+00    0.3228989552E+00    0.4473731892E-04
    0.1500000000E+08    0.3087058583E-02    0.1639216562E-02    0.6959903010E+00    0.3234569402E+00    0.4509458520E-04
    0.1700000000E+08    0.2907002588E-02    0.1549335892E-02    0.6959900156E+00    0.3239124720E+00    0.4540940627E-04
    0.1900000000E+08    0.2755502324E-02    0.1473436244E-02    0.6959897592E+00    0.3242934715E+00    0.4569101434E-04
    0.2100000000E+08    0.2625705673E-02    0.1408200018E-02    0.6959895262E+00    0.3246182576E+00    0.4594590431E-04
    0.2300000000E+08    0.2512864961E-02    0.1351320713E-02    0.6959893126E+00    0.3248994120E+00    0.4617882224E-04
    0.2500000000E+08    0.2413572065E-02    0.1301137553E-02    0.6959891155E+00    0.3251458991E+00    0.4639334371E-04
    0.2700000000E+08    0.2325308181E-02    0.1256419730E-02    0.6959889323E+00    0.3253643016E+00    0.4659223079E-04
