  Pressure (Pa) 22mC5-500 (mol/kg) 23mC5-500 (mol/kg) 24mC5-500 (mol/kg) 2mC6-500 (mol/kg) C7-500 (mol/kg)
    0.1000000000E+01    0.5299202805E-05    0.2284623561E-05    0.3665740743E-01    0.2780835271E-04    0.4219097175E-02
    0.3000000000E+01    0.1400150567E-04    0.6029455598E-05    0.9946719014E-01    0.7184823379E-04    0.4318611608E-02
    0.5000000000E+01    0.2087918601E-04    0.8982967116E-05    0.1513243646E+00    0.1053688661E-03    0.4399279565E-02
    0.7000000000E+01    0.2641965139E-04    0.1135744522E-04    0.1948647517E+00    0.1314328501E-03    0.4467117840E-02
    0.9000000000E+01    0.3095173356E-04    0.1329591422E-04    0.2319411362E+00    0.1520460024E-03    0.4525106931E-02
    0.1100000000E+02    0.3470753884E-04    0.1489922449E-04    0.2638939470E+00    0.1685934851E-03    0.4575303485E-02
    0.1300000000E+02    0.3785553320E-04    0.1624050341E-04    0.2917169149E+00    0.1820599092E-03    0.4619213332E-02
    0.1500000000E+02    0.4052072405E-04    0.1737396129E-04    0.3161623600E+00    0.1931606687E-03    0.4657972056E-02
    0.1700000000E+02    0.4279761386E-04    0.1834053942E-04    0.3378103071E+00    0.2024250317E-03    0.4692454374E-02
    0.1900000000E+02    0.4475880190E-04    0.1917165840E-04    0.3571151405E+00    0.2102506472E-03    0.4723345778E-02
    0.2100000000E+02    0.4646085229E-04    0.1989177382E-04    0.3744378784E+00    0.2169402989E-03    0.4751191443E-02
    0.2300000000E+02    0.4794838887E-04    0.2052015865E-04    0.3900689834E+00    0.2227272568E-03    0.4776430581E-02
    0.2500000000E+02    0.4925700980E-04    0.2107217127E-04    0.4042447975E+00    0.2277931088E-03    0.4799421115E-02
    0.2700000000E+02    0.5041539845E-04    0.2156017325E-04    0.4171595874E+00    0.2322805186E-03    0.4820457729E-02
    0.2900000000E+02    0.5144687625E-04    0.2199420411E-04    0.4289745094E+00    0.2363024930E-03    0.4839785308E-02
    0.3100000000E+02    0.5237056099E-04    0.2238248442E-04    0.4398243758E+00    0.2399492063E-03    0.4857609068E-02
    0.3300000000E+02    0.5320224207E-04    0.2273179566E-04    0.4498228274E+00    0.2432930875E-03    0.4874102311E-02
    0.3500000000E+02    0.5395504934E-04    0.2304777037E-04    0.4590663330E+00    0.2463926548E-03    0.4889412423E-02
    0.3700000000E+02    0.5463996977E-04    0.2333511607E-04    0.4676373149E+00    0.2492954364E-03    0.4903665564E-02
    0.3900000000E+02    0.5526625043E-04    0.2359778994E-04    0.4756066164E+00    0.2520402155E-03    0.4916970372E-02
    0.4100000000E+02    0.5584171561E-04    0.2383913603E-04    0.4830354661E+00    0.2546587705E-03    0.4929420918E-02
    0.4300000000E+02    0.5637301850E-04    0.2406199421E-04    0.4899770558E+00    0.2571772352E-03    0.4941099078E-02
    0.4500000000E+02    0.5686584239E-04    0.2426878714E-04    0.4964778172E+00    0.2596171700E-03    0.4952076459E-02
    0.4700000000E+02    0.5732506280E-04    0.2446159033E-04    0.5025784633E+00    0.2619964102E-03    0.4962415967E-02
    0.4900000000E+02    0.5775487884E-04    0.2464218888E-04    0.5083148423E+00    0.2643297431E-03    0.4972173096E-02
    0.1000000000E+02    0.3291493147E-04    0.1413436677E-04    0.2484892092E+00    0.1607588671E-03    0.4551074842E-02
    0.3000000000E+02    0.5192113660E-04    0.2219360928E-04    0.4345125275E+00    0.2381678647E-03    0.4848873663E-02
    0.5000000000E+02    0.5795991429E-04    0.2472840141E-04    0.5110564801E+00    0.2654831178E-03    0.4976848849E-02
    0.7000000000E+02    0.6117876681E-04    0.2609208422E-04    0.5528039647E+00    0.2882038139E-03    0.5049189689E-02
    0.9000000000E+02    0.6363695516E-04    0.2715483335E-04    0.5790906370E+00    0.3124516278E-03    0.5096074632E-02
    0.1100000000E+03    0.6592663746E-04    0.2816204239E-04    0.5971641020E+00    0.3389951872E-03    0.5129042200E-02
    0.1300000000E+03    0.6824758565E-04    0.2919415851E-04    0.6103538419E+00    0.3676593798E-03    0.5153495504E-02
    0.1500000000E+03    0.7067074422E-04    0.3027834742E-04    0.6204038241E+00    0.3981387164E-03    0.5172317734E-02
    0.1700000000E+03    0.7321948021E-04    0.3142252793E-04    0.6283159308E+00    0.4301617690E-03    0.5187195460E-02
    0.1900000000E+03    0.7589852247E-04    0.3262732753E-04    0.6347067380E+00    0.4635155069E-03    0.5199185065E-02
    0.2100000000E+03    0.7870529250E-04    0.3389068096E-04    0.6399765049E+00    0.4980388509E-03    0.5208984177E-02
    0.2300000000E+03    0.8163461059E-04    0.3520969397E-04    0.6443963935E+00    0.5336114561E-03    0.5217073356E-02
    0.2500000000E+03    0.8468070401E-04    0.3658140991E-04    0.6481566344E+00    0.5701437717E-03    0.5223795234E-02
    0.2700000000E+03    0.8783805435E-04    0.3800311317E-04    0.6513946256E+00    0.6075693485E-03    0.5229401185E-02
    0.2900000000E+03    0.9110172785E-04    0.3947243177E-04    0.6542120834E+00    0.6458391345E-03    0.5234080132E-02
    0.3100000000E+03    0.9446747254E-04    0.4098735296E-04    0.6566859199E+00    0.6849172965E-03    0.5237977015E-02
    0.3300000000E+03    0.9793171215E-04    0.4254620269E-04    0.6588753693E+00    0.7247781591E-03    0.5241205013E-02
    0.3500000000E+03    0.1014914971E-03    0.4414761224E-04    0.6608267912E+00    0.7654039511E-03    0.5243853877E-02
    0.3700000000E+03    0.1051444416E-03    0.4579048221E-04    0.6625769882E+00    0.8067831318E-03    0.5245995743E-02
    0.3900000000E+03    0.1088886588E-03    0.4747394854E-04    0.6641555479E+00    0.8489091383E-03    0.5247689274E-02
    0.4100000000E+03    0.1127227013E-03    0.4919735217E-04    0.6655865285E+00    0.8917794394E-03    0.5248982678E-02
    0.4300000000E+03    0.1166455079E-03    0.5096021269E-04    0.6668896929E+00    0.9353948145E-03    0.5249915932E-02
    0.4500000000E+03    0.1206563571E-03    0.5276220596E-04    0.6680814261E+00    0.9797588010E-03    0.5250522462E-02
    0.4700000000E+03    0.1247548281E-03    0.5460314513E-04    0.6691754276E+00    0.1024877267E-02    0.5250830412E-02
    0.4900000000E+03    0.1289407665E-03    0.5648296475E-04    0.6701832397E+00    0.1070758079E-02    0.5250863630E-02
    0.1000000000E+03    0.6478573431E-04    0.2765842175E-04    0.5888930186E+00    0.3254403576E-03    0.5113876745E-02
    0.3000000000E+03    0.9277208020E-04    0.4022430425E-04    0.6554879030E+00    0.6652789816E-03    0.5236118626E-02
    0.5000000000E+03    0.1310665538E-03    0.5743746414E-04    0.6706579444E+00    0.1093987304E-02    0.5250783684E-02
    0.7000000000E+03    0.1783066806E-03    0.7862938246E-04    0.6773734250E+00    0.1601742766E-02    0.5238377799E-02
    0.9000000000E+03    0.2355066971E-03    0.1042592006E-03    0.6811602274E+00    0.2204836954E-02    0.5210002592E-02
    0.1100000000E+04    0.3049760086E-03    0.1353647660E-03    0.6835903068E+00    0.2929849858E-02    0.5167764326E-02
    0.1300000000E+04    0.3902705159E-03    0.1735397252E-03    0.6852814670E+00    0.3814913311E-02    0.5110721877E-02
    0.1500000000E+04    0.4966086699E-03    0.2211203377E-03    0.6865259002E+00    0.4914732616E-02    0.5035951353E-02
    0.1700000000E+04    0.6316730302E-03    0.2815445926E-03    0.6874797173E+00    0.6309206719E-02    0.4938447760E-02
    0.1900000000E+04    0.8069382200E-03    0.3599467471E-03    0.6882339008E+00    0.8117382565E-02    0.4810437479E-02
    0.2100000000E+04    0.1039758330E-02    0.4640918128E-03    0.6888450577E+00    0.1051931471E-01    0.4640168714E-02
    0.2300000000E+04    0.1356315492E-02    0.6056959956E-03    0.6893502509E+00    0.1378708803E-01    0.4410314068E-02
    0.2500000000E+04    0.1794396002E-02    0.8016717234E-03    0.6897747626E+00    0.1831471070E-01    0.4097063408E-02
    0.2700000000E+04    0.2400314278E-02    0.1072758144E-02    0.6901364295E+00    0.2458879313E-01    0.3674433200E-02
    0.2900000000E+04    0.3202837214E-02    0.1431866039E-02    0.6904481951E+00    0.3292265383E-01    0.3135624880E-02
    0.3100000000E+04    0.4147043323E-02    0.1854489483E-02    0.6907196796E+00    0.4277234024E-01    0.2538571220E-02
    0.3300000000E+04    0.5057985848E-02    0.2262411231E-02    0.6909581817E+00    0.5234605794E-01    0.2017193169E-02
    0.3500000000E+04    0.5771563191E-02    0.2582198756E-02    0.6911693392E+00    0.5993891227E-01    0.1674102299E-02
    0.3700000000E+04    0.6272570455E-02    0.2806989756E-02    0.6913575752E+00    0.6537097665E-01    0.1496110775E-02
    0.3900000000E+04    0.6633177882E-02    0.2969026335E-02    0.6915264091E+00    0.6937223774E-01    0.1417024568E-02
    0.4100000000E+04    0.6918720045E-02    0.3097518214E-02    0.6916786755E+00    0.7261163193E-01    0.1385390237E-02
    0.4300000000E+04    0.7166033801E-02    0.3208939017E-02    0.6918166834E+00    0.7546808261E-01    0.1374319106E-02
    0.4500000000E+04    0.7392663135E-02    0.3311135355E-02    0.6919423323E+00    0.7812239388E-01    0.1371770440E-02
    0.4700000000E+04    0.7606509127E-02    0.3407640656E-02    0.6920571991E+00    0.8065587245E-01    0.1372665950E-02
    0.4900000000E+04    0.7811129990E-02    0.3500045426E-02    0.6921626039E+00    0.8310486035E-01    0.1374909452E-02
    0.1000000000E+04    0.2685178059E-03    0.1190423536E-03    0.6824948650E+00    0.2550034938E-02    0.5190624748E-02
    0.3000000000E+04    0.3665943313E-02    0.1639132249E-02    0.6905884709E+00    0.3774659002E-01    0.2837106234E-02
    0.5000000000E+04    0.7910542310E-02    0.3544960768E-02    0.6922121129E+00    0.8430331289E-01    0.1376243645E-02
    0.7000000000E+04    0.9593767760E-02    0.4307840539E-02    0.6929022354E+00    0.1055591032E+00    0.1402586227E-02
    0.9000000000E+04    0.1083693829E-01    0.4875022472E-02    0.6932816228E+00    0.1228087538E+00    0.1422789604E-02
    0.1100000000E+05    0.1177167696E-01    0.5304628106E-02    0.6935202703E+00    0.1371223862E+00    0.1439038778E-02
    0.1300000000E+05    0.1248334970E-01    0.5634419955E-02    0.6936834734E+00    0.1492127029E+00    0.1452657284E-02
    0.1500000000E+05    0.1302978598E-01    0.5890029979E-02    0.6938016349E+00    0.1595769464E+00    0.1464395287E-02
    0.1700000000E+05    0.1345136322E-01    0.6089391454E-02    0.6938908066E+00    0.1685728781E+00    0.1474720019E-02
    0.1900000000E+05    0.1377700069E-01    0.6245375869E-02    0.6939602530E+00    0.1764646757E+00    0.1483942641E-02
    0.2100000000E+05    0.1402786621E-01    0.6367425281E-02    0.6940156909E+00    0.1834517936E+00    0.1492281028E-02
    0.2300000000E+05    0.1421974694E-01    0.6462597580E-02    0.6940608357E+00    0.1896877410E+00    0.1499893800E-02
    0.2500000000E+05    0.1436461081E-01    0.6536255670E-02    0.6940982050E+00    0.1952926649E+00    0.1506900097E-02
    0.2700000000E+05    0.1447166124E-01    0.6592533573E-02    0.6941295638E+00    0.2003620016E+00    0.1513391724E-02
    0.2900000000E+05    0.1454806580E-01    0.6634658815E-02    0.6941561856E+00    0.2049725606E+00    0.1519440951E-02
    0.3100000000E+05    0.1459946957E-01    0.6665179865E-02    0.6941790116E+00    0.2091868896E+00    0.1525105709E-02
    0.3300000000E+05    0.1463036338E-01    0.6686129460E-02    0.6941987520E+00    0.2130564625E+00    0.1530433160E-02
    0.3500000000E+05    0.1464435206E-01    0.6699143768E-02    0.6942159524E+00    0.2166240456E+00    0.1535462222E-02
    0.3700000000E+05    0.1464435277E-01    0.6705550581E-02    0.6942310391E+00    0.2199254796E+00    0.1540225392E-02
    0.3900000000E+05    0.1463274347E-01    0.6706435448E-02    0.6942443491E+00    0.2229910393E+00    0.1544750090E-02
    0.4100000000E+05    0.1461147544E-01    0.6702691852E-02    0.6942561528E+00    0.2258464834E+00    0.1549059669E-02
    0.4300000000E+05    0.1458215942E-01    0.6695059695E-02    0.6942666694E+00    0.2285138741E+00    0.1553174182E-02
    0.4500000000E+05    0.1454613233E-01    0.6684155115E-02    0.6942760783E+00    0.2310122242E+00    0.1557110982E-02
    0.4700000000E+05    0.1450450925E-01    0.6670493794E-02    0.6942845277E+00    0.2333580115E+00    0.1560885185E-02
    0.4900000000E+05    0.1445822442E-01    0.6654509340E-02    0.6942921410E+00    0.2355655919E+00    0.1564510042E-02
    0.1000000000E+05    0.1133672263E-01    0.5104308357E-02    0.6934132310E+00    0.1302817955E+00    0.1431306936E-02
    0.3000000000E+05    0.1457658860E-01    0.6651232305E-02    0.6941680242E+00    0.2071258083E+00    0.1522318222E-02
    0.5000000000E+05    0.1443358448E-01    0.6645762653E-02    0.6942956673E+00    0.2366215443E+00    0.1566270171E-02
    0.7000000000E+05    0.1383240210E-01    0.6412879338E-02    0.6943404641E+00    0.2528440259E+00    0.1595859594E-02
    0.9000000000E+05    0.1318977744E-01    0.6149023364E-02    0.6943597854E+00    0.2633280601E+00    0.1618306199E-02
    0.1100000000E+06    0.1259125215E-01    0.5897457939E-02    0.6943684970E+00    0.2707597099E+00    0.1636447507E-02
    0.1300000000E+06    0.1205213113E-01    0.5667720128E-02    0.6943720208E+00    0.2763537491E+00    0.1651700155E-02
    0.1500000000E+06    0.1157005849E-01    0.5460317360E-02    0.6943727494E+00    0.2807460301E+00    0.1664875972E-02
    0.1700000000E+06    0.1113848544E-01    0.5273282696E-02    0.6943718761E+00    0.2843043024E+00    0.1676484498E-02
    0.1900000000E+06    0.1075050486E-01    0.5104149254E-02    0.6943700492E+00    0.2872573028E+00    0.1686866993E-02
    0.2100000000E+06    0.1039991862E-01    0.4950563635E-02    0.6943676435E+00    0.2897554200E+00    0.1696263436E-02
    0.2300000000E+06    0.1008144702E-01    0.4810455465E-02    0.6943648862E+00    0.2919019541E+00    0.1704849136E-02
    0.2500000000E+06    0.9790673737E-02    0.4682057259E-02    0.6943619198E+00    0.2937704201E+00    0.1712756131E-02
    0.2700000000E+06    0.9523921909E-02    0.4563876234E-02    0.6943588362E+00    0.2954146907E+00    0.1720086396E-02
    0.2900000000E+06    0.9278126192E-02    0.4454654379E-02    0.6943556959E+00    0.2968752283E+00    0.1726920360E-02
    0.3100000000E+06    0.9050720434E-02    0.4353329529E-02    0.6943525393E+00    0.2981830679E+00    0.1733322599E-02
    0.3300000000E+06    0.8839544681E-02    0.4259001380E-02    0.6943493933E+00    0.2993624485E+00    0.1739345757E-02
    0.3500000000E+06    0.8642770036E-02    0.4170903122E-02    0.6943462762E+00    0.3004326026E+00    0.1745033330E-02
    0.3700000000E+06    0.8458838514E-02    0.4088378220E-02    0.6943432003E+00    0.3014090036E+00    0.1750421676E-02
    0.3900000000E+06    0.8286414984E-02    0.4010861561E-02    0.6943401734E+00    0.3023042550E+00    0.1755541499E-02
    0.4100000000E+06    0.8124348707E-02    0.3937864162E-02    0.6943372006E+00    0.3031287355E+00    0.1760418974E-02
    0.4300000000E+06    0.7971642420E-02    0.3868960768E-02    0.6943342850E+00    0.3038910772E+00    0.1765076593E-02
    0.4500000000E+06    0.7827427369E-02    0.3803779741E-02    0.6943314281E+00    0.3045985233E+00    0.1769533833E-02
    0.4700000000E+06    0.7690943029E-02    0.3741994796E-02    0.6943286306E+00    0.3052572013E+00    0.1773807669E-02
    0.4900000000E+06    0.7561520534E-02    0.3683318206E-02    0.6943258921E+00    0.3058723329E+00    0.1777912991E-02
    0.1000000000E+06    0.1288334320E-01    0.6020758286E-02    0.6943650206E+00    0.2673300768E+00    0.1627806743E-02
    0.3000000000E+06    0.9162268124E-02    0.4403064532E-02    0.6943541177E+00    0.2975465853E+00    0.1730171913E-02
    0.5000000000E+06    0.7499270122E-02    0.3655064771E-02    0.6943245448E+00    0.3061649940E+00    0.1779906625E-02
    0.7000000000E+06    0.6512385389E-02    0.3204415916E-02    0.6943004045E+00    0.3105465737E+00    0.1813438663E-02
    0.9000000000E+06    0.5839628332E-02    0.2894130521E-02    0.6942805800E+00    0.3132824251E+00    0.1838893231E-02
    0.1100000000E+07    0.5342805039E-02    0.2663268840E-02    0.6942638446E+00    0.3151869533E+00    0.1859473404E-02
    0.1300000000E+07    0.4956262752E-02    0.2482573503E-02    0.6942493805E+00    0.3166057501E+00    0.1876780786E-02
    0.1500000000E+07    0.4644268478E-02    0.2335996567E-02    0.6942366457E+00    0.3177128963E+00    0.1891734072E-02
    0.1700000000E+07    0.4385476243E-02    0.2213892189E-02    0.6942252684E+00    0.3186065402E+00    0.1904910247E-02
    0.1900000000E+07    0.4166237923E-02    0.2110061421E-02    0.6942149839E+00    0.3193466417E+00    0.1916695915E-02
    0.2100000000E+07    0.3977362519E-02    0.2020311428E-02    0.6942055977E+00    0.3199721056E+00    0.1927363041E-02
    0.2300000000E+07    0.3812401775E-02    0.1941689314E-02    0.6941969631E+00    0.3205093897E+00    0.1937110350E-02
    0.2500000000E+07    0.3666679020E-02    0.1872046170E-02    0.6941889664E+00    0.3209771779E+00    0.1946087551E-02
    0.2700000000E+07    0.3536708043E-02    0.1809775194E-02    0.6941815181E+00    0.3213890795E+00    0.1954410288E-02
    0.2900000000E+07    0.3419829339E-02    0.1753647204E-02    0.6941745462E+00    0.3217552667E+00    0.1962169784E-02
    0.3100000000E+07    0.3313973694E-02    0.1702703407E-02    0.6941679923E+00    0.3220835119E+00    0.1969439288E-02
    0.3300000000E+07    0.3217503546E-02    0.1656183232E-02    0.6941618080E+00    0.3223798667E+00    0.1976278524E-02
    0.3500000000E+07    0.3129103561E-02    0.1613474437E-02    0.6941559528E+00    0.3226491209E+00    0.1982736841E-02
    0.3700000000E+07    0.3047703343E-02    0.1574077773E-02    0.6941503927E+00    0.3228951202E+00    0.1988855492E-02
    0.3900000000E+07    0.2972421672E-02    0.1537581443E-02    0.6941450988E+00    0.3231209923E+00    0.1994669320E-02
    0.4100000000E+07    0.2902525526E-02    0.1503642284E-02    0.6941400460E+00    0.3233293093E+00    0.2000208027E-02
    0.4300000000E+07    0.2837399463E-02    0.1471971693E-02    0.6941352129E+00    0.3235222086E+00    0.2005497139E-02
    0.4500000000E+07    0.2776522408E-02    0.1442324922E-02    0.6941305807E+00    0.3237014819E+00    0.2010558760E-02
    0.4700000000E+07    0.2719449797E-02    0.1414492848E-02    0.6941261329E+00    0.3238686446E+00    0.2015412159E-02
    0.4900000000E+07    0.2665799707E-02    0.1388295545E-02    0.6941218550E+00    0.3240249871E+00    0.2020074234E-02
    0.1000000000E+07    0.5574317825E-02    0.2771035775E-02    0.6942718853E+00    0.3143111374E+00    0.1849670247E-02
    0.3000000000E+07    0.3365634627E-02    0.1727578792E-02    0.6941712203E+00    0.3219237197E+00    0.1965861777E-02
    0.5000000000E+07    0.2640153144E-02    0.1375760426E-02    0.6941197758E+00    0.3240994530E+00    0.2022338253E-02
    0.7000000000E+07    0.2246076683E-02    0.1182119727E-02    0.6940846464E+00    0.3252219903E+00    0.2060419211E-02
    0.9000000000E+07    0.1989240906E-02    0.1054771741E-02    0.6940578193E+00    0.3259322132E+00    0.2089327989E-02
    0.1100000000E+08    0.1804778211E-02    0.9626756772E-03    0.6940360534E+00    0.3264322190E+00    0.2112701340E-02
    0.1300000000E+08    0.1663987174E-02    0.8919892671E-03    0.6940177066E+00    0.3268083082E+00    0.2132357911E-02
    0.1500000000E+08    0.1551942781E-02    0.8354703063E-03    0.6940018295E+00    0.3271042460E+00    0.2149340956E-02
    0.1700000000E+08    0.1460011799E-02    0.7889084890E-03    0.6939878221E+00    0.3273448704E+00    0.2164305714E-02
    0.1900000000E+08    0.1382806167E-02    0.7496648494E-03    0.6939752812E+00    0.3275454499E+00    0.2177691239E-02
    0.2100000000E+08    0.1316765424E-02    0.7159890180E-03    0.6939639219E+00    0.3277159490E+00    0.2189806395E-02
    0.2300000000E+08    0.1259429471E-02    0.6866675616E-03    0.6939535357E+00    0.3278631811E+00    0.2200876875E-02
    0.2500000000E+08    0.1209036487E-02    0.6608288757E-03    0.6939439652E+00    0.3279919823E+00    0.2211072706E-02
    0.2700000000E+08    0.1164287027E-02    0.6378283599E-03    0.6939350885E+00    0.3281058916E+00    0.2220525227E-02
