  Pressure (Pa) 22mC5-500 (mol/kg) 23mC5-500 (mol/kg) 24mC5-500 (mol/kg) 2mC6-500 (mol/kg) C7-500 (mol/kg)
    0.1000000000E+01    0.4471099960E-05    0.4492624941E-05    0.1266277542E+00    0.2878521769E-05    0.4212030411E-02
    0.3000000000E+01    0.9231852621E-05    0.9249480758E-05    0.2785007869E+00    0.5660585229E-05    0.4274683387E-02
    0.5000000000E+01    0.1162095836E-04    0.1161995346E-04    0.3663879428E+00    0.6927453748E-05    0.4310549733E-02
    0.7000000000E+01    0.1300464688E-04    0.1298526874E-04    0.4236904798E+00    0.7638621153E-05    0.4334308701E-02
    0.9000000000E+01    0.1389472682E-04    0.1386060789E-04    0.4640074744E+00    0.8120089596E-05    0.4351343769E-02
    0.1100000000E+02    0.1451905994E-04    0.1447427511E-04    0.4939164217E+00    0.8502057313E-05    0.4364229062E-02
    0.1300000000E+02    0.1499124488E-04    0.1493952388E-04    0.5169869492E+00    0.8841902998E-05    0.4374362388E-02
    0.1500000000E+02    0.1537264122E-04    0.1531719744E-04    0.5353237850E+00    0.9166475204E-05    0.4382571366E-02
    0.1700000000E+02    0.1569841882E-04    0.1564196359E-04    0.5502482940E+00    0.9488712633E-05    0.4389378520E-02
    0.1900000000E+02    0.1598966742E-04    0.1593447472E-04    0.5626319068E+00    0.9814834318E-05    0.4395130648E-02
    0.2100000000E+02    0.1625948162E-04    0.1620745924E-04    0.5730726042E+00    0.1014768139E-04    0.4400067329E-02
    0.2300000000E+02    0.1651621297E-04    0.1646896659E-04    0.5819943745E+00    0.1048835709E-04    0.4404359621E-02
    0.2500000000E+02    0.1676529720E-04    0.1672418424E-04    0.5897062053E+00    0.1083706545E-04    0.4408133069E-02
    0.2700000000E+02    0.1701032420E-04    0.1697649793E-04    0.5964385975E+00    0.1119355321E-04    0.4411482003E-02
    0.2900000000E+02    0.1725368673E-04    0.1722813187E-04    0.6023669989E+00    0.1155734740E-04    0.4414478741E-02
    0.3100000000E+02    0.1749698537E-04    0.1748054689E-04    0.6076273137E+00    0.1192788411E-04    0.4417179707E-02
    0.3300000000E+02    0.1774128788E-04    0.1773469422E-04    0.6123264494E+00    0.1230457817E-04    0.4419629609E-02
    0.3500000000E+02    0.1798729875E-04    0.1799118068E-04    0.6165496586E+00    0.1268685979E-04    0.4421864357E-02
    0.3700000000E+02    0.1823547227E-04    0.1825037826E-04    0.6203657577E+00    0.1307419301E-04    0.4423913146E-02
    0.3900000000E+02    0.1848608912E-04    0.1851249791E-04    0.6238309059E+00    0.1346608364E-04    0.4425799976E-02
    0.4100000000E+02    0.1873930893E-04    0.1877763989E-04    0.6269913870E+00    0.1386208156E-04    0.4427544767E-02
    0.4300000000E+02    0.1899520682E-04    0.1904582851E-04    0.6298856890E+00    0.1426177983E-04    0.4429164203E-02
    0.4500000000E+02    0.1925379901E-04    0.1931703636E-04    0.6325460790E+00    0.1466481225E-04    0.4430672369E-02
    0.4700000000E+02    0.1951506101E-04    0.1959120126E-04    0.6349998113E+00    0.1507085016E-04    0.4432081250E-02
    0.4900000000E+02    0.1977894050E-04    0.1986823825E-04    0.6372700644E+00    0.1547959899E-04    0.4433401109E-02
    0.1000000000E+02    0.1423132460E-04    0.1419137704E-04    0.4799936746E+00    0.8318905140E-05    0.4358199794E-02
    0.3000000000E+02    0.1737526714E-04    0.1735417262E-04    0.6050734043E+00    0.1174180956E-04    0.4415863166E-02
    0.5000000000E+02    0.1991184018E-04    0.2000780313E-04    0.6383426991E+00    0.1568490641E-04    0.4434030467E-02
    0.7000000000E+02    0.2268623863E-04    0.2292362599E-04    0.6537476915E+00    0.1988248494E-04    0.4443563378E-02
    0.9000000000E+02    0.2562502082E-04    0.2601174418E-04    0.6626313472E+00    0.2417443658E-04    0.4449615282E-02
    0.1100000000E+03    0.2866736205E-04    0.2920618566E-04    0.6684111129E+00    0.2850243881E-04    0.4453855915E-02
    0.1300000000E+03    0.3177732924E-04    0.3246908485E-04    0.6724716884E+00    0.3284297208E-04    0.4457008110E-02
    0.1500000000E+03    0.3493356230E-04    0.3577828903E-04    0.6754807554E+00    0.3718597640E-04    0.4459442478E-02
    0.1700000000E+03    0.3812289122E-04    0.3912029872E-04    0.6777998861E+00    0.4152718356E-04    0.4461371599E-02
    0.1900000000E+03    0.4133690115E-04    0.4248657484E-04    0.6796419293E+00    0.4586500835E-04    0.4462927583E-02
    0.2100000000E+03    0.4457005322E-04    0.4587154990E-04    0.6811403471E+00    0.5019916554E-04    0.4464197626E-02
    0.2300000000E+03    0.4781861513E-04    0.4927150844E-04    0.6823830688E+00    0.5453001060E-04    0.4465242036E-02
    0.2500000000E+03    0.5108002748E-04    0.5268392895E-04    0.6834303829E+00    0.5885820907E-04    0.4466104126E-02
    0.2700000000E+03    0.5435251414E-04    0.5610708212E-04    0.6843250065E+00    0.6318456500E-04    0.4466815967E-02
    0.2900000000E+03    0.5763483477E-04    0.5953977712E-04    0.6850980522E+00    0.6750993014E-04    0.4467401925E-02
    0.3100000000E+03    0.6092612306E-04    0.6298119670E-04    0.6857727179E+00    0.7183515573E-04    0.4467880917E-02
    0.3300000000E+03    0.6422577845E-04    0.6643078727E-04    0.6863666532E+00    0.7616106743E-04    0.4468267900E-02
    0.3500000000E+03    0.6753339191E-04    0.6988818408E-04    0.6868935242E+00    0.8048845299E-04    0.4468574896E-02
    0.3700000000E+03    0.7084869424E-04    0.7335315920E-04    0.6873640777E+00    0.8481805713E-04    0.4468811703E-02
    0.3900000000E+03    0.7417151935E-04    0.7682558482E-04    0.6877868807E+00    0.8915058035E-04    0.4468986402E-02
    0.4100000000E+03    0.7750177783E-04    0.8030540702E-04    0.6881688470E+00    0.9348667990E-04    0.4469105735E-02
    0.4300000000E+03    0.8083943772E-04    0.8379262659E-04    0.6885156169E+00    0.9782697200E-04    0.4469175381E-02
    0.4500000000E+03    0.8418451025E-04    0.8728728512E-04    0.6888318381E+00    0.1021720344E-03    0.4469200166E-02
    0.4700000000E+03    0.8753703929E-04    0.9078945458E-04    0.6891213744E+00    0.1065224094E-03    0.4469184222E-02
    0.4900000000E+03    0.9089709335E-04    0.9429922959E-04    0.6893874645E+00    0.1108786066E-03    0.4469131114E-02
    0.1000000000E+03    0.2713593724E-04    0.2759852586E-04    0.6657978264E+00    0.2633586174E-04    0.4451904839E-02
    0.3000000000E+03    0.5927940072E-04    0.6125943610E-04    0.6854464708E+00    0.6967250799E-04    0.4467653778E-02
    0.5000000000E+03    0.9257996891E-04    0.9605700346E-04    0.6895125890E+00    0.1130590394E-03    0.4469091606E-02
    0.7000000000E+03    0.1266595539E-03    0.1316438747E-03    0.6912683105E+00    0.1570766852E-03    0.4466925334E-02
    0.9000000000E+03    0.1616328756E-03    0.1681523857E-03    0.6922465800E+00    0.2020919233E-03    0.4462999279E-02
    0.1100000000E+04    0.1976299120E-03    0.2057230896E-03    0.6928698980E+00    0.2483483096E-03    0.4457956004E-02
    0.1300000000E+04    0.2347714089E-03    0.2444843586E-03    0.6933016145E+00    0.2960353298E-03    0.4452086570E-02
    0.1500000000E+04    0.2731713483E-03    0.2845564425E-03    0.6936181971E+00    0.3453173832E-03    0.4445541497E-02
    0.1700000000E+04    0.3129409130E-03    0.3260561551E-03    0.6938602114E+00    0.3963477782E-03    0.4438403791E-02
    0.1900000000E+04    0.3541916209E-03    0.3691003832E-03    0.6940511756E+00    0.4492764378E-03    0.4430719664E-02
    0.2100000000E+04    0.3970376956E-03    0.4138086782E-03    0.6942056633E+00    0.5042546708E-03    0.4422513220E-02
    0.2300000000E+04    0.4415979433E-03    0.4603052766E-03    0.6943331855E+00    0.5614384709E-03    0.4413794163E-02
    0.2500000000E+04    0.4879973369E-03    0.5087207897E-03    0.6944402133E+00    0.6209910461E-03    0.4404562095E-02
    0.2700000000E+04    0.5363684476E-03    0.5591937183E-03    0.6945313021E+00    0.6830849496E-03    0.4394809035E-02
    0.2900000000E+04    0.5868528136E-03    0.6118718954E-03    0.6946097511E+00    0.7479040226E-03    0.4384520918E-02
    0.3100000000E+04    0.6396023123E-03    0.6669139271E-03    0.6946780090E+00    0.8156452794E-03    0.4373678505E-02
    0.3300000000E+04    0.6947805841E-03    0.7244906849E-03    0.6947379308E+00    0.8865208236E-03    0.4362257890E-02
    0.3500000000E+04    0.7525645473E-03    0.7847868913E-03    0.6947909474E+00    0.9607598614E-03    0.4350230770E-02
    0.3700000000E+04    0.8131460398E-03    0.8480028372E-03    0.6948381805E+00    0.1038610864E-02    0.4337564523E-02
    0.3900000000E+04    0.8767336208E-03    0.9143562644E-03    0.6948805217E+00    0.1120343932E-02    0.4324222148E-02
    0.4100000000E+04    0.9435545657E-03    0.9840844503E-03    0.6949186884E+00    0.1206253401E-02    0.4310162103E-02
    0.4300000000E+04    0.1013857090E-02    0.1057446532E-02    0.6949532645E+00    0.1296660746E-02    0.4295338044E-02
    0.4500000000E+04    0.1087912843E-02    0.1134726108E-02    0.6949847302E+00    0.1391917831E-02    0.4279698469E-02
    0.4700000000E+04    0.1166019708E-02    0.1216234169E-02    0.6950134836E+00    0.1492410561E-02    0.4263186292E-02
    0.4900000000E+04    0.1248504965E-02    0.1302312393E-02    0.6950398579E+00    0.1598563001E-02    0.4245738317E-02
    0.1000000000E+04    0.1794956744E-03    0.1867966877E-03    0.6925893485E+00    0.2250523096E-03    0.4460594435E-02
    0.3000000000E+04    0.6129344868E-03    0.6390870555E-03    0.6946450265E+00    0.7813964981E-03    0.4379170387E-02
    0.5000000000E+04    0.1291500674E-02    0.1347181393E-02    0.6950522425E+00    0.1653905700E-02    0.4236641838E-02
    0.7000000000E+04    0.2497247851E-02    0.2605570539E-02    0.6952246098E+00    0.3208304728E-02    0.3983021025E-02
    0.9000000000E+04    0.5008413582E-02    0.5226873784E-02    0.6953191087E+00    0.6456144941E-02    0.3469615472E-02
    0.1100000000E+05    0.1089689452E-01    0.1137557898E-01    0.6953784199E+00    0.1411218297E-01    0.2336765069E-02
    0.1300000000E+05    0.1965526475E-01    0.2052792933E-01    0.6954189000E+00    0.2564090142E-01    0.8826742124E-03
    0.1500000000E+05    0.2408138465E-01    0.2516439214E-01    0.6954481529E+00    0.3169746252E-01    0.4495121724E-03
    0.1700000000E+05    0.2637347650E-01    0.2757487419E-01    0.6954701884E+00    0.3502966383E-01    0.4040915219E-03
    0.1900000000E+05    0.2824655549E-01    0.2954929310E-01    0.6954873183E+00    0.3784954376E-01    0.4019395908E-03
    0.2100000000E+05    0.2993821365E-01    0.3133550793E-01    0.6955009679E+00    0.4046145183E-01    0.4037123536E-03
    0.2300000000E+05    0.3148872543E-01    0.3297534065E-01    0.6955120626E+00    0.4291312631E-01    0.4057098307E-03
    0.2500000000E+05    0.3291575406E-01    0.3448702976E-01    0.6955212292E+00    0.4522340504E-01    0.4075903883E-03
    0.2700000000E+05    0.3423270028E-01    0.3588439577E-01    0.6955289067E+00    0.4740621295E-01    0.4093384610E-03
    0.2900000000E+05    0.3545095138E-01    0.3717918544E-01    0.6955354116E+00    0.4947341227E-01    0.4109686875E-03
    0.3100000000E+05    0.3658038074E-01    0.3838158852E-01    0.6955409778E+00    0.5143536010E-01    0.4124959358E-03
    0.3300000000E+05    0.3762960663E-01    0.3950050384E-01    0.6955457815E+00    0.5330116581E-01    0.4139327102E-03
    0.3500000000E+05    0.3860618633E-01    0.4054373861E-01    0.6955499582E+00    0.5507887874E-01    0.4152893902E-03
    0.3700000000E+05    0.3951677369E-01    0.4151817021E-01    0.6955536135E+00    0.5677564057E-01    0.4165746579E-03
    0.3900000000E+05    0.4036724929E-01    0.4242987984E-01    0.6955568309E+00    0.5839781152E-01    0.4177958458E-03
    0.4100000000E+05    0.4116282879E-01    0.4328426386E-01    0.6955596775E+00    0.5995107598E-01    0.4189592036E-03
    0.4300000000E+05    0.4190815358E-01    0.4408612692E-01    0.6955622074E+00    0.6144053124E-01    0.4200701016E-03
    0.4500000000E+05    0.4260736711E-01    0.4483976040E-01    0.6955644650E+00    0.6287076257E-01    0.4211331893E-03
    0.4700000000E+05    0.4326417937E-01    0.4554900873E-01    0.6955664870E+00    0.6424590696E-01    0.4221525192E-03
    0.4900000000E+05    0.4388192166E-01    0.4621732571E-01    0.6955683039E+00    0.6556970751E-01    0.4231316456E-03
    0.1000000000E+05    0.7346562004E-02    0.7668037003E-02    0.6953518325E+00    0.9489761868E-02    0.3008416441E-02
    0.3000000000E+05    0.3602620320E-01    0.3779135142E-01    0.6955382999E+00    0.5046694645E-01    0.4117443474E-03
    0.5000000000E+05    0.4417709067E-01    0.4653711941E-01    0.6955691436E+00    0.6621342745E-01    0.4236071264E-03
    0.7000000000E+05    0.4861910120E-01    0.5139655690E-01    0.6955796497E+00    0.7707043966E-01    0.4316042080E-03
    0.9000000000E+05    0.5126652497E-01    0.5435926464E-01    0.6955839666E+00    0.8526807446E-01    0.4376746692E-03
    0.1100000000E+06    0.5292653896E-01    0.5626888585E-01    0.6955857365E+00    0.9182361099E-01    0.4425826367E-03
    0.1300000000E+06    0.5399461727E-01    0.5754113666E-01    0.6955862787E+00    0.9727541510E-01    0.4467101232E-03
    0.1500000000E+06    0.5468549990E-01    0.5840308351E-01    0.6955861710E+00    0.1019389514E+00    0.4502762330E-03
    0.1700000000E+06    0.5512487546E-01    0.5898844200E-01    0.6955856993E+00    0.1060133517E+00    0.4534185655E-03
    0.1900000000E+06    0.5539064183E-01    0.5938061011E-01    0.6955850174E+00    0.1096316609E+00    0.4562293152E-03
    0.2100000000E+06    0.5553330139E-01    0.5963401228E-01    0.6955842134E+00    0.1128868399E+00    0.4587733363E-03
    0.2300000000E+06    0.5558680598E-01    0.5978548868E-01    0.6955833397E+00    0.1158462357E+00    0.4610980171E-03
    0.2500000000E+06    0.5557467166E-01    0.5986073947E-01    0.6955824290E+00    0.1185601165E+00    0.4632390570E-03
    0.2700000000E+06    0.5551359619E-01    0.5987815102E-01    0.6955815019E+00    0.1210669522E+00    0.4652240322E-03
    0.2900000000E+06    0.5541568695E-01    0.5985116109E-01    0.6955805717E+00    0.1233968160E+00    0.4670746950E-03
    0.3100000000E+06    0.5528988073E-01    0.5978977173E-01    0.6955796469E+00    0.1255736495E+00    0.4688085124E-03
    0.3300000000E+06    0.5514287539E-01    0.5970154592E-01    0.6955787331E+00    0.1276168175E+00    0.4704397258E-03
    0.3500000000E+06    0.5497975706E-01    0.5959228110E-01    0.6955778339E+00    0.1295422018E+00    0.4719801027E-03
    0.3700000000E+06    0.5480443188E-01    0.5946647466E-01    0.6955769515E+00    0.1313629876E+00    0.4734394800E-03
    0.3900000000E+06    0.5461992906E-01    0.5932765212E-01    0.6955760873E+00    0.1330902414E+00    0.4748261664E-03
    0.4100000000E+06    0.5442861746E-01    0.5917860260E-01    0.6955752418E+00    0.1347333419E+00    0.4761472443E-03
    0.4300000000E+06    0.5423236280E-01    0.5902155048E-01    0.6955744154E+00    0.1363003073E+00    0.4774088008E-03
    0.4500000000E+06    0.5403264328E-01    0.5885828226E-01    0.6955736080E+00    0.1377980468E+00    0.4786161066E-03
    0.4700000000E+06    0.5383063590E-01    0.5869024168E-01    0.6955728194E+00    0.1392325568E+00    0.4797737565E-03
    0.4900000000E+06    0.5362728148E-01    0.5851860169E-01    0.6955720492E+00    0.1406090757E+00    0.4808857803E-03
    0.1000000000E+06    0.5218934581E-01    0.5541358506E-01    0.6955850610E+00    0.8871034274E-01    0.4402447761E-03
    0.3000000000E+06    0.5535580839E-01    0.5982424561E-01    0.6955801082E+00    0.1245030586E+00    0.4679552537E-03
    0.5000000000E+06    0.5352534099E-01    0.5843173828E-01    0.6955716708E+00    0.1412770489E+00    0.4814258097E-03
    0.7000000000E+06    0.5153519685E-01    0.5666305414E-01    0.6955649405E+00    0.1524655728E+00    0.4905094637E-03
    0.9000000000E+06    0.4974174296E-01    0.5499690294E-01    0.6955594602E+00    0.1608976654E+00    0.4974056448E-03
    0.1100000000E+07    0.4816013375E-01    0.5349260892E-01    0.6955548543E+00    0.1676682891E+00    0.5029816212E-03
    0.1300000000E+07    0.4676095488E-01    0.5214104335E-01    0.6955508845E+00    0.1733220550E+00    0.5076711075E-03
    0.1500000000E+07    0.4551311179E-01    0.5092183569E-01    0.6955473959E+00    0.1781712463E+00    0.5117229089E-03
    0.1700000000E+07    0.4439063403E-01    0.4981524052E-01    0.6955442834E+00    0.1824123071E+00    0.5152932979E-03
    0.1900000000E+07    0.4337285407E-01    0.4880445403E-01    0.6955414727E+00    0.1861771676E+00    0.5184869900E-03
    0.2100000000E+07    0.4244343396E-01    0.4787566027E-01    0.6955389096E+00    0.1895588619E+00    0.5213776519E-03
    0.2300000000E+07    0.4158937950E-01    0.4701757716E-01    0.6955365532E+00    0.1926255270E+00    0.5240191146E-03
    0.2500000000E+07    0.4080024985E-01    0.4622096321E-01    0.6955343721E+00    0.1954285984E+00    0.5264519323E-03
    0.2700000000E+07    0.4006756095E-01    0.4547819631E-01    0.6955323415E+00    0.1980078776E+00    0.5287074326E-03
    0.2900000000E+07    0.3938434187E-01    0.4478293826E-01    0.6955304415E+00    0.2003948059E+00    0.5308103278E-03
    0.3100000000E+07    0.3874480469E-01    0.4412987388E-01    0.6955286560E+00    0.2026146591E+00    0.5327804617E-03
    0.3300000000E+07    0.3814409679E-01    0.4351450915E-01    0.6955269717E+00    0.2046880636E+00    0.5346340146E-03
    0.3500000000E+07    0.3757811325E-01    0.4293301461E-01    0.6955253774E+00    0.2066320724E+00    0.5363843558E-03
    0.3700000000E+07    0.3704335316E-01    0.4238210323E-01    0.6955238638E+00    0.2084609466E+00    0.5380426617E-03
    0.3900000000E+07    0.3653680827E-01    0.4185893439E-01    0.6955224229E+00    0.2101867330E+00    0.5396183722E-03
    0.4100000000E+07    0.3605587586E-01    0.4136103778E-01    0.6955210479E+00    0.2118197001E+00    0.5411195344E-03
    0.4300000000E+07    0.3559828987E-01    0.4088625256E-01    0.6955197329E+00    0.2133686716E+00    0.5425530643E-03
    0.4500000000E+07    0.3516206585E-01    0.4043267840E-01    0.6955184728E+00    0.2148412845E+00    0.5439249508E-03
    0.4700000000E+07    0.3474545667E-01    0.3999863568E-01    0.6955172630E+00    0.2162441927E+00    0.5452404142E-03
    0.4900000000E+07    0.3434691649E-01    0.3958263292E-01    0.6955160995E+00    0.2175832285E+00    0.5465040335E-03
    0.1000000000E+07    0.4892607457E-01    0.5422455377E-01    0.6955570653E+00    0.1644490306E+00    0.5003255219E-03
    0.3000000000E+07    0.3905943581E-01    0.4445142996E-01    0.6955295354E+00    0.2015242332E+00    0.5318109041E-03
    0.5000000000E+07    0.3415398689E-01    0.3938097520E-01    0.6955155340E+00    0.2182304245E+00    0.5471176824E-03
    0.7000000000E+07    0.3097872264E-01    0.3603661646E-01    0.6955059847E+00    0.2288001663E+00    0.5574397119E-03
    0.9000000000E+07    0.2867254775E-01    0.3357783466E-01    0.6954986963E+00    0.2364003505E+00    0.5652760890E-03
    0.1100000000E+08    0.2688435655E-01    0.3165406059E-01    0.6954927848E+00    0.2422614126E+00    0.5716122828E-03
    0.1300000000E+08    0.2543757336E-01    0.3008644178E-01    0.6954878031E+00    0.2469877698E+00    0.5769411281E-03
    0.1500000000E+08    0.2423137810E-01    0.2877178080E-01    0.6954834926E+00    0.2509197270E+00    0.5815453481E-03
    0.1700000000E+08    0.2320303811E-01    0.2764533301E-01    0.6954796901E+00    0.2542670735E+00    0.5856025197E-03
    0.1900000000E+08    0.2231100643E-01    0.2666392629E-01    0.6954762860E+00    0.2571678399E+00    0.5892316348E-03
    0.2100000000E+08    0.2152642850E-01    0.2579740383E-01    0.6954732028E+00    0.2597174233E+00    0.5925164037E-03
    0.2300000000E+08    0.2082850012E-01    0.2502391337E-01    0.6954703840E+00    0.2619843488E+00    0.5955179967E-03
    0.2500000000E+08    0.2020175979E-01    0.2432714260E-01    0.6954677866E+00    0.2640193943E+00    0.5982824971E-03
    0.2700000000E+08    0.1963442500E-01    0.2369461149E-01    0.6954653776E+00    0.2658611645E+00    0.6008455040E-03
