  Pressure (Pa) 22mC5-500 (mol/kg) 23mC5-500 (mol/kg) 24mC5-500 (mol/kg) 2mC6-500 (mol/kg) C7-500 (mol/kg)
    0.1000000000E+01    0.4741662134E-05    0.3405005509E-05    0.9949586574E-01    0.1850140854E-04    0.4194503586E-02
    0.3000000000E+01    0.1048802287E-04    0.7513314168E-05    0.2320921342E+00    0.3923356306E-04    0.4244654664E-02
    0.5000000000E+01    0.1375877058E-04    0.9838982537E-05    0.3164352093E+00    0.5008318463E-04    0.4274906299E-02
    0.7000000000E+01    0.1581090251E-04    0.1129119004E-04    0.3748114061E+00    0.5653636325E-04    0.4295850048E-02
    0.9000000000E+01    0.1719470740E-04    0.1226671747E-04    0.4176134807E+00    0.6083553346E-04    0.4311307135E-02
    0.1100000000E+02    0.1818426114E-04    0.1296254715E-04    0.4503408266E+00    0.6401862845E-04    0.4323219662E-02
    0.1300000000E+02    0.1892877218E-04    0.1348555217E-04    0.4761762193E+00    0.6660730621E-04    0.4332699193E-02
    0.1500000000E+02    0.1951499798E-04    0.1389765007E-04    0.4970894563E+00    0.6887939414E-04    0.4340431886E-02
    0.1700000000E+02    0.1999600608E-04    0.1423656948E-04    0.5143649465E+00    0.7098904226E-04    0.4346865534E-02
    0.1900000000E+02    0.2040558418E-04    0.1452623393E-04    0.5288759608E+00    0.7302416346E-04    0.4352305359E-02
    0.2100000000E+02    0.2076595121E-04    0.1478230679E-04    0.5412369537E+00    0.7503567189E-04    0.4356966858E-02
    0.2300000000E+02    0.2109210930E-04    0.1501531398E-04    0.5518928345E+00    0.7705313017E-04    0.4361006687E-02
    0.2500000000E+02    0.2139441048E-04    0.1523248150E-04    0.5611736737E+00    0.7909347031E-04    0.4364541564E-02
    0.2700000000E+02    0.2168012747E-04    0.1543885729E-04    0.5693295098E+00    0.8116601820E-04    0.4367660307E-02
    0.2900000000E+02    0.2195444576E-04    0.1563801814E-04    0.5765532206E+00    0.8327546826E-04    0.4370431749E-02
    0.3100000000E+02    0.2222110741E-04    0.1583252721E-04    0.5829959747E+00    0.8542368382E-04    0.4372910094E-02
    0.3300000000E+02    0.2248283884E-04    0.1602423722E-04    0.5887779278E+00    0.8761080599E-04    0.4375138633E-02
    0.3500000000E+02    0.2274164100E-04    0.1621449561E-04    0.5939957881E+00    0.8983594587E-04    0.4377152378E-02
    0.3700000000E+02    0.2299898984E-04    0.1640428582E-04    0.5987282699E+00    0.9209762050E-04    0.4378979967E-02
    0.3900000000E+02    0.2325597702E-04    0.1659432613E-04    0.6030400927E+00    0.9439402878E-04    0.4380645059E-02
    0.4100000000E+02    0.2351341017E-04    0.1678513991E-04    0.6069849590E+00    0.9672322588E-04    0.4382167386E-02
    0.4300000000E+02    0.2377188517E-04    0.1697710610E-04    0.6106078032E+00    0.9908323277E-04    0.4383563535E-02
    0.4500000000E+02    0.2403183897E-04    0.1717049588E-04    0.6139465106E+00    0.1014721038E-03    0.4384847561E-02
    0.4700000000E+02    0.2429358846E-04    0.1736549968E-04    0.6170332479E+00    0.1038879669E-03    0.4386031457E-02
    0.4900000000E+02    0.2455735941E-04    0.1756224713E-04    0.6198955025E+00    0.1063290468E-03    0.4387125518E-02
    0.1000000000E+02    0.1772748374E-04    0.1264150525E-04    0.4350002529E+00    0.6252617166E-04    0.4317623843E-02
    0.3000000000E+02    0.2208854340E-04    0.1573572448E-04    0.5798640816E+00    0.8434469084E-04    0.4371704632E-02
    0.5000000000E+02    0.2469005406E-04    0.1766130236E-04    0.6212499650E+00    0.1075585174E-03    0.4387641689E-02
    0.7000000000E+02    0.2746640711E-04    0.1974030957E-04    0.6408542602E+00    0.1331268021E-03    0.4394882286E-02
    0.9000000000E+02    0.3045656341E-04    0.2198375948E-04    0.6522903186E+00    0.1599427686E-03    0.4398619371E-02
    0.1100000000E+03    0.3361283648E-04    0.2435161653E-04    0.6597829680E+00    0.1874995269E-03    0.4400547441E-02
    0.1300000000E+03    0.3689687221E-04    0.2681397245E-04    0.6650718864E+00    0.2155610706E-03    0.4401396882E-02
    0.1500000000E+03    0.4028283714E-04    0.2935120212E-04    0.6690046325E+00    0.2440110565E-03    0.4401538879E-02
    0.1700000000E+03    0.4375359651E-04    0.3195048500E-04    0.6720435227E+00    0.2727901736E-03    0.4401183999E-02
    0.1900000000E+03    0.4729765183E-04    0.3460331269E-04    0.6744621787E+00    0.3018682894E-03    0.4400461491E-02
    0.2100000000E+03    0.5090717222E-04    0.3730394467E-04    0.6764328842E+00    0.3312310848E-03    0.4399455540E-02
    0.2300000000E+03    0.5457676446E-04    0.4004846231E-04    0.6780695233E+00    0.3608732113E-03    0.4398223563E-02
    0.2500000000E+03    0.5830269601E-04    0.4283417870E-04    0.6794503923E+00    0.3907945969E-03    0.4396806191E-02
    0.2700000000E+03    0.6208239341E-04    0.4565926124E-04    0.6806310935E+00    0.4209983647E-03    0.4395233042E-02
    0.2900000000E+03    0.6591411096E-04    0.4852248407E-04    0.6816522019E+00    0.4514896176E-03    0.4393526252E-02
    0.3100000000E+03    0.6979670669E-04    0.5142306183E-04    0.6825440205E+00    0.4822747092E-03    0.4391702698E-02
    0.3300000000E+03    0.7372948775E-04    0.5436053538E-04    0.6833296376E+00    0.5133607981E-03    0.4389775478E-02
    0.3500000000E+03    0.7771210170E-04    0.5733469189E-04    0.6840269528E+00    0.5447555693E-03    0.4387754895E-02
    0.3700000000E+03    0.8174445860E-04    0.6034550787E-04    0.6846500577E+00    0.5764670603E-03    0.4385649158E-02
    0.3900000000E+03    0.8582667455E-04    0.6339310789E-04    0.6852101968E+00    0.6085035512E-03    0.4383464869E-02
    0.4100000000E+03    0.8995902998E-04    0.6647773440E-04    0.6857164524E+00    0.6408734971E-03    0.4381207380E-02
    0.4300000000E+03    0.9414193863E-04    0.6959972518E-04    0.6861762402E+00    0.6735854856E-03    0.4378881058E-02
    0.4500000000E+03    0.9837592416E-04    0.7275949657E-04    0.6865956750E+00    0.7066482135E-03    0.4376489483E-02
    0.4700000000E+03    0.1026616024E-03    0.7595753065E-04    0.6869798437E+00    0.7400704738E-03    0.4374035599E-02
    0.4900000000E+03    0.1069996678E-03    0.7919436551E-04    0.6873330129E+00    0.7738611507E-03    0.4371521826E-02
    0.1000000000E+03    0.3201666667E-04    0.2315429066E-04    0.6563900680E+00    0.1736472358E-03    0.4399751647E-02
    0.3000000000E+03    0.6784910143E-04    0.4996813886E-04    0.6821126880E+00    0.4668450011E-03    0.4392628177E-02
    0.5000000000E+03    0.1091885815E-03    0.8082751485E-04    0.6874991215E+00    0.7908974466E-03    0.4370243119E-02
    0.7000000000E+03    0.1559350055E-03    0.1156934622E-03    0.6898325124E+00    0.1153228414E-02    0.4341844062E-02
    0.9000000000E+03    0.2091119749E-03    0.1553404589E-03    0.6911349388E+00    0.1563601524E-02    0.4308253683E-02
    0.1100000000E+04    0.2701439726E-03    0.2008350077E-03    0.6919658026E+00    0.2033690339E-02    0.4269090868E-02
    0.1300000000E+04    0.3408867153E-03    0.2535627004E-03    0.6925418129E+00    0.2578138629E-02    0.4223449545E-02
    0.1500000000E+04    0.4237683431E-03    0.3153348467E-03    0.6929645466E+00    0.3215876244E-02    0.4169984091E-02
    0.1700000000E+04    0.5220092509E-03    0.3885529093E-03    0.6932879392E+00    0.3971904088E-02    0.4106841706E-02
    0.1900000000E+04    0.6399448524E-03    0.4764494207E-03    0.6935432829E+00    0.4879836366E-02    0.4031507341E-02
    0.2100000000E+04    0.7834973580E-03    0.5834399362E-03    0.6937499795E+00    0.5985589932E-02    0.3940560109E-02
    0.2300000000E+04    0.9608610131E-03    0.7156341930E-03    0.6939206977E+00    0.7352739699E-02    0.3829320863E-02
    0.2500000000E+04    0.1183471829E-02    0.8815595772E-03    0.6940640604E+00    0.9070114530E-02    0.3691372682E-02
    0.2700000000E+04    0.1467281091E-02    0.1093111527E-02    0.6941861399E+00    0.1126182538E-01    0.3517984232E-02
    0.2900000000E+04    0.1834094032E-02    0.1366553448E-02    0.6942913361E+00    0.1409795585E-01    0.3297649375E-02
    0.3100000000E+04    0.2311879676E-02    0.1722751275E-02    0.6943829149E+00    0.1779756978E-01    0.3016494628E-02
    0.3300000000E+04    0.2930773169E-02    0.2184199079E-02    0.6944633514E+00    0.2259876405E-01    0.2661546041E-02
    0.3500000000E+04    0.3708031381E-02    0.2763810081E-02    0.6945345557E+00    0.2864333632E-01    0.2230453877E-02
    0.3700000000E+04    0.4617202197E-02    0.3441930738E-02    0.6945980250E+00    0.3573785760E-01    0.1748831565E-02
    0.3900000000E+04    0.5562609225E-02    0.4147293125E-02    0.6946549498E+00    0.4315174793E-01    0.1280292538E-02
    0.4100000000E+04    0.6413430173E-02    0.4782376989E-02    0.6947062884E+00    0.4987370369E-01    0.8993895543E-03
    0.4300000000E+04    0.7090143280E-02    0.5287847607E-02    0.6947528209E+00    0.5527950780E-01    0.6410024386E-03
    0.4500000000E+04    0.7598000405E-02    0.5667553299E-02    0.6947951886E+00    0.5939849359E-01    0.4891803270E-03
    0.4700000000E+04    0.7984727885E-02    0.5957028206E-02    0.6948339239E+00    0.6259235779E-01    0.4079678915E-03
    0.4900000000E+04    0.8296808603E-02    0.6190903636E-02    0.6948694722E+00    0.6521726767E-01    0.3668360861E-03
    0.1000000000E+04    0.2385415130E-03    0.1772786549E-03    0.6915917320E+00    0.1790349581E-02    0.4289415240E-02
    0.3000000000E+04    0.2057181182E-02    0.1532864639E-02    0.6943386575E+00    0.1582462176E-01    0.3165578644E-02
    0.5000000000E+04    0.8435188542E-02    0.6294691360E-02    0.6948861709E+00    0.6639588082E-01    0.3549429325E-03
    0.7000000000E+04    0.1050485983E-01    0.7852016298E-02    0.6951191328E+00    0.8491178022E-01    0.3321449346E-03
    0.9000000000E+04    0.1206494112E-01    0.9032002412E-02    0.6952475157E+00    0.9997678546E-01    0.3368193245E-03
    0.1100000000E+05    0.1329275162E-01    0.9965610636E-02    0.6953285205E+00    0.1127571064E+00    0.3406173631E-03
    0.1300000000E+05    0.1427085503E-01    0.1071361471E-01    0.6953841071E+00    0.1237578559E+00    0.3438083671E-03
    0.1500000000E+05    0.1505746564E-01    0.1131892946E-01    0.6954245015E+00    0.1333433994E+00    0.3465634983E-03
    0.1700000000E+05    0.1569471392E-01    0.1181266136E-01    0.6954551049E+00    0.1417836702E+00    0.3489900169E-03
    0.1900000000E+05    0.1621375470E-01    0.1221784997E-01    0.6954790365E+00    0.1492830547E+00    0.3511596616E-03
    0.2100000000E+05    0.1663806015E-01    0.1255188194E-01    0.6954982226E+00    0.1559992622E+00    0.3531228283E-03
    0.2300000000E+05    0.1698560473E-01    0.1282809395E-01    0.6955139159E+00    0.1620560137E+00    0.3549163020E-03
    0.2500000000E+05    0.1727035174E-01    0.1305686433E-01    0.6955269664E+00    0.1675517935E+00    0.3565677705E-03
    0.2700000000E+05    0.1750328724E-01    0.1324637298E-01    0.6955379703E+00    0.1725660199E+00    0.3580986062E-03
    0.2900000000E+05    0.1769315360E-01    0.1340314091E-01    0.6955473582E+00    0.1771634836E+00    0.3595256583E-03
    0.3100000000E+05    0.1784697892E-01    0.1353242013E-01    0.6955554487E+00    0.1813975966E+00    0.3608624494E-03
    0.3300000000E+05    0.1797046533E-01    0.1363847982E-01    0.6955624827E+00    0.1853128081E+00    0.3621200007E-03
    0.3500000000E+05    0.1806827780E-01    0.1372481939E-01    0.6955686452E+00    0.1889464274E+00    0.3633074152E-03
    0.3700000000E+05    0.1814426180E-01    0.1379432920E-01    0.6955740810E+00    0.1923300169E+00    0.3644323002E-03
    0.3900000000E+05    0.1820160918E-01    0.1384941320E-01    0.6955789047E+00    0.1954904701E+00    0.3655010791E-03
    0.4100000000E+05    0.1824298610E-01    0.1389208357E-01    0.6955832084E+00    0.1984508535E+00    0.3665192261E-03
    0.4300000000E+05    0.1827063252E-01    0.1392403447E-01    0.6955870668E+00    0.2012310723E+00    0.3674914449E-03
    0.4500000000E+05    0.1828644045E-01    0.1394669997E-01    0.6955905411E+00    0.2038484009E+00    0.3684218077E-03
    0.4700000000E+05    0.1829201581E-01    0.1396130006E-01    0.6955936821E+00    0.2063179090E+00    0.3693138636E-03
    0.4900000000E+05    0.1828872797E-01    0.1396887740E-01    0.6955965318E+00    0.2086528072E+00    0.3701707249E-03
    0.1000000000E+05    0.1271452115E-01    0.9525293032E-02    0.6952921551E+00    0.1066169453E+00    0.3388087357E-03
    0.3000000000E+05    0.1777418772E-01    0.1347092954E-01    0.6955515490E+00    0.1793229946E+00    0.3602045968E-03
    0.5000000000E+05    0.1828413353E-01    0.1397031729E-01    0.6955978588E+00    0.2097734681E+00    0.3705868280E-03
    0.7000000000E+05    0.1793732175E-01    0.1379176069E-01    0.6956153516E+00    0.2273253661E+00    0.3775849353E-03
    0.9000000000E+05    0.1738595064E-01    0.1343676494E-01    0.6956237486E+00    0.2390497151E+00    0.3828967898E-03
    0.1100000000E+06    0.1680256810E-01    0.1304262849E-01    0.6956282418E+00    0.2475779493E+00    0.3871912879E-03
    0.1300000000E+06    0.1624027074E-01    0.1265396132E-01    0.6956307577E+00    0.2541353734E+00    0.3908027891E-03
    0.1500000000E+06    0.1571502515E-01    0.1228574415E-01    0.6956321625E+00    0.2593779835E+00    0.3939230500E-03
    0.1700000000E+06    0.1522986805E-01    0.1194222080E-01    0.6956328975E+00    0.2636923300E+00    0.3966724892E-03
    0.1900000000E+06    0.1478318073E-01    0.1162351241E-01    0.6956332080E+00    0.2673227427E+00    0.3991317864E-03
    0.2100000000E+06    0.1437178985E-01    0.1132817521E-01    0.6956332395E+00    0.2704321625E+00    0.4013576939E-03
    0.2300000000E+06    0.1399218388E-01    0.1105425035E-01    0.6956330830E+00    0.2731339511E+00    0.4033916793E-03
    0.2500000000E+06    0.1364098827E-01    0.1079970481E-01    0.6956327973E+00    0.2755097277E+00    0.4052649810E-03
    0.2700000000E+06    0.1331513471E-01    0.1056261224E-01    0.6956324219E+00    0.2776199463E+00    0.4070017290E-03
    0.2900000000E+06    0.1301190199E-01    0.1034121905E-01    0.6956319840E+00    0.2795104633E+00    0.4086209571E-03
    0.3100000000E+06    0.1272890403E-01    0.1013395925E-01    0.6956315026E+00    0.2812167756E+00    0.4101379488E-03
    0.3300000000E+06    0.1246405817E-01    0.9939447223E-02    0.6956309913E+00    0.2827668463E+00    0.4115651655E-03
    0.3500000000E+06    0.1221554826E-01    0.9756461684E-02    0.6956304601E+00    0.2841830424E+00    0.4129129036E-03
    0.3700000000E+06    0.1198178886E-01    0.9583927207E-02    0.6956299162E+00    0.2854834963E+00    0.4141897704E-03
    0.3900000000E+06    0.1176139280E-01    0.9420896028E-02    0.6956293648E+00    0.2866830834E+00    0.4154030358E-03
    0.4100000000E+06    0.1155314286E-01    0.9266531379E-02    0.6956288101E+00    0.2877941370E+00    0.4165588967E-03
    0.4300000000E+06    0.1135596754E-01    0.9120092706E-02    0.6956282549E+00    0.2888269810E+00    0.4176626793E-03
    0.4500000000E+06    0.1116892038E-01    0.8980922816E-02    0.6956277016E+00    0.2897903315E+00    0.4187189953E-03
    0.4700000000E+06    0.1099116253E-01    0.8848436796E-02    0.6956271518E+00    0.2906916051E+00    0.4197318649E-03
    0.4900000000E+06    0.1082194800E-01    0.8722112523E-02    0.6956266067E+00    0.2915371577E+00    0.4207048141E-03
    0.1000000000E+06    0.1709358170E-01    0.1324072700E-01    0.6956263252E+00    0.2436178193E+00    0.3851456602E-03
    0.3000000000E+06    0.1286801052E-01    0.1023591314E-01    0.6956317477E+00    0.2803847469E+00    0.4093913962E-03
    0.5000000000E+06    0.1074033363E-01    0.8661113021E-02    0.6956263362E+00    0.2919407816E+00    0.4211773048E-03
    0.7000000000E+06    0.9427603168E-02    0.7673535663E-02    0.6956212979E+00    0.2980937768E+00    0.4291249022E-03
    0.9000000000E+06    0.8513237920E-02    0.6978369789E-02    0.6956169780E+00    0.3020512932E+00    0.4351585972E-03
    0.1100000000E+07    0.7828332858E-02    0.6453571040E-02    0.6956132520E+00    0.3048657541E+00    0.4400372012E-03
    0.1300000000E+07    0.7289957450E-02    0.6038474973E-02    0.6956099899E+00    0.3069971723E+00    0.4441401871E-03
    0.1500000000E+07    0.6851979362E-02    0.5699037619E-02    0.6956070931E+00    0.3086825273E+00    0.4476852433E-03
    0.1700000000E+07    0.6486399008E-02    0.5414454419E-02    0.6956044892E+00    0.3100578498E+00    0.4508090975E-03
    0.1900000000E+07    0.6175093285E-02    0.5171183597E-02    0.6956021245E+00    0.3112074874E+00    0.4536033685E-03
    0.2100000000E+07    0.5905736967E-02    0.4959971721E-02    0.6955999588E+00    0.3121868630E+00    0.4561325095E-03
    0.2300000000E+07    0.5669612319E-02    0.4774246704E-02    0.6955979608E+00    0.3130340807E+00    0.4584436187E-03
    0.2500000000E+07    0.5460353200E-02    0.4609191748E-02    0.6955961061E+00    0.3137763073E+00    0.4605721782E-03
    0.2700000000E+07    0.5273185952E-02    0.4461183168E-02    0.6955943752E+00    0.3144334993E+00    0.4625455975E-03
    0.2900000000E+07    0.5104450198E-02    0.4327434148E-02    0.6955927525E+00    0.3150206873E+00    0.4643854979E-03
    0.3100000000E+07    0.4951285105E-02    0.4205760720E-02    0.6955912248E+00    0.3155494349E+00    0.4661092416E-03
    0.3300000000E+07    0.4811417507E-02    0.4094423230E-02    0.6955897816E+00    0.3160288021E+00    0.4677309849E-03
    0.3500000000E+07    0.4683014944E-02    0.3992016064E-02    0.6955884138E+00    0.3164660009E+00    0.4692624252E-03
    0.3700000000E+07    0.4564581320E-02    0.3897389167E-02    0.6955871136E+00    0.3168668526E+00    0.4707133409E-03
    0.3900000000E+07    0.4454881298E-02    0.3809591021E-02    0.6955858747E+00    0.3172361146E+00    0.4720919913E-03
    0.4100000000E+07    0.4352884506E-02    0.3727826492E-02    0.6955846914E+00    0.3175777171E+00    0.4734054170E-03
    0.4300000000E+07    0.4257723691E-02    0.3651425135E-02    0.6955835587E+00    0.3178949397E+00    0.4746596692E-03
    0.4500000000E+07    0.4168662885E-02    0.3579817040E-02    0.6955824725E+00    0.3181905430E+00    0.4758599875E-03
    0.4700000000E+07    0.4085072854E-02    0.3512514175E-02    0.6955814289E+00    0.3184668698E+00    0.4770109395E-03
    0.4900000000E+07    0.4006411945E-02    0.3449095798E-02    0.6955804247E+00    0.3187259227E+00    0.4781165313E-03
    0.1000000000E+07    0.8148490388E-02    0.6699333912E-02    0.6956150496E+00    0.3035650893E+00    0.4377132930E-03
    0.3000000000E+07    0.5026075192E-02    0.4265205648E-02    0.6955919775E+00    0.3152917501E+00    0.4652609394E-03
    0.5000000000E+07    0.3968780808E-02    0.3418727325E-02    0.6955799365E+00    0.3188495195E+00    0.4786534378E-03
    0.7000000000E+07    0.3388248263E-02    0.2947690765E-02    0.6955716729E+00    0.3207296493E+00    0.4876846178E-03
    0.9000000000E+07    0.3007586280E-02    0.2635991318E-02    0.6955653477E+00    0.3219364481E+00    0.4945410139E-03
    0.1100000000E+08    0.2733082261E-02    0.2409645112E-02    0.6955602090E+00    0.3227945817E+00    0.5000848449E-03
    0.1300000000E+08    0.2522949691E-02    0.2235396404E-02    0.6955558737E+00    0.3234449040E+00    0.5047473081E-03
    0.1500000000E+08    0.2355342415E-02    0.2095749901E-02    0.6955521196E+00    0.3239596701E+00    0.5087757680E-03
    0.1700000000E+08    0.2217572938E-02    0.1980492587E-02    0.6955488061E+00    0.3243802526E+00    0.5123255930E-03
    0.1900000000E+08    0.2101697872E-02    0.1883202296E-02    0.6955458384E+00    0.3247322673E+00    0.5155008935E-03
    0.2100000000E+08    0.2002454685E-02    0.1799608087E-02    0.6955431495E+00    0.3250325325E+00    0.5183749110E-03
    0.2300000000E+08    0.1916199418E-02    0.1726742626E-02    0.6955406904E+00    0.3252926065E+00    0.5210011654E-03
    0.2500000000E+08    0.1840317641E-02    0.1662470483E-02    0.6955384240E+00    0.3255207294E+00    0.5234199771E-03
    0.2700000000E+08    0.1772878012E-02    0.1605209821E-02    0.6955363216E+00    0.3257229550E+00    0.5256624930E-03
