  Pressure (Pa) 22mC5-500 (mol/kg) 23mC5-500 (mol/kg) 24mC5-500 (mol/kg) 2mC6-500 (mol/kg) C7-500 (mol/kg)
    0.1000000000E+01    0.6721650653E-05    0.4503024664E-05    0.1266287231E+00    0.2890675289E-05    0.4202895876E-02
    0.3000000000E+01    0.1388143239E-04    0.9272809387E-05    0.2785056537E+00    0.5687804178E-05    0.4256181859E-02
    0.5000000000E+01    0.1748109049E-04    0.1165437134E-04    0.3663966269E+00    0.6967587418E-05    0.4286235908E-02
    0.7000000000E+01    0.1957138009E-04    0.1302991494E-04    0.4237023920E+00    0.7690675668E-05    0.4306073988E-02
    0.9000000000E+01    0.2092048278E-04    0.1391494646E-04    0.4640220747E+00    0.8183451299E-05    0.4320268183E-02
    0.1100000000E+02    0.2187042458E-04    0.1453793182E-04    0.4939332791E+00    0.8576299947E-05    0.4330986610E-02
    0.1300000000E+02    0.2259174117E-04    0.1501221991E-04    0.5170057263E+00    0.8926710007E-05    0.4339402777E-02
    0.1500000000E+02    0.2317656150E-04    0.1539871599E-04    0.5353442165E+00    0.9261601055E-05    0.4346210316E-02
    0.1700000000E+02    0.2367770266E-04    0.1573213100E-04    0.5502701682E+00    0.9593960998E-05    0.4351846695E-02
    0.1900000000E+02    0.2412684472E-04    0.1603314878E-04    0.5626550524E+00    0.9930044679E-05    0.4356602052E-02
    0.2100000000E+02    0.2454366395E-04    0.1631452154E-04    0.5730968810E+00    0.1027272029E-04    0.4360676715E-02
    0.2300000000E+02    0.2494071446E-04    0.1658431725E-04    0.5820196659E+00    0.1062311215E-04    0.4364213659E-02
    0.2500000000E+02    0.2532617121E-04    0.1684773818E-04    0.5897324132E+00    0.1098144107E-04    0.4367317780E-02
    0.2700000000E+02    0.2570543641E-04    0.1710818207E-04    0.5964656387E+00    0.1134746748E-04    0.4370067871E-02
    0.2900000000E+02    0.2608211353E-04    0.1736788307E-04    0.6023948021E+00    0.1172072969E-04    0.4372524321E-02
    0.3100000000E+02    0.2645861553E-04    0.1762831036E-04    0.6076558171E+00    0.1210067330E-04    0.4374734238E-02
    0.3300000000E+02    0.2683655424E-04    0.1789042223E-04    0.6123555994E+00    0.1248672118E-04    0.4376734940E-02
    0.3500000000E+02    0.2721699515E-04    0.1815483157E-04    0.6165794080E+00    0.1287831046E-04    0.4378556394E-02
    0.3700000000E+02    0.2760062732E-04    0.1842191562E-04    0.6203960649E+00    0.1327491118E-04    0.4380222963E-02
    0.3900000000E+02    0.2798787838E-04    0.1869188992E-04    0.6238617339E+00    0.1367603439E-04    0.4381754665E-02
    0.4100000000E+02    0.2837899360E-04    0.1896485875E-04    0.6270227028E+00    0.1408123456E-04    0.4383168117E-02
    0.4300000000E+02    0.2877409082E-04    0.1924085002E-04    0.6299174630E+00    0.1449010887E-04    0.4384477232E-02
    0.4500000000E+02    0.2917319897E-04    0.1951983948E-04    0.6325782846E+00    0.1490229474E-04    0.4385693756E-02
    0.4700000000E+02    0.2957628544E-04    0.1980176780E-04    0.6350324243E+00    0.1531746679E-04    0.4386827679E-02
    0.4900000000E+02    0.2998327544E-04    0.2008655260E-04    0.6373030630E+00    0.1573533337E-04    0.4387887556E-02
    0.1000000000E+02    0.2143215799E-04    0.1425041447E-04    0.4800094510E+00    0.8387752535E-05    0.4325973373E-02
    0.3000000000E+02    0.2627027040E-04    0.1749793634E-04    0.6051015648E+00    0.1190990241E-04    0.4373657567E-02
    0.5000000000E+02    0.3018820290E-04    0.2022998625E-04    0.6383758829E+00    0.1594519438E-04    0.4388392072E-02
    0.7000000000E+02    0.3446083633E-04    0.2322282763E-04    0.6537837935E+00    0.2023351722E-04    0.4395944302E-02
    0.9000000000E+02    0.3898023688E-04    0.2638810646E-04    0.6626694315E+00    0.2461653839E-04    0.4400607576E-02
    0.1100000000E+03    0.4365623842E-04    0.2966059242E-04    0.6684506671E+00    0.2903679413E-04    0.4403770786E-02
    0.1300000000E+03    0.4843556318E-04    0.3300285073E-04    0.6725123954E+00    0.3347126560E-04    0.4406034289E-02
    0.1500000000E+03    0.5328657551E-04    0.3639300893E-04    0.6755224026E+00    0.3791021961E-04    0.4407705438E-02
    0.1700000000E+03    0.5818980497E-04    0.3981776479E-04    0.6778423222E+00    0.4234961851E-04    0.4408960264E-02
    0.1900000000E+03    0.6313284160E-04    0.4326872642E-04    0.6796850421E+00    0.4678804958E-04    0.4409908001E-02
    0.2100000000E+03    0.6810754299E-04    0.4674044136E-04    0.6811840502E+00    0.5122536282E-04    0.4410620632E-02
    0.2300000000E+03    0.7310844534E-04    0.5022928751E-04    0.6824272942E+00    0.5566202371E-04    0.4411147871E-02
    0.2500000000E+03    0.7813182236E-04    0.5373282161E-04    0.6834750756E+00    0.6009879028E-04    0.4411525366E-02
    0.2700000000E+03    0.8317510691E-04    0.5724938170E-04    0.6843701214E+00    0.6453654641E-04    0.4411779471E-02
    0.2900000000E+03    0.8823652394E-04    0.6077783626E-04    0.6851435515E+00    0.6897621438E-04    0.4411930178E-02
    0.3100000000E+03    0.9331485080E-04    0.6431742132E-04    0.6858185699E+00    0.7341870896E-04    0.4411992982E-02
    0.3300000000E+03    0.9840925675E-04    0.6786763199E-04    0.6864128304E+00    0.7786491402E-04    0.4411980119E-02
    0.3500000000E+03    0.1035191932E-03    0.7142814863E-04    0.6869400032E+00    0.8231567142E-04    0.4411901403E-02
    0.3700000000E+03    0.1086443175E-03    0.7499878569E-04    0.6874108378E+00    0.8677177680E-04    0.4411764822E-02
    0.3900000000E+03    0.1137844382E-03    0.7857945556E-04    0.6878339040E+00    0.9123397907E-04    0.4411576953E-02
    0.4100000000E+03    0.1189394766E-03    0.8217014274E-04    0.6882161174E+00    0.9570298197E-04    0.4411343273E-02
    0.4300000000E+03    0.1241094382E-03    0.8577088519E-04    0.6885631201E+00    0.1001794466E-03    0.4411068389E-02
    0.4500000000E+03    0.1292943918E-03    0.8938176052E-04    0.6888795613E+00    0.1046639944E-03    0.4410756207E-02
    0.4700000000E+03    0.1344944538E-03    0.9300287591E-04    0.6891693062E+00    0.1091572104E-03    0.4410410066E-02
    0.4900000000E+03    0.1397097766E-03    0.9663436052E-04    0.6894355945E+00    0.1136596462E-03    0.4410032842E-02
    0.1000000000E+03    0.4130265289E-04    0.2801376826E-04    0.6658366944E+00    0.2682390558E-04    0.4402329188E-02
    0.3000000000E+03    0.9077363327E-04    0.6254627410E-04    0.6854921501E+00    0.7119705221E-04    0.4411971738E-02
    0.5000000000E+03    0.1423232161E-03    0.9845403623E-04    0.6895608144E+00    0.1159144855E-03    0.4409833366E-02
    0.7000000000E+03    0.1954455122E-03    0.1354322369E-03    0.6913180740E+00    0.1616086454E-03    0.4404672984E-02
    0.9000000000E+03    0.2503610651E-03    0.1736469099E-03    0.6922974375E+00    0.2086872410E-03    0.4397964495E-02
    0.1100000000E+04    0.3073152145E-03    0.2132736455E-03    0.6929216018E+00    0.2574369205E-03    0.4390205530E-02
    0.1300000000E+04    0.3665443258E-03    0.2544792488E-03    0.6933540071E+00    0.3080945348E-03    0.4381610070E-02
    0.1500000000E+04    0.4282808846E-03    0.2974267644E-03    0.6936711701E+00    0.3608772767E-03    0.4372278755E-02
    0.1700000000E+04    0.4927605333E-03    0.3422809198E-03    0.6939136855E+00    0.4159975981E-03    0.4362257287E-02
    0.1900000000E+04    0.5602278581E-03    0.3892123899E-03    0.6941050906E+00    0.4736718459E-03    0.4351560698E-02
    0.2100000000E+04    0.6309411347E-03    0.4384012167E-03    0.6942599716E+00    0.5341260552E-03    0.4340184763E-02
    0.2300000000E+04    0.7051764899E-03    0.4900397661E-03    0.6943878490E+00    0.5976004100E-03    0.4328111794E-02
    0.2500000000E+04    0.7832318234E-03    0.5443354933E-03    0.6944952005E+00    0.6643531060E-03    0.4315313719E-02
    0.2700000000E+04    0.8654307390E-03    0.6015136994E-03    0.6945865865E+00    0.7346640224E-03    0.4301753697E-02
    0.2900000000E+04    0.9521266645E-03    0.6618204125E-03    0.6946653106E+00    0.8088384514E-03    0.4287386898E-02
    0.3100000000E+04    0.1043707310E-02    0.7255254990E-03    0.6947338242E+00    0.8872110588E-03    0.4272160751E-02
    0.3300000000E+04    0.1140599597E-02    0.7929260996E-03    0.6947939849E+00    0.9701502154E-03    0.4256014829E-02
    0.3500000000E+04    0.1243275182E-02    0.8643504795E-03    0.6948472259E+00    0.1058062826E-02    0.4238880456E-02
    0.3700000000E+04    0.1352256718E-02    0.9401623888E-03    0.6948946704E+00    0.1151399779E-02    0.4220680087E-02
    0.3900000000E+04    0.1468124993E-02    0.1020766033E-02    0.6949372114E+00    0.1250662154E-02    0.4201326479E-02
    0.4100000000E+04    0.1591527114E-02    0.1106611774E-02    0.6949755676E+00    0.1356408329E-02    0.4180721651E-02
    0.4300000000E+04    0.1723185924E-02    0.1198202681E-02    0.6950103239E+00    0.1469262153E-02    0.4158755633E-02
    0.4500000000E+04    0.1863910863E-02    0.1296102100E-02    0.6950419613E+00    0.1589922379E-02    0.4135304981E-02
    0.4700000000E+04    0.2014610521E-02    0.1400942389E-02    0.6950708787E+00    0.1719173562E-02    0.4110231041E-02
    0.4900000000E+04    0.2176307175E-02    0.1513435037E-02    0.6950974101E+00    0.1857898687E-02    0.4083377919E-02
    0.1000000000E+04    0.2785683630E-03    0.1932731848E-03    0.6926406531E+00    0.2328376874E-03    0.4394199188E-02
    0.3000000000E+04    0.9972806954E-03    0.6932302699E-03    0.6947007160E+00    0.8474778035E-03    0.4279884832E-02
    0.5000000000E+04    0.2261634009E-02    0.1572797820E-02    0.6951098708E+00    0.1931120376E-02    0.4069230167E-02
    0.7000000000E+04    0.4945294813E-02    0.3440071447E-02    0.6952835010E+00    0.4238817999E-02    0.3632828391E-02
    0.9000000000E+04    0.1192942218E-01    0.8301064310E-02    0.6953789401E+00    0.1027509358E-01    0.2562748372E-02
    0.1100000000E+05    0.2478113994E-01    0.1725248049E-01    0.6954390016E+00    0.2151607561E-01    0.8612220879E-03
    0.1300000000E+05    0.3132331227E-01    0.2182089140E-01    0.6954801068E+00    0.2747767378E-01    0.3694967223E-03
    0.1500000000E+05    0.3461122011E-01    0.2412669052E-01    0.6955098960E+00    0.3067759781E-01    0.3330492057E-03
    0.1700000000E+05    0.3733690889E-01    0.2604276384E-01    0.6955324012E+00    0.3342678721E-01    0.3326892948E-03
    0.1900000000E+05    0.3978416019E-01    0.2776633171E-01    0.6955499494E+00    0.3596474169E-01    0.3345562277E-03
    0.2100000000E+05    0.4200458592E-01    0.2933302590E-01    0.6955639759E+00    0.3833025965E-01    0.3364089185E-03
    0.2300000000E+05    0.4402764769E-01    0.3076310932E-01    0.6955754140E+00    0.4054390172E-01    0.3381149616E-03
    0.2500000000E+05    0.4587708916E-01    0.3207291124E-01    0.6955848959E+00    0.4262217608E-01    0.3396872140E-03
    0.2700000000E+05    0.4757296437E-01    0.3327623039E-01    0.6955928649E+00    0.4457913064E-01    0.3411448092E-03
    0.2900000000E+05    0.4913238843E-01    0.3438484995E-01    0.6955996410E+00    0.4642685909E-01    0.3425036555E-03
    0.3100000000E+05    0.5057005996E-01    0.3540889528E-01    0.6956054607E+00    0.4817583934E-01    0.3437766023E-03
    0.3300000000E+05    0.5189867121E-01    0.3635711464E-01    0.6956105025E+00    0.4983519884E-01    0.3449741314E-03
    0.3500000000E+05    0.5312923717E-01    0.3723710464E-01    0.6956149037E+00    0.5141292857E-01    0.3461049023E-03
    0.3700000000E+05    0.5427136204E-01    0.3805549280E-01    0.6956187713E+00    0.5291605724E-01    0.3471761524E-03
    0.3900000000E+05    0.5533345668E-01    0.3881808654E-01    0.6956221902E+00    0.5435079414E-01    0.3481939935E-03
    0.4100000000E+05    0.5632291715E-01    0.3952999558E-01    0.6956252284E+00    0.5572264710E-01    0.3491636344E-03
    0.4300000000E+05    0.5724627218E-01    0.4019573313E-01    0.6956279411E+00    0.5703652054E-01    0.3500895513E-03
    0.4500000000E+05    0.5810930585E-01    0.4081929996E-01    0.6956303735E+00    0.5829679726E-01    0.3509756194E-03
    0.4700000000E+05    0.5891716000E-01    0.4140425475E-01    0.6956325629E+00    0.5950740734E-01    0.3518252164E-03
    0.4900000000E+05    0.5967442029E-01    0.4195377312E-01    0.6956345405E+00    0.6067188613E-01    0.3526413045E-03
    0.1000000000E+05    0.1834189012E-01    0.1276598506E-01    0.6954120578E+00    0.1585409765E-01    0.1657768706E-02
    0.3000000000E+05    0.4986560717E-01    0.3490686823E-01    0.6956026581E+00    0.4731309335E-01    0.3431501630E-03
    0.5000000000E+05    0.6003537679E-01    0.4221614373E-01    0.6956354581E+00    0.6123783545E-01    0.3530376112E-03
    0.7000000000E+05    0.6539580561E-01    0.4615640488E-01    0.6956472705E+00    0.7076592607E-01    0.3597030791E-03
    0.9000000000E+05    0.6851941184E-01    0.4851409337E-01    0.6956525737E+00    0.7796141081E-01    0.3647627461E-03
    0.1100000000E+06    0.7044295785E-01    0.5001384398E-01    0.6956551380E+00    0.8373372955E-01    0.3688534951E-03
    0.1300000000E+06    0.7165970946E-01    0.5100270329E-01    0.6956563466E+00    0.8855479173E-01    0.3722937259E-03
    0.1500000000E+06    0.7243201254E-01    0.5166650636E-01    0.6956568134E+00    0.9269789506E-01    0.3752660574E-03
    0.1700000000E+06    0.7291105922E-01    0.5211310468E-01    0.6956568472E+00    0.9633434166E-01    0.3778851766E-03
    0.1900000000E+06    0.7318942915E-01    0.5240902074E-01    0.6956566168E+00    0.9957811183E-01    0.3802279259E-03
    0.2100000000E+06    0.7332656219E-01    0.5259728880E-01    0.6956562209E+00    0.1025086703E+00    0.3823483600E-03
    0.2300000000E+06    0.7336209824E-01    0.5270683547E-01    0.6956557198E+00    0.1051835341E+00    0.3842859766E-03
    0.2500000000E+06    0.7332330632E-01    0.5275772507E-01    0.6956551520E+00    0.1076456328E+00    0.3860705304E-03
    0.2700000000E+06    0.7322943485E-01    0.5276424399E-01    0.6956545426E+00    0.1099278396E+00    0.3877250058E-03
    0.2900000000E+06    0.7309436798E-01    0.5273679201E-01    0.6956539083E+00    0.1120558786E+00    0.3892675332E-03
    0.3100000000E+06    0.7292830590E-01    0.5268308382E-01    0.6956532606E+00    0.1140502560E+00    0.3907126709E-03
    0.3300000000E+06    0.7273886049E-01    0.5260893599E-01    0.6956526074E+00    0.1159275832E+00    0.3920722891E-03
    0.3500000000E+06    0.7253178873E-01    0.5251879615E-01    0.6956519542E+00    0.1177015063E+00    0.3933561957E-03
    0.3700000000E+06    0.7231149511E-01    0.5241610711E-01    0.6956513047E+00    0.1193833743E+00    0.3945725899E-03
    0.3900000000E+06    0.7208138270E-01    0.5230356259E-01    0.6956506616E+00    0.1209827298E+00    0.3957283966E-03
    0.4100000000E+06    0.7184410309E-01    0.5218329012E-01    0.6956500268E+00    0.1225076749E+00    0.3968295191E-03
    0.4300000000E+06    0.7160173700E-01    0.5205698393E-01    0.6956494015E+00    0.1239651488E+00    0.3978810308E-03
    0.4500000000E+06    0.7135592694E-01    0.5192600298E-01    0.6956487865E+00    0.1253611424E+00    0.3988873250E-03
    0.4700000000E+06    0.7110797566E-01    0.5179144417E-01    0.6956481823E+00    0.1267008642E+00    0.3998522312E-03
    0.4900000000E+06    0.7085892026E-01    0.5165419774E-01    0.6956475892E+00    0.1279888725E+00    0.4007791083E-03
    0.1000000000E+06    0.6959275625E-01    0.4934421937E-01    0.6956540844E+00    0.8098958560E-01    0.3669049074E-03
    0.3000000000E+06    0.7301468491E-01    0.5271281910E-01    0.6956535856E+00    0.1130686580E+00    0.3900014792E-03
    0.5000000000E+06    0.7073424413E-01    0.5158479899E-01    0.6956472968E+00    0.1286147571E+00    0.4012292255E-03
    0.7000000000E+06    0.6831261387E-01    0.5017502150E-01    0.6956420112E+00    0.1391815401E+00    0.4088005113E-03
    0.9000000000E+06    0.6613641817E-01    0.4884624003E-01    0.6956376259E+00    0.1472478831E+00    0.4145485427E-03
    0.1100000000E+07    0.6421513217E-01    0.4764292360E-01    0.6956339045E+00    0.1537881587E+00    0.4191961831E-03
    0.1300000000E+07    0.6251151744E-01    0.4655791054E-01    0.6956306779E+00    0.1592926585E+00    0.4231049320E-03
    0.1500000000E+07    0.6098803960E-01    0.4557559772E-01    0.6956278310E+00    0.1640451058E+00    0.4264821683E-03
    0.1700000000E+07    0.5961376026E-01    0.4468087720E-01    0.6956252836E+00    0.1682253286E+00    0.4294581449E-03
    0.1900000000E+07    0.5836418831E-01    0.4386087825E-01    0.6956229783E+00    0.1719548729E+00    0.4321201423E-03
    0.2100000000E+07    0.5722000634E-01    0.4310500050E-01    0.6956208724E+00    0.1753199287E+00    0.4345295620E-03
    0.2300000000E+07    0.5616586201E-01    0.4240457068E-01    0.6956189338E+00    0.1783839323E+00    0.4367312720E-03
    0.2500000000E+07    0.5518941883E-01    0.4175246946E-01    0.6956171373E+00    0.1811949838E+00    0.4387590746E-03
    0.2700000000E+07    0.5428064685E-01    0.4114281266E-01    0.6956154632E+00    0.1837904540E+00    0.4406390813E-03
    0.2900000000E+07    0.5343129797E-01    0.4057069696E-01    0.6956138955E+00    0.1861999740E+00    0.4423918901E-03
    0.3100000000E+07    0.5263451668E-01    0.4003200195E-01    0.6956124213E+00    0.1884474457E+00    0.4440340410E-03
    0.3300000000E+07    0.5188454862E-01    0.3952323670E-01    0.6956110297E+00    0.1905524372E+00    0.4455790201E-03
    0.3500000000E+07    0.5117652006E-01    0.3904142060E-01    0.6956097119E+00    0.1925311748E+00    0.4470379710E-03
    0.3700000000E+07    0.5050626899E-01    0.3858399026E-01    0.6956084602E+00    0.1943972666E+00    0.4484202093E-03
    0.3900000000E+07    0.4987021444E-01    0.3814872623E-01    0.6956072681E+00    0.1961622383E+00    0.4497336032E-03
    0.4100000000E+07    0.4926525405E-01    0.3773369485E-01    0.6956061302E+00    0.1978359393E+00    0.4509848600E-03
    0.4300000000E+07    0.4868868313E-01    0.3733720169E-01    0.6956050415E+00    0.1994268531E+00    0.4521797444E-03
    0.4500000000E+07    0.4813813001E-01    0.3695775398E-01    0.6956039979E+00    0.2009423394E+00    0.4533232480E-03
    0.4700000000E+07    0.4761150385E-01    0.3659403009E-01    0.6956029957E+00    0.2023888245E+00    0.4544197221E-03
    0.4900000000E+07    0.4710695233E-01    0.3624485450E-01    0.6956020316E+00    0.2037719528E+00    0.4554729833E-03
    0.1000000000E+07    0.6514604064E-01    0.4822893969E-01    0.6956356943E+00    0.1506714095E+00    0.4169822924E-03
    0.3000000000E+07    0.5302671896E-01    0.4029740326E-01    0.6956131474E+00    0.1873426545E+00    0.4432258928E-03
    0.5000000000E+07    0.4686243225E-01    0.3607538977E-01    0.6956015630E+00    0.2044413387E+00    0.4559844767E-03
    0.7000000000E+07    0.4281185627E-01    0.3324535368E-01    0.6955936420E+00    0.2154557809E+00    0.4645881937E-03
    0.9000000000E+07    0.3983756528E-01    0.3114046167E-01    0.6955875892E+00    0.2234738831E+00    0.4711200707E-03
    0.1100000000E+08    0.3751156046E-01    0.2947874261E-01    0.6955826765E+00    0.2297150539E+00    0.4764015117E-03
    0.1300000000E+08    0.3561652812E-01    0.2811478804E-01    0.6955785345E+00    0.2347854697E+00    0.4808433031E-03
    0.1500000000E+08    0.3402739055E-01    0.2696395394E-01    0.6955749494E+00    0.2390296744E+00    0.4846811002E-03
    0.1700000000E+08    0.3266578537E-01    0.2597273700E-01    0.6955717861E+00    0.2426617502E+00    0.4880629174E-03
    0.1900000000E+08    0.3147950231E-01    0.2510522883E-01    0.6955689536E+00    0.2458235034E+00    0.4910879370E-03
    0.2100000000E+08    0.3043208813E-01    0.2433620292E-01    0.6955663877E+00    0.2486135173E+00    0.4938259337E-03
    0.2300000000E+08    0.2949713474E-01    0.2364728631E-01    0.6955640415E+00    0.2511029746E+00    0.4963278942E-03
    0.2500000000E+08    0.2865493136E-01    0.2302470087E-01    0.6955618794E+00    0.2533448686E+00    0.4986322306E-03
    0.2700000000E+08    0.2789039837E-01    0.2245786138E-01    0.6955598740E+00    0.2553796575E+00    0.5007686152E-03
