  Pressure (Pa) 22mC5-500 (mol/kg) 23mC5-500 (mol/kg) 24mC5-500 (mol/kg) 2mC6-500 (mol/kg) C7-500 (mol/kg)
    0.1000000000E+01    0.5485933830E-05    0.1049693373E-05    0.2321324861E+00    0.1187767378E-04    0.4145767696E-02
    0.3000000000E+01    0.9122084571E-05    0.1739492684E-05    0.4177350881E+00    0.1902208687E-04    0.4169258099E-02
    0.5000000000E+01    0.1051800221E-04    0.2003650057E-05    0.4972535265E+00    0.2221121144E-04    0.4174875563E-02
    0.7000000000E+01    0.1135686562E-04    0.2163871975E-05    0.5414247291E+00    0.2478592488E-04    0.4177361478E-02
    0.9000000000E+01    0.1201285306E-04    0.2290810764E-05    0.5695318582E+00    0.2729489476E-04    0.4178680757E-02
    0.1100000000E+02    0.1260242850E-04    0.2406144775E-05    0.5889899366E+00    0.2984788635E-04    0.4179431238E-02
    0.1300000000E+02    0.1316874228E-04    0.2517760931E-05    0.6032588878E+00    0.3246039285E-04    0.4179860531E-02
    0.1500000000E+02    0.1372936496E-04    0.2628790309E-05    0.6141702952E+00    0.3512601567E-04    0.4180090545E-02
    0.1700000000E+02    0.1429172420E-04    0.2740504817E-05    0.6227844942E+00    0.3783445398E-04    0.4180188486E-02
    0.1900000000E+02    0.1485887925E-04    0.2853390077E-05    0.6297578591E+00    0.4057613406E-04    0.4180194507E-02
    0.2100000000E+02    0.1543191148E-04    0.2967584452E-05    0.6355184489E+00    0.4334318662E-04    0.4180134094E-02
    0.2300000000E+02    0.1601098821E-04    0.3083071679E-05    0.6403573377E+00    0.4612940967E-04    0.4180024204E-02
    0.2500000000E+02    0.1659586074E-04    0.3199769446E-05    0.6444793525E+00    0.4892998924E-04    0.4179876557E-02
    0.2700000000E+02    0.1718610522E-04    0.3317571229E-05    0.6480328149E+00    0.5174120533E-04    0.4179699509E-02
    0.2900000000E+02    0.1778124084E-04    0.3436366123E-05    0.6511277685E+00    0.5456018282E-04    0.4179499175E-02
    0.3100000000E+02    0.1838078736E-04    0.3556047999E-05    0.6538475795E+00    0.5738469522E-04    0.4179280131E-02
    0.3300000000E+02    0.1898429196E-04    0.3676519363E-05    0.6562565585E+00    0.6021301405E-04    0.4179045867E-02
    0.3500000000E+02    0.1959134031E-04    0.3797692601E-05    0.6584051107E+00    0.6304379465E-04    0.4178799087E-02
    0.3700000000E+02    0.2020155972E-04    0.3919489936E-05    0.6603333021E+00    0.6587598957E-04    0.4178541919E-02
    0.3900000000E+02    0.2081461816E-04    0.4041842794E-05    0.6620733803E+00    0.6870878277E-04    0.4178276056E-02
    0.4100000000E+02    0.2143022151E-04    0.4164690946E-05    0.6636515938E+00    0.7154153939E-04    0.4178002866E-02
    0.4300000000E+02    0.2204811000E-04    0.4287981578E-05    0.6650895245E+00    0.7437376720E-04    0.4177723458E-02
    0.4500000000E+02    0.2266805457E-04    0.4411668407E-05    0.6664050805E+00    0.7720508678E-04    0.4177438746E-02
    0.4700000000E+02    0.2328985332E-04    0.4535710863E-05    0.6676132466E+00    0.8003520837E-04    0.4177149484E-02
    0.4900000000E+02    0.2391332822E-04    0.4660073355E-05    0.6687266567E+00    0.8286391376E-04    0.4176856303E-02
    0.1000000000E+02    0.1231234367E-04    0.2349267057E-05    0.5800717154E+00    0.2856401214E-04    0.4179107295E-02
    0.3000000000E+02    0.1808049187E-04    0.3496102507E-05    0.6525301706E+00    0.5597186537E-04    0.4179391752E-02
    0.5000000000E+02    0.2422564442E-04    0.4722364694E-05    0.6692512449E+00    0.8427768317E-04    0.4176708411E-02
    0.7000000000E+02    0.3053050388E-04    0.5979175852E-05    0.6766829738E+00    0.1124595880E-03    0.4173637250E-02
    0.9000000000E+02    0.3690390090E-04    0.7248589478E-05    0.6808835820E+00    0.1404796030E-03    0.4170467536E-02
    0.1100000000E+03    0.4331792952E-04    0.8525349363E-05    0.6835840052E+00    0.1683962784E-03    0.4167269127E-02
    0.1300000000E+03    0.4976441771E-04    0.9808033488E-05    0.6854661350E+00    0.1962700341E-03    0.4164063317E-02
    0.1500000000E+03    0.5624220811E-04    0.1109654661E-04    0.6868529763E+00    0.2241514762E-03    0.4160856597E-02
    0.1700000000E+03    0.6275282849E-04    0.1239128412E-04    0.6879173010E+00    0.2520817772E-03    0.4157650157E-02
    0.1900000000E+03    0.6929883587E-04    0.1369281866E-04    0.6887598937E+00    0.2800946605E-03    0.4154443132E-02
    0.2100000000E+03    0.7588313493E-04    0.1500177406E-04    0.6894435076E+00    0.3082181956E-03    0.4151233870E-02
    0.2300000000E+03    0.8250868754E-04    0.1631877351E-04    0.6900092570E+00    0.3364761736E-03    0.4148020451E-02
    0.2500000000E+03    0.8917839056E-04    0.1764441894E-04    0.6904852046E+00    0.3648891219E-03    0.4144800916E-02
    0.2700000000E+03    0.9589502912E-04    0.1897928414E-04    0.6908911591E+00    0.3934750507E-03    0.4141573365E-02
    0.2900000000E+03    0.1026612645E-03    0.2032391398E-04    0.6912415025E+00    0.4222500061E-03    0.4138335993E-02
    0.3100000000E+03    0.1094796379E-03    0.2167882623E-04    0.6915469291E+00    0.4512284864E-03    0.4135087101E-02
    0.3300000000E+03    0.1163525807E-03    0.2304451442E-04    0.6918155562E+00    0.4804237587E-03    0.4131825096E-02
    0.3500000000E+03    0.1232824273E-03    0.2442145092E-04    0.6920536564E+00    0.5098481035E-03    0.4128548481E-02
    0.3700000000E+03    0.1302714280E-03    0.2581008997E-04    0.6922661533E+00    0.5395130062E-03    0.4125255847E-02
    0.3900000000E+03    0.1373217620E-03    0.2721087046E-04    0.6924569659E+00    0.5694293087E-03    0.4121945861E-02
    0.4100000000E+03    0.1444355482E-03    0.2862421844E-04    0.6926292519E+00    0.5996073316E-03    0.4118617261E-02
    0.4300000000E+03    0.1516148559E-03    0.3005054934E-04    0.6927855844E+00    0.6300569726E-03    0.4115268842E-02
    0.4500000000E+03    0.1588617143E-03    0.3149026995E-04    0.6929280813E+00    0.6607877881E-03    0.4111899451E-02
    0.4700000000E+03    0.1661781201E-03    0.3294378018E-04    0.6930585012E+00    0.6918090598E-03    0.4108507979E-02
    0.4900000000E+03    0.1735660453E-03    0.3441147458E-04    0.6931783169E+00    0.7231298516E-03    0.4105093357E-02
    0.1000000000E+03    0.4010659502E-04    0.7886187379E-05    0.6823661639E+00    0.1544468785E-03    0.4168870047E-02
    0.3000000000E+03    0.1060637796E-03    0.2100005343E-04    0.6913992727E+00    0.4367129507E-03    0.4136713089E-02
    0.5000000000E+03    0.1772874387E-03    0.3515076300E-04    0.6932346443E+00    0.7389053523E-03    0.4103377039E-02
    0.7000000000E+03    0.2559459435E-03    0.5077619796E-04    0.6940241579E+00    0.1072271777E-02    0.4067593924E-02
    0.9000000000E+03    0.3440305232E-03    0.6827343191E-04    0.6944635089E+00    0.1445628461E-02    0.4028403974E-02
    0.1100000000E+04    0.4437590795E-03    0.8808367228E-04    0.6947433524E+00    0.1868539026E-02    0.3984862725E-02
    0.1300000000E+04    0.5578101995E-03    0.1107394167E-03    0.6949371971E+00    0.2352481646E-02    0.3935901246E-02
    0.1500000000E+04    0.6895424126E-03    0.1369081995E-03    0.6950793989E+00    0.2911827449E-02    0.3880228181E-02
    0.1700000000E+04    0.8432616016E-03    0.1674458064E-03    0.6951881649E+00    0.3565001095E-02    0.3816228454E-02
    0.1900000000E+04    0.1024578272E-02    0.2034673235E-03    0.6952740438E+00    0.4336022094E-02    0.3741838483E-02
    0.2100000000E+04    0.1240898409E-02    0.2464447424E-03    0.6953435695E+00    0.5256621702E-02    0.3654383087E-02
    0.2300000000E+04    0.1502098058E-02    0.2983411045E-03    0.6954010050E+00    0.6369156696E-02    0.3550361362E-02
    0.2500000000E+04    0.1821427984E-02    0.3617904317E-03    0.6954492502E+00    0.7730528639E-02    0.3425176004E-02
    0.2700000000E+04    0.2216647788E-02    0.4403233643E-03    0.6954903464E+00    0.9417123429E-02    0.3272827088E-02
    0.2900000000E+04    0.2711212903E-02    0.5386035045E-03    0.6955257719E+00    0.1153004556E-01    0.3085669582E-02
    0.3100000000E+04    0.3334833891E-02    0.6625393298E-03    0.6955566241E+00    0.1419778018E-01    0.2854532904E-02
    0.3300000000E+04    0.4121534206E-02    0.8188994124E-03    0.6955837340E+00    0.1756831222E-01    0.2569927703E-02
    0.3500000000E+04    0.5101229637E-02    0.1013640511E-02    0.6956077432E+00    0.2177365602E-01    0.2225715130E-02
    0.3700000000E+04    0.6279561647E-02    0.1247900684E-02    0.6956291543E+00    0.2684392279E-01    0.1826686659E-02
    0.3900000000E+04    0.7607815805E-02    0.1512018768E-02    0.6956483670E+00    0.3257785015E-01    0.1398241153E-02
    0.4100000000E+04    0.8968678198E-02    0.1782695688E-02    0.6956657030E+00    0.3847905703E-01    0.9878401119E-03
    0.4300000000E+04    0.1021689776E-01    0.2031065653E-02    0.6956814242E+00    0.4392650699E-01    0.6461272254E-03
    0.4500000000E+04    0.1125730682E-01    0.2238200778E-02    0.6956957459E+00    0.4850795822E-01    0.3989696594E-03
    0.4700000000E+04    0.1207979130E-01    0.2402071095E-02    0.6957088467E+00    0.5217314622E-01    0.2398895925E-03
    0.4900000000E+04    0.1272849903E-01    0.2531434861E-02    0.6957208763E+00    0.5510548849E-01    0.1455538405E-03
    0.1000000000E+04    0.3922851334E-03    0.7785877328E-04    0.6946173992E+00    0.1650228125E-02    0.4007239957E-02
    0.3000000000E+04    0.3004812137E-02    0.5969508861E-03    0.6955417125E+00    0.1278554491E-01    0.2976210950E-02
    0.5000000000E+04    0.1300510290E-01    0.2586635092E-02    0.6957265295E+00    0.5637031725E-01    0.1150576236E-03
    0.7000000000E+04    0.1660473486E-01    0.3307357051E-02    0.6958056112E+00    0.7368770428E-01    0.2963204577E-04
    0.9000000000E+04    0.1926146041E-01    0.3841787321E-02    0.6958494632E+00    0.8739904236E-01    0.2985475819E-04
    0.1100000000E+05    0.2140426898E-01    0.4274732033E-02    0.6958773128E+00    0.9918451937E-01    0.3018952716E-04
    0.1300000000E+05    0.2315234383E-01    0.4629568648E-02    0.6958965527E+00    0.1094451435E+00    0.3047151628E-04
    0.1500000000E+05    0.2459141864E-01    0.4923133546E-02    0.6959106313E+00    0.1184745726E+00    0.3071511594E-04
    0.1700000000E+05    0.2578493313E-01    0.5167901380E-02    0.6959213735E+00    0.1264944836E+00    0.3092974276E-04
    0.1900000000E+05    0.2678073773E-01    0.5373294014E-02    0.6959298349E+00    0.1336754815E+00    0.3112170522E-04
    0.2100000000E+05    0.2761553164E-01    0.5546547544E-02    0.6959366688E+00    0.1401510973E+00    0.3129543952E-04
    0.2300000000E+05    0.2831787810E-01    0.5693301773E-02    0.6959423011E+00    0.1460274080E+00    0.3145418630E-04
    0.2500000000E+05    0.2891029954E-01    0.5818010118E-02    0.6959470210E+00    0.1513898004E+00    0.3160038634E-04
    0.2700000000E+05    0.2941076289E-01    0.5924230412E-02    0.6959510321E+00    0.1563078218E+00    0.3173592474E-04
    0.2900000000E+05    0.2983375146E-01    0.6014834921E-02    0.6959544816E+00    0.1608387223E+00    0.3186228824E-04
    0.3100000000E+05    0.3019105086E-01    0.6092164468E-02    0.6959574787E+00    0.1650300829E+00    0.3198067054E-04
    0.3300000000E+05    0.3049233384E-01    0.6158143191E-02    0.6959601060E+00    0.1689217948E+00    0.3209204483E-04
    0.3500000000E+05    0.3074560104E-01    0.6214365108E-02    0.6959624272E+00    0.1725475690E+00    0.3219721514E-04
    0.3700000000E+05    0.3095751725E-01    0.6262160226E-02    0.6959644924E+00    0.1759361018E+00    0.3229685356E-04
    0.3900000000E+05    0.3113367078E-01    0.6302645553E-02    0.6959663410E+00    0.1791119846E+00    0.3239152773E-04
    0.4100000000E+05    0.3127877552E-01    0.6336764884E-02    0.6959680051E+00    0.1820964222E+00    0.3248172147E-04
    0.4300000000E+05    0.3139682981E-01    0.6365320114E-02    0.6959695105E+00    0.1849078033E+00    0.3256785060E-04
    0.4500000000E+05    0.3149124244E-01    0.6388996085E-02    0.6959708786E+00    0.1875621596E+00    0.3265027514E-04
    0.4700000000E+05    0.3156493341E-01    0.6408380477E-02    0.6959721270E+00    0.1900735369E+00    0.3272930893E-04
    0.4900000000E+05    0.3162041506E-01    0.6423979836E-02    0.6959732705E+00    0.1924542977E+00    0.3280522722E-04
    0.1000000000E+05    0.2038868655E-01    0.4069294808E-02    0.6958647876E+00    0.9350432992E-01    0.3002981634E-04
    0.3000000000E+05    0.3001996399E-01    0.6055030171E-02    0.6959560310E+00    0.1629741913E+00    0.3192241173E-04
    0.5000000000E+05    0.3164201746E-01    0.6430499491E-02    0.6959738069E+00    0.1935991621E+00    0.3284209504E-04
    0.7000000000E+05    0.3151398305E-01    0.6442443442E-02    0.6959812226E+00    0.2117244274E+00    0.3346222166E-04
    0.9000000000E+05    0.3087184473E-01    0.6342008985E-02    0.6959852281E+00    0.2240522590E+00    0.3393300056E-04
    0.1100000000E+06    0.3007733032E-01    0.6204513041E-02    0.6959877033E+00    0.2331443919E+00    0.3431364962E-04
    0.1300000000E+06    0.2925746648E-01    0.6057291921E-02    0.6959893651E+00    0.2402145585E+00    0.3463378047E-04
    0.1500000000E+06    0.2846040303E-01    0.5911240574E-02    0.6959905455E+00    0.2459210222E+00    0.3491037925E-04
    0.1700000000E+06    0.2770402247E-01    0.5770789002E-02    0.6959914185E+00    0.2506557396E+00    0.3515411443E-04
    0.1900000000E+06    0.2699365847E-01    0.5637597850E-02    0.6959920842E+00    0.2546686568E+00    0.3537213461E-04
    0.2100000000E+06    0.2632926571E-01    0.5512083072E-02    0.6959926038E+00    0.2581277521E+00    0.3556946872E-04
    0.2300000000E+06    0.2570853294E-01    0.5394094154E-02    0.6959930171E+00    0.2611507001E+00    0.3574979152E-04
    0.2500000000E+06    0.2512829556E-01    0.5283231784E-02    0.6959933508E+00    0.2638227560E+00    0.3591587144E-04
    0.2700000000E+06    0.2458518878E-01    0.5179001364E-02    0.6959936235E+00    0.2662074285E+00    0.3606984701E-04
    0.2900000000E+06    0.2407594593E-01    0.5080888001E-02    0.6959938485E+00    0.2683531464E+00    0.3621340520E-04
    0.3100000000E+06    0.2359752618E-01    0.4988392537E-02    0.6959940358E+00    0.2702975821E+00    0.3634790061E-04
    0.3300000000E+06    0.2314715900E-01    0.4901047813E-02    0.6959941926E+00    0.2720705488E+00    0.3647443777E-04
    0.3500000000E+06    0.2272234845E-01    0.4818424787E-02    0.6959943246E+00    0.2736959962E+00    0.3659392930E-04
    0.3700000000E+06    0.2232085887E-01    0.4740133497E-02    0.6959944362E+00    0.2751934182E+00    0.3670713814E-04
    0.3900000000E+06    0.2194069273E-01    0.4665821473E-02    0.6959945308E+00    0.2765788685E+00    0.3681470870E-04
    0.4100000000E+06    0.2158006637E-01    0.4595170995E-02    0.6959946112E+00    0.2778657058E+00    0.3691719028E-04
    0.4300000000E+06    0.2123738609E-01    0.4527895937E-02    0.6959946795E+00    0.2790651504E+00    0.3701505501E-04
    0.4500000000E+06    0.2091122604E-01    0.4463738571E-02    0.6959947375E+00    0.2801867064E+00    0.3710871169E-04
    0.4700000000E+06    0.2060030816E-01    0.4402466542E-02    0.6959947868E+00    0.2812384861E+00    0.3719851668E-04
    0.4900000000E+06    0.2030348455E-01    0.4343870072E-02    0.6959948285E+00    0.2822274622E+00    0.3728478256E-04
    0.1000000000E+06    0.3048288427E-01    0.6275603451E-02    0.6959865986E+00    0.2289085414E+00    0.3413232889E-04
    0.3000000000E+06    0.2383306284E-01    0.5033968085E-02    0.6959939464E+00    0.2693485039E+00    0.3628171164E-04
    0.5000000000E+06    0.2016003108E-01    0.4315515168E-02    0.6959948469E+00    0.2827003158E+00    0.3732667577E-04
    0.7000000000E+06    0.1782784020E-01    0.3851330500E-02    0.6959949938E+00    0.2899722383E+00    0.3803135851E-04
    0.9000000000E+06    0.1617754616E-01    0.3519225489E-02    0.6959949416E+00    0.2947155814E+00    0.3856635674E-04
    0.1100000000E+07    0.1492849160E-01    0.3265820076E-02    0.6959948222E+00    0.2981221640E+00    0.3899894262E-04
    0.1300000000E+07    0.1393926824E-01    0.3063836755E-02    0.6959946794E+00    0.3007210118E+00    0.3936275943E-04
    0.1500000000E+07    0.1312988016E-01    0.2897692807E-02    0.6959945302E+00    0.3027878146E+00    0.3967710742E-04
    0.1700000000E+07    0.1245118224E-01    0.2757743168E-02    0.6959943817E+00    0.3044822674E+00    0.3995410908E-04
    0.1900000000E+07    0.1187106746E-01    0.2637648299E-02    0.6959942373E+00    0.3059041273E+00    0.4020188760E-04
    0.2100000000E+07    0.1136753745E-01    0.2533042434E-02    0.6959940981E+00    0.3071193500E+00    0.4042615763E-04
    0.2300000000E+07    0.1092493706E-01    0.2440804995E-02    0.6959939647E+00    0.3081735213E+00    0.4063109513E-04
    0.2500000000E+07    0.1053177499E-01    0.2358636540E-02    0.6959938371E+00    0.3090992909E+00    0.4081984613E-04
    0.2700000000E+07    0.1017939634E-01    0.2284799224E-02    0.6959937150E+00    0.3099207395E+00    0.4099484092E-04
    0.2900000000E+07    0.9861139104E-02    0.2217951200E-02    0.6959935983E+00    0.3106560684E+00    0.4115799658E-04
    0.3100000000E+07    0.9571778844E-02    0.2157037192E-02    0.6959934865E+00    0.3113193246E+00    0.4131085258E-04
    0.3300000000E+07    0.9307151828E-02    0.2101213991E-02    0.6959933793E+00    0.3119215456E+00    0.4145466411E-04
    0.3500000000E+07    0.9063892516E-02    0.2049798391E-02    0.6959932765E+00    0.3124715400E+00    0.4159046836E-04
    0.3700000000E+07    0.8839246458E-02    0.2002229991E-02    0.6959931777E+00    0.3129764349E+00    0.4171913237E-04
    0.3900000000E+07    0.8630934262E-02    0.1958044076E-02    0.6959930826E+00    0.3134420669E+00    0.4184138849E-04
    0.4100000000E+07    0.8437050886E-02    0.1916851492E-02    0.6959929911E+00    0.3138732677E+00    0.4195786098E-04
    0.4300000000E+07    0.8255989910E-02    0.1878323481E-02    0.6959929028E+00    0.3142740763E+00    0.4206908640E-04
    0.4500000000E+07    0.8086385764E-02    0.1842180093E-02    0.6959928176E+00    0.3146478985E+00    0.4217552936E-04
    0.4700000000E+07    0.7927069068E-02    0.1808181199E-02    0.6959927352E+00    0.3149976290E+00    0.4227759486E-04
    0.4900000000E+07    0.7777031728E-02    0.1776119469E-02    0.6959926555E+00    0.3153257459E+00    0.4237563812E-04
    0.1000000000E+07    0.1551369503E-01    0.3384767978E-02    0.6959948866E+00    0.2965443492E+00    0.3879288082E-04
    0.3000000000E+07    0.9713128425E-02    0.2186809418E-02    0.6959935418E+00    0.3109959557E+00    0.4123562781E-04
    0.5000000000E+07    0.7705214976E-02    0.1760757822E-02    0.6959926166E+00    0.3154823783E+00    0.4242325078E-04
    0.7000000000E+07    0.6594119977E-02    0.1521787706E-02    0.6959919456E+00    0.3178716059E+00    0.4322414153E-04
    0.9000000000E+07    0.5862379453E-02    0.1362949220E-02    0.6959914193E+00    0.3194113862E+00    0.4383218258E-04
    0.1100000000E+08    0.5333179499E-02    0.1247265742E-02    0.6959909859E+00    0.3205090236E+00    0.4432382952E-04
    0.1300000000E+08    0.4927229596E-02    0.1158018742E-02    0.6959906169E+00    0.3213422401E+00    0.4473731856E-04
    0.1500000000E+08    0.4602913727E-02    0.1086377334E-02    0.6959902954E+00    0.3220025579E+00    0.4509458486E-04
    0.1700000000E+08    0.4335992064E-02    0.1027170897E-02    0.6959900104E+00    0.3225425307E+00    0.4540940595E-04
    0.1900000000E+08    0.4111253757E-02    0.9771403604E-03    0.6959897542E+00    0.3229947678E+00    0.4569101403E-04
    0.2100000000E+08    0.3918602807E-02    0.9341141931E-03    0.6959895214E+00    0.3233807158E+00    0.4594590401E-04
    0.2300000000E+08    0.3751037575E-02    0.8965812693E-03    0.6959893081E+00    0.3237151343E+00    0.4617882195E-04
    0.2500000000E+08    0.3603527987E-02    0.8634526416E-03    0.6959891111E+00    0.3240085580E+00    0.4639334342E-04
    0.2700000000E+08    0.3472353991E-02    0.8339207212E-03    0.6959889280E+00    0.3242687337E+00    0.4659223052E-04
