  Pressure (Pa) 22mC5-500 (mol/kg) 23mC5-500 (mol/kg) 24mC5-500 (mol/kg) 2mC6-500 (mol/kg) C7-500 (mol/kg)
    0.1000000000E+01    0.6404835925E-05    0.1225657134E-05    0.1513985621E+00    0.1648489150E-04    0.4191615336E-02
    0.3000000000E+01    0.1247807693E-04    0.2380201849E-05    0.3164705983E+00    0.3050978142E-04    0.4230486906E-02
    0.5000000000E+01    0.1524732299E-04    0.2902631059E-05    0.4047292537E+00    0.3640768619E-04    0.4250066200E-02
    0.7000000000E+01    0.1678678507E-04    0.3191764811E-05    0.4596715826E+00    0.3981654218E-04    0.4262269590E-02
    0.9000000000E+01    0.1777729428E-04    0.3377764909E-05    0.4971675662E+00    0.4236012402E-04    0.4270662069E-02
    0.1100000000E+02    0.1849543483E-04    0.3513183348E-05    0.5243887497E+00    0.4460598555E-04    0.4276804974E-02
    0.1300000000E+02    0.1906952758E-04    0.3622236339E-05    0.5450496707E+00    0.4677402760E-04    0.4281501272E-02
    0.1500000000E+02    0.1956473605E-04    0.3717127988E-05    0.5612668913E+00    0.4895304693E-04    0.4285208703E-02
    0.1700000000E+02    0.2001634694E-04    0.3804409638E-05    0.5743348669E+00    0.5117793742E-04    0.4288208243E-02
    0.1900000000E+02    0.2044437610E-04    0.3887759714E-05    0.5850897725E+00    0.5346027868E-04    0.4290682350E-02
    0.2100000000E+02    0.2086055854E-04    0.3969308458E-05    0.5940958226E+00    0.5580138902E-04    0.4292754901E-02
    0.2300000000E+02    0.2127192698E-04    0.4050313057E-05    0.6017475254E+00    0.5819818503E-04    0.4294513092E-02
    0.2500000000E+02    0.2168274506E-04    0.4131520594E-05    0.6083290270E+00    0.6064589267E-04    0.4296020168E-02
    0.2700000000E+02    0.2209559848E-04    0.4213371833E-05    0.6140501814E+00    0.6313931234E-04    0.4297323173E-02
    0.2900000000E+02    0.2251203343E-04    0.4296119760E-05    0.6190693412E+00    0.6567339686E-04    0.4298457869E-02
    0.3100000000E+02    0.2293294144E-04    0.4379900589E-05    0.6235082436E+00    0.6824349634E-04    0.4299451948E-02
    0.3300000000E+02    0.2335879721E-04    0.4464777341E-05    0.6274620153E+00    0.7084544080E-04    0.4300327212E-02
    0.3500000000E+02    0.2378980870E-04    0.4550767102E-05    0.6310060668E+00    0.7347554512E-04    0.4301101072E-02
    0.3700000000E+02    0.2422601328E-04    0.4637858359E-05    0.6342009488E+00    0.7613057857E-04    0.4301787609E-02
    0.3900000000E+02    0.2466734041E-04    0.4726022147E-05    0.6370958407E+00    0.7880772057E-04    0.4302398349E-02
    0.4100000000E+02    0.2511365264E-04    0.4815219272E-05    0.6397311002E+00    0.8150451307E-04    0.4302942814E-02
    0.4300000000E+02    0.2556477283E-04    0.4905405024E-05    0.6421401565E+00    0.8421881467E-04    0.4303428954E-02
    0.4500000000E+02    0.2602050213E-04    0.4996532230E-05    0.6443509360E+00    0.8694875884E-04    0.4303863455E-02
    0.4700000000E+02    0.2648063194E-04    0.5088553242E-05    0.6463869499E+00    0.8969271673E-04    0.4304251987E-02
    0.4900000000E+02    0.2694495176E-04    0.5181421189E-05    0.6482681332E+00    0.9244926475E-04    0.4304599393E-02
    0.1000000000E+02    0.1816030269E-04    0.3449885490E-05    0.5117791233E+00    0.4350198588E-04    0.4273953433E-02
    0.3000000000E+02    0.2272189095E-04    0.4337875787E-05    0.6213548483E+00    0.6695421690E-04    0.4298971005E-02
    0.5000000000E+02    0.2717861791E-04    0.5228158529E-05    0.6491560796E+00    0.9383186436E-04    0.4304758998E-02
    0.7000000000E+02    0.3202612510E-04    0.6197596963E-05    0.6618478850E+00    0.1219135286E-03    0.4306550579E-02
    0.9000000000E+02    0.3711398910E-04    0.7214274478E-05    0.6691157547E+00    0.1504820596E-03    0.4306757955E-02
    0.1100000000E+03    0.4235973577E-04    0.8261587345E-05    0.6738244203E+00    0.1793212289E-03    0.4306146894E-02
    0.1300000000E+03    0.4772052191E-04    0.9331092151E-05    0.6771232173E+00    0.2083618661E-03    0.4305044055E-02
    0.1500000000E+03    0.5317302683E-04    0.1041826235E-04    0.6795628747E+00    0.2375857449E-03    0.4303614668E-02
    0.1700000000E+03    0.5870403506E-04    0.1152056894E-04    0.6814403313E+00    0.2669941822E-03    0.4301952209E-02
    0.1900000000E+03    0.6430589453E-04    0.1263657069E-04    0.6829298248E+00    0.2965963154E-03    0.4300113916E-02
    0.2100000000E+03    0.6997418706E-04    0.1376545293E-04    0.6841403359E+00    0.3264043222E-03    0.4298136959E-02
    0.2300000000E+03    0.7570646208E-04    0.1490677907E-04    0.6851435228E+00    0.3564313668E-03    0.4296046586E-02
    0.2500000000E+03    0.8150151318E-04    0.1606034972E-04    0.6859884389E+00    0.3866907026E-03    0.4293860567E-02
    0.2700000000E+03    0.8735894694E-04    0.1722611926E-04    0.6867097942E+00    0.4171952936E-03    0.4291591761E-02
    0.2900000000E+03    0.9327891678E-04    0.1840414477E-04    0.6873328411E+00    0.4479576746E-03    0.4289249687E-02
    0.3100000000E+03    0.9926195374E-04    0.1959455368E-04    0.6878763897E+00    0.4789899241E-03    0.4286841516E-02
    0.3300000000E+03    0.1053088562E-03    0.2079752284E-04    0.6883547393E+00    0.5103036875E-03    0.4284372728E-02
    0.3500000000E+03    0.1114206164E-03    0.2201326470E-04    0.6887789541E+00    0.5419102232E-03    0.4281847554E-02
    0.3700000000E+03    0.1175983708E-03    0.2324201802E-04    0.6891577290E+00    0.5738204550E-03    0.4279269286E-02
    0.3900000000E+03    0.1238433660E-03    0.2448404150E-04    0.6894979914E+00    0.6060450261E-03    0.4276640494E-02
    0.4100000000E+03    0.1301569348E-03    0.2573960948E-04    0.6898053290E+00    0.6385943492E-03    0.4273963188E-02
    0.4300000000E+03    0.1365404802E-03    0.2700900889E-04    0.6900842983E+00    0.6714786530E-03    0.4271238932E-02
    0.4500000000E+03    0.1429954634E-03    0.2829253721E-04    0.6903386523E+00    0.7047080248E-03    0.4268468936E-02
    0.4700000000E+03    0.1495233959E-03    0.2959050099E-04    0.6905715099E+00    0.7382924481E-03    0.4265654121E-02
    0.4900000000E+03    0.1561258341E-03    0.3090321495E-04    0.6907854846E+00    0.7722418366E-03    0.4262795169E-02
    0.1000000000E+03    0.3972042580E-04    0.7734754649E-05    0.6716973536E+00    0.1648739455E-03    0.4306528798E-02
    0.3000000000E+03    0.9626250724E-04    0.1899779122E-04    0.6876135706E+00    0.4634393283E-03    0.4288053488E-02
    0.5000000000E+03    0.1594554904E-03    0.3156520365E-04    0.6908860940E+00    0.7893564793E-03    0.4261349300E-02
    0.7000000000E+03    0.2303737072E-03    0.4566245966E-04    0.6922973016E+00    0.1153244986E-02    0.4230154962E-02
    0.9000000000E+03    0.3108391454E-03    0.6165459804E-04    0.6930832861E+00    0.1565458600E-02    0.4194393231E-02
    0.1100000000E+04    0.4031206734E-03    0.7999368811E-04    0.6935840456E+00    0.2038006757E-02    0.4153357862E-02
    0.1300000000E+04    0.5101007789E-03    0.1012532065E-03    0.6939309043E+00    0.2585877223E-02    0.4105973195E-02
    0.1500000000E+04    0.6355257747E-03    0.1261781247E-03    0.6941853038E+00    0.3228445611E-02    0.4050776171E-02
    0.1700000000E+04    0.7843587124E-03    0.1557552045E-03    0.6943798267E+00    0.3991341561E-02    0.3985809457E-02
    0.1900000000E+04    0.9632874450E-03    0.1913140818E-03    0.6945333590E+00    0.4909098221E-02    0.3908444162E-02
    0.2100000000E+04    0.1181464328E-02    0.2346743980E-03    0.6946576021E+00    0.6028999980E-02    0.3815117558E-02
    0.2300000000E+04    0.1451579815E-02    0.2883593518E-03    0.6947601920E+00    0.7416672214E-02    0.3700960179E-02
    0.2500000000E+04    0.1791378959E-02    0.3558973989E-03    0.6948463236E+00    0.9163999800E-02    0.3559293113E-02
    0.2700000000E+04    0.2225637273E-02    0.4422154783E-03    0.6949196540E+00    0.1139950412E-01    0.3381033012E-02
    0.2900000000E+04    0.2788170670E-02    0.5540394141E-03    0.6949828320E+00    0.1429906638E-01    0.3154250981E-02
    0.3100000000E+04    0.3522010385E-02    0.6999302187E-03    0.6950378232E+00    0.1808748126E-01    0.2864736142E-02
    0.3300000000E+04    0.4472265846E-02    0.8888677033E-03    0.6950861169E+00    0.2300267617E-01    0.2499774222E-02
    0.3500000000E+04    0.5660907872E-02    0.1125239979E-02    0.6951288621E+00    0.2916668533E-01    0.2058930882E-02
    0.3700000000E+04    0.7037977147E-02    0.1399142353E-02    0.6951669594E+00    0.3633328687E-01    0.1572160266E-02
    0.3900000000E+04    0.8448187854E-02    0.1679726337E-02    0.6952011246E+00    0.4371064862E-01    0.1107408048E-02
    0.4100000000E+04    0.9695870256E-02    0.1928092939E-02    0.6952319339E+00    0.5028912312E-01    0.7381184448E-03
    0.4300000000E+04    0.1067619169E-01    0.2123378915E-02    0.6952598562E+00    0.5551821133E-01    0.4929541170E-03
    0.4500000000E+04    0.1140957246E-01    0.2269617346E-02    0.6952852772E+00    0.5949210118E-01    0.3512418267E-03
    0.4700000000E+04    0.1197069523E-01    0.2381638021E-02    0.6953085167E+00    0.6258896603E-01    0.2762224491E-03
    0.4900000000E+04    0.1242720930E-01    0.2472881835E-02    0.6953298423E+00    0.6515464231E-01    0.2384210626E-03
    0.1000000000E+04    0.3553396529E-03    0.7049828570E-04    0.6933586572E+00    0.1793338964E-02    0.4174593674E-02
    0.3000000000E+04    0.3130731649E-02    0.6221402886E-03    0.6950112486E+00    0.1606671653E-01    0.3018246827E-02
    0.5000000000E+04    0.1263084139E-01    0.2513614587E-02    0.6953398594E+00    0.6631324256E-01    0.2274972060E-03
    0.7000000000E+04    0.1571192172E-01    0.3131896689E-02    0.6954795613E+00    0.8471409315E-01    0.2051059485E-03
    0.9000000000E+04    0.1803820571E-01    0.3601142920E-02    0.6955565040E+00    0.9971073021E-01    0.2079753075E-03
    0.1100000000E+05    0.1986774871E-01    0.3972161731E-02    0.6956050278E+00    0.1124281428E+00    0.2103148879E-03
    0.1300000000E+05    0.2132444002E-01    0.4269272539E-02    0.6956383104E+00    0.1233721350E+00    0.2122814373E-03
    0.1500000000E+05    0.2249549149E-01    0.4509620860E-02    0.6956624861E+00    0.1329070401E+00    0.2139799053E-03
    0.1700000000E+05    0.2344392993E-01    0.4705616945E-02    0.6956807942E+00    0.1413024123E+00    0.2154761420E-03
    0.1900000000E+05    0.2421630734E-01    0.4866441831E-02    0.6956951051E+00    0.1487621262E+00    0.2168142254E-03
    0.2100000000E+05    0.2484766106E-01    0.4999017021E-02    0.6957065733E+00    0.1554433513E+00    0.2180251395E-03
    0.2300000000E+05    0.2536479905E-01    0.5108647278E-02    0.6957159499E+00    0.1614692898E+00    0.2191315113E-03
    0.2500000000E+05    0.2578853167E-01    0.5199457685E-02    0.6957237441E+00    0.1669379480E+00    0.2201503783E-03
    0.2700000000E+05    0.2613522199E-01    0.5274697509E-02    0.6957303132E+00    0.1719283154E+00    0.2210948966E-03
    0.2900000000E+05    0.2641788428E-01    0.5336955706E-02    0.6957359151E+00    0.1765048023E+00    0.2219754404E-03
    0.3100000000E+05    0.2664697607E-01    0.5388316474E-02    0.6957407408E+00    0.1807204857E+00    0.2228003380E-03
    0.3300000000E+05    0.2683097858E-01    0.5430473329E-02    0.6957449344E+00    0.1846195213E+00    0.2235763781E-03
    0.3500000000E+05    0.2697682809E-01    0.5464813975E-02    0.6957486067E+00    0.1882389618E+00    0.2243091690E-03
    0.3700000000E+05    0.2709024067E-01    0.5492484274E-02    0.6957518444E+00    0.1916101448E+00    0.2250033982E-03
    0.3900000000E+05    0.2717595974E-01    0.5514437030E-02    0.6957547163E+00    0.1947597669E+00    0.2256630243E-03
    0.4100000000E+05    0.2723794663E-01    0.5531469615E-02    0.6957572773E+00    0.1977107223E+00    0.2262914211E-03
    0.4300000000E+05    0.2727952893E-01    0.5544253258E-02    0.6957595721E+00    0.2004827648E+00    0.2268914881E-03
    0.4500000000E+05    0.2730351686E-01    0.5553356074E-02    0.6957616375E+00    0.2030930357E+00    0.2274657357E-03
    0.4700000000E+05    0.2731229552E-01    0.5559261318E-02    0.6957635037E+00    0.2055564873E+00    0.2280163519E-03
    0.4900000000E+05    0.2730789846E-01    0.5562381967E-02    0.6957651959E+00    0.2078862267E+00    0.2285452556E-03
    0.1000000000E+05    0.1900627351E-01    0.3797204861E-02    0.6955832469E+00    0.1063186883E+00    0.2092006150E-03
    0.3000000000E+05    0.2653855575E-01    0.5363884381E-02    0.6957384151E+00    0.1786547993E+00    0.2223943894E-03
    0.5000000000E+05    0.2730131319E-01    0.5563010843E-02    0.6957659837E+00    0.2090046158E+00    0.2288021020E-03
    0.7000000000E+05    0.2679030229E-01    0.5493296054E-02    0.6957763387E+00    0.2265408256E+00    0.2331221187E-03
    0.9000000000E+05    0.2597415705E-01    0.5353397697E-02    0.6957812730E+00    0.2382797194E+00    0.2364015149E-03
    0.1100000000E+06    0.2510935044E-01    0.5197747807E-02    0.6957838864E+00    0.2468338474E+00    0.2390529744E-03
    0.1300000000E+06    0.2427500945E-01    0.5044074694E-02    0.6957853275E+00    0.2534210430E+00    0.2412828294E-03
    0.1500000000E+06    0.2349507500E-01    0.4898361200E-02    0.6957861119E+00    0.2586940982E+00    0.2432094283E-03
    0.1700000000E+06    0.2277422979E-01    0.4762325541E-02    0.6957865018E+00    0.2630381447E+00    0.2449070978E-03
    0.1900000000E+06    0.2211019624E-01    0.4636043170E-02    0.6957866427E+00    0.2666969000E+00    0.2464256396E-03
    0.2100000000E+06    0.2149835334E-01    0.4518962355E-02    0.6957866208E+00    0.2698330748E+00    0.2478000873E-03
    0.2300000000E+06    0.2093355279E-01    0.4410322006E-02    0.6957864898E+00    0.2725599866E+00    0.2490560403E-03
    0.2500000000E+06    0.2041083175E-01    0.4309327806E-02    0.6957862843E+00    0.2749593002E+00    0.2502127836E-03
    0.2700000000E+06    0.1992566933E-01    0.4215224914E-02    0.6957860277E+00    0.2770915559E+00    0.2512852142E-03
    0.2900000000E+06    0.1947405079E-01    0.4127324874E-02    0.6957857358E+00    0.2790027133E+00    0.2522850834E-03
    0.3100000000E+06    0.1905245228E-01    0.4045012052E-02    0.6957854197E+00    0.2807283757E+00    0.2532218271E-03
    0.3300000000E+06    0.1865779555E-01    0.3967741143E-02    0.6957850874E+00    0.2822966098E+00    0.2541031390E-03
    0.3500000000E+06    0.1828739450E-01    0.3895031110E-02    0.6957847446E+00    0.2837298798E+00    0.2549353761E-03
    0.3700000000E+06    0.1793890281E-01    0.3826458055E-02    0.6957843954E+00    0.2850464081E+00    0.2557238528E-03
    0.3900000000E+06    0.1761026654E-01    0.3761648171E-02    0.6957840431E+00    0.2862611522E+00    0.2564730578E-03
    0.4100000000E+06    0.1729968258E-01    0.3700271246E-02    0.6957836897E+00    0.2873865200E+00    0.2571868171E-03
    0.4300000000E+06    0.1700556300E-01    0.3642034896E-02    0.6957833370E+00    0.2884329029E+00    0.2578684194E-03
    0.4500000000E+06    0.1672650463E-01    0.3586679535E-02    0.6957829864E+00    0.2894090781E+00    0.2585207122E-03
    0.4700000000E+06    0.1646126345E-01    0.3533974034E-02    0.6957826386E+00    0.2903225176E+00    0.2591461776E-03
    0.4900000000E+06    0.1620873273E-01    0.3483712000E-02    0.6957822944E+00    0.2911796268E+00    0.2597469929E-03
    0.1000000000E+06    0.2554086984E-01    0.5276008066E-02    0.6957827755E+00    0.2428599664E+00    0.2377899718E-03
    0.3000000000E+06    0.1925970124E-01    0.4085505729E-02    0.6957855802E+00    0.2798868267E+00    0.2527608297E-03
    0.5000000000E+06    0.1608692091E-01    0.3459438754E-02    0.6957821238E+00    0.2915888149E+00    0.2600387657E-03
    0.7000000000E+06    0.1412650179E-01    0.3066219639E-02    0.6957789616E+00    0.2978300413E+00    0.2649466153E-03
    0.9000000000E+06    0.1275978706E-01    0.2789173547E-02    0.6957762649E+00    0.3018469415E+00    0.2686726281E-03
    0.1100000000E+07    0.1173543263E-01    0.2579893493E-02    0.6957739450E+00    0.3047042958E+00    0.2716853589E-03
    0.1300000000E+07    0.1092987531E-01    0.2414285272E-02    0.6957719172E+00    0.3068682473E+00    0.2742191314E-03
    0.1500000000E+07    0.1027431830E-01    0.2278814715E-02    0.6957701183E+00    0.3085791726E+00    0.2764083693E-03
    0.1700000000E+07    0.9726977730E-02    0.2165205049E-02    0.6957685025E+00    0.3099751455E+00    0.2783375036E-03
    0.1900000000E+07    0.9260793996E-02    0.2068065844E-02    0.6957670361E+00    0.3111418198E+00    0.2800631102E-03
    0.2100000000E+07    0.8857356267E-02    0.1983711997E-02    0.6957656935E+00    0.3121354951E+00    0.2816249904E-03
    0.2300000000E+07    0.8503637690E-02    0.1909525228E-02    0.6957644553E+00    0.3129948869E+00    0.2830522283E-03
    0.2500000000E+07    0.8190122448E-02    0.1843585933E-02    0.6957633063E+00    0.3137476023E+00    0.2843667351E-03
    0.2700000000E+07    0.7909673203E-02    0.1784449587E-02    0.6957622343E+00    0.3144139230E+00    0.2855854367E-03
    0.2900000000E+07    0.7656815873E-02    0.1731005002E-02    0.6957612294E+00    0.3150091259E+00    0.2867216850E-03
    0.3100000000E+07    0.7427271219E-02    0.1682381177E-02    0.6957602836E+00    0.3155449641E+00    0.2877862017E-03
    0.3300000000E+07    0.7217638421E-02    0.1637884177E-02    0.6957593902E+00    0.3160306461E+00    0.2887877289E-03
    0.3500000000E+07    0.7025175543E-02    0.1596953221E-02    0.6957585436E+00    0.3164735022E+00    0.2897334898E-03
    0.3700000000E+07    0.6847643629E-02    0.1559129414E-02    0.6957577390E+00    0.3168794490E+00    0.2906295233E-03
    0.3900000000E+07    0.6683193712E-02    0.1524033029E-02    0.6957569723E+00    0.3172533213E+00    0.2914809295E-03
    0.4100000000E+07    0.6530283416E-02    0.1491346706E-02    0.6957562401E+00    0.3175991134E+00    0.2922920565E-03
    0.4300000000E+07    0.6387614401E-02    0.1460802824E-02    0.6957555393E+00    0.3179201580E+00    0.2930666409E-03
    0.4500000000E+07    0.6254084752E-02    0.1432173866E-02    0.6957548673E+00    0.3182192601E+00    0.2938079185E-03
    0.4700000000E+07    0.6128752277E-02    0.1405264984E-02    0.6957542217E+00    0.3184988002E+00    0.2945187099E-03
    0.4900000000E+07    0.6010805851E-02    0.1379908180E-02    0.6957536006E+00    0.3187608130E+00    0.2952014892E-03
    0.1000000000E+07    0.1221432921E-01    0.2677912771E-02    0.6957750637E+00    0.3033837734E+00    0.2702502510E-03
    0.3000000000E+07    0.7539359653E-02    0.1706137426E-02    0.6957607496E+00    0.3152838394E+00    0.2872623232E-03
    0.5000000000E+07    0.5954379109E-02    0.1367765500E-02    0.6957532985E+00    0.3188858034E+00    0.2955330663E-03
    0.7000000000E+07    0.5083768485E-02    0.1179397018E-02    0.6957481883E+00    0.3207854536E+00    0.3011104753E-03
    0.9000000000E+07    0.4512786255E-02    0.1054722275E-02    0.6957442779E+00    0.3220027955E+00    0.3053448317E-03
    0.1100000000E+08    0.4100988934E-02    0.9641762476E-03    0.6957411016E+00    0.3228672482E+00    0.3087685985E-03
    0.1300000000E+08    0.3785733517E-02    0.8944652112E-03    0.6957384222E+00    0.3235215940E+00    0.3116480636E-03
    0.1500000000E+08    0.3534263424E-02    0.8385940894E-03    0.6957361022E+00    0.3240390148E+00    0.3141359888E-03
    0.1700000000E+08    0.3327552040E-02    0.7924788408E-03    0.6957340547E+00    0.3244613811E+00    0.3163283235E-03
    0.1900000000E+08    0.3153685904E-02    0.7535510413E-03    0.6957322209E+00    0.3248145987E+00    0.3182893623E-03
    0.2100000000E+08    0.3004771631E-02    0.7201024602E-03    0.6957305595E+00    0.3251156646E+00    0.3200643365E-03
    0.2300000000E+08    0.2875343206E-02    0.6909461808E-03    0.6957290401E+00    0.3253762533E+00    0.3216862983E-03
    0.2500000000E+08    0.2761478715E-02    0.6652279945E-03    0.6957276398E+00    0.3256046826E+00    0.3231801482E-03
    0.2700000000E+08    0.2660280814E-02    0.6423151092E-03    0.6957263408E+00    0.3258070605E+00    0.3245651216E-03
