  Pressure (Pa) 22mC5-500 (mol/kg) 23mC5-500 (mol/kg) 24mC5-500 (mol/kg) 2mC6-500 (mol/kg) C7-500 (mol/kg)
    0.1000000000E+01    0.7489807043E-05    0.3586397755E-05    0.6964806173E-01    0.1301420848E-04    0.4216570717E-02
    0.3000000000E+01    0.1796352187E-04    0.8585651689E-05    0.1740682186E+00    0.3017160128E-04    0.4300442697E-02
    0.5000000000E+01    0.2486230335E-04    0.1186563156E-04    0.2486170332E+00    0.4073965262E-04    0.4359357524E-02
    0.7000000000E+01    0.2965852192E-04    0.1413743347E-04    0.3045092495E+00    0.4767204614E-04    0.4403798805E-02
    0.9000000000E+01    0.3313311946E-04    0.1577745037E-04    0.3479700035E+00    0.5246781394E-04    0.4438656374E-02
    0.1100000000E+02    0.3573592439E-04    0.1700205180E-04    0.3827320311E+00    0.5595308810E-04    0.4466796827E-02
    0.1300000000E+02    0.3774193750E-04    0.1794323955E-04    0.4111695638E+00    0.5860988585E-04    0.4490034703E-02
    0.1500000000E+02    0.3932725591E-04    0.1868535847E-04    0.4348648209E+00    0.6073193643E-04    0.4509579176E-02
    0.1700000000E+02    0.4060892828E-04    0.1928434507E-04    0.4549128501E+00    0.6250444755E-04    0.4526268585E-02
    0.1900000000E+02    0.4166717845E-04    0.1977844789E-04    0.4720956327E+00    0.6404741977E-04    0.4540703151E-02
    0.2100000000E+02    0.4255842002E-04    0.2019449787E-04    0.4869865029E+00    0.6544031177E-04    0.4553324283E-02
    0.2300000000E+02    0.4332319542E-04    0.2055172846E-04    0.5000153870E+00    0.6673664943E-04    0.4564464071E-02
    0.2500000000E+02    0.4399118888E-04    0.2086418458E-04    0.5115110037E+00    0.6797296965E-04    0.4574377302E-02
    0.2700000000E+02    0.4458448712E-04    0.2114228742E-04    0.5217289912E+00    0.6917445277E-04    0.4583262819E-02
    0.2900000000E+02    0.4511975554E-04    0.2139387728E-04    0.5308711474E+00    0.7035855677E-04    0.4591278154E-02
    0.3100000000E+02    0.4560972369E-04    0.2162492448E-04    0.5390988958E+00    0.7153741226E-04    0.4598549778E-02
    0.3300000000E+02    0.4606421979E-04    0.2184002361E-04    0.5465429020E+00    0.7271943006E-04    0.4605180441E-02
    0.3500000000E+02    0.4649090394E-04    0.2204274342E-04    0.5533100665E+00    0.7391039776E-04    0.4611254514E-02
    0.3700000000E+02    0.4689579624E-04    0.2223587836E-04    0.5594886931E+00    0.7511423842E-04    0.4616841949E-02
    0.3900000000E+02    0.4728366258E-04    0.2242163205E-04    0.5651523645E+00    0.7633354196E-04    0.4622001253E-02
    0.4100000000E+02    0.4765830014E-04    0.2260175287E-04    0.5703628869E+00    0.7756994143E-04    0.4626781750E-02
    0.4300000000E+02    0.4802275120E-04    0.2277763531E-04    0.5751725557E+00    0.7882438197E-04    0.4631225328E-02
    0.4500000000E+02    0.4837946495E-04    0.2295039648E-04    0.5796259174E+00    0.8009731460E-04    0.4635367803E-02
    0.4700000000E+02    0.4873042117E-04    0.2312093463E-04    0.5837611531E+00    0.8138883675E-04    0.4639239985E-02
    0.4900000000E+02    0.4907722565E-04    0.2328997402E-04    0.5876111767E+00    0.8269879486E-04    0.4642868531E-02
    0.1000000000E+02    0.3452334373E-04    0.1643199846E-04    0.3662665161E+00    0.5433841371E-04    0.4453434856E-02
    0.3000000000E+02    0.4536972967E-04    0.2151165398E-04    0.5350905276E+00    0.7094804256E-04    0.4595000022E-02
    0.5000000000E+02    0.4924948911E-04    0.2337411922E-04    0.5894382991E+00    0.8336058969E-04    0.4644598807E-02
    0.7000000000E+02    0.5268886073E-04    0.2507205851E-04    0.6162664562E+00    0.9744181212E-04    0.4670718909E-02
    0.9000000000E+02    0.5632113606E-04    0.2688354371E-04    0.6322545833E+00    0.1127462775E-03    0.4687066598E-02
    0.1100000000E+03    0.6020264528E-04    0.2882540807E-04    0.6428683565E+00    0.1288452465E-03    0.4698310503E-02
    0.1300000000E+03    0.6430510109E-04    0.3087939426E-04    0.6504276423E+00    0.1454829086E-03    0.4706505766E-02
    0.1500000000E+03    0.6859259550E-04    0.3302588649E-04    0.6560850675E+00    0.1625092128E-03    0.4712709623E-02
    0.1700000000E+03    0.7303490732E-04    0.3524907708E-04    0.6604781201E+00    0.1798336927E-03    0.4717526639E-02
    0.1900000000E+03    0.7760861453E-04    0.3753697407E-04    0.6639880145E+00    0.1974001440E-03    0.4721330136E-02
    0.2100000000E+03    0.8229591961E-04    0.3988058747E-04    0.6668567106E+00    0.2151727906E-03    0.4724364507E-02
    0.2300000000E+03    0.8708331105E-04    0.4227315876E-04    0.6692451793E+00    0.2331284846E-03    0.4726797269E-02
    0.2500000000E+03    0.9196047633E-04    0.4470956957E-04    0.6712646712E+00    0.2512521439E-03    0.4728747576E-02
    0.2700000000E+03    0.9691948951E-04    0.4718591203E-04    0.6729945379E+00    0.2695339878E-03    0.4730302814E-02
    0.2900000000E+03    0.1019542183E-03    0.4969918067E-04    0.6744928998E+00    0.2879678078E-03    0.4731528728E-02
    0.3100000000E+03    0.1070598925E-03    0.5224705074E-04    0.6758033021E+00    0.3065498554E-03    0.4732475866E-02
    0.3300000000E+03    0.1122327880E-03    0.5482771757E-04    0.6769590138E+00    0.3252781097E-03    0.4733183825E-02
    0.3500000000E+03    0.1174699936E-03    0.5743977866E-04    0.6779858901E+00    0.3441517829E-03    0.4733684124E-02
    0.3700000000E+03    0.1227692371E-03    0.6008214627E-04    0.6789043288E+00    0.3631709814E-03    0.4734002212E-02
    0.3900000000E+03    0.1281287534E-03    0.6275398178E-04    0.6797306378E+00    0.3823364697E-03    0.4734158893E-02
    0.4100000000E+03    0.1335471850E-03    0.6545464582E-04    0.6804780113E+00    0.4016495022E-03    0.4734171360E-02
    0.4300000000E+03    0.1390235042E-03    0.6818366010E-04    0.6811572391E+00    0.4211117033E-03    0.4734053964E-02
    0.4500000000E+03    0.1445569539E-03    0.7094067773E-04    0.6817772302E+00    0.4407249803E-03    0.4733818788E-02
    0.4700000000E+03    0.1501469995E-03    0.7372546010E-04    0.6823454058E+00    0.4604914596E-03    0.4733476083E-02
    0.4900000000E+03    0.1557932929E-03    0.7653785857E-04    0.6828679972E+00    0.4804134398E-03    0.4733034612E-02
    0.1000000000E+03    0.5823198400E-04    0.2783914621E-04    0.6380483657E+00    0.1207156495E-03    0.4693164292E-02
    0.3000000000E+03    0.1044984414E-03    0.5096891395E-04    0.6751693148E+00    0.2972404632E-03    0.4732034452E-02
    0.5000000000E+03    0.1586374669E-03    0.7795438836E-04    0.6831138783E+00    0.4904334993E-03    0.4732779235E-02
    0.7000000000E+03    0.2184902473E-03    0.1077474086E-03    0.6865736509E+00    0.6996471322E-03    0.4723858829E-02
    0.9000000000E+03    0.2843198661E-03    0.1404933607E-03    0.6885093124E+00    0.9276908326E-03    0.4709606712E-02
    0.1100000000E+04    0.3568836820E-03    0.1765752978E-03    0.6897456814E+00    0.1177903949E-02    0.4691288373E-02
    0.1300000000E+04    0.4372039219E-03    0.2165047259E-03    0.6906034279E+00    0.1454151521E-02    0.4669271927E-02
    0.1500000000E+04    0.5265514919E-03    0.2609152887E-03    0.6912331868E+00    0.1760995075E-02    0.4643533190E-02
    0.1700000000E+04    0.6264853641E-03    0.3105830591E-03    0.6917150612E+00    0.2103911975E-02    0.4613812938E-02
    0.1900000000E+04    0.7389215455E-03    0.3664611577E-03    0.6920955746E+00    0.2489569785E-02    0.4579666737E-02
    0.2100000000E+04    0.8662299962E-03    0.4297281057E-03    0.6924035953E+00    0.2926178896E-02    0.4540470223E-02
    0.2300000000E+04    0.1011365575E-02    0.5018530220E-03    0.6926579850E+00    0.3423954967E-02    0.4495399222E-02
    0.2500000000E+04    0.1178043747E-02    0.5846830434E-03    0.6928715876E+00    0.3995732866E-02    0.4443390232E-02
    0.2700000000E+04    0.1370976228E-02    0.6805605274E-03    0.6930534516E+00    0.4657787043E-02    0.4383081195E-02
    0.2900000000E+04    0.1596186321E-02    0.7924798917E-03    0.6932101353E+00    0.5430928775E-02    0.4312729812E-02
    0.3100000000E+04    0.1861427437E-02    0.9242957761E-03    0.6933465080E+00    0.6341963803E-02    0.4230105665E-02
    0.3300000000E+04    0.2176727107E-02    0.1080993660E-02    0.6934662607E+00    0.7425591321E-02    0.4132353954E-02
    0.3500000000E+04    0.2555062518E-02    0.1269025985E-02    0.6935722419E+00    0.8726771364E-02    0.4015835916E-02
    0.3700000000E+04    0.3013117354E-02    0.1496688915E-02    0.6936666853E+00    0.1030339766E-01    0.3875971655E-02
    0.3900000000E+04    0.3571919127E-02    0.1774440043E-02    0.6937513666E+00    0.1222859898E-01    0.3707161096E-02
    0.4100000000E+04    0.4256807063E-02    0.2114883880E-02    0.6938277158E+00    0.1459079294E-01    0.3502966298E-02
    0.4300000000E+04    0.5095488650E-02    0.2531807940E-02    0.6938968965E+00    0.1748722528E-01    0.3256935643E-02
    0.4500000000E+04    0.6111913785E-02    0.3037140336E-02    0.6939598658E+00    0.2100313810E-01    0.2964706676E-02
    0.4700000000E+04    0.7313223259E-02    0.3634463965E-02    0.6940174182E+00    0.2516695780E-01    0.2628023337E-02
    0.4900000000E+04    0.8670217116E-02    0.4309305465E-02    0.6940702180E+00    0.2988266567E-01    0.2260120527E-02
    0.1000000000E+04    0.3197017286E-03    0.1580881074E-03    0.6891889063E+00    0.1049798704E-02    0.4700920479E-02
    0.3000000000E+04    0.1723236884E-02    0.8556193143E-03    0.6932806068E+00    0.5867251470E-02    0.4273113838E-02
    0.5000000000E+04    0.9383921295E-02    0.4664288592E-02    0.6940950144E+00    0.3236898513E-01    0.2072628457E-02
    0.7000000000E+04    0.1713371800E-01    0.8527083779E-02    0.6944403751E+00    0.6030528711E-01    0.7414010673E-03
    0.9000000000E+04    0.2006376266E-01    0.9997837936E-02    0.6946299701E+00    0.7206748282E-01    0.7404919374E-03
    0.1100000000E+05    0.2243345203E-01    0.1119196994E-01    0.6947491051E+00    0.8214371973E-01    0.7488057487E-03
    0.1300000000E+05    0.2440041217E-01    0.1218707561E-01    0.6948305031E+00    0.9099296723E-01    0.7558360293E-03
    0.1500000000E+05    0.2604807760E-01    0.1302410176E-01    0.6948893867E+00    0.9884282933E-01    0.7619038343E-03
    0.1700000000E+05    0.2743882686E-01    0.1373369506E-01    0.6949337880E+00    0.1058663053E+00    0.7672462534E-03
    0.1900000000E+05    0.2862028913E-01    0.1433928302E-01    0.6949683401E+00    0.1121978393E+00    0.7720219712E-03
    0.2100000000E+05    0.2962940710E-01    0.1485905835E-01    0.6949959008E+00    0.1179435782E+00    0.7763423761E-03
    0.2300000000E+05    0.3049523445E-01    0.1530734601E-01    0.6950183265E+00    0.1231885041E+00    0.7802887204E-03
    0.2500000000E+05    0.3124090425E-01    0.1569556584E-01    0.6950368748E+00    0.1280015064E+00    0.7839221308E-03
    0.2700000000E+05    0.3188504035E-01    0.1603292311E-01    0.6950524270E+00    0.1324390552E+00    0.7872897719E-03
    0.2900000000E+05    0.3244278651E-01    0.1632691250E-01    0.6950656189E+00    0.1365479082E+00    0.7904288124E-03
    0.3100000000E+05    0.3292656832E-01    0.1658369137E-01    0.6950769201E+00    0.1403671362E+00    0.7933690744E-03
    0.3300000000E+05    0.3334666519E-01    0.1680836021E-01    0.6950866850E+00    0.1439296585E+00    0.7961348566E-03
    0.3500000000E+05    0.3371164501E-01    0.1700517593E-01    0.6950951857E+00    0.1472634233E+00    0.7987462242E-03
    0.3700000000E+05    0.3402869838E-01    0.1717771598E-01    0.6951026347E+00    0.1503923240E+00    0.8012199422E-03
    0.3900000000E+05    0.3430389832E-01    0.1732900589E-01    0.6951092001E+00    0.1533369195E+00    0.8035701642E-03
    0.4100000000E+05    0.3454240394E-01    0.1746161947E-01    0.6951150166E+00    0.1561150043E+00    0.8058089501E-03
    0.4300000000E+05    0.3474862170E-01    0.1757775814E-01    0.6951201934E+00    0.1587420655E+00    0.8079466612E-03
    0.4500000000E+05    0.3492633411E-01    0.1767931431E-01    0.6951248199E+00    0.1612316507E+00    0.8099922663E-03
    0.4700000000E+05    0.3507880323E-01    0.1776792237E-01    0.6951289699E+00    0.1635956678E+00    0.8119535812E-03
    0.4900000000E+05    0.3520885453E-01    0.1784500006E-01    0.6951327049E+00    0.1658446297E+00    0.8138374594E-03
    0.1000000000E+05    0.2130526332E-01    0.1062287979E-01    0.6946956843E+00    0.7727608180E-01    0.7448236632E-03
    0.3000000000E+05    0.3269323586E-01    0.1645961248E-01    0.6950714814E+00    0.1384915390E+00    0.7919221598E-03
    0.5000000000E+05    0.3526625414E-01    0.1787960723E-01    0.6951344332E+00    0.1669289194E+00    0.8147522763E-03
    0.7000000000E+05    0.3569116131E-01    0.1819515469E-01    0.6951562485E+00    0.1843621907E+00    0.8301362148E-03
    0.9000000000E+05    0.3539398837E-01    0.1812637439E-01    0.6951654692E+00    0.1965527199E+00    0.8418115831E-03
    0.1100000000E+06    0.3482425248E-01    0.1790452647E-01    0.6951694708E+00    0.2057544271E+00    0.8512500065E-03
    0.1300000000E+06    0.3415431558E-01    0.1762031522E-01    0.6951709357E+00    0.2130541966E+00    0.8591868823E-03
    0.1500000000E+06    0.3345794043E-01    0.1731371072E-01    0.6951710440E+00    0.2190503228E+00    0.8660438861E-03
    0.1700000000E+06    0.3276850494E-01    0.1700355066E-01    0.6951703820E+00    0.2241037893E+00    0.8720857860E-03
    0.1900000000E+06    0.3210122637E-01    0.1669897625E-01    0.6951692672E+00    0.2284475851E+00    0.8774899586E-03
    0.2100000000E+06    0.3146263239E-01    0.1640437149E-01    0.6951678823E+00    0.2322400554E+00    0.8823811662E-03
    0.2300000000E+06    0.3085493282E-01    0.1612167828E-01    0.6951663373E+00    0.2355932967E+00    0.8868505645E-03
    0.2500000000E+06    0.3027815985E-01    0.1585155055E-01    0.6951647010E+00    0.2385893304E+00    0.8909668201E-03
    0.2700000000E+06    0.2973126170E-01    0.1559395693E-01    0.6951630173E+00    0.2412898319E+00    0.8947829717E-03
    0.2900000000E+06    0.2921267798E-01    0.1534850657E-01    0.6951613149E+00    0.2437422525E+00    0.8983408554E-03
    0.3100000000E+06    0.2872064740E-01    0.1511462953E-01    0.6951596127E+00    0.2459838186E+00    0.9016740633E-03
    0.3300000000E+06    0.2825337258E-01    0.1489167809E-01    0.6951579231E+00    0.2480442300E+00    0.9048099837E-03
    0.3500000000E+06    0.2780910675E-01    0.1467898376E-01    0.6951562545E+00    0.2499475302E+00    0.9077712464E-03
    0.3700000000E+06    0.2738619696E-01    0.1447588903E-01    0.6951546123E+00    0.2517134356E+00    0.9105767681E-03
    0.3900000000E+06    0.2698310310E-01    0.1428176436E-01    0.6951529997E+00    0.2533582982E+00    0.9132425262E-03
    0.4100000000E+06    0.2659840332E-01    0.1409601662E-01    0.6951514189E+00    0.2548958183E+00    0.9157821398E-03
    0.4300000000E+06    0.2623079202E-01    0.1391809251E-01    0.6951498710E+00    0.2563375786E+00    0.9182073140E-03
    0.4500000000E+06    0.2587907403E-01    0.1374747903E-01    0.6951483562E+00    0.2576934525E+00    0.9205281837E-03
    0.4700000000E+06    0.2554215691E-01    0.1358370229E-01    0.6951468747E+00    0.2589719182E+00    0.9227535838E-03
    0.4900000000E+06    0.2521904262E-01    0.1342632550E-01    0.6951454260E+00    0.2601803059E+00    0.9248912631E-03
    0.1000000000E+06    0.3512897457E-01    0.1802715238E-01    0.6951679012E+00    0.2014431541E+00    0.8467542182E-03
    0.3000000000E+06    0.2896345633E-01    0.1523016087E-01    0.6951604629E+00    0.2448873849E+00    0.9000337059E-03
    0.5000000000E+06    0.2506237340E-01    0.1334991013E-01    0.6951447137E+00    0.2607602460E+00    0.9259293749E-03
    0.7000000000E+06    0.2247012678E-01    0.1207571390E-01    0.6951319937E+00    0.2698673930E+00    0.9433907359E-03
    0.9000000000E+06    0.2058605967E-01    0.1113840412E-01    0.6951215875E+00    0.2760152446E+00    0.9566467320E-03
    0.1100000000E+07    0.1913343005E-01    0.1040940968E-01    0.6951128199E+00    0.2805427158E+00    0.9673647654E-03
    0.1300000000E+07    0.1796688363E-01    0.9819973248E-02    0.6951052513E+00    0.2840646509E+00    0.9763786539E-03
    0.1500000000E+07    0.1700187869E-01    0.9329626537E-02    0.6950985928E+00    0.2869100423E+00    0.9841667125E-03
    0.1700000000E+07    0.1618539897E-01    0.8912767193E-02    0.6950926474E+00    0.2892735998E+00    0.9910293600E-03
    0.1900000000E+07    0.1548224424E-01    0.8552277121E-02    0.6950872753E+00    0.2912791599E+00    0.9971678983E-03
    0.2100000000E+07    0.1486797622E-01    0.8236202746E-02    0.6950823740E+00    0.2930098678E+00    0.1002723940E-02
    0.2300000000E+07    0.1432500950E-01    0.7955899811E-02    0.6950778664E+00    0.2945239632E+00    0.1007800966E-02
    0.2500000000E+07    0.1384031263E-01    0.7704934947E-02    0.6950736927E+00    0.2958636539E+00    0.1012476934E-02
    0.2700000000E+07    0.1340398907E-01    0.7478403765E-02    0.6950698058E+00    0.2970603978E+00    0.1016812064E-02
    0.2900000000E+07    0.1300836527E-01    0.7272490454E-02    0.6950661682E+00    0.2981381981E+00    0.1020853859E-02
    0.3100000000E+07    0.1264738415E-01    0.7084173693E-02    0.6950627490E+00    0.2991157383E+00    0.1024640465E-02
    0.3300000000E+07    0.1231619006E-01    0.6911024549E-02    0.6950595229E+00    0.3000078138E+00    0.1028202984E-02
    0.3500000000E+07    0.1201083727E-01    0.6751064104E-02    0.6950564689E+00    0.3008263169E+00    0.1031567115E-02
    0.3700000000E+07    0.1172808082E-01    0.6602660961E-02    0.6950535690E+00    0.3015809334E+00    0.1034754342E-02
    0.3900000000E+07    0.1146522343E-01    0.6464456013E-02    0.6950508081E+00    0.3022796437E+00    0.1037782809E-02
    0.4100000000E+07    0.1122000158E-01    0.6335306300E-02    0.6950481731E+00    0.3029290922E+00    0.1040667986E-02
    0.4300000000E+07    0.1099049928E-01    0.6214242449E-02    0.6950456529E+00    0.3035348621E+00    0.1043423166E-02
    0.4500000000E+07    0.1077508206E-01    0.6100435963E-02    0.6950432375E+00    0.3041016849E+00    0.1046059861E-02
    0.4700000000E+07    0.1057234568E-01    0.5993173788E-02    0.6950409184E+00    0.3046336009E+00    0.1048588104E-02
    0.4900000000E+07    0.1038107582E-01    0.5891838286E-02    0.6950386880E+00    0.3051340842E+00    0.1051016699E-02
    0.1000000000E+07    0.1981684623E-01    0.1075306473E-01    0.6951170309E+00    0.2784335439E+00    0.9622592880E-03
    0.3000000000E+07    0.1282387211E-01    0.7176296296E-02    0.6950644329E+00    0.2986384982E+00    0.1022776974E-02
    0.5000000000E+07    0.1028940531E-01    0.5843222131E-02    0.6950376039E+00    0.3053734941E+00    0.1052196090E-02
    0.7000000000E+07    0.8861425487E-02    0.5081636772E-02    0.6950192909E+00    0.3090661150E+00    0.1072034049E-02
    0.9000000000E+07    0.7910963123E-02    0.4569923790E-02    0.6950053083E+00    0.3114879968E+00    0.1087094484E-02
    0.1100000000E+08    0.7218583035E-02    0.4194476764E-02    0.6949939646E+00    0.3132356189E+00    0.1099271566E-02
    0.1300000000E+08    0.6684597755E-02    0.3903239666E-02    0.6949844033E+00    0.3145744479E+00    0.1109512551E-02
    0.1500000000E+08    0.6256201589E-02    0.3668454073E-02    0.6949761293E+00    0.3156431659E+00    0.1118360845E-02
    0.1700000000E+08    0.5902420179E-02    0.3473749060E-02    0.6949688298E+00    0.3165222948E+00    0.1126157751E-02
    0.1900000000E+08    0.5603707299E-02    0.3308746239E-02    0.6949622946E+00    0.3172622484E+00    0.1133131972E-02
    0.2100000000E+08    0.5347029289E-02    0.3166497514E-02    0.6949563752E+00    0.3178964310E+00    0.1139444397E-02
    0.2300000000E+08    0.5123311908E-02    0.3042148428E-02    0.6949509629E+00    0.3184479784E+00    0.1145212592E-02
    0.2500000000E+08    0.4926014226E-02    0.2932188699E-02    0.6949459757E+00    0.3189334943E+00    0.1150525127E-02
    0.2700000000E+08    0.4750284666E-02    0.2834007204E-02    0.6949413500E+00    0.3193652481E+00    0.1155450420E-02
