  Pressure (Pa) 22mC5-500 (mol/kg) 23mC5-500 (mol/kg) 24mC5-500 (mol/kg) 2mC6-500 (mol/kg) C7-500 (mol/kg)
    0.1000000000E+01    0.7681419060E-05    0.7362571759E-05    0.6965199008E-01    0.1363534280E-04    0.4148030603E-02
    0.3000000000E+01    0.1837825259E-04    0.1758201722E-04    0.1740929455E+00    0.3151386159E-04    0.4179504589E-02
    0.5000000000E+01    0.2546584306E-04    0.2432891174E-04    0.2486678256E+00    0.4269080113E-04    0.4192395066E-02
    0.7000000000E+01    0.3043494532E-04    0.2904367510E-04    0.3045859275E+00    0.5018040825E-04    0.4200838864E-02
    0.9000000000E+01    0.3407233386E-04    0.3248487675E-04    0.3480707104E+00    0.5550095018E-04    0.4207022086E-02
    0.1100000000E+02    0.3683071649E-04    0.3508810985E-04    0.3828545144E+00    0.5948799459E-04    0.4211792640E-02
    0.1300000000E+02    0.3898680490E-04    0.3711907297E-04    0.4113116247E+00    0.6262911962E-04    0.4215593479E-02
    0.1500000000E+02    0.4071782336E-04    0.3874757200E-04    0.4350244608E+00    0.6522168982E-04    0.4218690716E-02
    0.1700000000E+02    0.4214161405E-04    0.4008626539E-04    0.4550883039E+00    0.6745345476E-04    0.4221257676E-02
    0.1900000000E+02    0.4333898594E-04    0.4121222922E-04    0.4722853590E+00    0.6944627880E-04    0.4223413473E-02
    0.2100000000E+02    0.4436679940E-04    0.4217956734E-04    0.4871891606E+00    0.7128103712E-04    0.4225243230E-02
    0.2300000000E+02    0.4526594733E-04    0.4302709325E-04    0.5002298083E+00    0.7301236271E-04    0.4226809649E-02
    0.2500000000E+02    0.4606639506E-04    0.4378317474E-04    0.5117361695E+00    0.7467767771E-04    0.4228160069E-02
    0.2700000000E+02    0.4679045884E-04    0.4446888110E-04    0.5219640090E+00    0.7630288374E-04    0.4229330959E-02
    0.2900000000E+02    0.4745499446E-04    0.4510008116E-04    0.5311152324E+00    0.7790603595E-04    0.4230350912E-02
    0.3100000000E+02    0.4807289148E-04    0.4568887369E-04    0.5393513550E+00    0.7949976617E-04    0.4231242680E-02
    0.3300000000E+02    0.4865411412E-04    0.4624458233E-04    0.5468031208E+00    0.8109291089E-04    0.4232024610E-02
    0.3500000000E+02    0.4920643931E-04    0.4677446002E-04    0.5535774976E+00    0.8269162305E-04    0.4232711669E-02
    0.3700000000E+02    0.4973598835E-04    0.4728419566E-04    0.5597628475E+00    0.8430014215E-04    0.4233316193E-02
    0.3900000000E+02    0.5024761554E-04    0.4777828390E-04    0.5654328029E+00    0.8592133447E-04    0.4233848447E-02
    0.4100000000E+02    0.5074519584E-04    0.4826029833E-04    0.5706492139E+00    0.8755707620E-04    0.4234317042E-02
    0.4300000000E+02    0.5123184039E-04    0.4873309596E-04    0.5754644138E+00    0.8920852780E-04    0.4234729260E-02
    0.4500000000E+02    0.5171005971E-04    0.4919897168E-04    0.5799229824E+00    0.9087633212E-04    0.4235091303E-02
    0.4700000000E+02    0.5218188851E-04    0.4965977620E-04    0.5840631301E+00    0.9256075848E-04    0.4235408485E-02
    0.4900000000E+02    0.5264898198E-04    0.5011700695E-04    0.5879177966E+00    0.9426180803E-04    0.4235685385E-02
    0.1000000000E+02    0.3554112370E-04    0.3387175644E-04    0.3663783950E+00    0.5762490341E-04    0.4209550588E-02
    0.3000000000E+02    0.4776909132E-04    0.4539914000E-04    0.5353388811E+00    0.7870345262E-04    0.4230811583E-02
    0.5000000000E+02    0.5288118524E-04    0.5034467118E-04    0.5897471468E+00    0.9511851305E-04    0.4235809992E-02
    0.7000000000E+02    0.5749763791E-04    0.5490658943E-04    0.6166101044E+00    0.1130307576E-03    0.4236920322E-02
    0.9000000000E+02    0.6228147985E-04    0.5967043119E-04    0.6326213457E+00    0.1320881854E-03    0.4236470553E-02
    0.1100000000E+03    0.6730337497E-04    0.6468403443E-04    0.6432518684E+00    0.1519074357E-03    0.4235229885E-02
    0.1300000000E+03    0.7254342302E-04    0.6991917961E-04    0.6508240167E+00    0.1722594374E-03    0.4233527951E-02
    0.1500000000E+03    0.7797123355E-04    0.7534209413E-04    0.6564917354E+00    0.1930118347E-03    0.4231529842E-02
    0.1700000000E+03    0.8356051990E-04    0.8092505655E-04    0.6608932830E+00    0.2140868423E-03    0.4229327364E-02
    0.1900000000E+03    0.8929083911E-04    0.8664703217E-04    0.6644103564E+00    0.2354378995E-03    0.4226975562E-02
    0.2100000000E+03    0.9514675795E-04    0.9249238222E-04    0.6672852351E+00    0.2570369138E-03    0.4224509349E-02
    0.2300000000E+03    0.1011167144E-03    0.9844952055E-04    0.6696791101E+00    0.2788670960E-03    0.4221951852E-02
    0.2500000000E+03    0.1071920550E-03    0.1045098542E-03    0.6717033898E+00    0.3009187938E-03    0.4219318921E-02
    0.2700000000E+03    0.1133663043E-03    0.1106670046E-03    0.6734375417E+00    0.3231869880E-03    0.4216621712E-02
    0.2900000000E+03    0.1196346268E-03    0.1169162463E-03    0.6749397739E+00    0.3456697404E-03    0.4213868249E-02
    0.3100000000E+03    0.1259934349E-03    0.1232541020E-03    0.6762536988E+00    0.3683672071E-03    0.4211064392E-02
    0.3300000000E+03    0.1324401004E-03    0.1296780492E-03    0.6774126383E+00    0.3912809952E-03    0.4208214476E-02
    0.3500000000E+03    0.1389727428E-03    0.1361863046E-03    0.6784424899E+00    0.4144137362E-03    0.4205321729E-02
    0.3700000000E+03    0.1455900703E-03    0.1427776656E-03    0.6793636853E+00    0.4377687980E-03    0.4202388567E-02
    0.3900000000E+03    0.1522912612E-03    0.1494513903E-03    0.6801925603E+00    0.4613500869E-03    0.4199416790E-02
    0.4100000000E+03    0.1590758725E-03    0.1562071076E-03    0.6809423322E+00    0.4851619116E-03    0.4196407733E-02
    0.4300000000E+03    0.1659437711E-03    0.1630447484E-03    0.6816238100E+00    0.5092088869E-03    0.4193362368E-02
    0.4500000000E+03    0.1728950799E-03    0.1699644922E-03    0.6822459191E+00    0.5334958672E-03    0.4190281383E-02
    0.4700000000E+03    0.1799301352E-03    0.1769667259E-03    0.6828160943E+00    0.5580278989E-03    0.4187165240E-02
    0.4900000000E+03    0.1870494543E-03    0.1840520113E-03    0.6833405790E+00    0.5828101869E-03    0.4184014218E-02
    0.1000000000E+03    0.6476330431E-04    0.6214734084E-04    0.6384241050E+00    0.1419198294E-03    0.4235922871E-02
    0.3000000000E+03    0.1228029041E-03    0.1200742746E-03    0.6756179900E+00    0.3569915622E-03    0.4212472319E-02
    0.5000000000E+03    0.1906409175E-03    0.1876260156E-03    0.6835873700E+00    0.5952968412E-03    0.4182425674E-02
    0.7000000000E+03    0.2671253804E-03    0.2637049557E-03    0.6870616222E+00    0.8595414042E-03    0.4148799252E-02
    0.9000000000E+03    0.3534488386E-03    0.3495246585E-03    0.6890074087E+00    0.1155672218E-02    0.4111335269E-02
    0.1100000000E+04    0.4514869829E-03    0.4469618674E-03    0.6902515358E+00    0.1490821118E-02    0.4069350456E-02
    0.1300000000E+04    0.5636950089E-03    0.5584629131E-03    0.6911155624E+00    0.1873724078E-02    0.4021922535E-02
    0.1500000000E+04    0.6932267103E-03    0.6871654798E-03    0.6917505941E+00    0.2315353408E-02    0.3967873636E-02
    0.1700000000E+04    0.8441524138E-03    0.8371166220E-03    0.6922370121E+00    0.2829748971E-02    0.3905701586E-02
    0.1900000000E+04    0.1021775518E-02    0.1013588063E-02    0.6926215173E+00    0.3435143092E-02    0.3833475579E-02
    0.2100000000E+04    0.1233075897E-02    0.1223517324E-02    0.6929330980E+00    0.4155506224E-02    0.3748692195E-02
    0.2300000000E+04    0.1487320922E-02    0.1476115417E-02    0.6931907006E+00    0.5022666721E-02    0.3648083510E-02
    0.2500000000E+04    0.1796884364E-02    0.1783681292E-02    0.6934072312E+00    0.6079153310E-02    0.3527373182E-02
    0.2700000000E+04    0.2178276119E-02    0.2162626215E-02    0.6935917853E+00    0.7381784219E-02    0.3380997547E-02
    0.2900000000E+04    0.2653243814E-02    0.2634570397E-02    0.6937509571E+00    0.9005548564E-02    0.3201872180E-02
    0.3100000000E+04    0.3249401377E-02    0.3226970928E-02    0.6938896446E+00    0.1104594646E-01    0.2981445333E-02
    0.3300000000E+04    0.3998873917E-02    0.3971780543E-02    0.6940115615E+00    0.1361465163E-01    0.2710627337E-02
    0.3500000000E+04    0.4931680135E-02    0.4898878937E-02    0.6941195752E+00    0.1681726472E-01    0.2382743501E-02
    0.3700000000E+04    0.6059084285E-02    0.6019535350E-02    0.6942159345E+00    0.2069664465E-01    0.1999894019E-02
    0.3900000000E+04    0.7346538169E-02    0.7299514958E-02    0.6943024281E+00    0.2513993632E-01    0.1581928941E-02
    0.4100000000E+04    0.8694651093E-02    0.8640137410E-02    0.6943804967E+00    0.2981165561E-01    0.1170325014E-02
    0.4300000000E+04    0.9964689058E-02    0.9903567366E-02    0.6944513131E+00    0.3423827362E-01    0.8148993151E-03
    0.4500000000E+04    0.1104872736E-01    0.1098250684E-01    0.6945158425E+00    0.3804734343E-01    0.5475761564E-03
    0.4700000000E+04    0.1191714251E-01    0.1184742543E-01    0.6945748859E+00    0.4113219659E-01    0.3692724745E-03
    0.4900000000E+04    0.1260232920E-01    0.1253043080E-01    0.6946291138E+00    0.4359907497E-01    0.2604049081E-03
    0.1000000000E+04    0.4008645536E-03    0.3966524244E-03    0.6896911078E+00    0.1317867622E-02    0.4090960165E-02
    0.3000000000E+04    0.2934230951E-02    0.2913781453E-02    0.6938226061E+00    0.9966932449E-02    0.3097398008E-02
    0.5000000000E+04    0.1289265106E-01    0.1282003440E-01    0.6946546022E+00    0.4465608368E-01    0.2245543116E-03
    0.7000000000E+04    0.1652772022E-01    0.1645815048E-01    0.6950114776E+00    0.5858752684E-01    0.1220394516E-03
    0.9000000000E+04    0.1917620915E-01    0.1912115576E-01    0.6952096815E+00    0.6946894087E-01    0.1235033048E-03
    0.1100000000E+05    0.2132200426E-01    0.2128774297E-01    0.6953357110E+00    0.7883808439E-01    0.1249000905E-03
    0.1300000000E+05    0.2308324320E-01    0.2307383718E-01    0.6954228690E+00    0.8701626061E-01    0.1260737694E-03
    0.1500000000E+05    0.2454406495E-01    0.2456209302E-01    0.6954867051E+00    0.9423611979E-01    0.1270867226E-03
    0.1700000000E+05    0.2576636228E-01    0.2581338807E-01    0.6955354539E+00    0.1006721218E+00    0.1279785901E-03
    0.1900000000E+05    0.2679660463E-01    0.2687348842E-01    0.6955738830E+00    0.1064578079E+00    0.1287758601E-03
    0.2100000000E+05    0.2767030642E-01    0.2777741679E-01    0.6956049441E+00    0.1116972371E+00    0.1294971257E-03
    0.2300000000E+05    0.2841503599E-01    0.2855239605E-01    0.6956305618E+00    0.1164727746E+00    0.1301559495E-03
    0.2500000000E+05    0.2905249046E-01    0.2921988046E-01    0.6956520447E+00    0.1208505248E+00    0.1307625351E-03
    0.2700000000E+05    0.2959995712E-01    0.2979698731E-01    0.6956703135E+00    0.1248842008E+00    0.1313247554E-03
    0.2900000000E+05    0.3007136213E-01    0.3029752506E-01    0.6956860347E+00    0.1286179336E+00    0.1318488147E-03
    0.3100000000E+05    0.3047803578E-01    0.3073274415E-01    0.6956997027E+00    0.1320883460E+00    0.1323396912E-03
    0.3300000000E+05    0.3082927956E-01    0.3111189384E-01    0.6957116920E+00    0.1353261065E+00    0.1328014410E-03
    0.3500000000E+05    0.3113279206E-01    0.3144264063E-01    0.6957222913E+00    0.1383571106E+00    0.1332374135E-03
    0.3700000000E+05    0.3139499290E-01    0.3173138688E-01    0.6957317268E+00    0.1412033885E+00    0.1336504073E-03
    0.3900000000E+05    0.3162127196E-01    0.3198351605E-01    0.6957401783E+00    0.1438838132E+00    0.1340427850E-03
    0.4100000000E+05    0.3181618310E-01    0.3220358351E-01    0.6957477904E+00    0.1464146557E+00    0.1344165598E-03
    0.4300000000E+05    0.3198359624E-01    0.3239546648E-01    0.6957546807E+00    0.1488100274E+00    0.1347734613E-03
    0.4500000000E+05    0.3212681774E-01    0.3256248277E-01    0.6957609461E+00    0.1510822329E+00    0.1351149868E-03
    0.4700000000E+05    0.3224868664E-01    0.3270748579E-01    0.6957666667E+00    0.1532420568E+00    0.1354424408E-03
    0.4900000000E+05    0.3235165195E-01    0.3283294096E-01    0.6957719096E+00    0.1552989958E+00    0.1357569675E-03
    0.1000000000E+05    0.2030356157E-01    0.2025827919E-01    0.6952790127E+00    0.7431984539E-01    0.1242346583E-03
    0.3000000000E+05    0.3028216705E-01    0.3052267992E-01    0.6956930996E+00    0.1303840138E+00    0.1320981286E-03
    0.5000000000E+05    0.3239672013E-01    0.3288901796E-01    0.6957743700E+00    0.1562915466E+00    0.1359097031E-03
    0.7000000000E+05    0.3269508583E-01    0.3337827018E-01    0.6958084744E+00    0.1723465713E+00    0.1384782101E-03
    0.9000000000E+05    0.3239930965E-01    0.3322918754E-01    0.6958269991E+00    0.1837195351E+00    0.1404275872E-03
    0.1100000000E+06    0.3188447789E-01    0.3282989833E-01    0.6958385101E+00    0.1924116468E+00    0.1420035073E-03
    0.1300000000E+06    0.3129198583E-01    0.3233045152E-01    0.6958462826E+00    0.1993862499E+00    0.1433287399E-03
    0.1500000000E+06    0.3068151838E-01    0.3179630453E-01    0.6958518355E+00    0.2051747407E+00    0.1444736821E-03
    0.1700000000E+06    0.3007970427E-01    0.3125804753E-01    0.6958559676E+00    0.2100989937E+00    0.1454825366E-03
    0.1900000000E+06    0.2949845597E-01    0.3073039459E-01    0.6958591385E+00    0.2143677523E+00    0.1463849164E-03
    0.2100000000E+06    0.2894271011E-01    0.3022031860E-01    0.6958616306E+00    0.2181236221E+00    0.1472016509E-03
    0.2300000000E+06    0.2841397159E-01    0.2973084054E-01    0.6958636269E+00    0.2214680977E+00    0.1479479589E-03
    0.2500000000E+06    0.2791203616E-01    0.2926290876E-01    0.6958652510E+00    0.2244758403E+00    0.1486353047E-03
    0.2700000000E+06    0.2743586431E-01    0.2881637620E-01    0.6958665890E+00    0.2272032868E+00    0.1492725435E-03
    0.2900000000E+06    0.2698403751E-01    0.2839052637E-01    0.6958677031E+00    0.2296940810E+00    0.1498666600E-03
    0.3100000000E+06    0.2655499991E-01    0.2798436359E-01    0.6958686388E+00    0.2319826332E+00    0.1504232628E-03
    0.3300000000E+06    0.2614718627E-01    0.2759677510E-01    0.6958694306E+00    0.2340965284E+00    0.1509469247E-03
    0.3500000000E+06    0.2575908793E-01    0.2722662188E-01    0.6958701046E+00    0.2360582022E+00    0.1514414240E-03
    0.3700000000E+06    0.2538928479E-01    0.2687278879E-01    0.6958706814E+00    0.2378861344E+00    0.1519099190E-03
    0.3900000000E+06    0.2503645829E-01    0.2653421112E-01    0.6958711770E+00    0.2395957179E+00    0.1523550774E-03
    0.4100000000E+06    0.2469939400E-01    0.2620988744E-01    0.6958716043E+00    0.2411999026E+00    0.1527791731E-03
    0.4300000000E+06    0.2437697858E-01    0.2589888457E-01    0.6958719737E+00    0.2427096811E+00    0.1531841604E-03
    0.4500000000E+06    0.2406819399E-01    0.2560033774E-01    0.6958722936E+00    0.2441344590E+00    0.1535717315E-03
    0.4700000000E+06    0.2377211037E-01    0.2531344839E-01    0.6958725711E+00    0.2454823438E+00    0.1539433615E-03
    0.4900000000E+06    0.2348787856E-01    0.2503748042E-01    0.6958728118E+00    0.2467603697E+00    0.1543003442E-03
    0.1000000000E+06    0.3215757126E-01    0.3304848972E-01    0.6958333648E+00    0.1883262472E+00    0.1412528481E-03
    0.3000000000E+06    0.2676676866E-01    0.2818505222E-01    0.6958681909E+00    0.2308617758E+00    0.1501493437E-03
    0.5000000000E+06    0.2334996198E-01    0.2490337798E-01    0.6958729199E+00    0.2473751352E+00    0.1544737048E-03
    0.7000000000E+06    0.2105771177E-01    0.2265657365E-01    0.6958739930E+00    0.2571533398E+00    0.1573897393E-03
    0.9000000000E+06    0.1937829148E-01    0.2098987751E-01    0.6958740513E+00    0.2638938757E+00    0.1596035525E-03
    0.1100000000E+07    0.1807494249E-01    0.1968475338E-01    0.6958737413E+00    0.2689350761E+00    0.1613935593E-03
    0.1300000000E+07    0.1702256463E-01    0.1862352189E-01    0.6958732833E+00    0.2729043738E+00    0.1628989901E-03
    0.1500000000E+07    0.1614797775E-01    0.1773648122E-01    0.6958727671E+00    0.2761429675E+00    0.1641997152E-03
    0.1700000000E+07    0.1540505084E-01    0.1697928542E-01    0.6958722331E+00    0.2788554718E+00    0.1653459003E-03
    0.1900000000E+07    0.1476301143E-01    0.1632213544E-01    0.6958717007E+00    0.2811734739E+00    0.1663711602E-03
    0.2100000000E+07    0.1420040512E-01    0.1574412937E-01    0.6958711794E+00    0.2831861688E+00    0.1672991430E-03
    0.2300000000E+07    0.1370173473E-01    0.1523009105E-01    0.6958706736E+00    0.2849565554E+00    0.1681471289E-03
    0.2500000000E+07    0.1325547648E-01    0.1476868462E-01    0.6958701852E+00    0.2865306284E+00    0.1689281365E-03
    0.2700000000E+07    0.1285285110E-01    0.1435123966E-01    0.6958697148E+00    0.2879428948E+00    0.1696522222E-03
    0.2900000000E+07    0.1248703152E-01    0.1397098968E-01    0.6958692622E+00    0.2892198409E+00    0.1703273190E-03
    0.3100000000E+07    0.1215261441E-01    0.1362256203E-01    0.6958688268E+00    0.2903821952E+00    0.1709597971E-03
    0.3300000000E+07    0.1184525741E-01    0.1330162628E-01    0.6958684077E+00    0.2914464537E+00    0.1715548505E-03
    0.3500000000E+07    0.1156142375E-01    0.1300464581E-01    0.6958680042E+00    0.2924259365E+00    0.1721167709E-03
    0.3700000000E+07    0.1129819851E-01    0.1272869853E-01    0.6958676154E+00    0.2933315376E+00    0.1726491461E-03
    0.3900000000E+07    0.1105315388E-01    0.1247134494E-01    0.6958672404E+00    0.2941722684E+00    0.1731550066E-03
    0.4100000000E+07    0.1082424856E-01    0.1223052948E-01    0.6958668783E+00    0.2949556591E+00    0.1736369354E-03
    0.4300000000E+07    0.1060975164E-01    0.1200450553E-01    0.6958665284E+00    0.2956880589E+00    0.1740971528E-03
    0.4500000000E+07    0.1040818401E-01    0.1179177772E-01    0.6958661900E+00    0.2963748656E+00    0.1745375813E-03
    0.4700000000E+07    0.1021827287E-01    0.1159105688E-01    0.6958658624E+00    0.2970207026E+00    0.1749598967E-03
    0.4900000000E+07    0.1003891593E-01    0.1140122462E-01    0.6958655449E+00    0.2976295565E+00    0.1753655690E-03
    0.1000000000E+07    0.1868908549E-01    0.2030099672E-01    0.6958739239E+00    0.2665781684E+00    0.1605408942E-03
    0.3000000000E+07    0.1231619051E-01    0.1379308983E-01    0.6958690424E+00    0.2898142260E+00    0.1706485368E-03
    0.5000000000E+07    0.9952890309E-02    0.1131008182E-01    0.6958653898E+00    0.2979212139E+00    0.1755625750E-03
    0.7000000000E+07    0.8607344068E-02    0.9876315065E-02    0.6958627003E+00    0.3024538841E+00    0.1788763925E-03
    0.9000000000E+07    0.7705883126E-02    0.8906526791E-02    0.6958605765E+00    0.3054628198E+00    0.1813922452E-03
    0.1100000000E+08    0.7046158586E-02    0.8191630185E-02    0.6958588201E+00    0.3076526331E+00    0.1834264911E-03
    0.1300000000E+08    0.6535570451E-02    0.7635094621E-02    0.6958573211E+00    0.3093411187E+00    0.1851373427E-03
    0.1500000000E+08    0.6124800866E-02    0.7185158249E-02    0.6958560124E+00    0.3106959271E+00    0.1866155622E-03
    0.1700000000E+08    0.5784797934E-02    0.6811159865E-02    0.6958548504E+00    0.3118151477E+00    0.1879181572E-03
    0.1900000000E+08    0.5497164775E-02    0.6493592186E-02    0.6958538047E+00    0.3127605773E+00    0.1890833280E-03
    0.2100000000E+08    0.5249598328E-02    0.6219356372E-02    0.6958528538E+00    0.3135733772E+00    0.1901379486E-03
    0.2300000000E+08    0.5033511609E-02    0.5979277117E-02    0.6958519815E+00    0.3142821836E+00    0.1911016567E-03
    0.2500000000E+08    0.4842701467E-02    0.5766704918E-02    0.6958511754E+00    0.3149076280E+00    0.1919892469E-03
    0.2700000000E+08    0.4672558063E-02    0.5576683821E-02    0.6958504261E+00    0.3154650087E+00    0.1928121480E-03
