  Pressure (Pa) 22mC5-500 (mol/kg) 23mC5-500 (mol/kg) 24mC5-500 (mol/kg) 2mC6-500 (mol/kg) C7-500 (mol/kg)
    0.1000000000E+01    0.6810800280E-05    0.3912715205E-05    0.1266304962E+00    0.1481486569E-04    0.4169543180E-02
    0.3000000000E+01    0.1407709519E-04    0.8064397871E-05    0.2785158293E+00    0.2923211434E-04    0.4198141904E-02
    0.5000000000E+01    0.1776781600E-04    0.1015984945E-04    0.3664164615E+00    0.3599991424E-04    0.4211232002E-02
    0.7000000000E+01    0.1994230538E-04    0.1138892207E-04    0.4237313461E+00    0.3995655815E-04    0.4219376136E-02
    0.9000000000E+01    0.2137148374E-04    0.1219510649E-04    0.4640592260E+00    0.4274512161E-04    0.4224989084E-02
    0.1100000000E+02    0.2239871152E-04    0.1277502385E-04    0.4939776960E+00    0.4502295129E-04    0.4229094442E-02
    0.1300000000E+02    0.2319530332E-04    0.1322629319E-04    0.5170565701E+00    0.4708063820E-04    0.4232220164E-02
    0.1500000000E+02    0.2385389261E-04    0.1360141878E-04    0.5354007596E+00    0.4905481182E-04    0.4234670181E-02
    0.1700000000E+02    0.2442764647E-04    0.1393036075E-04    0.5503317877E+00    0.5101181643E-04    0.4236632996E-02
    0.1900000000E+02    0.2494849999E-04    0.1423099954E-04    0.5627212164E+00    0.5298394718E-04    0.4238232168E-02
    0.2100000000E+02    0.2543632230E-04    0.1451438015E-04    0.5731671342E+00    0.5498631560E-04    0.4239552259E-02
    0.2300000000E+02    0.2590381766E-04    0.1478750713E-04    0.5820936172E+00    0.5702514236E-04    0.4240653195E-02
    0.2500000000E+02    0.2635928071E-04    0.1505491062E-04    0.5898097249E+00    0.5910200871E-04    0.4241578684E-02
    0.2700000000E+02    0.2680821094E-04    0.1531956072E-04    0.5965460178E+00    0.6121610434E-04    0.4242361392E-02
    0.2900000000E+02    0.2725429224E-04    0.1558342016E-04    0.6024779925E+00    0.6336544104E-04    0.4243026243E-02
    0.3100000000E+02    0.2770000491E-04    0.1584778820E-04    0.6077415944E+00    0.6554751505E-04    0.4243592599E-02
    0.3300000000E+02    0.2814701791E-04    0.1611352015E-04    0.6124437656E+00    0.6775966826E-04    0.4244075741E-02
    0.3500000000E+02    0.2859644573E-04    0.1638117043E-04    0.6166697878E+00    0.6999928156E-04    0.4244487897E-02
    0.3700000000E+02    0.2904901980E-04    0.1665108754E-04    0.6204885022E+00    0.7226387395E-04    0.4244838974E-02
    0.3900000000E+02    0.2950520474E-04    0.1692347818E-04    0.6239560891E+00    0.7455114812E-04    0.4245137087E-02
    0.4100000000E+02    0.2996527832E-04    0.1719845104E-04    0.6271188507E+00    0.7685900618E-04    0.4245388950E-02
    0.4300000000E+02    0.3042938715E-04    0.1747604711E-04    0.6300152908E+00    0.7918554873E-04    0.4245600168E-02
    0.4500000000E+02    0.3089758581E-04    0.1775626081E-04    0.6326776903E+00    0.8152906530E-04    0.4245775461E-02
    0.4700000000E+02    0.3136986459E-04    0.1803905493E-04    0.6351333154E+00    0.8388802052E-04    0.4245918827E-02
    0.4900000000E+02    0.3184616938E-04    0.1832437108E-04    0.6374053553E+00    0.8626103874E-04    0.4246033685E-02
    0.1000000000E+02    0.2192209345E-04    0.1250578846E-04    0.4800503467E+00    0.4392457681E-04    0.4227190020E-02
    0.3000000000E+02    0.2747707485E-04    0.1571547871E-04    0.6051860749E+00    0.6445255126E-04    0.4243320696E-02
    0.5000000000E+02    0.3208580606E-04    0.1846795278E-04    0.6384788465E+00    0.8745243142E-04    0.4246081357E-02
    0.7000000000E+02    0.3706278753E-04    0.2145209960E-04    0.6538971619E+00    0.1117817436E-03    0.4246072537E-02
    0.9000000000E+02    0.4231257316E-04    0.2459960157E-04    0.6627896223E+00    0.1366988894E-03    0.4244990599E-02
    0.1100000000E+03    0.4775114152E-04    0.2785819665E-04    0.6685757565E+00    0.1619413430E-03    0.4243367668E-02
    0.1300000000E+03    0.5332895938E-04    0.3119802289E-04    0.6726412207E+00    0.1874092160E-03    0.4241426777E-02
    0.1500000000E+03    0.5901700840E-04    0.3460188830E-04    0.6756542017E+00    0.2130645395E-03    0.4239278500E-02
    0.1700000000E+03    0.6479783523E-04    0.3805959054E-04    0.6779765652E+00    0.2388954217E-03    0.4236984046E-02
    0.1900000000E+03    0.7066070090E-04    0.4156493062E-04    0.6798213436E+00    0.2649017130E-03    0.4234580045E-02
    0.2100000000E+03    0.7659892389E-04    0.4511410447E-04    0.6813221197E+00    0.2910887403E-03    0.4232089705E-02
    0.2300000000E+03    0.8260836990E-04    0.4870479886E-04    0.6825669064E+00    0.3174643874E-03    0.4229528385E-02
    0.2500000000E+03    0.8868655898E-04    0.5233566175E-04    0.6836160516E+00    0.3440376734E-03    0.4226906591E-02
    0.2700000000E+03    0.9483211835E-04    0.5600597993E-04    0.6845123164E+00    0.3708180449E-03    0.4224231694E-02
    0.2900000000E+03    0.1010444362E-03    0.5971547644E-04    0.6852868464E+00    0.3978150223E-03    0.4221508961E-02
    0.3100000000E+03    0.1073234364E-03    0.6346417957E-04    0.6859628648E+00    0.4250380292E-03    0.4218742210E-02
    0.3300000000E+03    0.1136694288E-03    0.6725233604E-04    0.6865580413E+00    0.4524963164E-03    0.4215934223E-02
    0.3500000000E+03    0.1200830064E-03    0.7108035231E-04    0.6870860578E+00    0.4801989383E-03    0.4213087035E-02
    0.3700000000E+03    0.1265649758E-03    0.7494875414E-04    0.6875576739E+00    0.5081547547E-03    0.4210202122E-02
    0.3900000000E+03    0.1331163066E-03    0.7885815831E-04    0.6879814673E+00    0.5363724466E-03    0.4207280544E-02
    0.4100000000E+03    0.1397380963E-03    0.8280925269E-04    0.6883643603E+00    0.5648605389E-03    0.4204323034E-02
    0.4300000000E+03    0.1464315451E-03    0.8680278185E-04    0.6887120006E+00    0.5936274247E-03    0.4201330077E-02
    0.4500000000E+03    0.1531979374E-03    0.9083953687E-04    0.6890290419E+00    0.6226813907E-03    0.4198301955E-02
    0.4700000000E+03    0.1600386279E-03    0.9492034784E-04    0.6893193534E+00    0.6520306417E-03    0.4195238792E-02
    0.4900000000E+03    0.1669550326E-03    0.9904607850E-04    0.6895861782E+00    0.6816833232E-03    0.4192140583E-02
    0.1000000000E+03    0.4501198011E-04    0.2621726910E-04    0.6659595154E+00    0.1492878278E-03    0.4244228959E-02
    0.3000000000E+03    0.1041755893E-03    0.6158491608E-04    0.6856359564E+00    0.4113976894E-03    0.4220130894E-02
    0.5000000000E+03    0.1704420850E-03    0.1011260669E-03    0.6897116560E+00    0.6966259851E-03    0.4190578304E-02
    0.7000000000E+03    0.2445445451E-03    0.1453178364E-03    0.6914730248E+00    0.1013402326E-02    0.4157422461E-02
    0.9000000000E+03    0.3281971630E-03    0.1951929802E-03    0.6924552722E+00    0.1370145493E-02    0.4120244540E-02
    0.1100000000E+04    0.4235553140E-03    0.2520407630E-03    0.6930816548E+00    0.1776457777E-02    0.4078261751E-02
    0.1300000000E+04    0.5333323697E-03    0.3174810166E-03    0.6935158626E+00    0.2244125543E-02    0.4030433594E-02
    0.1500000000E+04    0.6610072804E-03    0.3935892044E-03    0.6938345442E+00    0.2788140099E-02    0.3975417250E-02
    0.1700000000E+04    0.8111163959E-03    0.4830709420E-03    0.6940783724E+00    0.3427998184E-02    0.3911471868E-02
    0.1900000000E+04    0.9896644476E-03    0.5895073454E-03    0.6942709340E+00    0.4189491804E-02    0.3836316969E-02
    0.2100000000E+04    0.1204707315E-02    0.7177027768E-03    0.6944268492E+00    0.5107232871E-02    0.3746933387E-02
    0.2300000000E+04    0.1467174403E-02    0.8741755457E-03    0.6945556621E+00    0.6228215830E-02    0.3639290534E-02
    0.2500000000E+04    0.1791999254E-02    0.1067832618E-02    0.6946638680E+00    0.7616727506E-02    0.3507989965E-02
    0.2700000000E+04    0.2199566571E-02    0.1310833424E-02    0.6947560405E+00    0.9360664089E-02    0.3345850925E-02
    0.2900000000E+04    0.2717227561E-02    0.1619495189E-02    0.6948354933E+00    0.1157823405E-01    0.3143581509E-02
    0.3100000000E+04    0.3379850593E-02    0.2014624365E-02    0.6949046860E+00    0.1442068248E-01    0.2889999442E-02
    0.3300000000E+04    0.4226448173E-02    0.2519510248E-02    0.6949654826E+00    0.1805840868E-01    0.2573977302E-02
    0.3500000000E+04    0.5286651540E-02    0.3151865811E-02    0.6950193216E+00    0.2262367269E-01    0.2190309175E-02
    0.3700000000E+04    0.6550292419E-02    0.3905690969E-02    0.6950673307E+00    0.2808033766E-01    0.1751187582E-02
    0.3900000000E+04    0.7930325746E-02    0.4729148160E-02    0.6951104063E+00    0.3406306321E-01    0.1297641072E-02
    0.4100000000E+04    0.9267910643E-02    0.5527554962E-02    0.6951492704E+00    0.3989471780E-01    0.8921278605E-03
    0.4300000000E+04    0.1041515587E-01    0.6212697676E-02    0.6951845104E+00    0.4493800307E-01    0.5839413735E-03
    0.4500000000E+04    0.1131869821E-01    0.6752689782E-02    0.6952166095E+00    0.4895632323E-01    0.3816604075E-03
    0.4700000000E+04    0.1201277020E-01    0.7167882072E-02    0.6952459688E+00    0.5208921527E-01    0.2625125442E-03
    0.4900000000E+04    0.1256107070E-01    0.7496220596E-02    0.6952729237E+00    0.5460546528E-01    0.1969601821E-03
    0.1000000000E+04    0.3742586183E-03    0.2226530608E-03    0.6927996605E+00    0.1566431141E-02    0.4099912528E-02
    0.3000000000E+04    0.3027988902E-02    0.1804801101E-02    0.6948712440E+00    0.1291077514E-01    0.3023944286E-02
    0.5000000000E+04    0.1279832176E-01    0.7638407162E-02    0.6952855897E+00    0.5570785352E-01    0.1768176416E-03
    0.7000000000E+04    0.1611257510E-01    0.9631179475E-02    0.6954626499E+00    0.7189966476E-01    0.1266827194E-03
    0.9000000000E+04    0.1859560147E-01    0.1113140731E-01    0.6955606683E+00    0.8493721018E-01    0.1283888320E-03
    0.1100000000E+05    0.2057840168E-01    0.1233507713E-01    0.6956228038E+00    0.9607909343E-01    0.1298344436E-03
    0.1300000000E+05    0.2218194976E-01    0.1331341728E-01    0.6956656471E+00    0.1057362554E+00    0.1310495159E-03
    0.1500000000E+05    0.2349207875E-01    0.1411703302E-01    0.6956969343E+00    0.1142062550E+00    0.1320988295E-03
    0.1700000000E+05    0.2457136865E-01    0.1478287217E-01    0.6957207571E+00    0.1217107090E+00    0.1330231270E-03
    0.1900000000E+05    0.2546642086E-01    0.1533848833E-01    0.6957394821E+00    0.1284182271E+00    0.1338496727E-03
    0.2100000000E+05    0.2621257978E-01    0.1580481006E-01    0.6957545728E+00    0.1344594824E+00    0.1345976271E-03
    0.2300000000E+05    0.2683708545E-01    0.1619799133E-01    0.6957669824E+00    0.1399374001E+00    0.1352809803E-03
    0.2500000000E+05    0.2736123104E-01    0.1653067886E-01    0.6957773584E+00    0.1449342174E+00    0.1359102650E-03
    0.2700000000E+05    0.2780187176E-01    0.1681289914E-01    0.6957861558E+00    0.1495164833E+00    0.1364936134E-03
    0.2900000000E+05    0.2817250068E-01    0.1705269146E-01    0.6957937040E+00    0.1537386688E+00    0.1370374373E-03
    0.3100000000E+05    0.2848402915E-01    0.1725656744E-01    0.6958002466E+00    0.1576458190E+00    0.1375468839E-03
    0.3300000000E+05    0.2874536175E-01    0.1742984990E-01    0.6958059684E+00    0.1612755318E+00    0.1380261483E-03
    0.3500000000E+05    0.2896382586E-01    0.1757692625E-01    0.6958110114E+00    0.1646594560E+00    0.1384786961E-03
    0.3700000000E+05    0.2914549680E-01    0.1770144046E-01    0.6958154869E+00    0.1678244388E+00    0.1389074237E-03
    0.3900000000E+05    0.2929544669E-01    0.1780644010E-01    0.6958194833E+00    0.1707934162E+00    0.1393147771E-03
    0.4100000000E+05    0.2941793705E-01    0.1789449024E-01    0.6958230716E+00    0.1735861108E+00    0.1397028407E-03
    0.4300000000E+05    0.2951656931E-01    0.1796776263E-01    0.6958263095E+00    0.1762195845E+00    0.1400734058E-03
    0.4500000000E+05    0.2959440352E-01    0.1802810592E-01    0.6958292444E+00    0.1787086797E+00    0.1404280234E-03
    0.4700000000E+05    0.2965405269E-01    0.1807710175E-01    0.6958319156E+00    0.1810663751E+00    0.1407680452E-03
    0.4900000000E+05    0.2969775848E-01    0.1811610955E-01    0.6958343558E+00    0.1833040744E+00    0.1410946566E-03
    0.1000000000E+05    0.1964095700E-01    0.1176526643E-01    0.6955948732E+00    0.9071616912E-01    0.1291459002E-03
    0.3000000000E+05    0.2833505453E-01    0.1715876178E-01    0.6957970883E+00    0.1557291184E+00    0.1372961762E-03
    0.5000000000E+05    0.2971424684E-01    0.1813224109E-01    0.6958354982E+00    0.1843811175E+00    0.1412532649E-03
    0.7000000000E+05    0.2955772331E-01    0.1814446211E-01    0.6958510880E+00    0.2015384947E+00    0.1439209078E-03
    0.9000000000E+05    0.2895979128E-01    0.1786455322E-01    0.6958592572E+00    0.2133597019E+00    0.1459458978E-03
    0.1100000000E+06    0.2823465242E-01    0.1748975858E-01    0.6958641382E+00    0.2221850624E+00    0.1475831169E-03
    0.1300000000E+06    0.2749124516E-01    0.1709096126E-01    0.6958672947E+00    0.2291243485E+00    0.1489599906E-03
    0.1500000000E+06    0.2677035511E-01    0.1669620188E-01    0.6958694445E+00    0.2347816022E+00    0.1501496041E-03
    0.1700000000E+06    0.2608684734E-01    0.1631679045E-01    0.6958709610E+00    0.2395182292E+00    0.1511978562E-03
    0.1900000000E+06    0.2544492652E-01    0.1595690667E-01    0.6958720569E+00    0.2435659309E+00    0.1521355002E-03
    0.2100000000E+06    0.2484427000E-01    0.1561753997E-01    0.6958728614E+00    0.2470812896E+00    0.1529841694E-03
    0.2300000000E+06    0.2428267479E-01    0.1529823527E-01    0.6958734573E+00    0.2501746073E+00    0.1537596713E-03
    0.2500000000E+06    0.2375725110E-01    0.1499790799E-01    0.6958738997E+00    0.2529262352E+00    0.1544739141E-03
    0.2700000000E+06    0.2326497004E-01    0.1471523660E-01    0.6958742268E+00    0.2553963477E+00    0.1551360966E-03
    0.2900000000E+06    0.2280291099E-01    0.1444885376E-01    0.6958744657E+00    0.2576310675E+00    0.1557534749E-03
    0.3100000000E+06    0.2236836520E-01    0.1419743769E-01    0.6958746361E+00    0.2596664509E+00    0.1563318755E-03
    0.3300000000E+06    0.2195886991E-01    0.1395975303E-01    0.6958747526E+00    0.2615311689E+00    0.1568760489E-03
    0.3500000000E+06    0.2157220909E-01    0.1373466584E-01    0.6958748261E+00    0.2632483588E+00    0.1573899207E-03
    0.3700000000E+06    0.2120639900E-01    0.1352114560E-01    0.6958748652E+00    0.2648369365E+00    0.1578767721E-03
    0.3900000000E+06    0.2085966764E-01    0.1331826071E-01    0.6958748764E+00    0.2663125456E+00    0.1583393747E-03
    0.4100000000E+06    0.2053043269E-01    0.1312517105E-01    0.6958748650E+00    0.2676882562E+00    0.1587800912E-03
    0.4300000000E+06    0.2021728005E-01    0.1294111968E-01    0.6958748349E+00    0.2689750893E+00    0.1592009520E-03
    0.4500000000E+06    0.1991894411E-01    0.1276542438E-01    0.6958747896E+00    0.2701824152E+00    0.1596037155E-03
    0.4700000000E+06    0.1963429000E-01    0.1259746966E-01    0.6958747316E+00    0.2713182608E+00    0.1599899142E-03
    0.4900000000E+06    0.1936229785E-01    0.1243669945E-01    0.6958746632E+00    0.2723895492E+00    0.1603608925E-03
    0.1000000000E+06    0.2860387728E-01    0.1768306649E-01    0.6958619811E+00    0.2180607581E+00    0.1468032425E-03
    0.3000000000E+06    0.2258235874E-01    0.1432135438E-01    0.6958745585E+00    0.2586717361E+00    0.1560472286E-03
    0.5000000000E+06    0.1923075933E-01    0.1235884937E-01    0.6958746256E+00    0.2729028937E+00    0.1605410500E-03
    0.7000000000E+06    0.1708399442E-01    0.1107925688E-01    0.6958736261E+00    0.2808949418E+00    0.1635714442E-03
    0.9000000000E+06    0.1555482531E-01    0.1015747312E-01    0.6958724949E+00    0.2862143392E+00    0.1658721075E-03
    0.1100000000E+07    0.1439146313E-01    0.9450382353E-02    0.6958714047E+00    0.2900915943E+00    0.1677323515E-03
    0.1300000000E+07    0.1346626717E-01    0.8884365628E-02    0.6958703911E+00    0.2930838350E+00    0.1692968604E-03
    0.1500000000E+07    0.1270665249E-01    0.8417132952E-02    0.6958694563E+00    0.2954858835E+00    0.1706486345E-03
    0.1700000000E+07    0.1206782778E-01    0.8022385283E-02    0.6958685939E+00    0.2974706554E+00    0.1718398061E-03
    0.1900000000E+07    0.1152041745E-01    0.7682766740E-02    0.6958677957E+00    0.2991472958E+00    0.1729053082E-03
    0.2100000000E+07    0.1104422662E-01    0.7386282904E-02    0.6958670540E+00    0.3005886135E+00    0.1738697163E-03
    0.2300000000E+07    0.1062484068E-01    0.7124333686E-02    0.6958663620E+00    0.3018453214E+00    0.1747509884E-03
    0.2500000000E+07    0.1025165072E-01    0.6890564412E-02    0.6958657137E+00    0.3029539916E+00    0.1755626537E-03
    0.2700000000E+07    0.9916647242E-02    0.6680160449E-02    0.6958651040E+00    0.3039417619E+00    0.1763151633E-03
    0.2900000000E+07    0.9613651594E-02    0.6489395867E-02    0.6958645288E+00    0.3048292579E+00    0.1770167613E-03
    0.3100000000E+07    0.9337808766E-02    0.6315334434E-02    0.6958639844E+00    0.3056324770E+00    0.1776740680E-03
    0.3300000000E+07    0.9085242395E-02    0.6155625543E-02    0.6958634677E+00    0.3063640464E+00    0.1782924810E-03
    0.3500000000E+07    0.8852813948E-02    0.6008361319E-02    0.6958629760E+00    0.3070340861E+00    0.1788764607E-03
    0.3700000000E+07    0.8637950764E-02    0.5871974304E-02    0.6958625069E+00    0.3076508157E+00    0.1794297355E-03
    0.3900000000E+07    0.8438520797E-02    0.5745162724E-02    0.6958620585E+00    0.3082209906E+00    0.1799554547E-03
    0.4100000000E+07    0.8252739745E-02    0.5626834951E-02    0.6958616291E+00    0.3087502222E+00    0.1804563030E-03
    0.4300000000E+07    0.8079101097E-02    0.5516067575E-02    0.6958612170E+00    0.3092432156E+00    0.1809345876E-03
    0.4500000000E+07    0.7916322683E-02    0.5412073298E-02    0.6958608208E+00    0.3097039501E+00    0.1813923065E-03
    0.4700000000E+07    0.7763305318E-02    0.5314176048E-02    0.6958604395E+00    0.3101358172E+00    0.1818312014E-03
    0.4900000000E+07    0.7619100415E-02    0.5221791447E-02    0.6958600719E+00    0.3105417278E+00    0.1822527997E-03
    0.1000000000E+07    0.1493717920E-01    0.9782702224E-02    0.6958719412E+00    0.2882896082E+00    0.1668462278E-03
    0.3000000000E+07    0.9472598060E-02    0.6400435983E-02    0.6958642530E+00    0.3052405454E+00    0.1773505889E-03
    0.5000000000E+07    0.7550040966E-02    0.5177504969E-02    0.6958598929E+00    0.3107357488E+00    0.1824575400E-03
    0.7000000000E+07    0.6478727316E-02    0.4486679016E-02    0.6958568438E+00    0.3137161351E+00    0.1859014553E-03
    0.9000000000E+07    0.5770179457E-02    0.4025510256E-02    0.6958544898E+00    0.3156585945E+00    0.1885160802E-03
    0.1100000000E+08    0.5256230842E-02    0.3688622192E-02    0.6958525679E+00    0.3170543077E+00    0.1906301910E-03
    0.1300000000E+08    0.4861100363E-02    0.3428131200E-02    0.6958509412E+00    0.3181202076E+00    0.1924082114E-03
    0.1500000000E+08    0.4544872341E-02    0.3218652318E-02    0.6958495293E+00    0.3189690064E+00    0.1939444665E-03
    0.1700000000E+08    0.4284233062E-02    0.3045280110E-02    0.6958482811E+00    0.3196658765E+00    0.1952982021E-03
    0.1900000000E+08    0.4064520104E-02    0.2898598048E-02    0.6958471616E+00    0.3202514870E+00    0.1965091182E-03
    0.2100000000E+08    0.3875983349E-02    0.2772319882E-02    0.6958461463E+00    0.3207527126E+00    0.1976051438E-03
    0.2300000000E+08    0.3711850307E-02    0.2662064026E-02    0.6958452169E+00    0.3211881242E+00    0.1986066877E-03
    0.2500000000E+08    0.3567248854E-02    0.2564668580E-02    0.6958443598E+00    0.3215710236E+00    0.1995291253E-03
    0.2700000000E+08    0.3438571409E-02    0.2477785710E-02    0.6958435641E+00    0.3219112235E+00    0.2003843338E-03
