  Pressure (Pa) 22mC5-500 (mol/kg) 23mC5-500 (mol/kg) 24mC5-500 (mol/kg) 2mC6-500 (mol/kg) C7-500 (mol/kg)
    0.1000000000E+01    0.5112298713E-05    0.4884703156E-06    0.2487051436E+00    0.4299461324E-05    0.4186491557E-02
    0.3000000000E+01    0.8180799672E-05    0.7786314003E-06    0.4351201199E+00    0.6580671672E-05    0.4211101975E-02
    0.5000000000E+01    0.9259548110E-05    0.8802346983E-06    0.5118519245E+00    0.7540083851E-05    0.4220626471E-02
    0.7000000000E+01    0.9890439834E-05    0.9403425948E-06    0.5536992520E+00    0.8345310422E-05    0.4225902113E-02
    0.9000000000E+01    0.1038889329E-04    0.9886041353E-06    0.5800453495E+00    0.9159095349E-05    0.4229302272E-02
    0.1100000000E+02    0.1084677569E-04    0.1033498959E-05    0.5981573264E+00    0.1000520429E-04    0.4231695244E-02
    0.1300000000E+02    0.1129574064E-04    0.1077875000E-05    0.6113736882E+00    0.1088180995E-04    0.4233479414E-02
    0.1500000000E+02    0.1174746539E-04    0.1122739903E-05    0.6214430245E+00    0.1178285415E-04    0.4234864821E-02
    0.1700000000E+02    0.1220612975E-04    0.1168424182E-05    0.6293697829E+00    0.1270258560E-04    0.4235973337E-02
    0.1900000000E+02    0.1267289731E-04    0.1214993558E-05    0.6357720571E+00    0.1363637578E-04    0.4236880854E-02
    0.2100000000E+02    0.1314769050E-04    0.1262409678E-05    0.6410510515E+00    0.1458067043E-04    0.4237637266E-02
    0.2300000000E+02    0.1362994041E-04    0.1310596568E-05    0.6454785424E+00    0.1553277548E-04    0.4238276827E-02
    0.2500000000E+02    0.1411891537E-04    0.1359468879E-05    0.6492451744E+00    0.1649065011E-04    0.4238823894E-02
    0.2700000000E+02    0.1461386579E-04    0.1408943751E-05    0.6524886329E+00    0.1745274186E-04    0.4239296303E-02
    0.2900000000E+02    0.1511408580E-04    0.1458945434E-05    0.6553108392E+00    0.1841786269E-04    0.4239707439E-02
    0.3100000000E+02    0.1561893628E-04    0.1509406633E-05    0.6577888547E+00    0.1938509773E-04    0.4240067565E-02
    0.3300000000E+02    0.1612785005E-04    0.1560268435E-05    0.6599820249E+00    0.2035373835E-04    0.4240384692E-02
    0.3500000000E+02    0.1664032900E-04    0.1611479633E-05    0.6619367936E+00    0.2132323283E-04    0.4240665176E-02
    0.3700000000E+02    0.1715593798E-04    0.1662995859E-05    0.6636900283E+00    0.2229314987E-04    0.4240914129E-02
    0.3900000000E+02    0.1767429768E-04    0.1714778706E-05    0.6652713674E+00    0.2326315125E-04    0.4241135719E-02
    0.4100000000E+02    0.1819507761E-04    0.1766794903E-05    0.6667049091E+00    0.2423297133E-04    0.4241333378E-02
    0.4300000000E+02    0.1871798961E-04    0.1819015593E-05    0.6680104483E+00    0.2520240136E-04    0.4241509961E-02
    0.4500000000E+02    0.1924278211E-04    0.1871415696E-05    0.6692043961E+00    0.2617127759E-04    0.4241667869E-02
    0.4700000000E+02    0.1976923507E-04    0.1923973371E-05    0.6703004731E+00    0.2713947193E-04    0.4241809132E-02
    0.4900000000E+02    0.2029715568E-04    0.1976669552E-05    0.6713102393E+00    0.2810688485E-04    0.4241935483E-02
    0.1000000000E+02    0.1062021116E-04    0.1011228023E-05    0.5898688909E+00    0.9578017584E-05    0.4230593466E-02
    0.3000000000E+02    0.1536596936E-04    0.1484122466E-05    0.6565888118E+00    0.1890126441E-04    0.4239893333E-02
    0.5000000000E+02    0.2056161262E-04    0.2003064285E-05    0.6717858801E+00    0.2859027355E-04    0.4241993540E-02
    0.7000000000E+02    0.2589616310E-04    0.2535132996E-05    0.6785162267E+00    0.3820641820E-04    0.4242643264E-02
    0.9000000000E+02    0.3127095824E-04    0.3070694955E-05    0.6823137573E+00    0.4772331314E-04    0.4242708107E-02
    0.1100000000E+03    0.3665496621E-04    0.3606824675E-05    0.6847524688E+00    0.5715552811E-04    0.4242465950E-02
    0.1300000000E+03    0.4203770056E-04    0.4142581925E-05    0.6864509610E+00    0.6652053658E-04    0.4242037637E-02
    0.1500000000E+03    0.4741605253E-04    0.4677723452E-05    0.6877018212E+00    0.7583338216E-04    0.4241485547E-02
    0.1700000000E+03    0.5278983210E-04    0.5212274265E-05    0.6886613887E+00    0.8510633099E-04    0.4240845675E-02
    0.1900000000E+03    0.5816004381E-04    0.5746364633E-05    0.6894207923E+00    0.9434933816E-04    0.4240140487E-02
    0.2100000000E+03    0.6352815936E-04    0.6280162624E-05    0.6900367392E+00    0.1035705540E-03    0.4239384844E-02
    0.2300000000E+03    0.6889579431E-04    0.6813844865E-05    0.6905463650E+00    0.1127767348E-03    0.4238589033E-02
    0.2500000000E+03    0.7426456155E-04    0.7347583777E-05    0.6909750063E+00    0.1219735539E-03    0.4237760428E-02
    0.2700000000E+03    0.7963600633E-04    0.7881542281E-05    0.6913405424E+00    0.1311658353E-03    0.4236904477E-02
    0.2900000000E+03    0.8501158037E-04    0.8415871982E-05    0.6916559501E+00    0.1403577280E-03    0.4236025298E-02
    0.3100000000E+03    0.9039263473E-04    0.8950712999E-05    0.6919308770E+00    0.1495528390E-03    0.4235126066E-02
    0.3300000000E+03    0.9578042182E-04    0.9486194517E-05    0.6921726441E+00    0.1587543341E-03    0.4234209278E-02
    0.3500000000E+03    0.1011761015E-03    0.1002243566E-04    0.6923869076E+00    0.1679650167E-03    0.4233276918E-02
    0.3700000000E+03    0.1065807486E-03    0.1055954645E-04    0.6925781067E+00    0.1771873898E-03    0.4232330590E-02
    0.3900000000E+03    0.1119953612E-03    0.1109762873E-04    0.6927497740E+00    0.1864237047E-03    0.4231371599E-02
    0.4100000000E+03    0.1174208684E-03    0.1163677706E-04    0.6929047558E+00    0.1956760003E-03    0.4230401020E-02
    0.4300000000E+03    0.1228581369E-03    0.1217707951E-04    0.6930453710E+00    0.2049461350E-03    0.4229419748E-02
    0.4500000000E+03    0.1283079787E-03    0.1271861836E-04    0.6931735279E+00    0.2142358127E-03    0.4228428528E-02
    0.4700000000E+03    0.1337711557E-03    0.1326147076E-04    0.6932908113E+00    0.2235466040E-03    0.4227427989E-02
    0.4900000000E+03    0.1392483860E-03    0.1380570926E-04    0.6933985479E+00    0.2328799646E-03    0.4226418663E-02
    0.1000000000E+03    0.3396272488E-04    0.3338772262E-05    0.6836529091E+00    0.5244887449E-04    0.4242615863E-02
    0.3000000000E+03    0.8770134198E-04    0.8683220255E-05    0.6917979706E+00    0.1449546741E-03    0.4235578019E-02
    0.5000000000E+03    0.1419924844E-03    0.1407836983E-04    0.6934491929E+00    0.2375555353E-03    0.4225910848E-02
    0.7000000000E+03    0.1977603735E-03    0.1961926753E-04    0.6941587623E+00    0.3325404851E-03    0.4215373257E-02
    0.9000000000E+03    0.2555439914E-03    0.2536009914E-04    0.6945532998E+00    0.4309426904E-03    0.4204209782E-02
    0.1100000000E+04    0.3157374619E-03    0.3134024415E-04    0.6948044095E+00    0.5334693832E-03    0.4192467821E-02
    0.1300000000E+04    0.3786815020E-03    0.3759365573E-04    0.6949782244E+00    0.6407165068E-03    0.4180139439E-02
    0.1500000000E+04    0.4447011552E-03    0.4415268444E-04    0.6951056421E+00    0.7532465804E-03    0.4167194167E-02
    0.1700000000E+04    0.5141250115E-03    0.5105001367E-04    0.6952030317E+00    0.8716257587E-03    0.4153589210E-02
    0.1900000000E+04    0.5872970617E-03    0.5831984795E-04    0.6952798745E+00    0.9964457085E-03    0.4139273016E-02
    0.2100000000E+04    0.6645854053E-03    0.6599878330E-04    0.6953420413E+00    0.1128339217E-02    0.4124186441E-02
    0.2300000000E+04    0.7463896770E-03    0.7412654772E-04    0.6953933619E+00    0.1267993263E-02    0.4108262851E-02
    0.2500000000E+04    0.8331481398E-03    0.8274670772E-04    0.6954364406E+00    0.1416161387E-02    0.4091427683E-02
    0.2700000000E+04    0.9253450069E-03    0.9190739693E-04    0.6954731103E+00    0.1573676386E-02    0.4073597668E-02
    0.2900000000E+04    0.1023518384E-02    0.1016621061E-03    0.6955046980E+00    0.1741464062E-02    0.4054679772E-02
    0.3100000000E+04    0.1128269151E-02    0.1120705668E-03    0.6955321885E+00    0.1920558594E-02    0.4034569901E-02
    0.3300000000E+04    0.1240271095E-02    0.1231997582E-03    0.6955563276E+00    0.2112120050E-02    0.4013151349E-02
    0.3500000000E+04    0.1360282592E-02    0.1351250703E-03    0.6955776906E+00    0.2317454619E-02    0.3990292958E-02
    0.3700000000E+04    0.1489160222E-02    0.1479316562E-03    0.6955967285E+00    0.2538038159E-02    0.3965846958E-02
    0.3900000000E+04    0.1627874672E-02    0.1617160145E-03    0.6956137995E+00    0.2775543750E-02    0.3939646439E-02
    0.4100000000E+04    0.1777529427E-02    0.1765878481E-03    0.6956291921E+00    0.3031874086E-02    0.3911502386E-02
    0.4300000000E+04    0.1939382770E-02    0.1926722516E-03    0.6956431409E+00    0.3309199614E-02    0.3881200199E-02
    0.4500000000E+04    0.2114873705E-02    0.2101122899E-03    0.6956558390E+00    0.3610003525E-02    0.3848495637E-02
    0.4700000000E+04    0.2305652522E-02    0.2290720377E-03    0.6956674463E+00    0.3937134839E-02    0.3813110076E-02
    0.4900000000E+04    0.2513616783E-02    0.2497401593E-03    0.6956780967E+00    0.4293870954E-02    0.3774724992E-02
    0.1000000000E+04    0.2853175252E-03    0.2831806678E-04    0.6946914117E+00    0.4816518377E-03    0.4198410878E-02
    0.3000000000E+04    0.1075031320E-02    0.1067806140E-03    0.6955189041E+00    0.1829528640E-02    0.4044780812E-02
    0.5000000000E+04    0.2624714310E-02    0.2607815614E-03    0.6956830991E+00    0.4484499976E-02    0.3754295630E-02
    0.7000000000E+04    0.6553674289E-02    0.6513265909E-03    0.6957528384E+00    0.1124506568E-01    0.3057846038E-02
    0.9000000000E+04    0.1754809831E-01    0.1744741044E-02    0.6957912206E+00    0.3031998468E-01    0.1305054597E-02
    0.1100000000E+05    0.2723397338E-01    0.2709601632E-02    0.6958154106E+00    0.4757713073E-01    0.2025164959E-03
    0.1300000000E+05    0.3101614858E-01    0.3088136222E-02    0.6958319925E+00    0.5482697660E-01    0.1147696763E-03
    0.1500000000E+05    0.3390325470E-01    0.3377971933E-02    0.6958440299E+00    0.6062120728E-01    0.1114413451E-03
    0.1700000000E+05    0.3645592143E-01    0.3634792106E-02    0.6958531404E+00    0.6591259700E-01    0.1120031608E-03
    0.1900000000E+05    0.3874318550E-01    0.3865404847E-02    0.6958602575E+00    0.7080486366E-01    0.1126857974E-03
    0.2100000000E+05    0.4080140269E-01    0.4073378548E-02    0.6958659575E+00    0.7534779146E-01    0.1133139530E-03
    0.2300000000E+05    0.4265979077E-01    0.4261581134E-02    0.6958706151E+00    0.7958131010E-01    0.1138885820E-03
    0.2500000000E+05    0.4434286975E-01    0.4432420846E-02    0.6958744843E+00    0.8353923186E-01    0.1144178440E-03
    0.2700000000E+05    0.4587141017E-01    0.4587938976E-02    0.6958777433E+00    0.8725048166E-01    0.1149085155E-03
    0.2900000000E+05    0.4726311900E-01    0.4729876872E-02    0.6958805208E+00    0.9073996379E-01    0.1153659744E-03
    0.3100000000E+05    0.4853317830E-01    0.4859728556E-02    0.6958829118E+00    0.9402924444E-01    0.1157945415E-03
    0.3300000000E+05    0.4969467447E-01    0.4978782679E-02    0.6958849883E+00    0.9713709871E-01    0.1161977393E-03
    0.3500000000E+05    0.5075894338E-01    0.5088156259E-02    0.6958868055E+00    0.1000799530E+00    0.1165784783E-03
    0.3700000000E+05    0.5173584984E-01    0.5188822013E-02    0.6958884065E+00    0.1028722452E+00    0.1169391915E-03
    0.3900000000E+05    0.5263401553E-01    0.5281630659E-02    0.6958898256E+00    0.1055267206E+00    0.1172819336E-03
    0.4100000000E+05    0.5346100616E-01    0.5367329231E-02    0.6958910902E+00    0.1080546758E+00    0.1176084561E-03
    0.4300000000E+05    0.5422348597E-01    0.5446576209E-02    0.6958922225E+00    0.1104661616E+00    0.1179202641E-03
    0.4500000000E+05    0.5492734615E-01    0.5519954091E-02    0.6958932408E+00    0.1127701526E+00    0.1182186610E-03
    0.4700000000E+05    0.5557781197E-01    0.5587979900E-02    0.6958941602E+00    0.1149746893E+00    0.1185047829E-03
    0.4900000000E+05    0.5617953283E-01    0.5651113998E-02    0.6958949933E+00    0.1170869983E+00    0.1187796261E-03
    0.1000000000E+05    0.2371514939E-01    0.2358661122E-02    0.6958045543E+00    0.4118963460E-01    0.5011757914E-03
    0.3000000000E+05    0.4791249223E-01    0.4796228567E-02    0.6958817597E+00    0.9240839607E-01    0.1155836330E-03
    0.5000000000E+05    0.5646342830E-01    0.5680976883E-02    0.6958953809E+00    0.1181106288E+00    0.1189130969E-03
    0.7000000000E+05    0.6038495898E-01    0.6101074559E-02    0.6959004545E+00    0.1350275921E+00    0.1211581188E-03
    0.9000000000E+05    0.6225573007E-01    0.6312694747E-02    0.6959028455E+00    0.1473598549E+00    0.1228624676E-03
    0.1100000000E+06    0.6308610463E-01    0.6417014922E-02    0.6959040921E+00    0.1569399036E+00    0.1242405228E-03
    0.1300000000E+06    0.6334199413E-01    0.6461089203E-02    0.6959047629E+00    0.1647091292E+00    0.1253994854E-03
    0.1500000000E+06    0.6326284231E-01    0.6469321974E-02    0.6959051127E+00    0.1712073627E+00    0.1264008494E-03
    0.1700000000E+06    0.6298155278E-01    0.6455394339E-02    0.6959052708E+00    0.1767697112E+00    0.1272832375E-03
    0.1900000000E+06    0.6257621371E-01    0.6427433152E-02    0.6959053085E+00    0.1816170463E+00    0.1280725298E-03
    0.2100000000E+06    0.6209472529E-01    0.6390484624E-02    0.6959052682E+00    0.1859019350E+00    0.1287869325E-03
    0.2300000000E+06    0.6156745272E-01    0.6347791940E-02    0.6959051760E+00    0.1897338073E+00    0.1294397491E-03
    0.2500000000E+06    0.6101413184E-01    0.6301496397E-02    0.6959050488E+00    0.1931936157E+00    0.1300410023E-03
    0.2700000000E+06    0.6044782770E-01    0.6253041674E-02    0.6959048979E+00    0.1963428097E+00    0.1305984341E-03
    0.2900000000E+06    0.5987729778E-01    0.6203416646E-02    0.6959047310E+00    0.1992290633E+00    0.1311181519E-03
    0.3100000000E+06    0.5930845176E-01    0.6153306348E-02    0.6959045535E+00    0.2018900616E+00    0.1316050599E-03
    0.3300000000E+06    0.5874527959E-01    0.6103188616E-02    0.6959043690E+00    0.2043560796E+00    0.1320631566E-03
    0.3500000000E+06    0.5819045635E-01    0.6053397532E-02    0.6959041804E+00    0.2066517855E+00    0.1324957460E-03
    0.3700000000E+06    0.5764574489E-01    0.6004165986E-02    0.6959039896E+00    0.2087975318E+00    0.1329055903E-03
    0.3900000000E+06    0.5711226883E-01    0.5955654789E-02    0.6959037980E+00    0.2108102963E+00    0.1332950224E-03
    0.4100000000E+06    0.5659070059E-01    0.5907972901E-02    0.6959036066E+00    0.2127043824E+00    0.1336660309E-03
    0.4300000000E+06    0.5608139276E-01    0.5861191706E-02    0.6959034163E+00    0.2144919480E+00    0.1340203251E-03
    0.4500000000E+06    0.5558447091E-01    0.5815355202E-02    0.6959032277E+00    0.2161834098E+00    0.1343593849E-03
    0.4700000000E+06    0.5509989975E-01    0.5770487369E-02    0.6959030410E+00    0.2177877579E+00    0.1346845005E-03
    0.4900000000E+06    0.5462753088E-01    0.5726597537E-02    0.6959028567E+00    0.2193128027E+00    0.1349968036E-03
    0.1000000000E+06    0.6276432663E-01    0.6374575968E-02    0.6959035651E+00    0.1524221221E+00    0.1235840914E-03
    0.3000000000E+06    0.5959237822E-01    0.6178388303E-02    0.6959046433E+00    0.2005856777E+00    0.1313654388E-03
    0.5000000000E+06    0.5439585369E-01    0.5705019275E-02    0.6959027655E+00    0.2200477537E+00    0.1351484669E-03
    0.7000000000E+06    0.5032902420E-01    0.5321464219E-02    0.6959010854E+00    0.2318656702E+00    0.1376995797E-03
    0.9000000000E+06    0.4711892641E-01    0.5013421306E-02    0.6958996627E+00    0.2401672910E+00    0.1396363884E-03
    0.1100000000E+07    0.4450902749E-01    0.4760086889E-02    0.6958984430E+00    0.2464683138E+00    0.1412024377E-03
    0.1300000000E+07    0.4233151321E-01    0.4546907820E-02    0.6958973792E+00    0.2514890683E+00    0.1425195255E-03
    0.1500000000E+07    0.4047652090E-01    0.4364062569E-02    0.6958964368E+00    0.2556262071E+00    0.1436575240E-03
    0.1700000000E+07    0.3886959885E-01    0.4204770993E-02    0.6958955912E+00    0.2591203095E+00    0.1446603200E-03
    0.1900000000E+07    0.3745845077E-01    0.4064208435E-02    0.6958948243E+00    0.2621276764E+00    0.1455573213E-03
    0.2100000000E+07    0.3620515397E-01    0.3938841619E-02    0.6958941226E+00    0.2647552324E+00    0.1463692166E-03
    0.2300000000E+07    0.3508144549E-01    0.3826016383E-02    0.6958934758E+00    0.2670791286E+00    0.1471111238E-03
    0.2500000000E+07    0.3406576214E-01    0.3723694390E-02    0.6958928758E+00    0.2691553813E+00    0.1477944323E-03
    0.2700000000E+07    0.3314131762E-01    0.3630279939E-02    0.6958923161E+00    0.2710263058E+00    0.1484279405E-03
    0.2900000000E+07    0.3229481447E-01    0.3544502795E-02    0.6958917917E+00    0.2727245862E+00    0.1490185885E-03
    0.3100000000E+07    0.3151555756E-01    0.3465336891E-02    0.6958912982E+00    0.2742759491E+00    0.1495719495E-03
    0.3300000000E+07    0.3079482906E-01    0.3391942622E-02    0.6958908322E+00    0.2757009770E+00    0.1500925678E-03
    0.3500000000E+07    0.3012543837E-01    0.3323625041E-02    0.6958903906E+00    0.2770163719E+00    0.1505841982E-03
    0.3700000000E+07    0.2950139169E-01    0.3259803021E-02    0.6958899711E+00    0.2782358561E+00    0.1510499794E-03
    0.3900000000E+07    0.2891764546E-01    0.3199986127E-02    0.6958895713E+00    0.2793708290E+00    0.1514925628E-03
    0.4100000000E+07    0.2836991941E-01    0.3143757017E-02    0.6958891896E+00    0.2804308537E+00    0.1519142085E-03
    0.4300000000E+07    0.2785455296E-01    0.3090757872E-02    0.6958888244E+00    0.2814240241E+00    0.1523168587E-03
    0.4500000000E+07    0.2736839344E-01    0.3040679794E-02    0.6958884741E+00    0.2823572449E+00    0.1527021955E-03
    0.4700000000E+07    0.2690870817E-01    0.2993254444E-02    0.6958881377E+00    0.2832364497E+00    0.1530716851E-03
    0.4900000000E+07    0.2647311456E-01    0.2948247373E-02    0.6958878140E+00    0.2840667707E+00    0.1534266135E-03
    0.1000000000E+07    0.4575114499E-01    0.4880960121E-02    0.6958990308E+00    0.2435121440E+00    0.1404564524E-03
    0.3000000000E+07    0.3189736547E-01    0.3504149730E-02    0.6958915413E+00    0.2735172423E+00    0.1492996249E-03
    0.5000000000E+07    0.2626368926E-01    0.2926585351E-02    0.6958876566E+00    0.2844650184E+00    0.1535989770E-03
    0.7000000000E+07    0.2294630059E-01    0.2581357165E-02    0.6958849947E+00    0.2906954622E+00    0.1564982880E-03
    0.9000000000E+07    0.2068059992E-01    0.2343196241E-02    0.6958829587E+00    0.2948731492E+00    0.1586994520E-03
    0.1100000000E+08    0.1900093727E-01    0.2165296248E-02    0.6958813053E+00    0.2979335224E+00    0.1604792522E-03
    0.1300000000E+08    0.1768865793E-01    0.2025460400E-02    0.6958799109E+00    0.3003042175E+00    0.1619761101E-03
    0.1500000000E+08    0.1662520829E-01    0.1911563155E-02    0.6958787036E+00    0.3022129895E+00    0.1632694346E-03
    0.1700000000E+08    0.1573980935E-01    0.1816321344E-02    0.6958776382E+00    0.3037940521E+00    0.1644091025E-03
    0.1900000000E+08    0.1498716552E-01    0.1735050300E-02    0.6958766841E+00    0.3051324377E+00    0.1654285356E-03
    0.2100000000E+08    0.1433672352E-01    0.1664576201E-02    0.6958758198E+00    0.3062850430E+00    0.1663512464E-03
    0.2300000000E+08    0.1376700491E-01    0.1602659299E-02    0.6958750293E+00    0.3072916007E+00    0.1671944163E-03
    0.2500000000E+08    0.1326239862E-01    0.1547666099E-02    0.6958743009E+00    0.3081808281E+00    0.1679709892E-03
    0.2700000000E+08    0.1281124182E-01    0.1498372448E-02    0.6958736252E+00    0.3089740770E+00    0.1686909643E-03
