  Pressure (Pa) 22mC5-500 (mol/kg) 23mC5-500 (mol/kg) 24mC5-500 (mol/kg) 2mC6-500 (mol/kg) C7-500 (mol/kg)
    0.1000000000E+01    0.6358224631E-05    0.2432847378E-05    0.1513970826E+00    0.2709677989E-05    0.4218451930E-02
    0.3000000000E+01    0.1237321065E-04    0.4718858359E-05    0.3164617723E+00    0.4999959745E-05    0.4281856059E-02
    0.5000000000E+01    0.1509175327E-04    0.5743630555E-05    0.4047118649E+00    0.5941871349E-05    0.4315799088E-02
    0.7000000000E+01    0.1658373601E-04    0.6303088456E-05    0.4596461596E+00    0.6471524470E-05    0.4337404733E-02
    0.9000000000E+01    0.1752859523E-04    0.6657002737E-05    0.4971350053E+00    0.6858408570E-05    0.4352512569E-02
    0.1100000000E+02    0.1820223176E-04    0.6910206583E-05    0.5243499402E+00    0.7196561668E-05    0.4363751191E-02
    0.1300000000E+02    0.1873256707E-04    0.7110974209E-05    0.5450053987E+00    0.7522312372E-05    0.4372488192E-02
    0.1500000000E+02    0.1918450637E-04    0.7283611549E-05    0.5612178267E+00    0.7850253504E-05    0.4379508301E-02
    0.1700000000E+02    0.1959315774E-04    0.7441150588E-05    0.5742815744E+00    0.8186058496E-05    0.4385295312E-02
    0.1900000000E+02    0.1997840740E-04    0.7590896884E-05    0.5850327272E+00    0.8531554445E-05    0.4390164413E-02
    0.2100000000E+02    0.2035189280E-04    0.7737072320E-05    0.5940354261E+00    0.8886883835E-05    0.4394330154E-02
    0.2300000000E+02    0.2072057106E-04    0.7882161357E-05    0.6016841185E+00    0.9251473006E-05    0.4397943895E-02
    0.2500000000E+02    0.2108864585E-04    0.8027634445E-05    0.6082629013E+00    0.9624478922E-05    0.4401115636E-02
    0.2700000000E+02    0.2145865433E-04    0.8174353918E-05    0.6139815875E+00    0.1000499668E-04    0.4403927349E-02
    0.2900000000E+02    0.2183210280E-04    0.8322809964E-05    0.6189984960E+00    0.1039215357E-04    0.4406441452E-02
    0.3100000000E+02    0.2220984949E-04    0.8473261850E-05    0.6234353361E+00    0.1078514833E-04    0.4408706360E-02
    0.3300000000E+02    0.2259234100E-04    0.8625824493E-05    0.6273872108E+00    0.1118326375E-04    0.4410760247E-02
    0.3500000000E+02    0.2297976125E-04    0.8780522573E-05    0.6309295110E+00    0.1158586665E-04    0.4412633646E-02
    0.3700000000E+02    0.2337212696E-04    0.8937324880E-05    0.6341227705E+00    0.1199240221E-04    0.4414351291E-02
    0.3900000000E+02    0.2376934957E-04    0.9096166366E-05    0.6370161546E+00    0.1240238610E-04    0.4415933451E-02
    0.4100000000E+02    0.2417127587E-04    0.9256962411E-05    0.6396500086E+00    0.1281539613E-04    0.4417396905E-02
    0.4300000000E+02    0.2457771480E-04    0.9419618088E-05    0.6420577512E+00    0.1323106438E-04    0.4418755674E-02
    0.4500000000E+02    0.2498845517E-04    0.9584034171E-05    0.6442672997E+00    0.1364906994E-04    0.4420021570E-02
    0.4700000000E+02    0.2540327736E-04    0.9750110993E-05    0.6463021571E+00    0.1406913259E-04    0.4421204629E-02
    0.4900000000E+02    0.2582196093E-04    0.9917750898E-05    0.6481822517E+00    0.1449100716E-04    0.4422313429E-02
    0.1000000000E+02    0.1788923773E-04    0.6792382394E-05    0.5117433325E+00    0.7030552837E-05    0.4358511390E-02
    0.3000000000E+02    0.2202040338E-04    0.8397776616E-05    0.6212829499E+00    0.1058796805E-04    0.4407602464E-02
    0.5000000000E+02    0.2603268289E-04    0.1000212742E-04    0.6490696772E+00    0.1470255571E-04    0.4422842331E-02
    0.7000000000E+02    0.3040226957E-04    0.1175146858E-04    0.6617534654E+00    0.1898867739E-04    0.4430871756E-02
    0.9000000000E+02    0.3497275811E-04    0.1357959987E-04    0.6690161267E+00    0.2332202516E-04    0.4435989435E-02
    0.1100000000E+03    0.3965868510E-04    0.1545213017E-04    0.6737210698E+00    0.2766414346E-04    0.4439582987E-02
    0.1300000000E+03    0.4441529060E-04    0.1735141308E-04    0.6770170345E+00    0.3200193595E-04    0.4442254497E-02
    0.1500000000E+03    0.4921780884E-04    0.1926782249E-04    0.6794544393E+00    0.3633117019E-04    0.4444313951E-02
    0.1700000000E+03    0.5405180993E-04    0.2119581850E-04    0.6813300450E+00    0.4065105250E-04    0.4445939998E-02
    0.1900000000E+03    0.5890854544E-04    0.2313208343E-04    0.6828179790E+00    0.4496218473E-04    0.4447244188E-02
    0.2100000000E+03    0.6378256069E-04    0.2507457633E-04    0.6840271497E+00    0.4926572106E-04    0.4448300490E-02
    0.2300000000E+03    0.6867039591E-04    0.2702202312E-04    0.6850291661E+00    0.5356299983E-04    0.4449160287E-02
    0.2500000000E+03    0.7356984345E-04    0.2897362722E-04    0.6858730463E+00    0.5785537866E-04    0.4449860632E-02
    0.2700000000E+03    0.7847950454E-04    0.3092889796E-04    0.6865934748E+00    0.6214416170E-04    0.4450429069E-02
    0.2900000000E+03    0.8339851538E-04    0.3288754522E-04    0.6872156846E+00    0.6643057014E-04    0.4450886597E-02
    0.3100000000E+03    0.8832637248E-04    0.3484941273E-04    0.6877584711E+00    0.7071573338E-04    0.4451249571E-02
    0.3300000000E+03    0.9326281867E-04    0.3681443467E-04    0.6882361222E+00    0.7500068999E-04    0.4451530965E-02
    0.3500000000E+03    0.9820776686E-04    0.3878260695E-04    0.6886596927E+00    0.7928639307E-04    0.4451741236E-02
    0.3700000000E+03    0.1031612482E-03    0.4075396774E-04    0.6890378701E+00    0.8357371739E-04    0.4451888927E-02
    0.3900000000E+03    0.1081233764E-03    0.4272858417E-04    0.6893775760E+00    0.8786346688E-04    0.4451981104E-02
    0.4100000000E+03    0.1130943223E-03    0.4470654301E-04    0.6896843930E+00    0.9215638193E-04    0.4452023675E-02
    0.4300000000E+03    0.1180742965E-03    0.4668794421E-04    0.6899628734E+00    0.9645314611E-04    0.4452021625E-02
    0.4500000000E+03    0.1230635367E-03    0.4867289629E-04    0.6902167668E+00    0.1007543923E-03    0.4451979201E-02
    0.4700000000E+03    0.1280622982E-03    0.5066151305E-04    0.6904491891E+00    0.1050607080E-03    0.4451900045E-02
    0.4900000000E+03    0.1330708475E-03    0.5265391125E-04    0.6906627512E+00    0.1093726405E-03    0.4451787305E-02
    0.1000000000E+03    0.3730472566E-04    0.1451167501E-04    0.6715957255E+00    0.2549312001E-04    0.4437929157E-02
    0.3000000000E+03    0.8586135895E-04    0.3386808229E-04    0.6874960245E+00    0.6857324042E-04    0.4451079025E-02
    0.5000000000E+03    0.1355788778E-03    0.5365156528E-04    0.6907631621E+00    0.1115308740E-03    0.4451719210E-02
    0.7000000000E+03    0.1863202697E-03    0.7383157840E-04    0.6921711955E+00    0.1550991353E-03    0.4449104030E-02
    0.9000000000E+03    0.2383417410E-03    0.9451576891E-04    0.6929549380E+00    0.1996612308E-03    0.4444869852E-02
    0.1100000000E+04    0.2918669137E-03    0.1157952220E-03    0.6934539646E+00    0.2454643627E-03    0.4439592514E-02
    0.1300000000E+04    0.3470896857E-03    0.1377480540E-03    0.6937994101E+00    0.2926991104E-03    0.4433533697E-02
    0.1500000000E+04    0.4041878507E-03    0.1604455074E-03    0.6940526154E+00    0.3415303967E-03    0.4426828438E-02
    0.1700000000E+04    0.4633324036E-03    0.1839558973E-03    0.6942461037E+00    0.3921120011E-03    0.4419550544E-02
    0.1900000000E+04    0.5246936152E-03    0.2083471320E-03    0.6943987227E+00    0.4445944304E-03    0.4411740254E-02
    0.2100000000E+04    0.5884452346E-03    0.2336884351E-03    0.6945221479E+00    0.4991297561E-03    0.4403417514E-02
    0.2300000000E+04    0.6547676452E-03    0.2600516276E-03    0.6946239968E+00    0.5558749467E-03    0.4394588943E-02
    0.2500000000E+04    0.7238504424E-03    0.2875121677E-03    0.6947094509E+00    0.6149944253E-03    0.4385251735E-02
    0.2700000000E+04    0.7958947142E-03    0.3161500668E-03    0.6947821570E+00    0.6766622281E-03    0.4375395926E-02
    0.2900000000E+04    0.8711151942E-03    0.3460507517E-03    0.6948447559E+00    0.7410639786E-03    0.4365005744E-02
    0.3100000000E+04    0.9497424052E-03    0.3773059203E-03    0.6948992070E+00    0.8083988122E-03    0.4354060405E-02
    0.3300000000E+04    0.1032024874E-02    0.4100144252E-03    0.6949469946E+00    0.8788813374E-03    0.4342534560E-02
    0.3500000000E+04    0.1118231485E-02    0.4442832115E-03    0.6949892635E+00    0.9527437038E-03    0.4330398496E-02
    0.3700000000E+04    0.1208654030E-02    0.4802283322E-03    0.6950269109E+00    0.1030237830E-02    0.4317618178E-02
    0.3900000000E+04    0.1303610008E-02    0.5179760621E-03    0.6950606498E+00    0.1111637841E-02    0.4304155150E-02
    0.4100000000E+04    0.1403445725E-02    0.5576641325E-03    0.6950910540E+00    0.1197242770E-02    0.4289966338E-02
    0.4300000000E+04    0.1508539759E-02    0.5994431093E-03    0.6951185903E+00    0.1287379565E-02    0.4275003751E-02
    0.4500000000E+04    0.1619306844E-02    0.6434779380E-03    0.6951436425E+00    0.1382406461E-02    0.4259214102E-02
    0.4700000000E+04    0.1736202241E-02    0.6899496851E-03    0.6951665291E+00    0.1482716786E-02    0.4242538340E-02
    0.4900000000E+04    0.1859726688E-02    0.7390575035E-03    0.6951875164E+00    0.1588743248E-02    0.4224911086E-02
    0.1000000000E+04    0.2649037299E-03    0.1050759845E-03    0.6932293939E+00    0.2223949113E-03    0.4442341027E-02
    0.3000000000E+04    0.9099878741E-03    0.3615030256E-03    0.6948728979E+00    0.7743517332E-03    0.4359603950E-02
    0.5000000000E+04    0.1924145081E-02    0.7646676622E-03    0.6951973693E+00    0.1644047203E-02    0.4215718332E-02
    0.7000000000E+04    0.3738832830E-02    0.1486180057E-02    0.6953343256E+00    0.3204461847E-02    0.3958503380E-02
    0.9000000000E+04    0.7559907141E-02    0.3005723978E-02    0.6954091996E+00    0.6501080536E-02    0.3432683816E-02
    0.1100000000E+05    0.1660144279E-01    0.6602496918E-02    0.6954560578E+00    0.1434397605E-01    0.2263741760E-02
    0.1300000000E+05    0.2963313284E-01    0.1179070820E-01    0.6954879432E+00    0.2579560919E-01    0.8186462428E-03
    0.1500000000E+05    0.3594927461E-01    0.1431181848E-01    0.6955109140E+00    0.3157966816E-01    0.4208947759E-03
    0.1700000000E+05    0.3929489288E-01    0.1565253344E-01    0.6955281616E+00    0.3483554990E-01    0.3813816611E-03
    0.1900000000E+05    0.4205921447E-01    0.1676283694E-01    0.6955415248E+00    0.3761948813E-01    0.3797839529E-03
    0.2100000000E+05    0.4455830159E-01    0.1776832403E-01    0.6955521360E+00    0.4020095736E-01    0.3815114849E-03
    0.2300000000E+05    0.4684768784E-01    0.1869095197E-01    0.6955607298E+00    0.4262344082E-01    0.3834050876E-03
    0.2500000000E+05    0.4895335729E-01    0.1954094002E-01    0.6955678034E+00    0.4490534129E-01    0.3851825624E-03
    0.2700000000E+05    0.5089538511E-01    0.2032617606E-01    0.6955737046E+00    0.4706058231E-01    0.3868341824E-03
    0.2900000000E+05    0.5269085729E-01    0.2105337543E-01    0.6955786841E+00    0.4910105659E-01    0.3883744041E-03
    0.3100000000E+05    0.5435457257E-01    0.2172835729E-01    0.6955829268E+00    0.5103713949E-01    0.3898173504E-03
    0.3300000000E+05    0.5589943078E-01    0.2235619666E-01    0.6955865720E+00    0.5287794507E-01    0.3911748395E-03
    0.3500000000E+05    0.5733672852E-01    0.2294134008E-01    0.6955897266E+00    0.5463151697E-01    0.3924566744E-03
    0.3700000000E+05    0.5867639948E-01    0.2348769963E-01    0.6955924739E+00    0.5630498353E-01    0.3936710538E-03
    0.3900000000E+05    0.5992721257E-01    0.2399873047E-01    0.6955948797E+00    0.5790468625E-01    0.3948249022E-03
    0.4100000000E+05    0.6109693662E-01    0.2447749524E-01    0.6955969968E+00    0.5943628708E-01    0.3959241216E-03
    0.4300000000E+05    0.6219247792E-01    0.2492671802E-01    0.6955988679E+00    0.6090485845E-01    0.3969737841E-03
    0.4500000000E+05    0.6321999585E-01    0.2534882951E-01    0.6956005277E+00    0.6231495923E-01    0.3979782809E-03
    0.4700000000E+05    0.6418500039E-01    0.2574600527E-01    0.6956020050E+00    0.6367069924E-01    0.3989414397E-03
    0.4900000000E+05    0.6509243482E-01    0.2612019813E-01    0.6956033238E+00    0.6497579409E-01    0.3998666172E-03
    0.1000000000E+05    0.1114873306E-01    0.4433188620E-02    0.6954350696E+00    0.9607352159E-02    0.2956607834E-02
    0.3000000000E+05    0.5353833758E-01    0.2139706040E-01    0.6955808880E+00    0.5008155021E-01    0.3891072456E-03
    0.5000000000E+05    0.6552597060E-01    0.2629923221E-01    0.6956039301E+00    0.6561041463E-01    0.4003159020E-03
    0.7000000000E+05    0.7204749698E-01    0.2901883664E-01    0.6956112348E+00    0.7631579942E-01    0.4078725932E-03
    0.9000000000E+05    0.7593500700E-01    0.3067748383E-01    0.6956138537E+00    0.8440543450E-01    0.4136089604E-03
    0.1100000000E+06    0.7837624797E-01    0.3174824091E-01    0.6956145951E+00    0.9088184963E-01    0.4182469052E-03
    0.1300000000E+06    0.7995129935E-01    0.3246349088E-01    0.6956144617E+00    0.9627429504E-01    0.4221473593E-03
    0.1500000000E+06    0.8097452420E-01    0.3294992217E-01    0.6956138858E+00    0.1008924709E+00    0.4255173453E-03
    0.1700000000E+06    0.8162970227E-01    0.3328205512E-01    0.6956130769E+00    0.1049317319E+00    0.4284868800E-03
    0.1900000000E+06    0.8203065833E-01    0.3350633917E-01    0.6956121454E+00    0.1085225607E+00    0.4311430793E-03
    0.2100000000E+06    0.8225116491E-01    0.3365307916E-01    0.6956111529E+00    0.1117561252E+00    0.4335472259E-03
    0.2300000000E+06    0.8234081741E-01    0.3374278920E-01    0.6956101348E+00    0.1146984836E+00    0.4357440991E-03
    0.2500000000E+06    0.8233397449E-01    0.3378978372E-01    0.6956091124E+00    0.1173989556E+00    0.4377674332E-03
    0.2700000000E+06    0.8225504260E-01    0.3380430792E-01    0.6956080983E+00    0.1198952989E+00    0.4396432866E-03
    0.2900000000E+06    0.8212172866E-01    0.3379385389E-01    0.6956071001E+00    0.1222170415E+00    0.4413922148E-03
    0.3100000000E+06    0.8194711194E-01    0.3376400213E-01    0.6956061224E+00    0.1243877022E+00    0.4430307235E-03
    0.3300000000E+06    0.8174100335E-01    0.3371897585E-01    0.6956051675E+00    0.1264263124E+00    0.4445722708E-03
    0.3500000000E+06    0.8151086033E-01    0.3366201542E-01    0.6956042368E+00    0.1283484879E+00    0.4460279766E-03
    0.3700000000E+06    0.8126241661E-01    0.3359563725E-01    0.6956033307E+00    0.1301671998E+00    0.4474071368E-03
    0.3900000000E+06    0.8100012434E-01    0.3352181631E-01    0.6956024491E+00    0.1318933399E+00    0.4487176030E-03
    0.4100000000E+06    0.8072747010E-01    0.3344211701E-01    0.6956015915E+00    0.1335361437E+00    0.4499660680E-03
    0.4300000000E+06    0.8044720420E-01    0.3335778880E-01    0.6956007573E+00    0.1351035105E+00    0.4511582843E-03
    0.4500000000E+06    0.8016150962E-01    0.3326983670E-01    0.6955999457E+00    0.1366022503E+00    0.4522992327E-03
    0.4700000000E+06    0.7987212792E-01    0.3317907424E-01    0.6955991561E+00    0.1380382765E+00    0.4533932552E-03
    0.4900000000E+06    0.7958045427E-01    0.3308616360E-01    0.6955983874E+00    0.1394167568E+00    0.4544441599E-03
    0.1000000000E+06    0.7729147896E-01    0.3126837864E-01    0.6956143760E+00    0.8780520220E-01    0.4160376583E-03
    0.3000000000E+06    0.8203890579E-01    0.3378106204E-01    0.6956066085E+00    0.1233199768E+00    0.4422243685E-03
    0.5000000000E+06    0.7943411745E-01    0.3303907597E-01    0.6955980106E+00    0.1400858588E+00    0.4549545084E-03
    0.7000000000E+06    0.7656552797E-01    0.3207404172E-01    0.6955913806E+00    0.1513097030E+00    0.4635389309E-03
    0.9000000000E+06    0.7396728688E-01    0.3115841779E-01    0.6955860508E+00    0.1597873389E+00    0.4700561239E-03
    0.1100000000E+07    0.7166845379E-01    0.3032827273E-01    0.6955816017E+00    0.1666050270E+00    0.4753256766E-03
    0.1300000000E+07    0.6962980991E-01    0.2958018790E-01    0.6955777830E+00    0.1723045719E+00    0.4797574620E-03
    0.1500000000E+07    0.6780811090E-01    0.2890380054E-01    0.6955744367E+00    0.1771973231E+00    0.4835866095E-03
    0.1700000000E+07    0.6616675991E-01    0.2828872757E-01    0.6955714573E+00    0.1814794785E+00    0.4869608022E-03
    0.1900000000E+07    0.6467642963E-01    0.2772601201E-01    0.6955687710E+00    0.1852829927E+00    0.4899789999E-03
    0.2100000000E+07    0.6331383069E-01    0.2720823199E-01    0.6955663243E+00    0.1887010297E+00    0.4927108210E-03
    0.2300000000E+07    0.6206037824E-01    0.2672929495E-01    0.6955640772E+00    0.1918018928E+00    0.4952071375E-03
    0.2500000000E+07    0.6090110005E-01    0.2628419083E-01    0.6955619989E+00    0.1946371896E+00    0.4975062750E-03
    0.2700000000E+07    0.5982380357E-01    0.2586877478E-01    0.6955600653E+00    0.1972468869E+00    0.4996378394E-03
    0.2900000000E+07    0.5881845237E-01    0.2547959147E-01    0.6955582572E+00    0.1996625788E+00    0.5016251849E-03
    0.3100000000E+07    0.5787669984E-01    0.2511373709E-01    0.6955565588E+00    0.2019096802E+00    0.5034870648E-03
    0.3300000000E+07    0.5699153828E-01    0.2476875188E-01    0.6955549573E+00    0.2040089426E+00    0.5052387700E-03
    0.3500000000E+07    0.5615703220E-01    0.2444253646E-01    0.6955534420E+00    0.2059775319E+00    0.5068929353E-03
    0.3700000000E+07    0.5536811361E-01    0.2413328618E-01    0.6955520039E+00    0.2078298100E+00    0.5084601227E-03
    0.3900000000E+07    0.5462042316E-01    0.2383943943E-01    0.6955506353E+00    0.2095779145E+00    0.5099492535E-03
    0.4100000000E+07    0.5391018548E-01    0.2355963656E-01    0.6955493296E+00    0.2112321952E+00    0.5113679325E-03
    0.4300000000E+07    0.5323411059E-01    0.2329268698E-01    0.6955480811E+00    0.2128015490E+00    0.5127226958E-03
    0.4500000000E+07    0.5258931495E-01    0.2303754253E-01    0.6955468850E+00    0.2142936790E+00    0.5140192029E-03
    0.4700000000E+07    0.5197325789E-01    0.2279327596E-01    0.6955457369E+00    0.2157152987E+00    0.5152623875E-03
    0.4900000000E+07    0.5138368980E-01    0.2255906314E-01    0.6955446330E+00    0.2170722946E+00    0.5164565767E-03
    0.1000000000E+07    0.7278252232E-01    0.3073255159E-01    0.6955837346E+00    0.1633622893E+00    0.4728155401E-03
    0.3000000000E+07    0.5834009216E-01    0.2529391123E-01    0.6955573951E+00    0.2008058114E+00    0.5025707819E-03
    0.5000000000E+07    0.5109820512E-01    0.2244549392E-01    0.6955440965E+00    0.2177282044E+00    0.5170365085E-03
    0.7000000000E+07    0.4639237341E-01    0.2055888683E-01    0.6955350427E+00    0.2284425919E+00    0.5267914001E-03
    0.9000000000E+07    0.4296636342E-01    0.1916830197E-01    0.6955281382E+00    0.2361481874E+00    0.5341972221E-03
    0.1100000000E+08    0.4030541830E-01    0.1807836470E-01    0.6955225409E+00    0.2420903140E+00    0.5401852919E-03
    0.1300000000E+08    0.3814981940E-01    0.1718903706E-01    0.6955178254E+00    0.2468813583E+00    0.5452213633E-03
    0.1500000000E+08    0.3635092111E-01    0.1644244537E-01    0.6955137461E+00    0.2508663477E+00    0.5495726244E-03
    0.1700000000E+08    0.3481606118E-01    0.1580220664E-01    0.6955101483E+00    0.2542580797E+00    0.5534068947E-03
    0.1900000000E+08    0.3348377869E-01    0.1524402076E-01    0.6955069278E+00    0.2571966078E+00    0.5568366278E-03
    0.2100000000E+08    0.3231133554E-01    0.1475089049E-01    0.6955040112E+00    0.2597787473E+00    0.5599409345E-03
    0.2300000000E+08    0.3126788491E-01    0.1431048514E-01    0.6955013449E+00    0.2620740523E+00    0.5627776239E-03
    0.2500000000E+08    0.3033048077E-01    0.1391359103E-01    0.6954988882E+00    0.2641340677E+00    0.5653902475E-03
    0.2700000000E+08    0.2948162311E-01    0.1355315300E-01    0.6954966098E+00    0.2659979832E+00    0.5678124480E-03
