  Pressure (Pa) 22mC5-500 (mol/kg) 23mC5-500 (mol/kg) 24mC5-500 (mol/kg) 2mC6-500 (mol/kg) C7-500 (mol/kg)
    0.1000000000E+01    0.6694532160E-05    0.6406039404E-06    0.1266239786E+00    0.1434383963E-04    0.4220636513E-02
    0.3000000000E+01    0.1382078205E-04    0.1318683375E-05    0.2784838652E+00    0.2819521564E-04    0.4292510384E-02
    0.5000000000E+01    0.1739249267E-04    0.1656141009E-05    0.3663605005E+00    0.3448232679E-04    0.4333946754E-02
    0.7000000000E+01    0.1945779685E-04    0.1850174592E-05    0.4236557707E+00    0.3799763500E-04    0.4361386457E-02
    0.9000000000E+01    0.2078393218E-04    0.1974334493E-05    0.4639677991E+00    0.4036931383E-04    0.4381029726E-02
    0.1100000000E+02    0.2171243905E-04    0.2061210741E-05    0.4938733084E+00    0.4224741167E-04    0.4395856261E-02
    0.1300000000E+02    0.2241356405E-04    0.2126967494E-05    0.5169414157E+00    0.4391826306E-04    0.4407487147E-02
    0.1500000000E+02    0.2297924788E-04    0.2180286932E-05    0.5352765212E+00    0.4551574692E-04    0.4416883071E-02
    0.1700000000E+02    0.2346217695E-04    0.2226114865E-05    0.5501997769E+00    0.4710430329E-04    0.4424650867E-02
    0.1900000000E+02    0.2389393609E-04    0.2267396729E-05    0.5625824724E+00    0.4871484136E-04    0.4431193395E-02
    0.2100000000E+02    0.2429412952E-04    0.2305947155E-05    0.5730224938E+00    0.5036142470E-04    0.4436789010E-02
    0.2300000000E+02    0.2467525513E-04    0.2342913158E-05    0.5819437635E+00    0.5204945746E-04    0.4441636466E-02
    0.2500000000E+02    0.2504544286E-04    0.2379033477E-05    0.5896552231E+00    0.5377986905E-04    0.4445881639E-02
    0.2700000000E+02    0.2541005817E-04    0.2414789873E-05    0.5963873409E+00    0.5555131821E-04    0.4449634132E-02
    0.2900000000E+02    0.2577267401E-04    0.2450498493E-05    0.6023155405E+00    0.5736137693E-04    0.4452977966E-02
    0.3100000000E+02    0.2613567755E-04    0.2486366672E-05    0.6075757089E+00    0.5920717194E-04    0.4455978692E-02
    0.3300000000E+02    0.2650065861E-04    0.2522529134E-05    0.6122747404E+00    0.6108573074E-04    0.4458688245E-02
    0.3500000000E+02    0.2686866368E-04    0.2559071556E-05    0.6164978779E+00    0.6299416392E-04    0.4461148334E-02
    0.3700000000E+02    0.2724036525E-04    0.2596046190E-05    0.6203139303E+00    0.6492975585E-04    0.4463392867E-02
    0.3900000000E+02    0.2761617637E-04    0.2633482388E-05    0.6237790511E+00    0.6689000386E-04    0.4465449711E-02
    0.4100000000E+02    0.2799632941E-04    0.2671393770E-05    0.6269395198E+00    0.6887262898E-04    0.4467341993E-02
    0.4300000000E+02    0.2838093070E-04    0.2709783184E-05    0.6298338209E+00    0.7087557107E-04    0.4469089081E-02
    0.4500000000E+02    0.2876999886E-04    0.2748646147E-05    0.6324942190E+00    0.7289697613E-04    0.4470707325E-02
    0.4700000000E+02    0.2916349197E-04    0.2787973264E-05    0.6349479660E+00    0.7493517992E-04    0.4472210630E-02
    0.4900000000E+02    0.2956132685E-04    0.2827751930E-05    0.6372182390E+00    0.7698869049E-04    0.4473610905E-02
    0.1000000000E+02    0.2128471954E-04    0.2021180815E-05    0.4799521265E+00    0.4134707181E-04    0.4388922957E-02
    0.3000000000E+02    0.2595401275E-04    0.2468402839E-05    0.6050218667E+00    0.5827999357E-04    0.4454517698E-02
    0.5000000000E+02    0.2976183866E-04    0.2847806082E-05    0.6382908852E+00    0.7802076245E-04    0.4474275668E-02
    0.7000000000E+02    0.3396762106E-04    0.3268757420E-05    0.6536961739E+00    0.9920779564E-04    0.4484039694E-02
    0.9000000000E+02    0.3845825649E-04    0.3718123261E-05    0.6625800780E+00    0.1210286382E-03    0.4489784154E-02
    0.1100000000E+03    0.4314104786E-04    0.4186334465E-05    0.6683600013E+00    0.1431857633E-03    0.4493440122E-02
    0.1300000000E+03    0.4796129945E-04    0.4667902875E-05    0.6724206625E+00    0.1655583788E-03    0.4495841329E-02
    0.1500000000E+03    0.5288654234E-04    0.5159621434E-05    0.6754297643E+00    0.1880945020E-03    0.4497414020E-02
    0.1700000000E+03    0.5789682292E-04    0.5659542083E-05    0.6777488943E+00    0.2107720584E-03    0.4498401939E-02
    0.1900000000E+03    0.6297947718E-04    0.6166440943E-05    0.6795909120E+00    0.2335830369E-03    0.4498956074E-02
    0.2100000000E+03    0.6812626885E-04    0.6679529932E-05    0.6810892869E+00    0.2565263969E-03    0.4499175734E-02
    0.2300000000E+03    0.7333175817E-04    0.7198294127E-05    0.6823319536E+00    0.2796046605E-03    0.4499129356E-02
    0.2500000000E+03    0.7859233331E-04    0.7722395985E-05    0.6833792042E+00    0.3028221851E-03    0.4498865890E-02
    0.2700000000E+03    0.8390561354E-04    0.8251616698E-05    0.6842737582E+00    0.3261842541E-03    0.4498421430E-02
    0.2900000000E+03    0.8927006902E-04    0.8785819074E-05    0.6850467304E+00    0.3496965866E-03    0.4497823270E-02
    0.3100000000E+03    0.9468477178E-04    0.9324923332E-05    0.6857213198E+00    0.3733650690E-03    0.4497092488E-02
    0.3300000000E+03    0.1001492283E-03    0.9868890921E-05    0.6863151771E+00    0.3971956102E-03    0.4496245662E-02
    0.3500000000E+03    0.1056632646E-03    0.1041771346E-04    0.6868419692E+00    0.4211940642E-03    0.4495296030E-02
    0.3700000000E+03    0.1112269457E-03    0.1097140502E-04    0.6873124434E+00    0.4453661934E-03    0.4494254308E-02
    0.3900000000E+03    0.1168405184E-03    0.1152999667E-04    0.6877351673E+00    0.4697176531E-03    0.4493129268E-02
    0.4100000000E+03    0.1225043701E-03    0.1209353257E-04    0.6881170547E+00    0.4942539893E-03    0.4491928166E-02
    0.4300000000E+03    0.1282189983E-03    0.1266206706E-04    0.6884637463E+00    0.5189806444E-03    0.4490657056E-02
    0.4500000000E+03    0.1339849880E-03    0.1323566261E-04    0.6887798899E+00    0.5439029656E-03    0.4489321028E-02
    0.4700000000E+03    0.1398029957E-03    0.1381438819E-04    0.6890693495E+00    0.5690262164E-03    0.4487924389E-02
    0.4900000000E+03    0.1456737361E-03    0.1439831819E-04    0.6893353639E+00    0.5943555879E-03    0.4486470808E-02
    0.1000000000E+03    0.4077972938E-04    0.3950286535E-05    0.6657466464E+00    0.1320750618E-03    0.4491807210E-02
    0.3000000000E+03    0.9197117897E-04    0.9054761694E-05    0.6853951111E+00    0.3615109391E-03    0.4497473331E-02
    0.5000000000E+03    0.1486291180E-03    0.1469225932E-04    0.6894604508E+00    0.6070991742E-03    0.4485723663E-02
    0.7000000000E+03    0.2107129690E-03    0.2086552526E-04    0.6912154806E+00    0.8740300771E-03    0.4468352709E-02
    0.9000000000E+03    0.2791496316E-03    0.2766850292E-04    0.6921931610E+00    0.1167388689E-02    0.4447077235E-02
    0.1100000000E+04    0.3551047299E-03    0.3521775841E-04    0.6928159719E+00    0.1492569913E-02    0.4422222139E-02
    0.1300000000E+04    0.4399841395E-03    0.4365337424E-04    0.6932472447E+00    0.1855790404E-02    0.4393649833E-02
    0.1500000000E+04    0.5355014156E-03    0.5314586629E-04    0.6935634336E+00    0.2264509587E-02    0.4360969257E-02
    0.1700000000E+04    0.6437738690E-03    0.6390581518E-04    0.6938050942E+00    0.2727889437E-02    0.4323585360E-02
    0.1900000000E+04    0.7674512535E-03    0.7619669600E-04    0.6939957374E+00    0.3257369204E-02    0.4280692446E-02
    0.2100000000E+04    0.9098894134E-03    0.9035216196E-04    0.6941499312E+00    0.3867425251E-02    0.4231236525E-02
    0.2300000000E+04    0.1075387143E-02    0.1067996069E-03    0.6942771825E+00    0.4576601133E-02    0.4173851431E-02
    0.2500000000E+04    0.1269511534E-02    0.1260925263E-03    0.6943839589E+00    0.5408920560E-02    0.4106765782E-02
    0.2700000000E+04    0.1499545436E-02    0.1489550229E-03    0.6944748132E+00    0.6395831674E-02    0.4027674108E-02
    0.2900000000E+04    0.1775097947E-02    0.1763425361E-03    0.6945530426E+00    0.7578864139E-02    0.3933563986E-02
    0.3100000000E+04    0.2108916972E-02    0.2095226828E-03    0.6946210938E+00    0.9013175562E-02    0.3820494554E-02
    0.3300000000E+04    0.2517907888E-02    0.2501766354E-03    0.6946808204E+00    0.1077201909E-01    0.3683338433E-02
    0.3500000000E+04    0.3024232847E-02    0.3005085963E-03    0.6947336521E+00    0.1295161560E-01    0.3515549587E-02
    0.3700000000E+04    0.3655998853E-02    0.3633145227E-03    0.6947807096E+00    0.1567434721E-01    0.3309148528E-02
    0.3900000000E+04    0.4446170448E-02    0.4418745446E-03    0.6948228835E+00    0.1908443443E-01    0.3055399563E-02
    0.4100000000E+04    0.5426699064E-02    0.5393700427E-03    0.6948608905E+00    0.2332313077E-01    0.2747137600E-02
    0.4300000000E+04    0.6613179914E-02    0.6573589479E-03    0.6948953139E+00    0.2846302728E-01    0.2384050363E-02
    0.4500000000E+04    0.7978200477E-02    0.7931258297E-03    0.6949266331E+00    0.3439290675E-01    0.1980879117E-02
    0.4700000000E+04    0.9427715862E-02    0.9373305170E-03    0.6949552458E+00    0.4071395493E-01    0.1573030780E-02
    0.4900000000E+04    0.1081653117E-01    0.1075542376E-02    0.6949814849E+00    0.4680302934E-01    0.1208320097E-02
    0.1000000000E+04    0.3161057812E-03    0.3134170924E-04    0.6925356670E+00    0.1325637159E-02    0.4435098595E-02
    0.3000000000E+04    0.1933778109E-02    0.1921144547E-03    0.6945882131E+00    0.8260513493E-02    0.3879688720E-02
    0.5000000000E+04    0.1144527962E-01    0.1138135333E-02    0.6949938037E+00    0.4957488360E-01    0.1054697528E-02
    0.7000000000E+04    0.1672711762E-01    0.1665702397E-02    0.6951650602E+00    0.7412060919E-01    0.4449028037E-03
    0.9000000000E+04    0.1943676863E-01    0.1938156297E-02    0.6952587116E+00    0.8804056283E-01    0.4491834389E-03
    0.1100000000E+05    0.2162246461E-01    0.2158879434E-02    0.6953173358E+00    0.9999784635E-01    0.4542327478E-03
    0.1300000000E+05    0.2340957097E-01    0.2340175351E-02    0.6953572374E+00    0.1104204811E+00    0.4584819018E-03
    0.1500000000E+05    0.2488371106E-01    0.2490449929E-02    0.6953859903E+00    0.1196008913E+00    0.4621513934E-03
    0.1700000000E+05    0.2610847268E-01    0.2615953766E-02    0.6954075850E+00    0.1277605218E+00    0.4653836795E-03
    0.1900000000E+05    0.2713198203E-01    0.2721423845E-02    0.6954243206E+00    0.1350703235E+00    0.4682741102E-03
    0.2100000000E+05    0.2799126029E-01    0.2810509017E-02    0.6954376133E+00    0.1416644538E+00    0.4708896948E-03
    0.2300000000E+05    0.2871519727E-01    0.2886060618E-02    0.6954483819E+00    0.1476497333E+00    0.4732793594E-03
    0.2500000000E+05    0.2932662620E-01    0.2950335386E-02    0.6954572482E+00    0.1531123208E+00    0.4754799395E-03
    0.2700000000E+05    0.2984380001E-01    0.3005139950E-02    0.6954646473E+00    0.1581225164E+00    0.4775198745E-03
    0.2900000000E+05    0.3028146013E-01    0.3051935513E-02    0.6954708927E+00    0.1627382801E+00    0.4794215886E-03
    0.3100000000E+05    0.3065162257E-01    0.3091914903E-02    0.6954762158E+00    0.1670078496E+00    0.4812030815E-03
    0.3300000000E+05    0.3096416427E-01    0.3126060091E-02    0.6954807909E+00    0.1709717159E+00    0.4828790249E-03
    0.3500000000E+05    0.3122726618E-01    0.3155185691E-02    0.6954847517E+00    0.1746641339E+00    0.4844615383E-03
    0.3700000000E+05    0.3144775200E-01    0.3179972239E-02    0.6954882024E+00    0.1781142913E+00    0.4859607509E-03
    0.3900000000E+05    0.3163134998E-01    0.3200991942E-02    0.6954912256E+00    0.1813472223E+00    0.4873852163E-03
    0.4100000000E+05    0.3178289724E-01    0.3218728779E-02    0.6954938871E+00    0.1843845298E+00    0.4887422244E-03
    0.4300000000E+05    0.3190650072E-01    0.3233594359E-02    0.6954962403E+00    0.1872449610E+00    0.4900380397E-03
    0.4500000000E+05    0.3200566504E-01    0.3245940522E-02    0.6954983289E+00    0.1899448700E+00    0.4912780858E-03
    0.4700000000E+05    0.3208339483E-01    0.3256069438E-02    0.6955001888E+00    0.1924985929E+00    0.4924670899E-03
    0.4900000000E+05    0.3214227730E-01    0.3264241759E-02    0.6955018500E+00    0.1949187541E+00    0.4936091977E-03
    0.1000000000E+05    0.2058590247E-01    0.2054080222E-02    0.6952910757E+00    0.9423286538E-01    0.4518252470E-03
    0.3000000000E+05    0.3047431690E-01    0.3072711482E-02    0.6954736575E+00    0.1649136466E+00    0.4803263780E-03
    0.5000000000E+05    0.3216536190E-01    0.3267665953E-02    0.6955026141E+00    0.1960822891E+00    0.4941638250E-03
    0.7000000000E+05    0.3204606631E-01    0.3274806548E-02    0.6955118495E+00    0.2144728322E+00    0.5034920491E-03
    0.9000000000E+05    0.3139194233E-01    0.3223623944E-02    0.6955152028E+00    0.2269373269E+00    0.5105729390E-03
    0.1100000000E+06    0.3057820150E-01    0.3153132287E-02    0.6955161942E+00    0.2360993312E+00    0.5162978247E-03
    0.1300000000E+06    0.2973704461E-01    0.3077529182E-02    0.6955160821E+00    0.2432017286E+00    0.5211123114E-03
    0.1500000000E+06    0.2891873796E-01    0.3002483959E-02    0.6955154095E+00    0.2489179851E+00    0.5252719762E-03
    0.1700000000E+06    0.2814203418E-01    0.2930306380E-02    0.6955144402E+00    0.2536486005E+00    0.5289373236E-03
    0.1900000000E+06    0.2741259394E-01    0.2861865195E-02    0.6955133134E+00    0.2576486014E+00    0.5322158951E-03
    0.2100000000E+06    0.2673045343E-01    0.2797380763E-02    0.6955121067E+00    0.2610891218E+00    0.5351833401E-03
    0.2300000000E+06    0.2609327164E-01    0.2736778007E-02    0.6955108653E+00    0.2640898642E+00    0.5378949354E-03
    0.2500000000E+06    0.2549780610E-01    0.2679851854E-02    0.6955096160E+00    0.2667374220E+00    0.5403923227E-03
    0.2700000000E+06    0.2494059647E-01    0.2626347260E-02    0.6955083750E+00    0.2690962057E+00    0.5427076683E-03
    0.2900000000E+06    0.2441827757E-01    0.2575998315E-02    0.6955071522E+00    0.2712152613E+00    0.5448663456E-03
    0.3100000000E+06    0.2392771403E-01    0.2528547069E-02    0.6955059533E+00    0.2731326881E+00    0.5468887287E-03
    0.3300000000E+06    0.2346604773E-01    0.2483752034E-02    0.6955047818E+00    0.2748785972E+00    0.5487914298E-03
    0.3500000000E+06    0.2303070315E-01    0.2441391403E-02    0.6955036392E+00    0.2764771460E+00    0.5505881749E-03
    0.3700000000E+06    0.2261937305E-01    0.2401263578E-02    0.6955025263E+00    0.2779479732E+00    0.5522904385E-03
    0.3900000000E+06    0.2222999589E-01    0.2363186355E-02    0.6955014429E+00    0.2793072323E+00    0.5539079121E-03
    0.4100000000E+06    0.2186073092E-01    0.2326995517E-02    0.6955003888E+00    0.2805683496E+00    0.5554488571E-03
    0.4300000000E+06    0.2150993355E-01    0.2292543199E-02    0.6954993632E+00    0.2817425896E+00    0.5569203737E-03
    0.4500000000E+06    0.2117613256E-01    0.2259696238E-02    0.6954983652E+00    0.2828394839E+00    0.5583286101E-03
    0.4700000000E+06    0.2085800946E-01    0.2228334604E-02    0.6954973938E+00    0.2838671596E+00    0.5596789257E-03
    0.4900000000E+06    0.2055438015E-01    0.2198349952E-02    0.6954964480E+00    0.2848325950E+00    0.5609760211E-03
    0.1000000000E+06    0.3099384390E-01    0.3189602867E-02    0.6955158895E+00    0.2318346117E+00    0.5135708349E-03
    0.3000000000E+06    0.2416921171E-01    0.2551926014E-02    0.6955065495E+00    0.2721971365E+00    0.5458934592E-03
    0.5000000000E+06    0.2040766339E-01    0.2183843009E-02    0.6954959844E+00    0.2852938897E+00    0.5616059261E-03
    0.7000000000E+06    0.1802489525E-01    0.1946613166E-02    0.6954878206E+00    0.2923622147E+00    0.5722013267E-03
    0.9000000000E+06    0.1634179554E-01    0.1777195124E-02    0.6954812527E+00    0.2969449301E+00    0.5802451773E-03
    0.1100000000E+07    0.1506965807E-01    0.1648106664E-02    0.6954757678E+00    0.3002215003E+00    0.5867490963E-03
    0.1300000000E+07    0.1406326290E-01    0.1545329586E-02    0.6954710590E+00    0.3027124478E+00    0.5922189855E-03
    0.1500000000E+07    0.1324057390E-01    0.1460867770E-02    0.6954669320E+00    0.3046878120E+00    0.5969450605E-03
    0.1700000000E+07    0.1255125313E-01    0.1389778191E-02    0.6954632570E+00    0.3063034432E+00    0.6011096030E-03
    0.1900000000E+07    0.1196244818E-01    0.1328815395E-02    0.6954599432E+00    0.3076563973E+00    0.6048347566E-03
    0.2100000000E+07    0.1145167026E-01    0.1275746470E-02    0.6954569249E+00    0.3088106755E+00    0.6082064486E-03
    0.2300000000E+07    0.1100292787E-01    0.1228976689E-02    0.6954541526E+00    0.3098104104E+00    0.6112874688E-03
    0.2500000000E+07    0.1060449118E-01    0.1187331814E-02    0.6954515884E+00    0.3106871473E+00    0.6141251211E-03
    0.2700000000E+07    0.1024753119E-01    0.1149924979E-02    0.6954492027E+00    0.3114641094E+00    0.6167559468E-03
    0.2900000000E+07    0.9925255826E-02    0.1116071814E-02    0.6954469717E+00    0.3121588215E+00    0.6192087709E-03
    0.3100000000E+07    0.9632341409E-02    0.1085234396E-02    0.6954448761E+00    0.3127847882E+00    0.6215067399E-03
    0.3300000000E+07    0.9364547167E-02    0.1056983116E-02    0.6954429000E+00    0.3133526062E+00    0.6236687267E-03
    0.3500000000E+07    0.9118446800E-02    0.1030970045E-02    0.6954410302E+00    0.3138707218E+00    0.6257103256E-03
    0.3700000000E+07    0.8891237278E-02    0.1006909914E-02    0.6954392556E+00    0.3143459612E+00    0.6276445731E-03
    0.3900000000E+07    0.8680599887E-02    0.9845662542E-03    0.6954375667E+00    0.3147839081E+00    0.6294824802E-03
    0.4100000000E+07    0.8484597407E-02    0.9637411189E-03    0.6954359555E+00    0.3151891807E+00    0.6312334330E-03
    0.4300000000E+07    0.8301596828E-02    0.9442673400E-03    0.6954344149E+00    0.3155656356E+00    0.6329054987E-03
    0.4500000000E+07    0.8130210403E-02    0.9260026109E-03    0.6954329389E+00    0.3159165218E+00    0.6345056626E-03
    0.4700000000E+07    0.7969250114E-02    0.9088249067E-03    0.6954315221E+00    0.3162445987E+00    0.6360400140E-03
    0.4900000000E+07    0.7817692078E-02    0.8926288976E-03    0.6954301598E+00    0.3165522266E+00    0.6375138938E-03
    0.1000000000E+07    0.1566548443E-01    0.1708680492E-02    0.6954783975E+00    0.2987054783E+00    0.5836509763E-03
    0.3000000000E+07    0.9775415328E-02    0.1100305169E-02    0.6954459080E+00    0.3124796778E+00    0.6203758458E-03
    0.5000000000E+07    0.7745156779E-02    0.8848699673E-03    0.6954294978E+00    0.3166990186E+00    0.6382296508E-03
    0.7000000000E+07    0.6623722552E-02    0.7642551477E-03    0.6954183245E+00    0.3189332323E+00    0.6502691864E-03
    0.9000000000E+07    0.5885980294E-02    0.6841741331E-03    0.6954098035E+00    0.3203680286E+00    0.6594094411E-03
    0.1100000000E+08    0.5352845425E-02    0.6258955125E-03    0.6954028956E+00    0.3213882624E+00    0.6667998781E-03
    0.1300000000E+08    0.4944110275E-02    0.5809610429E-03    0.6953970759E+00    0.3221612355E+00    0.6730153442E-03
    0.1500000000E+08    0.4617715977E-02    0.5449071932E-03    0.6953920414E+00    0.3227728681E+00    0.6783856094E-03
    0.1700000000E+08    0.4349182135E-02    0.5151223968E-03    0.6953876011E+00    0.3232723907E+00    0.6831178003E-03
    0.1900000000E+08    0.4123155743E-02    0.4899615357E-03    0.6953836264E+00    0.3236902969E+00    0.6873507091E-03
    0.2100000000E+08    0.3929451301E-02    0.4683289967E-03    0.6953800268E+00    0.3240466119E+00    0.6911819755E-03
    0.2300000000E+08    0.3761007966E-02    0.4494626810E-03    0.6953767361E+00    0.3243550998E+00    0.6946829483E-03
    0.2500000000E+08    0.3612754909E-02    0.4328136020E-03    0.6953737041E+00    0.3246255736E+00    0.6979073794E-03
    0.2700000000E+08    0.3480943086E-02    0.4179747466E-03    0.6953708922E+00    0.3248652423E+00    0.7008967908E-03
