  Pressure (Pa) 22mC5-500 (mol/kg) 23mC5-500 (mol/kg) 24mC5-500 (mol/kg) 2mC6-500 (mol/kg) C7-500 (mol/kg)
    0.1000000000E+01    0.7917920583E-05    0.1516965295E-05    0.3665655728E-01    0.1725523283E-04    0.4249095480E-02
    0.3000000000E+01    0.2093104435E-04    0.4005537108E-05    0.9946075397E-01    0.4461863443E-04    0.4396362453E-02
    0.5000000000E+01    0.3121143314E-04    0.5967397950E-05    0.1513090816E+00    0.6542586184E-04    0.4517355717E-02
    0.7000000000E+01    0.3948773573E-04    0.7543582985E-05    0.1948388034E+00    0.8158048098E-04    0.4619357232E-02
    0.9000000000E+01    0.4625251639E-04    0.8829305297E-05    0.2319035642E+00    0.9433300312E-04    0.4706655844E-02
    0.1100000000E+02    0.5185362722E-04    0.9891736867E-05    0.2638443185E+00    0.1045476838E-03    0.4782290969E-02
    0.1300000000E+02    0.5654358935E-04    0.1077959361E-04    0.2916551234E+00    0.1128390379E-03    0.4848505660E-02
    0.1500000000E+02    0.6050979350E-04    0.1152899156E-04    0.3160885031E+00    0.1196536024E-03    0.4906996916E-02
    0.1700000000E+02    0.6389390332E-04    0.1216720687E-04    0.3377246090E+00    0.1253217409E-03    0.4959073971E-02
    0.1900000000E+02    0.6680474618E-04    0.1271517229E-04    0.3570179031E+00    0.1300916518E-03    0.5005763744E-02
    0.2100000000E+02    0.6932710910E-04    0.1318917972E-04    0.3743294482E+00    0.1341523076E-03    0.5047883388E-02
    0.2300000000E+02    0.7152787779E-04    0.1360206785E-04    0.3899497311E+00    0.1376492819E-03    0.5086091466E-02
    0.2500000000E+02    0.7346040645E-04    0.1396406702E-04    0.4041151034E+00    0.1406958825E-03    0.5120924780E-02
    0.2700000000E+02    0.7516768264E-04    0.1428341081E-04    0.4170198322E+00    0.1433811171E-03    0.5152825373E-02
    0.2900000000E+02    0.7668465557E-04    0.1456678571E-04    0.4288250684E+00    0.1457754802E-03    0.5182160629E-02
    0.3100000000E+02    0.7803997288E-04    0.1481966634E-04    0.4396656147E+00    0.1479352137E-03    0.5209238456E-02
    0.3300000000E+02    0.7925729280E-04    0.1504656857E-04    0.4496551000E+00    0.1499054837E-03    0.5234318900E-02
    0.3500000000E+02    0.8035628701E-04    0.1525124283E-04    0.4588899796E+00    0.1517227743E-03    0.5257623133E-02
    0.3700000000E+02    0.8135341528E-04    0.1543682340E-04    0.4674526619E+00    0.1534167118E-03    0.5279340486E-02
    0.3900000000E+02    0.8226252957E-04    0.1560594471E-04    0.4754139757E+00    0.1550114651E-03    0.5299634005E-02
    0.4100000000E+02    0.8309534950E-04    0.1576083281E-04    0.4828351353E+00    0.1565268334E-03    0.5318644877E-02
    0.4300000000E+02    0.8386183961E-04    0.1590337794E-04    0.4897693186E+00    0.1579790941E-03    0.5336495998E-02
    0.4500000000E+02    0.8457051098E-04    0.1603519246E-04    0.4962629437E+00    0.1593816722E-03    0.5353294847E-02
    0.4700000000E+02    0.8522866425E-04    0.1615765757E-04    0.5023567104E+00    0.1607456693E-03    0.5369135852E-02
    0.4900000000E+02    0.8584258654E-04    0.1627196107E-04    0.5080864544E+00    0.1620802862E-03    0.5384102314E-02
    0.1000000000E+02    0.4918093448E-04    0.9385036741E-05    0.2484456391E+00    0.9971445833E-04    0.4745776009E-02
    0.3000000000E+02    0.7738093864E-04    0.1469673561E-04    0.4343583814E+00    0.1468816245E-03    0.5195964463E-02
    0.5000000000E+02    0.8613468884E-04    0.1632637821E-04    0.5108248627E+00    0.1627390174E-03    0.5391280983E-02
    0.7000000000E+02    0.9064525858E-04    0.1717259532E-04    0.5525180160E+00    0.1756532542E-03    0.5503054125E-02
    0.9000000000E+02    0.9399427966E-04    0.1781407718E-04    0.5787646881E+00    0.1894252533E-03    0.5576592901E-02
    0.1100000000E+03    0.9706621669E-04    0.1841367979E-04    0.5968074429E+00    0.2045227412E-03    0.5629228243E-02
    0.1300000000E+03    0.1001583543E-03    0.1902456913E-04    0.6099728053E+00    0.2208281682E-03    0.5669079660E-02
    0.1500000000E+03    0.1033753745E-03    0.1966451495E-04    0.6200029159E+00    0.2381444374E-03    0.5700482409E-02
    0.1700000000E+03    0.1067509091E-03    0.2033851712E-04    0.6278984718E+00    0.2562966348E-03    0.5725974237E-02
    0.1900000000E+03    0.1102907948E-03    0.2104674606E-04    0.6342752477E+00    0.2751467661E-03    0.5747145959E-02
    0.2100000000E+03    0.1139899895E-03    0.2178759285E-04    0.6395329421E+00    0.2945894905E-03    0.5765049139E-02
    0.2300000000E+03    0.1178395878E-03    0.2255890314E-04    0.6439423124E+00    0.3145449800E-03    0.5780408953E-02
    0.2500000000E+03    0.1218298060E-03    0.2335848306E-04    0.6476932905E+00    0.3349526313E-03    0.5793743106E-02
    0.2700000000E+03    0.1259512373E-03    0.2418429829E-04    0.6509230482E+00    0.3557662096E-03    0.5805431994E-02
    0.2900000000E+03    0.1301953362E-03    0.2503454035E-04    0.6537331277E+00    0.3769502518E-03    0.5815762013E-02
    0.3100000000E+03    0.1345545563E-03    0.2590763551E-04    0.6562003049E+00    0.3984774321E-03    0.5824953331E-02
    0.3300000000E+03    0.1390223360E-03    0.2680223003E-04    0.6583837056E+00    0.4203266320E-03    0.5833178292E-02
    0.3500000000E+03    0.1435930203E-03    0.2771716705E-04    0.6603296022E+00    0.4424815172E-03    0.5840573945E-02
    0.3700000000E+03    0.1482617632E-03    0.2865146191E-04    0.6620747262E+00    0.4649294806E-03    0.5847250801E-02
    0.3900000000E+03    0.1530244274E-03    0.2960427895E-04    0.6636486069E+00    0.4876608484E-03    0.5853299075E-02
    0.4100000000E+03    0.1578774925E-03    0.3057491067E-04    0.6650752539E+00    0.5106682790E-03    0.5858793232E-02
    0.4300000000E+03    0.1628179722E-03    0.3156275979E-04    0.6663743893E+00    0.5339463033E-03    0.5863795343E-02
    0.4500000000E+03    0.1678433431E-03    0.3256732377E-04    0.6675623637E+00    0.5574909703E-03    0.5868357615E-02
    0.4700000000E+03    0.1729514828E-03    0.3358818180E-04    0.6686528473E+00    0.5812995704E-03    0.5872524311E-02
    0.4900000000E+03    0.1781406173E-03    0.3462498368E-04    0.6696573574E+00    0.6053704195E-03    0.5876333237E-02
    0.1000000000E+03    0.9553936480E-04    0.1811450744E-04    0.5885507727E+00    0.1968113309E-03    0.5604890427E-02
    0.3000000000E+03    0.1323609886E-03    0.2546832081E-04    0.6550055351E+00    0.3876723963E-03    0.5820488286E-02
    0.5000000000E+03    0.1807650874E-03    0.3514927113E-04    0.6701304852E+00    0.6175038984E-03    0.5878113875E-02
    0.7000000000E+03    0.2372779397E-03    0.4642762440E-04    0.6768218026E+00    0.8740787683E-03    0.5900874802E-02
    0.9000000000E+03    0.3014150360E-03    0.5921080794E-04    0.6805927927E+00    0.1158982929E-02    0.5907633342E-02
    0.1100000000E+04    0.3737525934E-03    0.7361669252E-04    0.6830113565E+00    0.1476437468E-02    0.5904308351E-02
    0.1300000000E+04    0.4554006577E-03    0.8986808682E-04    0.6846935567E+00    0.1832133740E-02    0.5893235048E-02
    0.1500000000E+04    0.5479033168E-03    0.1082733435E-03    0.6859307002E+00    0.2233246930E-02    0.5875320096E-02
    0.1700000000E+04    0.6532712021E-03    0.1292331278E-03    0.6868783940E+00    0.2688764564E-02    0.5850729003E-02
    0.1900000000E+04    0.7740829509E-03    0.1532607713E-03    0.6876273100E+00    0.3210013683E-02    0.5819136534E-02
    0.2100000000E+04    0.9136470572E-03    0.1810145610E-03    0.6882338508E+00    0.3811406838E-02    0.5779807681E-02
    0.2300000000E+04    0.1076235166E-02    0.2133442006E-03    0.6887349393E+00    0.4511478062E-02    0.5731593453E-02
    0.2500000000E+04    0.1267409999E-02    0.2513560749E-03    0.6891557573E+00    0.5334320201E-02    0.5672868942E-02
    0.2700000000E+04    0.1494481995E-02    0.2965041110E-03    0.6895140678E+00    0.6311578046E-02    0.5601419596E-02
    0.2900000000E+04    0.1767138086E-02    0.3507148895E-03    0.6898227583E+00    0.7485191625E-02    0.5514272811E-02
    0.3100000000E+04    0.2098286044E-02    0.4165556675E-03    0.6900914057E+00    0.8911086775E-02    0.5407471975E-02
    0.3300000000E+04    0.2505124175E-02    0.4974473039E-03    0.6903272746E+00    0.1066387088E-01    0.5275805298E-02
    0.3500000000E+04    0.3010313741E-02    0.5978977735E-03    0.6905359752E+00    0.1284203066E-01    0.5112553448E-02
    0.3700000000E+04    0.3642746127E-02    0.7236553828E-03    0.6907219087E+00    0.1557148060E-01    0.4909456729E-02
    0.3900000000E+04    0.4436460056E-02    0.8814945495E-03    0.6908885759E+00    0.1900127570E-01    0.4657410056E-02
    0.4100000000E+04    0.5424465646E-02    0.1077989281E-02    0.6910387963E+00    0.2327749820E-01    0.4348929202E-02
    0.4300000000E+04    0.6622362373E-02    0.1316257102E-02    0.6911748659E+00    0.2847304777E-01    0.3983829860E-02
    0.4500000000E+04    0.7999837537E-02    0.1590290966E-02    0.6912986734E+00    0.3446436981E-01    0.3578057861E-02
    0.4700000000E+04    0.9456259068E-02    0.1880100099E-02    0.6914117862E+00    0.4082400481E-01    0.3169450958E-02
    0.4900000000E+04    0.1083993585E-01    0.2155529257E-02    0.6915155165E+00    0.4689997848E-01    0.2808036770E-02
    0.1000000000E+04    0.3364997826E-03    0.6619903304E-04    0.6819212734E+00    0.1313318131E-02    0.5907038418E-02
    0.3000000000E+04    0.1924440110E-02    0.3819904913E-03    0.6899615881E+00    0.8162439968E-02    0.5463622141E-02
    0.5000000000E+04    0.1146123642E-01    0.2279247139E-02    0.6915642159E+00    0.4964400556E-01    0.2657663688E-02
    0.7000000000E+04    0.1661104577E-01    0.3308261680E-02    0.6922410138E+00    0.7366366993E-01    0.2103722519E-02
    0.9000000000E+04    0.1927237470E-01    0.3843636935E-02    0.6926105788E+00    0.8740082829E-01    0.2132244230E-02
    0.1100000000E+05    0.2141423547E-01    0.4276414176E-02    0.6928414187E+00    0.9918609245E-01    0.2156568159E-02
    0.1300000000E+05    0.2316156747E-01    0.4631119687E-02    0.6929981273E+00    0.1094464953E+00    0.2176958480E-02
    0.1500000000E+05    0.2460004940E-01    0.4924580307E-02    0.6931107199E+00    0.1184757593E+00    0.2194532974E-02
    0.1700000000E+05    0.2579307624E-01    0.5169262629E-02    0.6931950113E+00    0.1264955424E+00    0.2209991266E-02
    0.1900000000E+05    0.2678847039E-01    0.5374583478E-02    0.6932601105E+00    0.1336764382E+00    0.2223799301E-02
    0.2100000000E+05    0.2762291250E-01    0.5547775626E-02    0.6933116263E+00    0.1401519706E+00    0.2236283331E-02
    0.2300000000E+05    0.2832495296E-01    0.5694476577E-02    0.6933531964E+00    0.1460282118E+00    0.2247680871E-02
    0.2500000000E+05    0.2891710499E-01    0.5819138106E-02    0.6933872801E+00    0.1513905453E+00    0.2258170323E-02
    0.2700000000E+05    0.2941732873E-01    0.5925316834E-02    0.6934155980E+00    0.1563085162E+00    0.2267889155E-02
    0.2900000000E+05    0.2984010230E-01    0.6015884111E-02    0.6934393886E+00    0.1608393728E+00    0.2276945583E-02
    0.3100000000E+05    0.3019720737E-01    0.6093180056E-02    0.6934595653E+00    0.1650306950E+00    0.2285426349E-02
    0.3300000000E+05    0.3049831354E-01    0.6159128249E-02    0.6934768157E+00    0.1689223730E+00    0.2293402073E-02
    0.3500000000E+05    0.3075141894E-01    0.6215322269E-02    0.6934916670E+00    0.1725481170E+00    0.2300931029E-02
    0.3700000000E+05    0.3096318635E-01    0.6263091761E-02    0.6935045295E+00    0.1759366226E+00    0.2308061875E-02
    0.3900000000E+05    0.3113920242E-01    0.6303553441E-02    0.6935157276E+00    0.1791124811E+00    0.2314835669E-02
    0.4100000000E+05    0.3128417963E-01    0.6337650862E-02    0.6935255205E+00    0.1820968965E+00    0.2321287376E-02
    0.4300000000E+05    0.3140211519E-01    0.6366185715E-02    0.6935341178E+00    0.1849082574E+00    0.2327447024E-02
    0.4500000000E+05    0.3149641692E-01    0.6389842672E-02    0.6935416908E+00    0.1875625952E+00    0.2333340595E-02
    0.4700000000E+05    0.3157000397E-01    0.6409209266E-02    0.6935483804E+00    0.1900739555E+00    0.2338990723E-02
    0.4900000000E+05    0.3162538798E-01    0.6424791917E-02    0.6935543040E+00    0.1924547007E+00    0.2344417247E-02
    0.1000000000E+05    0.2039910145E-01    0.4071056291E-02    0.6927380857E+00    0.9350603874E-01    0.2144991838E-02
    0.3000000000E+05    0.3002621530E-01    0.6056062144E-02    0.6934498814E+00    0.1629748220E+00    0.2281253183E-02
    0.5000000000E+05    0.3164694373E-01    0.6431303594E-02    0.6935570098E+00    0.1935995578E+00    0.2347052205E-02
    0.7000000000E+05    0.3151819337E-01    0.6443125589E-02    0.6935880220E+00    0.2117247183E+00    0.2391347428E-02
    0.9000000000E+05    0.3087558886E-01    0.6342612239E-02    0.6935968911E+00    0.2240524903E+00    0.2424948736E-02
    0.1100000000E+06    0.3008073947E-01    0.6205059892E-02    0.6935971559E+00    0.2331445845E+00    0.2452104531E-02
    0.1300000000E+06    0.2926061970E-01    0.6057795855E-02    0.6935935774E+00    0.2402147237E+00    0.2474935778E-02
    0.1500000000E+06    0.2846335234E-01    0.5911710429E-02    0.6935881699E+00    0.2459211672E+00    0.2494657907E-02
    0.1700000000E+06    0.2770680424E-01    0.5771230942E-02    0.6935818895E+00    0.2506558690E+00    0.2512033765E-02
    0.1900000000E+06    0.2699629936E-01    0.5638016378E-02    0.6935752259E+00    0.2546687736E+00    0.2527574252E-02
    0.2100000000E+06    0.2633178593E-01    0.5512481592E-02    0.6935684422E+00    0.2581278587E+00    0.2541638638E-02
    0.2300000000E+06    0.2571094826E-01    0.5394475320E-02    0.6935616841E+00    0.2611507982E+00    0.2554489370E-02
    0.2500000000E+06    0.2513061857E-01    0.5283597706E-02    0.6935550326E+00    0.2638228469E+00    0.2566324114E-02
    0.2700000000E+06    0.2458742972E-01    0.5179353759E-02    0.6935485323E+00    0.2662075133E+00    0.2577295533E-02
    0.2900000000E+06    0.2407811326E-01    0.5081228283E-02    0.6935422063E+00    0.2683532258E+00    0.2587524030E-02
    0.3100000000E+06    0.2359962700E-01    0.4988721890E-02    0.6935360648E+00    0.2702976568E+00    0.2597106273E-02
    0.3300000000E+06    0.2314919931E-01    0.4901367238E-02    0.6935301104E+00    0.2720706194E+00    0.2606121073E-02
    0.3500000000E+06    0.2272433342E-01    0.4818735142E-02    0.6935243412E+00    0.2736960630E+00    0.2614633541E-02
    0.3700000000E+06    0.2232279294E-01    0.4740435524E-02    0.6935187523E+00    0.2751934817E+00    0.2622698102E-02
    0.3900000000E+06    0.2194257979E-01    0.4666115816E-02    0.6935133375E+00    0.2765789290E+00    0.2630360724E-02
    0.4100000000E+06    0.2158190983E-01    0.4595458220E-02    0.6935080897E+00    0.2778657636E+00    0.2637660584E-02
    0.4300000000E+06    0.2123918897E-01    0.4528176542E-02    0.6935030015E+00    0.2790652057E+00    0.2644631355E-02
    0.4500000000E+06    0.2091299100E-01    0.4464013000E-02    0.6934980653E+00    0.2801867595E+00    0.2651302190E-02
    0.4700000000E+06    0.2060203761E-01    0.4402735190E-02    0.6934932738E+00    0.2812385372E+00    0.2657698503E-02
    0.4900000000E+06    0.2030518064E-01    0.4344133295E-02    0.6934886198E+00    0.2822275113E+00    0.2663842580E-02
    0.1000000000E+06    0.3048644862E-01    0.6276176403E-02    0.6935977028E+00    0.2289087514E+00    0.2439170218E-02
    0.3000000000E+06    0.2383519610E-01    0.5034302766E-02    0.6935391122E+00    0.2693485808E+00    0.2592390645E-02
    0.5000000000E+06    0.2016171122E-01    0.4315775800E-02    0.6934863423E+00    0.2827003641E+00    0.2666826265E-02
    0.7000000000E+06    0.1782927581E-01    0.3851551548E-02    0.6934465518E+00    0.2899722738E+00    0.2717009378E-02
    0.9000000000E+06    0.1617882263E-01    0.3519420944E-02    0.6934148420E+00    0.2947156096E+00    0.2755102516E-02
    0.1100000000E+07    0.1492965376E-01    0.3265997239E-02    0.6933884943E+00    0.2981221874E+00    0.2785900128E-02
    0.1300000000E+07    0.1394034309E-01    0.3064000004E-02    0.6933659448E+00    0.3007210320E+00    0.2811799473E-02
    0.1500000000E+07    0.1313088544E-01    0.2897845009E-02    0.6933462232E+00    0.3027878322E+00    0.2834175603E-02
    0.1700000000E+07    0.1245213038E-01    0.2757886321E-02    0.6933286885E+00    0.3044822832E+00    0.2853892100E-02
    0.1900000000E+07    0.1187196756E-01    0.2637783865E-02    0.6933128957E+00    0.3059041415E+00    0.2871527595E-02
    0.2100000000E+07    0.1136839640E-01    0.2533171516E-02    0.6932985236E+00    0.3071193630E+00    0.2887489126E-02
    0.2300000000E+07    0.1092576024E-01    0.2440928453E-02    0.6932853326E+00    0.3081735332E+00    0.2902074116E-02
    0.2500000000E+07    0.1053256669E-01    0.2358755059E-02    0.6932731393E+00    0.3090993020E+00    0.2915506625E-02
    0.2700000000E+07    0.1018016006E-01    0.2284913359E-02    0.6932618000E+00    0.3099207499E+00    0.2927959726E-02
    0.2900000000E+07    0.9861877734E-02    0.2218061410E-02    0.6932512003E+00    0.3106560781E+00    0.2939569943E-02
    0.3100000000E+07    0.9572494797E-02    0.2157143862E-02    0.6932412475E+00    0.3113193337E+00    0.2950446900E-02
    0.3300000000E+07    0.9307847155E-02    0.2101317444E-02    0.6932318652E+00    0.3119215542E+00    0.2960679978E-02
    0.3500000000E+07    0.9064568973E-02    0.2049898906E-02    0.6932229902E+00    0.3124715482E+00    0.2970343031E-02
    0.3700000000E+07    0.8839905566E-02    0.2002327808E-02    0.6932145689E+00    0.3129764426E+00    0.2979497794E-02
    0.3900000000E+07    0.8631577344E-02    0.1958139403E-02    0.6932065563E+00    0.3134420742E+00    0.2988196413E-02
    0.4100000000E+07    0.8437679104E-02    0.1916944513E-02    0.6931989134E+00    0.3138732747E+00    0.2996483336E-02
    0.4300000000E+07    0.8256604293E-02    0.1878414358E-02    0.6931916068E+00    0.3142740831E+00    0.3004396765E-02
    0.4500000000E+07    0.8086987224E-02    0.1842268968E-02    0.6931846074E+00    0.3146479050E+00    0.3011969778E-02
    0.4700000000E+07    0.7927658423E-02    0.1808268202E-02    0.6931778898E+00    0.3149976352E+00    0.3019231209E-02
    0.4900000000E+07    0.7777609710E-02    0.1776204715E-02    0.6931714316E+00    0.3153257519E+00    0.3026206348E-02
    0.1000000000E+07    0.1551491015E-01    0.3384953606E-02    0.6934011140E+00    0.2965443748E+00    0.2771230100E-02
    0.3000000000E+07    0.9713855440E-02    0.2186917814E-02    0.6932461481E+00    0.3109959651E+00    0.2945094081E-02
    0.5000000000E+07    0.7705787524E-02    0.1760842229E-02    0.6931682935E+00    0.3154823842E+00    0.3029593632E-02
    0.7000000000E+07    0.6594609174E-02    0.1521859290E-02    0.6931153527E+00    0.3178716103E+00    0.3086566527E-02
    0.9000000000E+07    0.5862814412E-02    0.1363012515E-02    0.6930750029E+00    0.3194113896E+00    0.3129815069E-02
    0.1100000000E+08    0.5333575500E-02    0.1247323113E-02    0.6930423030E+00    0.3205090265E+00    0.3164781247E-02
    0.1300000000E+08    0.4927595841E-02    0.1158071606E-02    0.6930147607E+00    0.3213422425E+00    0.3194186367E-02
    0.1500000000E+08    0.4603256266E-02    0.1086426620E-02    0.6929909386E+00    0.3220025601E+00    0.3219591446E-02
    0.1700000000E+08    0.4336315130E-02    0.1027217253E-02    0.6929699304E+00    0.3225425326E+00    0.3241976895E-02
    0.1900000000E+08    0.4111560450E-02    0.9771842585E-03    0.6929511273E+00    0.3229947696E+00    0.3261999639E-02
    0.2100000000E+08    0.3918895478E-02    0.9341559915E-03    0.6929341002E+00    0.3233807174E+00    0.3280121807E-02
    0.2300000000E+08    0.3751318056E-02    0.8966212463E-03    0.6929185350E+00    0.3237151358E+00    0.3296681075E-02
    0.2500000000E+08    0.3603797742E-02    0.8634910190E-03    0.6929041946E+00    0.3240085593E+00    0.3311931831E-02
    0.2700000000E+08    0.3472614211E-02    0.8339576791E-03    0.6928908958E+00    0.3242687349E+00    0.3326070580E-02
