  Pressure (Pa) 22mC5-500 (mol/kg) 23mC5-500 (mol/kg) 24mC5-500 (mol/kg) 2mC6-500 (mol/kg) C7-500 (mol/kg)
    0.1000000000E+01    0.7963826151E-05    0.1526058102E-05    0.3665753757E-01    0.3139402527E-04    0.4208631681E-02
    0.3000000000E+01    0.2103621819E-04    0.4026363529E-05    0.9946822566E-01    0.8107668312E-04    0.4292453111E-02
    0.5000000000E+01    0.3136939671E-04    0.5998669599E-05    0.1513269306E+00    0.1189081176E-03    0.4359687746E-02
    0.7000000000E+01    0.3969582297E-04    0.7584768675E-05    0.1948692721E+00    0.1483437454E-03    0.4416117757E-02
    0.9000000000E+01    0.4650915121E-04    0.8880091012E-05    0.2319478963E+00    0.1716431785E-03    0.4464307795E-02
    0.1100000000E+02    0.5215772915E-04    0.9951907588E-05    0.2639031342E+00    0.1903661723E-03    0.4505992288E-02
    0.1300000000E+02    0.5689436201E-04    0.1084899115E-04    0.2917286469E+00    0.2056212456E-03    0.4542433306E-02
    0.1500000000E+02    0.6090662886E-04    0.1160749543E-04    0.3161767043E+00    0.2182137547E-03    0.4574580170E-02
    0.1700000000E+02    0.6433633064E-04    0.1225472403E-04    0.3378272944E+00    0.2287395035E-03    0.4603163177E-02
    0.1900000000E+02    0.6729240130E-04    0.1281163101E-04    0.3571347751E+00    0.2376461271E-03    0.4628754223E-02
    0.2100000000E+02    0.6985971416E-04    0.1329452550E-04    0.3744601450E+00    0.2452744739E-03    0.4651807932E-02
    0.2300000000E+02    0.7210522678E-04    0.1371626050E-04    0.3900938527E+00    0.2518871461E-03    0.4672690455E-02
    0.2500000000E+02    0.7408235439E-04    0.1408707851E-04    0.4042722302E+00    0.2576885721E-03    0.4691700105E-02
    0.2700000000E+02    0.7583413720E-04    0.1441522358E-04    0.4171895368E+00    0.2628393671E-03    0.4709082455E-02
    0.2900000000E+02    0.7739557030E-04    0.1470739133E-04    0.4290069239E+00    0.2674667644E-03    0.4725041547E-02
    0.3100000000E+02    0.7879534164E-04    0.1496906437E-04    0.4398592006E+00    0.2716722965E-03    0.4739748354E-02
    0.3300000000E+02    0.8005714519E-04    0.1520476565E-04    0.4498600058E+00    0.2755375206E-03    0.4753347249E-02
    0.3500000000E+02    0.8120068445E-04    0.1541825191E-04    0.4591058071E+00    0.2791283357E-03    0.4765961006E-02
    0.3700000000E+02    0.8224244766E-04    0.1561266308E-04    0.4676790267E+00    0.2824982690E-03    0.4777694708E-02
    0.3900000000E+02    0.8319631242E-04    0.1579063864E-04    0.4756505079E+00    0.2856910028E-03    0.4788638842E-02
    0.4100000000E+02    0.8407402148E-04    0.1595440921E-04    0.4830814801E+00    0.2887423339E-03    0.4798871754E-02
    0.4300000000E+02    0.8488556034E-04    0.1610586918E-04    0.4900251359E+00    0.2916817045E-03    0.4808461633E-02
    0.4500000000E+02    0.8563945918E-04    0.1624663470E-04    0.4965279084E+00    0.2945334073E-03    0.4817468111E-02
    0.4700000000E+02    0.8634303603E-04    0.1637809038E-04    0.5026305118E+00    0.2973175411E-03    0.4825943572E-02
    0.4900000000E+02    0.8700259397E-04    0.1650142716E-04    0.5083687955E+00    0.3000507724E-03    0.4833934227E-02
    0.1000000000E+02    0.4946141709E-04    0.9440537673E-05    0.2484971642E+00    0.1814989480E-03    0.4485875605E-02
    0.3000000000E+02    0.7811407881E-04    0.1484173703E-04    0.4345461542E+00    0.2696167545E-03    0.4732541904E-02
    0.5000000000E+02    0.8731759824E-04    0.1656037787E-04    0.5111113666E+00    0.3014027226E-03    0.4837760726E-02
    0.7000000000E+02    0.9230034080E-04    0.1750010002E-04    0.5528751377E+00    0.3280964306E-03    0.4896665443E-02
    0.9000000000E+02    0.9615409312E-04    0.1824159282E-04    0.5791745002E+00    0.3566047043E-03    0.4934381534E-02
    0.1100000000E+03    0.9976876805E-04    0.1894878262E-04    0.5972581142E+00    0.3878035335E-03    0.4960511454E-02
    0.1300000000E+03    0.1034452093E-03    0.1967553484E-04    0.6104561678E+00    0.4215040009E-03    0.4979549651E-02
    0.1500000000E+03    0.1072907969E-03    0.2044015027E-04    0.6205131016E+00    0.4573691667E-03    0.4993893159E-02
    0.1700000000E+03    0.1113414396E-03    0.2124807785E-04    0.6284311220E+00    0.4950998242E-03    0.5004943284E-02
    0.1900000000E+03    0.1156050411E-03    0.2209989638E-04    0.6348270338E+00    0.5344622386E-03    0.5013577080E-02
    0.2100000000E+03    0.1200785271E-03    0.2299438632E-04    0.6401012616E+00    0.5752810841E-03    0.5020373226E-02
    0.2300000000E+03    0.1247549234E-03    0.2392977590E-04    0.6445250902E+00    0.6174269335E-03    0.5025729917E-02
    0.2500000000E+03    0.1296263788E-03    0.2490425433E-04    0.6482888432E+00    0.6608051435E-03    0.5029930689E-02
    0.2700000000E+03    0.1346854441E-03    0.2591617568E-04    0.6515299901E+00    0.7053472468E-03    0.5033183230E-02
    0.2900000000E+03    0.1399255730E-03    0.2696412825E-04    0.6543503036E+00    0.7510045687E-03    0.5035643337E-02
    0.3100000000E+03    0.1453412721E-03    0.2804694589E-04    0.6568267401E+00    0.7977435534E-03    0.5037430257E-02
    0.3300000000E+03    0.1509280953E-03    0.2916369497E-04    0.6590185701E+00    0.8455423438E-03    0.5038636849E-02
    0.3500000000E+03    0.1566825732E-03    0.3031365271E-04    0.6609721825E+00    0.8943882662E-03    0.5039336504E-02
    0.3700000000E+03    0.1626021213E-03    0.3149628375E-04    0.6627244041E+00    0.9442759676E-03    0.5039587970E-02
    0.3900000000E+03    0.1686849463E-03    0.3271121802E-04    0.6643048426E+00    0.9952060245E-03    0.5039438793E-02
    0.4100000000E+03    0.1749299584E-03    0.3395823100E-04    0.6657375733E+00    0.1047183898E-02    0.5038927817E-02
    0.4300000000E+03    0.1813366942E-03    0.3523722667E-04    0.6670423732E+00    0.1100219142E-02    0.5038087033E-02
    0.4500000000E+03    0.1879052502E-03    0.3654822314E-04    0.6682356396E+00    0.1154324800E-02    0.5036942966E-02
    0.4700000000E+03    0.1946362261E-03    0.3789134048E-04    0.6693310824E+00    0.1209516946E-02    0.5035517730E-02
    0.4900000000E+03    0.2015306772E-03    0.3926679072E-04    0.6703402530E+00    0.1265814331E-02    0.5033829843E-02
    0.1000000000E+03    0.9796554601E-04    0.1859482046E-04    0.5889822230E+00    0.3718716570E-03    0.4948544234E-02
    0.3000000000E+03    0.1426117781E-03    0.2750124251E-04    0.6556274527E+00    0.7742404602E-03    0.5036614616E-02
    0.5000000000E+03    0.2050396502E-03    0.3996672999E-04    0.6708156083E+00    0.1294384012E-02    0.5032892366E-02
    0.7000000000E+03    0.2843696231E-03    0.5577690849E-04    0.6775412067E+00    0.1930190301E-02    0.5003009145E-02
    0.9000000000E+03    0.3839380740E-03    0.7559859709E-04    0.6813347642E+00    0.2713975928E-02    0.4954563893E-02
    0.1100000000E+04    0.5101199907E-03    0.1007022698E-03    0.6837698131E+00    0.3698109787E-02    0.4886958451E-02
    0.1300000000E+04    0.6730272654E-03    0.1331001385E-03    0.6854648583E+00    0.4962418836E-02    0.4795828850E-02
    0.1500000000E+04    0.8885082055E-03    0.1759442103E-03    0.6867124574E+00    0.6630535537E-02    0.4673099510E-02
    0.1700000000E+04    0.1181774243E-02    0.2342479005E-03    0.6876689332E+00    0.8898514157E-02    0.4505535477E-02
    0.1900000000E+04    0.1593334191E-02    0.3160668031E-03    0.6884254007E+00    0.1208147971E-01    0.4272147574E-02
    0.2100000000E+04    0.2186624588E-02    0.4340179994E-03    0.6890385546E+00    0.1667424099E-01    0.3941443269E-02
    0.2300000000E+04    0.3047916997E-02    0.6052672653E-03    0.6895455188E+00    0.2335417754E-01    0.3474774451E-02
    0.2500000000E+04    0.4238887689E-02    0.8421096330E-03    0.6899716195E+00    0.3262028557E-01    0.2857645103E-02
    0.2700000000E+04    0.5648531165E-02    0.1122529437E-02    0.6903347258E+00    0.4364664376E-01    0.2178890911E-02
    0.2900000000E+04    0.6931830462E-02    0.1377965092E-02    0.6906478060E+00    0.5378036171E-01    0.1636753630E-02
    0.3100000000E+04    0.7851381386E-02    0.1561187222E-02    0.6909204995E+00    0.6116260102E-01    0.1333154641E-02
    0.3300000000E+04    0.8469196289E-02    0.1684476604E-02    0.6911601202E+00    0.6624341796E-01    0.1202213696E-02
    0.3500000000E+04    0.8925222662E-02    0.1775632110E-02    0.6913723178E+00    0.7009177577E-01    0.1153761609E-02
    0.3700000000E+04    0.9305593226E-02    0.1851770635E-02    0.6915615257E+00    0.7337048220E-01    0.1138060692E-02
    0.3900000000E+04    0.9648851210E-02    0.1920553053E-02    0.6917312713E+00    0.7637698442E-01    0.1134449683E-02
    0.4100000000E+04    0.9970635172E-02    0.1985087411E-02    0.6918843961E+00    0.7923181147E-01    0.1135156241E-02
    0.4300000000E+04    0.1027726510E-01    0.2046629027E-02    0.6920232148E+00    0.8198322622E-01    0.1137347522E-02
    0.4500000000E+04    0.1057145730E-01    0.2105716625E-02    0.6921496318E+00    0.8465147284E-01    0.1140000315E-02
    0.4700000000E+04    0.1085454415E-01    0.2162613738E-02    0.6922652282E+00    0.8724603416E-01    0.1142747435E-02
    0.4900000000E+04    0.1112731705E-01    0.2217476358E-02    0.6923713277E+00    0.8977220763E-01    0.1145459717E-02
    0.1000000000E+04    0.4431749393E-03    0.8738519257E-04    0.6826720546E+00    0.3176798459E-02    0.4923350454E-02
    0.3000000000E+04    0.7438163385E-02    0.1478822742E-02    0.6907886985E+00    0.5782601287E-01    0.1456935325E-02
    0.5000000000E+04    0.1126001846E-01    0.2244180652E-02    0.6924211720E+00    0.9101081190E-01    0.1146787931E-02
    0.7000000000E+04    0.1347888627E-01    0.2692319680E-02    0.6931167476E+00    0.1128442310E+00    0.1169162406E-02
    0.9000000000E+04    0.1506804612E-01    0.3015820487E-02    0.6935000765E+00    0.1302860253E+00    0.1186009713E-02
    0.1100000000E+05    0.1622845133E-01    0.3254158524E-02    0.6937418104E+00    0.1445789201E+00    0.1199559589E-02
    0.1300000000E+05    0.1708682130E-01    0.3432281452E-02    0.6939075503E+00    0.1565329384E+00    0.1210915823E-02
    0.1500000000E+05    0.1772652759E-01    0.3566640764E-02    0.6940278660E+00    0.1666994126E+00    0.1220703959E-02
    0.1700000000E+05    0.1820434847E-01    0.3668467247E-02    0.6941189101E+00    0.1754670275E+00    0.1229313607E-02
    0.1900000000E+05    0.1856007832E-01    0.3745651834E-02    0.6941900130E+00    0.1831179565E+00    0.1237004236E-02
    0.2100000000E+05    0.1882229253E-01    0.3803875418E-02    0.6942469365E+00    0.1898621995E+00    0.1243957526E-02
    0.2300000000E+05    0.1901193996E-01    0.3847313808E-02    0.6942934282E+00    0.1958594078E+00    0.1250305745E-02
    0.2500000000E+05    0.1914465546E-01    0.3879092154E-02    0.6943320296E+00    0.2012332187E+00    0.1256148239E-02
    0.2700000000E+05    0.1923229078E-01    0.3901586210E-02    0.6943645242E+00    0.2060809405E+00    0.1261561564E-02
    0.2900000000E+05    0.1928395341E-01    0.3916627033E-02    0.6943921994E+00    0.2104802610E+00    0.1266605983E-02
    0.3100000000E+05    0.1930672666E-01    0.3925643108E-02    0.6944160078E+00    0.2144939958E+00    0.1271329802E-02
    0.3300000000E+05    0.1930617859E-01    0.3929760937E-02    0.6944366687E+00    0.2181735157E+00    0.1275772348E-02
    0.3500000000E+05    0.1928672787E-01    0.3929877463E-02    0.6944547352E+00    0.2215612639E+00    0.1279966075E-02
    0.3700000000E+05    0.1925191083E-01    0.3926713026E-02    0.6944706396E+00    0.2246926335E+00    0.1283938080E-02
    0.3900000000E+05    0.1920457922E-01    0.3920850625E-02    0.6944847243E+00    0.2275973880E+00    0.1287711229E-02
    0.4100000000E+05    0.1914704833E-01    0.3912765397E-02    0.6944972640E+00    0.2303007492E+00    0.1291304994E-02
    0.4300000000E+05    0.1908120941E-01    0.3902847010E-02    0.6945084815E+00    0.2328242420E+00    0.1294736098E-02
    0.4500000000E+05    0.1900861572E-01    0.3891416846E-02    0.6945185596E+00    0.2351863547E+00    0.1298019010E-02
    0.4700000000E+05    0.1893054920E-01    0.3878741323E-02    0.6945276492E+00    0.2374030632E+00    0.1301166336E-02
    0.4900000000E+05    0.1884807244E-01    0.3865042314E-02    0.6945358763E+00    0.2394882487E+00    0.1304189124E-02
    0.1000000000E+05    0.1569263924E-01    0.3143824153E-02    0.6936333111E+00    0.1377678736E+00    0.1193112151E-02
    0.3000000000E+05    0.1929857255E-01    0.3921811641E-02    0.6944045375E+00    0.2125318809E+00    0.1269005327E-02
    0.5000000000E+05    0.1880546254E-01    0.3857868212E-02    0.6945397002E+00    0.2404853696E+00    0.1305656907E-02
    0.7000000000E+05    0.1787196273E-01    0.3692504636E-02    0.6945894642E+00    0.2557896765E+00    0.1330331834E-02
    0.9000000000E+05    0.1695372410E-01    0.3522832305E-02    0.6946125141E+00    0.2656800110E+00    0.1349050451E-02
    0.1100000000E+06    0.1612744003E-01    0.3367168108E-02    0.6946242184E+00    0.2726999322E+00    0.1364178909E-02
    0.1300000000E+06    0.1539742784E-01    0.3227970022E-02    0.6946302458E+00    0.2779930948E+00    0.1376898521E-02
    0.1500000000E+06    0.1475280514E-01    0.3103982415E-02    0.6946331289E+00    0.2821566185E+00    0.1387886261E-02
    0.1700000000E+06    0.1418079865E-01    0.2993216298E-02    0.6946341480E+00    0.2855355283E+00    0.1397567030E-02
    0.1900000000E+06    0.1366995681E-01    0.2893746453E-02    0.6946340094E+00    0.2883444036E+00    0.1406225403E-02
    0.2100000000E+06    0.1321071376E-01    0.2803904959E-02    0.6946331286E+00    0.2907243752E+00    0.1414061497E-02
    0.2300000000E+06    0.1279524813E-01    0.2722297794E-02    0.6946317621E+00    0.2927724438E+00    0.1421221501E-02
    0.2500000000E+06    0.1241719037E-01    0.2647772519E-02    0.6946300746E+00    0.2945576945E+00    0.1427815522E-02
    0.2700000000E+06    0.1207133712E-01    0.2579377156E-02    0.6946281750E+00    0.2961307963E+00    0.1433928599E-02
    0.2900000000E+06    0.1175341169E-01    0.2516322422E-02    0.6946261373E+00    0.2975298395E+00    0.1439627802E-02
    0.3100000000E+06    0.1145987328E-01    0.2457950205E-02    0.6946240124E+00    0.2987840660E+00    0.1444966978E-02
    0.3300000000E+06    0.1118776800E-01    0.2403708207E-02    0.6946218362E+00    0.2999163351E+00    0.1449990031E-02
    0.3500000000E+06    0.1093461293E-01    0.2353129823E-02    0.6946196341E+00    0.3009448009E+00    0.1454733232E-02
    0.3700000000E+06    0.1069830586E-01    0.2305818235E-02    0.6946174242E+00    0.3018840819E+00    0.1459226898E-02
    0.3900000000E+06    0.1047705463E-01    0.2261433823E-02    0.6946152196E+00    0.3027460953E+00    0.1463496636E-02
    0.4100000000E+06    0.1026932154E-01    0.2219684156E-02    0.6946130298E+00    0.3035406633E+00    0.1467564273E-02
    0.4300000000E+06    0.1007377918E-01    0.2180315990E-02    0.6946108613E+00    0.3042759614E+00    0.1471448565E-02
    0.4500000000E+06    0.9889275131E-02    0.2143108831E-02    0.6946087190E+00    0.3049588553E+00    0.1475165755E-02
    0.4700000000E+06    0.9714803649E-02    0.2107869727E-02    0.6946066063E+00    0.3055951575E+00    0.1478729998E-02
    0.4900000000E+06    0.9549482594E-02    0.2074429027E-02    0.6946045253E+00    0.3061898249E+00    0.1482153712E-02
    0.1000000000E+06    0.1652816444E-01    0.3442943542E-02    0.6946193188E+00    0.2694589148E+00    0.1356973163E-02
    0.3000000000E+06    0.1160379098E-01    0.2486587738E-02    0.6946250832E+00    0.2981734992E+00    0.1442339447E-02
    0.5000000000E+06    0.9470006918E-02    0.2058335562E-02    0.6946034972E+00    0.3064728996E+00    0.1483816343E-02
    0.7000000000E+06    0.8213286941E-02    0.1802319543E-02    0.6945847149E+00    0.3107233472E+00    0.1511781270E-02
    0.9000000000E+06    0.7359590568E-02    0.1626677221E-02    0.6945689462E+00    0.3133903842E+00    0.1533010028E-02
    0.1100000000E+07    0.6730428275E-02    0.1496265537E-02    0.6945554837E+00    0.3152537520E+00    0.1550173765E-02
    0.1300000000E+07    0.6241571695E-02    0.1394330520E-02    0.6945437683E+00    0.3166458269E+00    0.1564608127E-02
    0.1500000000E+07    0.5847362638E-02    0.1311721141E-02    0.6945334059E+00    0.3177346253E+00    0.1577079253E-02
    0.1700000000E+07    0.5520600066E-02    0.1242952574E-02    0.6945241172E+00    0.3186151501E+00    0.1588068321E-02
    0.1900000000E+07    0.5243926237E-02    0.1184507125E-02    0.6945156995E+00    0.3193455816E+00    0.1597897743E-02
    0.2100000000E+07    0.5005669240E-02    0.1134009145E-02    0.6945080020E+00    0.3199637491E+00    0.1606794325E-02
    0.2300000000E+07    0.4797649688E-02    0.1089787530E-02    0.6945009097E+00    0.3204954261E+00    0.1614923796E-02
    0.2500000000E+07    0.4613940880E-02    0.1050627337E-02    0.6944943328E+00    0.3209588430E+00    0.1622411009E-02
    0.2700000000E+07    0.4450128128E-02    0.1015620832E-02    0.6944882003E+00    0.3213672979E+00    0.1629352408E-02
    0.2900000000E+07    0.4302845759E-02    0.9840740660E-03    0.6944824548E+00    0.3217307438E+00    0.1635824068E-02
    0.3100000000E+07    0.4169476534E-02    0.9554460429E-03    0.6944770494E+00    0.3220567945E+00    0.1641887079E-02
    0.3300000000E+07    0.4047950139E-02    0.9293078174E-03    0.6944719453E+00    0.3223513846E+00    0.1647591249E-02
    0.3500000000E+07    0.3936604308E-02    0.9053142403E-03    0.6944671099E+00    0.3226192161E+00    0.1652977734E-02
    0.3700000000E+07    0.3834086786E-02    0.8831839639E-03    0.6944625158E+00    0.3228640678E+00    0.1658080937E-02
    0.3900000000E+07    0.3739284651E-02    0.8626849958E-03    0.6944581395E+00    0.3230890154E+00    0.1662929918E-02
    0.4100000000E+07    0.3651272398E-02    0.8436240664E-03    0.6944539608E+00    0.3232965906E+00    0.1667549446E-02
    0.4300000000E+07    0.3569273166E-02    0.8258386736E-03    0.6944499622E+00    0.3234888984E+00    0.1671960811E-02
    0.4500000000E+07    0.3492629353E-02    0.8091910409E-03    0.6944461284E+00    0.3236677052E+00    0.1676182448E-02
    0.4700000000E+07    0.3420780032E-02    0.7935634681E-03    0.6944424461E+00    0.3238345053E+00    0.1680230425E-02
    0.4900000000E+07    0.3353243389E-02    0.7788547096E-03    0.6944389035E+00    0.3239905724E+00    0.1684118836E-02
    0.1000000000E+07    0.7023485304E-02    0.1557115879E-02    0.6945619661E+00    0.3143961374E+00    0.1541997975E-02
    0.3000000000E+07    0.4234562348E-02    0.9694242670E-03    0.6944797122E+00    0.3218980393E+00    0.1638903313E-02
    0.5000000000E+07    0.3320959930E-02    0.7718170312E-03    0.6944371812E+00    0.3240649289E+00    0.1686007148E-02
    0.7000000000E+07    0.2825002653E-02    0.6631223397E-03    0.6944080531E+00    0.3251875397E+00    0.1717768947E-02
    0.9000000000E+07    0.2501853564E-02    0.5916587595E-03    0.6943857778E+00    0.3258994991E+00    0.1741880936E-02
    0.1100000000E+08    0.2269797766E-02    0.5399851661E-03    0.6943676900E+00    0.3264015154E+00    0.1761376197E-02
    0.1300000000E+08    0.2092697300E-02    0.5003278489E-03    0.6943524351E+00    0.3267795406E+00    0.1777771511E-02
    0.1500000000E+08    0.1951765585E-02    0.4686208765E-03    0.6943392284E+00    0.3270772523E+00    0.1791936978E-02
    0.1700000000E+08    0.1836137807E-02    0.4425009661E-03    0.6943275735E+00    0.3273194773E+00    0.1804419086E-02
    0.1900000000E+08    0.1739034083E-02    0.4204870526E-03    0.6943171362E+00    0.3275214961E+00    0.1815584022E-02
    0.2100000000E+08    0.1655974685E-02    0.4015968804E-03    0.6943076806E+00    0.3276932914E+00    0.1825689391E-02
    0.2300000000E+08    0.1583864584E-02    0.3851495615E-03    0.6942990337E+00    0.3278416945E+00    0.1834923431E-02
    0.2500000000E+08    0.1520487383E-02    0.3706560475E-03    0.6942910647E+00    0.3279715579E+00    0.1843427952E-02
    0.2700000000E+08    0.1464208442E-02    0.3577546781E-03    0.6942836727E+00    0.3280864348E+00    0.1851312498E-02
