  Pressure (Pa) 22mC5-500 (mol/kg) 23mC5-500 (mol/kg) 24mC5-500 (mol/kg) 2mC6-500 (mol/kg) C7-500 (mol/kg)
    0.1000000000E+01    0.7963848436E-05    0.3052123976E-05    0.3665791617E-01    0.2441747602E-04    0.4208752009E-02
    0.3000000000E+01    0.2103637417E-04    0.8052781245E-05    0.9947091177E-01    0.6305891250E-04    0.4292723220E-02
    0.5000000000E+01    0.3136960172E-04    0.1199740314E-04    0.1513329261E+00    0.9248160705E-04    0.4360087616E-02
    0.7000000000E+01    0.3969585144E-04    0.1516952049E-04    0.1948788677E+00    0.1153727165E-03    0.4416638016E-02
    0.9000000000E+01    0.4650871444E-04    0.1775996979E-04    0.2319610280E+00    0.1334895677E-03    0.4464942316E-02
    0.1100000000E+02    0.5215651525E-04    0.1990328432E-04    0.2639195683E+00    0.1480452752E-03    0.4506736519E-02
    0.1300000000E+02    0.5689205568E-04    0.2169700845E-04    0.2917480775E+00    0.1599020468E-03    0.4543283647E-02
    0.1500000000E+02    0.6090292079E-04    0.2321345213E-04    0.3161988050E+00    0.1696863202E-03    0.4575533666E-02
    0.1700000000E+02    0.6433092159E-04    0.2450722655E-04    0.3378517451E+00    0.1778615539E-03    0.4604217351E-02
    0.1900000000E+02    0.6728500339E-04    0.2562024430E-04    0.3571612751E+00    0.1847759633E-03    0.4629906963E-02
    0.2100000000E+02    0.6985005073E-04    0.2658512802E-04    0.3744884189E+00    0.1906947027E-03    0.4653057420E-02
    0.2300000000E+02    0.7209303170E-04    0.2742758784E-04    0.3901236520E+00    0.1958220626E-03    0.4674035108E-02
    0.2500000000E+02    0.7406737102E-04    0.2816811245E-04    0.4043033330E+00    0.2003170812E-03    0.4693138538E-02
    0.2700000000E+02    0.7581611731E-04    0.2882319322E-04    0.4172217461E+00    0.2043047145E-03    0.4710613447E-02
    0.2900000000E+02    0.7737427303E-04    0.2940622422E-04    0.4290400654E+00    0.2078839501E-03    0.4726664017E-02
    0.3100000000E+02    0.7877053254E-04    0.2992817318E-04    0.4398931208E+00    0.2111337813E-03    0.4741461341E-02
    0.3300000000E+02    0.8002859533E-04    0.3039808812E-04    0.4498945694E+00    0.2141176620E-03    0.4755149896E-02
    0.3500000000E+02    0.8116816969E-04    0.3082348439E-04    0.4591408952E+00    0.2168868638E-03    0.4767852543E-02
    0.3700000000E+02    0.8220574795E-04    0.3121064341E-04    0.4677145347E+00    0.2194830333E-03    0.4779674445E-02
    0.3900000000E+02    0.8315521124E-04    0.3156484551E-04    0.4756863441E+00    0.2219401578E-03    0.4790706156E-02
    0.4100000000E+02    0.8402830534E-04    0.3189055312E-04    0.4831175638E+00    0.2242860894E-03    0.4801026085E-02
    0.4300000000E+02    0.8483501833E-04    0.3219155598E-04    0.4900613964E+00    0.2265437361E-03    0.4810702473E-02
    0.4500000000E+02    0.8558388261E-04    0.3247108724E-04    0.4965642835E+00    0.2287319992E-03    0.4819795002E-02
    0.4700000000E+02    0.8628221811E-04    0.3273191687E-04    0.5026669470E+00    0.2308665169E-03    0.4828356097E-02
    0.4900000000E+02    0.8693632950E-04    0.3297642734E-04    0.5084052431E+00    0.2329602571E-03    0.4836432008E-02
    0.1000000000E+02    0.4946063127E-04    0.1888071940E-04    0.2485119825E+00    0.1411520662E-03    0.4486565481E-02
    0.3000000000E+02    0.7809105457E-04    0.2967422849E-04    0.4345797031E+00    0.2095457550E-03    0.4734209746E-02
    0.5000000000E+02    0.8724853397E-04    0.3309321690E-04    0.5111478042E+00    0.2339952769E-03    0.4840301005E-02
    0.7000000000E+02    0.9216473949E-04    0.3494624110E-04    0.5529099664E+00    0.2543653987E-03    0.4900042748E-02
    0.9000000000E+02    0.9593207158E-04    0.3639491172E-04    0.5792066114E+00    0.2760293431E-03    0.4938583250E-02
    0.1100000000E+03    0.9944031448E-04    0.3776702644E-04    0.5972874052E+00    0.2996669465E-03    0.4965535516E-02
    0.1300000000E+03    0.1029899189E-03    0.3917015857E-04    0.6104828374E+00    0.3251287032E-03    0.4985399993E-02
    0.1500000000E+03    0.1066877409E-03    0.4064070097E-04    0.6205374226E+00    0.3521493519E-03    0.5000577641E-02
    0.1700000000E+03    0.1105690797E-03    0.4218930914E-04    0.6284533657E+00    0.3804925186E-03    0.5012472602E-02
    0.1900000000E+03    0.1146411629E-03    0.4381687198E-04    0.6348474453E+00    0.4099723678E-03    0.5021964142E-02
    0.2100000000E+03    0.1189001828E-03    0.4552065876E-04    0.6401200553E+00    0.4404481496E-03    0.5029632765E-02
    0.2300000000E+03    0.1233383777E-03    0.4729681306E-04    0.6445424506E+00    0.4718144912E-03    0.5035878245E-02
    0.2500000000E+03    0.1279470579E-03    0.4914138010E-04    0.6483049285E+00    0.5039927653E-03    0.5040985530E-02
    0.2700000000E+03    0.1327178856E-03    0.5105071474E-04    0.6515449362E+00    0.5369243996E-03    0.5045163610E-02
    0.2900000000E+03    0.1376433757E-03    0.5302162049E-04    0.6543642273E+00    0.5705659136E-03    0.5048569508E-02
    0.3100000000E+03    0.1427170452E-03    0.5505137173E-04    0.6568397425E+00    0.6048852805E-03    0.5051323649E-02
    0.3300000000E+03    0.1479334072E-03    0.5713768745E-04    0.6590307387E+00    0.6398592627E-03    0.5053520038E-02
    0.3500000000E+03    0.1532878985E-03    0.5927868737E-04    0.6609835936E+00    0.6754714476E-03    0.5055233194E-02
    0.3700000000E+03    0.1587767869E-03    0.6147284448E-04    0.6627351245E+00    0.7117107905E-03    0.5056522987E-02
    0.3900000000E+03    0.1643970748E-03    0.6371894008E-04    0.6643149313E+00    0.7485705216E-03    0.5057438090E-02
    0.4100000000E+03    0.1701464106E-03    0.6601602349E-04    0.6657470820E+00    0.7860473216E-03    0.5058018479E-02
    0.4300000000E+03    0.1760230087E-03    0.6836337710E-04    0.6670513481E+00    0.8241406918E-03    0.5058297298E-02
    0.4500000000E+03    0.1820255806E-03    0.7076048658E-04    0.6682441217E+00    0.8628524718E-03    0.5058302240E-02
    0.4700000000E+03    0.1881532757E-03    0.7320701559E-04    0.6693391084E+00    0.9021864647E-03    0.5058056618E-02
    0.4900000000E+03    0.1944056307E-03    0.7570278460E-04    0.6703478559E+00    0.9421481465E-03    0.5057580173E-02
    0.1000000000E+03    0.9769283055E-04    0.3708123661E-04    0.5890129098E+00    0.2876045806E-03    0.4953156939E-02
    0.3000000000E+03    0.1401620536E-03    0.5402929294E-04    0.6556409040E+00    0.5876424979E-03    0.5050021648E-02
    0.5000000000E+03    0.1975785062E-03    0.7696911640E-04    0.6708230109E+00    0.9623664822E-03    0.5057260745E-02
    0.7000000000E+03    0.2677108854E-03    0.1049346337E-03    0.6775457228E+00    0.1402027974E-02    0.5041743441E-02
    0.9000000000E+03    0.3517436476E-03    0.1384040428E-03    0.6813376318E+00    0.1918845653E-02    0.5012643423E-02
    0.1100000000E+04    0.4526043967E-03    0.1785477907E-03    0.6837716329E+00    0.2532838513E-02    0.4971698018E-02
    0.1300000000E+04    0.5747747005E-03    0.2271518150E-03    0.6854659639E+00    0.3272226686E-02    0.4918168953E-02
    0.1500000000E+04    0.7247106870E-03    0.2867856913E-03    0.6867130512E+00    0.4176592341E-02    0.4849767408E-02
    0.1700000000E+04    0.9116944139E-03    0.3611418433E-03    0.6876691465E+00    0.5302292570E-02    0.4762649001E-02
    0.1900000000E+04    0.1149228895E-02    0.4555907780E-03    0.6884253229E+00    0.6731037771E-02    0.4650975593E-02
    0.2100000000E+04    0.1457209832E-02    0.5780452652E-03    0.6890382491E+00    0.8583154154E-02    0.4506111621E-02
    0.2300000000E+04    0.1865085329E-02    0.7402178589E-03    0.6895450321E+00    0.1103691538E-01    0.4315483752E-02
    0.2500000000E+04    0.2415613596E-02    0.9591174316E-03    0.6899709862E+00    0.1435178270E-01    0.4061467272E-02
    0.2700000000E+04    0.3166095478E-02    0.1257544244E-02    0.6903339725E+00    0.1887707199E-01    0.3722024592E-02
    0.2900000000E+04    0.4175587265E-02    0.1659014420E-02    0.6906469535E+00    0.2497711671E-01    0.3278535529E-02
    0.3100000000E+04    0.5453846400E-02    0.2167468512E-02    0.6909195641E+00    0.3272581229E-01    0.2740553660E-02
    0.3300000000E+04    0.6873925877E-02    0.2732504136E-02    0.6911591152E+00    0.4137668764E-01    0.2181112940E-02
    0.3500000000E+04    0.8179570668E-02    0.3252261746E-02    0.6913712541E+00    0.4939379537E-01    0.1719402389E-02
    0.3700000000E+04    0.9187308659E-02    0.3653744904E-02    0.6915604120E+00    0.5566071943E-01    0.1422722887E-02
    0.3900000000E+04    0.9907106165E-02    0.3940844855E-02    0.6917301149E+00    0.6021985895E-01    0.1266510369E-02
    0.4100000000E+04    0.1043853750E-01    0.4153108261E-02    0.6918832031E+00    0.6365985297E-01    0.1194114558E-02
    0.4300000000E+04    0.1086624277E-01    0.4324171132E-02    0.6920219904E+00    0.6648615208E-01    0.1163300701E-02
    0.4500000000E+04    0.1123901731E-01    0.4473429765E-02    0.6921483804E+00    0.6899140004E-01    0.1151397972E-02
    0.4700000000E+04    0.1158114503E-01    0.4610538105E-02    0.6922639535E+00    0.7132149918E-01    0.1147767538E-02
    0.4900000000E+04    0.1190410119E-01    0.4740057728E-02    0.6923700328E+00    0.7354531965E-01    0.1147682223E-02
    0.1000000000E+04    0.3998297139E-03    0.1575455802E-03    0.6826743446E+00    0.2212150824E-02    0.4993657309E-02
    0.3000000000E+04    0.4784926366E-02    0.1901376811E-02    0.6907878027E+00    0.2866712338E-01    0.3018570363E-02
    0.5000000000E+04    0.1206021056E-01    0.4802695262E-02    0.6924198681E+00    0.7462824657E-01    0.1148269961E-02
    0.7000000000E+04    0.1470402685E-01    0.5866630281E-02    0.6931153558E+00    0.9379260458E-01    0.1169160827E-02
    0.9000000000E+04    0.1668424697E-01    0.6668357470E-02    0.6934986784E+00    0.1094525451E+00    0.1186007432E-02
    0.1100000000E+05    0.1819685610E-01    0.7284810186E-02    0.6937404328E+00    0.1225407839E+00    0.1199557312E-02
    0.1300000000E+05    0.1936816258E-01    0.7765640789E-02    0.6939062025E+00    0.1336706443E+00    0.1210913574E-02
    0.1500000000E+05    0.2028437925E-01    0.8144801359E-02    0.6940265508E+00    0.1432723039E+00    0.1220701745E-02
    0.1700000000E+05    0.2100613031E-01    0.8446211517E-02    0.6941176276E+00    0.1516567386E+00    0.1229311431E-02
    0.1900000000E+05    0.2157713189E-01    0.8687153068E-02    0.6941887620E+00    0.1590545645E+00    0.1237002100E-02
    0.2100000000E+05    0.2202959306E-01    0.8880384201E-02    0.6942457153E+00    0.1656405835E+00    0.1243955429E-02
    0.2300000000E+05    0.2238769001E-01    0.9035500831E-02    0.6942922353E+00    0.1715498240E+00    0.1250303686E-02
    0.2500000000E+05    0.2266986615E-01    0.9159838814E-02    0.6943308633E+00    0.1768883322E+00    0.1256146216E-02
    0.2700000000E+05    0.2289039350E-01    0.9259087101E-02    0.6943633828E+00    0.1817406176E+00    0.1261559576E-02
    0.2900000000E+05    0.2306045651E-01    0.9337713780E-02    0.6943910816E+00    0.1861749062E+00    0.1266604027E-02
    0.3100000000E+05    0.2318891908E-01    0.9399267974E-02    0.6944149120E+00    0.1902469209E+00    0.1271327877E-02
    0.3300000000E+05    0.2328287715E-01    0.9446597559E-02    0.6944355937E+00    0.1940026502E+00    0.1275770453E-02
    0.3500000000E+05    0.2334806298E-01    0.9482008664E-02    0.6944536798E+00    0.1974804081E+00    0.1279964209E-02
    0.3700000000E+05    0.2338914530E-01    0.9507384203E-02    0.6944696028E+00    0.2007123903E+00    0.1283936241E-02
    0.3900000000E+05    0.2340995492E-01    0.9524273097E-02    0.6944837050E+00    0.2037258631E+00    0.1287709415E-02
    0.4100000000E+05    0.2341365634E-01    0.9533958239E-02    0.6944962613E+00    0.2065440847E+00    0.1291303205E-02
    0.4300000000E+05    0.2340287981E-01    0.9537508823E-02    0.6945074947E+00    0.2091870248E+00    0.1294734332E-02
    0.4500000000E+05    0.2337982377E-01    0.9535821037E-02    0.6945175878E+00    0.2116719349E+00    0.1298017267E-02
    0.4700000000E+05    0.2334633523E-01    0.9529649993E-02    0.6945266918E+00    0.2140138015E+00    0.1301164614E-02
    0.4900000000E+05    0.2330397327E-01    0.9519635006E-02    0.6945349326E+00    0.2162257123E+00    0.1304187423E-02
    0.1000000000E+05    0.1748994205E-01    0.6996183297E-02    0.6936319214E+00    0.1162745091E+00    0.1193109868E-02
    0.3000000000E+05    0.2312940826E-01    0.9370432614E-02    0.6944034308E+00    0.1882531224E+00    0.1269003387E-02
    0.5000000000E+05    0.2327988589E-01    0.9513359199E-02    0.6945387630E+00    0.2172865788E+00    0.1305655215E-02
    0.7000000000E+05    0.2256514966E-01    0.9282425055E-02    0.6945886343E+00    0.2338462501E+00    0.1330330308E-02
    0.9000000000E+05    0.2170229030E-01    0.8975465044E-02    0.6946117599E+00    0.2448629606E+00    0.1349049043E-02
    0.1100000000E+06    0.2085920318E-01    0.8665828411E-02    0.6946235213E+00    0.2528619900E+00    0.1364177593E-02
    0.1300000000E+06    0.2007823922E-01    0.8374003378E-02    0.6946295940E+00    0.2590072029E+00    0.1376897279E-02
    0.1500000000E+06    0.1936630992E-01    0.8104903766E-02    0.6946325140E+00    0.2639181943E+00    0.1387885080E-02
    0.1700000000E+06    0.1871962326E-01    0.7858383323E-02    0.6946335641E+00    0.2679588483E+00    0.1397565901E-02
    0.1900000000E+06    0.1813148911E-01    0.7632678543E-02    0.6946334521E+00    0.2713586926E+00    0.1406224318E-02
    0.2100000000E+06    0.1759493701E-01    0.7425631006E-02    0.6946325943E+00    0.2742705942E+00    0.1414060451E-02
    0.2300000000E+06    0.1710357041E-01    0.7235129896E-02    0.6946312480E+00    0.2768008149E+00    0.1421220490E-02
    0.2500000000E+06    0.1665178730E-01    0.7059261005E-02    0.6946295785E+00    0.2790258181E+00    0.1427814542E-02
    0.2700000000E+06    0.1623477283E-01    0.6896341755E-02    0.6946276951E+00    0.2810022180E+00    0.1433927647E-02
    0.2900000000E+06    0.1584841640E-01    0.6744912667E-02    0.6946256720E+00    0.2827729476E+00    0.1439626874E-02
    0.3100000000E+06    0.1548921202E-01    0.6603713891E-02    0.6946235603E+00    0.2843712357E+00    0.1444966074E-02
    0.3300000000E+06    0.1515416346E-01    0.6471658487E-02    0.6946213963E+00    0.2858232562E+00    0.1449989148E-02
    0.3500000000E+06    0.1484070121E-01    0.6347807055E-02    0.6946192053E+00    0.2871499438E+00    0.1454732368E-02
    0.3700000000E+06    0.1454661245E-01    0.6231345291E-02    0.6946170058E+00    0.2883682693E+00    0.1459226053E-02
    0.3900000000E+06    0.1426998281E-01    0.6121564777E-02    0.6946148108E+00    0.2894921553E+00    0.1463495808E-02
    0.4100000000E+06    0.1400914846E-01    0.6017846799E-02    0.6946126299E+00    0.2905331451E+00    0.1467563460E-02
    0.4300000000E+06    0.1376265670E-01    0.5919648817E-02    0.6946104697E+00    0.2915009017E+00    0.1471447768E-02
    0.4500000000E+06    0.1352923353E-01    0.5826493181E-02    0.6946083353E+00    0.2924035835E+00    0.1475164971E-02
    0.4700000000E+06    0.1330775680E-01    0.5737957725E-02    0.6946062298E+00    0.2932481325E+00    0.1478729227E-02
    0.4900000000E+06    0.1309723414E-01    0.5653667903E-02    0.6946041558E+00    0.2940404983E+00    0.1482152953E-02
    0.1000000000E+06    0.2127428290E-01    0.8819119447E-02    0.6946185949E+00    0.2491487720E+00    0.1356971804E-02
    0.3000000000E+06    0.1566561838E-01    0.6673106166E-02    0.6946246247E+00    0.2835918701E+00    0.1442338532E-02
    0.5000000000E+06    0.1299580133E-01    0.5613009438E-02    0.6946031310E+00    0.2944187442E+00    0.1483815590E-02
    0.7000000000E+06    0.1137284789E-01    0.4958309698E-02    0.6945844001E+00    0.3001857320E+00    0.1511780611E-02
    0.9000000000E+06    0.1025073364E-01    0.4500946645E-02    0.6945686654E+00    0.3038958373E+00    0.1533009431E-02
    0.1100000000E+07    0.9414029668E-02    0.4157276697E-02    0.6945552275E+00    0.3065347518E+00    0.1550173215E-02
    0.1300000000E+07    0.8758382465E-02    0.3886313878E-02    0.6945435311E+00    0.3085334430E+00    0.1564607612E-02
    0.1500000000E+07    0.8226225267E-02    0.3665258498E-02    0.6945331838E+00    0.3101139724E+00    0.1577078768E-02
    0.1700000000E+07    0.7782819365E-02    0.3480261334E-02    0.6945239076E+00    0.3114038281E+00    0.1588067861E-02
    0.1900000000E+07    0.7405775318E-02    0.3322347897E-02    0.6945155006E+00    0.3124820705E+00    0.1597897303E-02
    0.2100000000E+07    0.7079916617E-02    0.3185406753E-02    0.6945078122E+00    0.3134006541E+00    0.1606793902E-02
    0.2300000000E+07    0.6794537136E-02    0.3065109284E-02    0.6945007277E+00    0.3141953015E+00    0.1614923389E-02
    0.2500000000E+07    0.6541835674E-02    0.2958290123E-02    0.6944941578E+00    0.3148914837E+00    0.1622410616E-02
    0.2700000000E+07    0.6315973140E-02    0.2862572461E-02    0.6944880315E+00    0.3155079127E+00    0.1629352027E-02
    0.2900000000E+07    0.6112479145E-02    0.2776131340E-02    0.6944822916E+00    0.3160586827E+00    0.1635823698E-02
    0.3100000000E+07    0.5927864465E-02    0.2697538569E-02    0.6944768912E+00    0.3165546375E+00    0.1641886719E-02
    0.3300000000E+07    0.5759359874E-02    0.2625657893E-02    0.6944717917E+00    0.3170042734E+00    0.1647590899E-02
    0.3500000000E+07    0.5604735338E-02    0.2559572224E-02    0.6944669605E+00    0.3174143542E+00    0.1652977392E-02
    0.3700000000E+07    0.5462171841E-02    0.2498531923E-02    0.6944623703E+00    0.3177903396E+00    0.1658080603E-02
    0.3900000000E+07    0.5330168652E-02    0.2441917298E-02    0.6944579976E+00    0.3181366914E+00    0.1662929591E-02
    0.4100000000E+07    0.5207474970E-02    0.2389210901E-02    0.6944538221E+00    0.3184570963E+00    0.1667549126E-02
    0.4300000000E+07    0.5093038725E-02    0.2339976734E-02    0.6944498266E+00    0.3187546302E+00    0.1671960497E-02
    0.4500000000E+07    0.4985967658E-02    0.2293844417E-02    0.6944459957E+00    0.3190318826E+00    0.1676182140E-02
    0.4700000000E+07    0.4885499346E-02    0.2250496964E-02    0.6944423161E+00    0.3192910510E+00    0.1680230122E-02
    0.4900000000E+07    0.4790977824E-02    0.2209661247E-02    0.6944387761E+00    0.3195340142E+00    0.1684118539E-02
    0.1000000000E+07    0.9804765427E-02    0.4318057320E-02    0.6945616984E+00    0.3053151723E+00    0.1541997403E-02
    0.3000000000E+07    0.6017999413E-02    0.2735930792E-02    0.6944795515E+00    0.3163129343E+00    0.1638902948E-02
    0.5000000000E+07    0.4745766617E-02    0.2190110040E-02    0.6944370550E+00    0.3196499329E+00    0.1686006853E-02
    0.7000000000E+07    0.4048897806E-02    0.1887123889E-02    0.6944079456E+00    0.3214130957E+00    0.1717768691E-02
    0.9000000000E+07    0.3592533833E-02    0.1686888519E-02    0.6943856824E+00    0.3225445643E+00    0.1741880705E-02
    0.1100000000E+08    0.3263706506E-02    0.1541604326E-02    0.6943676033E+00    0.3233489444E+00    0.1761375985E-02
    0.1300000000E+08    0.3012133740E-02    0.1429825173E-02    0.6943523551E+00    0.3239583903E+00    0.1777771314E-02
    0.1500000000E+08    0.2811559172E-02    0.1340282444E-02    0.6943391537E+00    0.3244406936E+00    0.1791936792E-02
    0.1700000000E+08    0.2646747168E-02    0.1266403848E-02    0.6943275031E+00    0.3248346690E+00    0.1804418910E-02
    0.1900000000E+08    0.2508165312E-02    0.1204059398E-02    0.6943170696E+00    0.3251643476E+00    0.1815583854E-02
    0.2100000000E+08    0.2389501657E-02    0.1150504015E-02    0.6943076171E+00    0.3254455059E+00    0.1825689230E-02
    0.2300000000E+08    0.2286387484E-02    0.1103831343E-02    0.6942989728E+00    0.3256889856E+00    0.1834923276E-02
    0.2500000000E+08    0.2195689506E-02    0.1062669990E-02    0.6942910063E+00    0.3259025152E+00    0.1843427803E-02
    0.2700000000E+08    0.2115093804E-02    0.1026004412E-02    0.6942836164E+00    0.3260917722E+00    0.1851312354E-02
