  Pressure (Pa) 22mC5-500 (mol/kg) 23mC5-500 (mol/kg) 24mC5-500 (mol/kg) 2mC6-500 (mol/kg) C7-500 (mol/kg)
    0.1000000000E+01    0.5398488770E-05    0.2580926896E-05    0.2321334455E+00    0.2304597302E-05    0.4166978673E-02
    0.3000000000E+01    0.8936601609E-05    0.4256869794E-05    0.4177357470E+00    0.3653877707E-05    0.4187204887E-02
    0.5000000000E+01    0.1024984339E-04    0.4876315604E-05    0.4972522284E+00    0.4224553842E-05    0.4193872726E-02
    0.7000000000E+01    0.1101263035E-04    0.5239190355E-05    0.5414213549E+00    0.4677679785E-05    0.4197398981E-02
    0.9000000000E+01    0.1159641713E-04    0.5520775897E-05    0.5695266331E+00    0.5120777538E-05    0.4199605201E-02
    0.1100000000E+02    0.1211636592E-04    0.5774623405E-05    0.5889831257E+00    0.5574744777E-05    0.4201119003E-02
    0.1300000000E+02    0.1261487837E-04    0.6020079444E-05    0.6032507268E+00    0.6042073901E-05    0.4202220495E-02
    0.1500000000E+02    0.1310904549E-04    0.6264734239E-05    0.6141609801E+00    0.6521097143E-05    0.4203054948E-02
    0.1700000000E+02    0.1360596495E-04    0.6511604168E-05    0.6227741851E+00    0.7009487447E-05    0.4203705701E-02
    0.1900000000E+02    0.1410845700E-04    0.6761784949E-05    0.6297466867E+00    0.7505136811E-05    0.4204224190E-02
    0.2100000000E+02    0.1461742308E-04    0.7015533400E-05    0.6355065202E+00    0.8006325898E-05    0.4204643991E-02
    0.2300000000E+02    0.1513289087E-04    0.7272739726E-05    0.6403447415E+00    0.8511701434E-05    0.4204988008E-02
    0.2500000000E+02    0.1565450067E-04    0.7533143183E-05    0.6444661628E+00    0.9020210873E-05    0.4205272436E-02
    0.2700000000E+02    0.1618173856E-04    0.7796432867E-05    0.6480190939E+00    0.9531037401E-05    0.4205509071E-02
    0.2900000000E+02    0.1671404944E-04    0.8062294731E-05    0.6511135691E+00    0.1004354593E-04    0.4205706725E-02
    0.3100000000E+02    0.1725089089E-04    0.8330432665E-05    0.6538329469E+00    0.1055724089E-04    0.4205872120E-02
    0.3300000000E+02    0.1779175741E-04    0.8600576857E-05    0.6562415316E+00    0.1107173398E-04    0.4206010481E-02
    0.3500000000E+02    0.1833618956E-04    0.8872485931E-05    0.6583897234E+00    0.1158671981E-04    0.4206125936E-02
    0.3700000000E+02    0.1888377564E-04    0.9145946132E-05    0.6603175838E+00    0.1210195733E-04    0.4206221793E-02
    0.3900000000E+02    0.1943414963E-04    0.9420769195E-05    0.6620573570E+00    0.1261725585E-04    0.4206300736E-02
    0.4100000000E+02    0.1998698752E-04    0.9696789755E-05    0.6636352883E+00    0.1313246423E-04    0.4206364965E-02
    0.4300000000E+02    0.2054200316E-04    0.9973862702E-05    0.6650729570E+00    0.1364746267E-04    0.4206416308E-02
    0.4500000000E+02    0.2109894398E-04    0.1025186069E-04    0.6663882693E+00    0.1416215626E-04    0.4206456291E-02
    0.4700000000E+02    0.2165758703E-04    0.1053067188E-04    0.6675962077E+00    0.1467647005E-04    0.4206486203E-02
    0.4900000000E+02    0.2221773539E-04    0.1081019794E-04    0.6687094047E+00    0.1519034508E-04    0.4206507139E-02
    0.1000000000E+02    0.1186082786E-04    0.5649540963E-05    0.5800656655E+00    0.5346072036E-05    0.4200426606E-02
    0.3000000000E+02    0.1698193646E-04    0.8196096714E-05    0.6525157494E+00    0.1030027157E-04    0.4205793098E-02
    0.5000000000E+02    0.2249831884E-04    0.1095020156E-04    0.6692338914E+00    0.1544710326E-04    0.4206514540E-02
    0.7000000000E+02    0.2815614157E-04    0.1377157090E-04    0.6766640903E+00    0.2055264343E-04    0.4206361122E-02
    0.9000000000E+02    0.3385283634E-04    0.1660969405E-04    0.6808637357E+00    0.2560006560E-04    0.4205872905E-02
    0.1100000000E+03    0.3955492323E-04    0.1944866995E-04    0.6835634844E+00    0.3059655405E-04    0.4205217067E-02
    0.1300000000E+03    0.4525084394E-04    0.2228326612E-04    0.6854451078E+00    0.3555143230E-04    0.4204463988E-02
    0.1500000000E+03    0.5093707282E-04    0.2511207088E-04    0.6868315502E+00    0.4047288114E-04    0.4203648912E-02
    0.1700000000E+03    0.5661330524E-04    0.2793516447E-04    0.6878955495E+00    0.4536762537E-04    0.4202791587E-02
    0.1900000000E+03    0.6228057075E-04    0.3075322103E-04    0.6887378694E+00    0.5024114429E-04    0.4201903987E-02
    0.2100000000E+03    0.6794042861E-04    0.3356713283E-04    0.6894212496E+00    0.5509793164E-04    0.4200993812E-02
    0.2300000000E+03    0.7359460676E-04    0.3637784565E-04    0.6899867957E+00    0.5994171378E-04    0.4200066241E-02
    0.2500000000E+03    0.7924483663E-04    0.3918628597E-04    0.6904625636E+00    0.6477561806E-04    0.4199124878E-02
    0.2700000000E+03    0.8489277892E-04    0.4199333016E-04    0.6908683577E+00    0.6960229993E-04    0.4198172308E-02
    0.2900000000E+03    0.9053999324E-04    0.4479979348E-04    0.6912185563E+00    0.7442403893E-04    0.4197210427E-02
    0.3100000000E+03    0.9618792909E-04    0.4760642840E-04    0.6915238512E+00    0.7924281169E-04    0.4196240651E-02
    0.3300000000E+03    0.1018379273E-03    0.5041392725E-04    0.6917923576E+00    0.8406034806E-04    0.4195264056E-02
    0.3500000000E+03    0.1074912262E-03    0.5322292670E-04    0.6920303466E+00    0.8887817474E-04    0.4194281469E-02
    0.3700000000E+03    0.1131489697E-03    0.5603401288E-04    0.6922427404E+00    0.9369764955E-04    0.4193293533E-02
    0.3900000000E+03    0.1188122161E-03    0.5884772642E-04    0.6924334568E+00    0.9851998873E-04    0.4192300753E-02
    0.4100000000E+03    0.1244819464E-03    0.6166456720E-04    0.6926056529E+00    0.1033462888E-03    0.4191303526E-02
    0.4300000000E+03    0.1301590719E-03    0.6448499873E-04    0.6927619010E+00    0.1081775444E-03    0.4190302169E-02
    0.4500000000E+03    0.1358444420E-03    0.6730945203E-04    0.6929043183E+00    0.1130146627E-03    0.4189296932E-02
    0.4700000000E+03    0.1415388499E-03    0.7013832914E-04    0.6930346629E+00    0.1178584755E-03    0.4188288016E-02
    0.4900000000E+03    0.1472430391E-03    0.7297200613E-04    0.6931544073E+00    0.1227097491E-03    0.4187275580E-02
    0.1000000000E+03    0.3670420855E-04    0.1802953687E-04    0.6823459538E+00    0.2810407924E-04    0.4205560335E-02
    0.3000000000E+03    0.9336378468E-04    0.4620304486E-04    0.6913762591E+00    0.7683368275E-04    0.4196726452E-02
    0.5000000000E+03    0.1500990215E-03    0.7439075570E-04    0.6932107004E+00    0.1251384074E-03    0.4186768082E-02
    0.7000000000E+03    0.2078826418E-03    0.1030935962E-03    0.6939996632E+00    0.1742522105E-03    0.4176452296E-02
    0.9000000000E+03    0.2672521988E-03    0.1325821520E-03    0.6944386228E+00    0.2246986361E-03    0.4165828802E-02
    0.1100000000E+04    0.3285739170E-03    0.1630395807E-03    0.6947181620E+00    0.2768096458E-03    0.4154878684E-02
    0.1300000000E+04    0.3921435551E-03    0.1946133548E-03    0.6949117572E+00    0.3308452846E-03    0.4143569521E-02
    0.1500000000E+04    0.4582272263E-03    0.2274359596E-03    0.6950537473E+00    0.3870362783E-03    0.4131865132E-02
    0.1700000000E+04    0.5270812342E-03    0.2616348914E-03    0.6951623292E+00    0.4456034138E-03    0.4119727549E-02
    0.1900000000E+04    0.5989633286E-03    0.2973383085E-03    0.6952480449E+00    0.5067680811E-03    0.4107117184E-02
    0.2100000000E+04    0.6741400534E-03    0.3346787097E-03    0.6953174241E+00    0.5707589525E-03    0.4093992509E-02
    0.2300000000E+04    0.7528922104E-03    0.3737956624E-03    0.6953747265E+00    0.6378168457E-03    0.4080309602E-02
    0.2500000000E+04    0.8355194200E-03    0.4148380769E-03    0.6954228497E+00    0.7081987262E-03    0.4066021634E-02
    0.2700000000E+04    0.9223443094E-03    0.4579662920E-03    0.6954638332E+00    0.7821813520E-03    0.4051078346E-02
    0.2900000000E+04    0.1013716644E-02    0.5033541310E-03    0.6954991541E+00    0.8600648509E-03    0.4035425478E-02
    0.3100000000E+04    0.1110017614E-02    0.5511910334E-03    0.6955299084E+00    0.9421764242E-03    0.4019004173E-02
    0.3300000000E+04    0.1211664433E-02    0.6016843420E-03    0.6955569265E+00    0.1028874317E-02    0.4001750317E-02
    0.3500000000E+04    0.1319115384E-02    0.6550618133E-03    0.6955808491E+00    0.1120552175E-02    0.3983593822E-02
    0.3700000000E+04    0.1432875451E-02    0.7115744139E-03    0.6956021783E+00    0.1217643902E-02    0.3964457825E-02
    0.3900000000E+04    0.1553502639E-02    0.7714994661E-03    0.6956213134E+00    0.1320629119E-02    0.3944257792E-02
    0.4100000000E+04    0.1681615147E-02    0.8351442126E-03    0.6956385755E+00    0.1430039365E-02    0.3922900506E-02
    0.4300000000E+04    0.1817899526E-02    0.9028498721E-03    0.6956542262E+00    0.1546465141E-02    0.3900282933E-02
    0.4500000000E+04    0.1963119993E-02    0.9749962706E-03    0.6956684805E+00    0.1670563972E-02    0.3876290926E-02
    0.4700000000E+04    0.2118129085E-02    0.1052007139E-02    0.6956815167E+00    0.1803069622E-02    0.3850797763E-02
    0.4900000000E+04    0.2283879871E-02    0.1134356183E-02    0.6956934843E+00    0.1944802670E-02    0.3823662486E-02
    0.1000000000E+04    0.2976495312E-03    0.1476800238E-03    0.6945923526E+00    0.2505288011E-03    0.4160396461E-02
    0.3000000000E+04    0.1061225875E-02    0.5269539382E-03    0.6955150450E+00    0.9005705144E-03    0.4027314756E-02
    0.5000000000E+04    0.2371112120E-02    0.1177695909E-02    0.6956991074E+00    0.2019412582E-02    0.3809430652E-02
    0.7000000000E+04    0.5041418827E-02    0.2504550915E-02    0.6957776841E+00    0.4308018830E-02    0.3386353474E-02
    0.9000000000E+04    0.1158223608E-01    0.5755570494E-02    0.6958211533E+00    0.9940587556E-02    0.2416806458E-02
    0.1100000000E+05    0.2423269356E-01    0.1204721783E-01    0.6958486935E+00    0.2094582722E-01    0.7781557140E-03
    0.1300000000E+05    0.3201313345E-01    0.1592447277E-01    0.6958676733E+00    0.2793409136E-01    0.1335196866E-03
    0.1500000000E+05    0.3570469154E-01    0.1777137442E-01    0.6958815270E+00    0.3145949178E-01    0.6731344655E-04
    0.1700000000E+05    0.3864124948E-01    0.1924417501E-01    0.6958920708E+00    0.3437043744E-01    0.6236359387E-04
    0.1900000000E+05    0.4127441159E-01    0.2056715550E-01    0.6959003548E+00    0.3705085282E-01    0.6228831112E-04
    0.2100000000E+05    0.4367310490E-01    0.2177437861E-01    0.6959070281E+00    0.3955463770E-01    0.6259317908E-04
    0.2300000000E+05    0.4586802099E-01    0.2288092747E-01    0.6959125135E+00    0.4190340418E-01    0.6290636579E-04
    0.2500000000E+05    0.4788273811E-01    0.2389837947E-01    0.6959170981E+00    0.4411343858E-01    0.6319827726E-04
    0.2700000000E+05    0.4973717710E-01    0.2483651951E-01    0.6959209836E+00    0.4619856458E-01    0.6346927790E-04
    0.2900000000E+05    0.5144844732E-01    0.2570375580E-01    0.6959243159E+00    0.4817074695E-01    0.6372197774E-04
    0.3100000000E+05    0.5303134058E-01    0.2650736143E-01    0.6959272033E+00    0.5004041388E-01    0.6395872230E-04
    0.3300000000E+05    0.5449871034E-01    0.2725365974E-01    0.6959297273E+00    0.5181670092E-01    0.6418145268E-04
    0.3500000000E+05    0.5586177743E-01    0.2794817389E-01    0.6959319509E+00    0.5350764820E-01    0.6439177616E-04
    0.3700000000E+05    0.5713037967E-01    0.2859574882E-01    0.6959339236E+00    0.5512036218E-01    0.6459103673E-04
    0.3900000000E+05    0.5831317715E-01    0.2920065180E-01    0.6959356843E+00    0.5666114936E-01    0.6478036956E-04
    0.4100000000E+05    0.5941782213E-01    0.2976665552E-01    0.6959372646E+00    0.5813562744E-01    0.6496074221E-04
    0.4300000000E+05    0.6045110052E-01    0.3029710734E-01    0.6959386900E+00    0.5954881839E-01    0.6513298626E-04
    0.4500000000E+05    0.6141905012E-01    0.3079498724E-01    0.6959399815E+00    0.6090522663E-01    0.6529782172E-04
    0.4700000000E+05    0.6232706026E-01    0.3126295658E-01    0.6959411564E+00    0.6220890518E-01    0.6545587620E-04
    0.4900000000E+05    0.6317995584E-01    0.3170339929E-01    0.6959422293E+00    0.6346351181E-01    0.6560770016E-04
    0.1000000000E+05    0.1757673220E-01    0.8736096245E-02    0.6958363157E+00    0.1513244924E-01    0.1594850206E-02
    0.3000000000E+05    0.5225509619E-01    0.2611309688E-01    0.6959258096E+00    0.4911779609E-01    0.6384221436E-04
    0.5000000000E+05    0.6358710693E-01    0.3191397602E-01    0.6959427314E+00    0.6407346006E-01    0.6568142967E-04
    0.7000000000E+05    0.6968423418E-01    0.3509986429E-01    0.6959495698E+00    0.7435446808E-01    0.6692157861E-04
    0.9000000000E+05    0.7329008431E-01    0.3702986860E-01    0.6959531363E+00    0.8212045542E-01    0.6786305586E-04
    0.1100000000E+06    0.7553920975E-01    0.3826936230E-01    0.6959552561E+00    0.8834155006E-01    0.6862428799E-04
    0.1300000000E+06    0.7698058195E-01    0.3909357465E-01    0.6959566188E+00    0.9352668840E-01    0.6926449360E-04
    0.1500000000E+06    0.7790972280E-01    0.3965159343E-01    0.6959575405E+00    0.9797253992E-01    0.6981764225E-04
    0.1700000000E+06    0.7849851853E-01    0.4003069336E-01    0.6959581855E+00    0.1018657907E+00    0.7030506918E-04
    0.1900000000E+06    0.7885299590E-01    0.4028506936E-01    0.6959586470E+00    0.1053309476E+00    0.7074107043E-04
    0.2100000000E+06    0.7904164312E-01    0.4044997215E-01    0.6959589819E+00    0.1084549264E+00    0.7113570304E-04
    0.2300000000E+06    0.7911037192E-01    0.4054920370E-01    0.6959592263E+00    0.1113006742E+00    0.7149631592E-04
    0.2500000000E+06    0.7909090982E-01    0.4059933719E-01    0.6959594043E+00    0.1139151787E+00    0.7182844546E-04
    0.2700000000E+06    0.7900574418E-01    0.4061221251E-01    0.6959595326E+00    0.1163344128E+00    0.7213636840E-04
    0.2900000000E+06    0.7887115647E-01    0.4059647382E-01    0.6959596231E+00    0.1185865133E+00    0.7242345836E-04
    0.3100000000E+06    0.7869915038E-01    0.4055855039E-01    0.6959596842E+00    0.1206938959E+00    0.7269242434E-04
    0.3300000000E+06    0.7849871384E-01    0.4050330132E-01    0.6959597223E+00    0.1226747061E+00    0.7294547519E-04
    0.3500000000E+06    0.7827666696E-01    0.4043445033E-01    0.6959597422E+00    0.1245438378E+00    0.7318443602E-04
    0.3700000000E+06    0.7803824451E-01    0.4035488595E-01    0.6959597476E+00    0.1263136679E+00    0.7341083257E-04
    0.3900000000E+06    0.7778750437E-01    0.4026687270E-01    0.6959597412E+00    0.1279945938E+00    0.7362595354E-04
    0.4100000000E+06    0.7752761887E-01    0.4017220255E-01    0.6959597253E+00    0.1295954356E+00    0.7383089746E-04
    0.4300000000E+06    0.7726108606E-01    0.4007230520E-01    0.6959597018E+00    0.1311237408E+00    0.7402660849E-04
    0.4500000000E+06    0.7698988504E-01    0.3996832958E-01    0.6959596719E+00    0.1325860195E+00    0.7421390416E-04
    0.4700000000E+06    0.7671559167E-01    0.3986120477E-01    0.6959596368E+00    0.1339879268E+00    0.7439349715E-04
    0.4900000000E+06    0.7643946576E-01    0.3975168626E-01    0.6959595975E+00    0.1353344072E+00    0.7456601254E-04
    0.1000000000E+06    0.7454162436E-01    0.3771460214E-01    0.6959543208E+00    0.8538550837E-01    0.6826167805E-04
    0.3000000000E+06    0.7878920981E-01    0.4057995060E-01    0.6959596569E+00    0.1196570738E+00    0.7256005862E-04
    0.5000000000E+06    0.7630103955E-01    0.3969622685E-01    0.6959595766E+00    0.1359882421E+00    0.7464979099E-04
    0.7000000000E+06    0.7359634321E-01    0.3856318089E-01    0.6959590613E+00    0.1469818151E+00    0.7605902117E-04
    0.9000000000E+06    0.7115330474E-01    0.3749064482E-01    0.6959585060E+00    0.1553177593E+00    0.7712891317E-04
    0.1100000000E+07    0.6899336627E-01    0.3651861990E-01    0.6959579797E+00    0.1620416282E+00    0.7799399938E-04
    0.1300000000E+07    0.6707792743E-01    0.3564247783E-01    0.6959574945E+00    0.1676765827E+00    0.7872156031E-04
    0.1500000000E+07    0.6536582029E-01    0.3484992364E-01    0.6959570493E+00    0.1725240249E+00    0.7935019293E-04
    0.1700000000E+07    0.6382253170E-01    0.3412878749E-01    0.6959566401E+00    0.1767742880E+00    0.7990414000E-04
    0.1900000000E+07    0.6242052301E-01    0.3346861695E-01    0.6959562623E+00    0.1805556152E+00    0.8039964636E-04
    0.2100000000E+07    0.6113797682E-01    0.3286076913E-01    0.6959559120E+00    0.1839586961E+00    0.8084814031E-04
    0.2300000000E+07    0.5995750732E-01    0.3229815704E-01    0.6959555855E+00    0.1870501147E+00    0.8125797293E-04
    0.2500000000E+07    0.5886512041E-01    0.3177495640E-01    0.6959552801E+00    0.1898802456E+00    0.8163543572E-04
    0.2700000000E+07    0.5784942616E-01    0.3128635024E-01    0.6959549932E+00    0.1924881472E+00    0.8198538876E-04
    0.2900000000E+07    0.5690105182E-01    0.3082832337E-01    0.6959547227E+00    0.1949047297E+00    0.8231166590E-04
    0.3100000000E+07    0.5601220403E-01    0.3039750147E-01    0.6959544668E+00    0.1971548833E+00    0.8261734572E-04
    0.3300000000E+07    0.5517634001E-01    0.2999102599E-01    0.6959542242E+00    0.1992589512E+00    0.8290493843E-04
    0.3500000000E+07    0.5438791798E-01    0.2960645677E-01    0.6959539934E+00    0.2012337766E+00    0.8317651815E-04
    0.3700000000E+07    0.5364220576E-01    0.2924169584E-01    0.6959537733E+00    0.2030934636E+00    0.8343381882E-04
    0.3900000000E+07    0.5293513239E-01    0.2889492739E-01    0.6959535630E+00    0.2048499416E+00    0.8367830498E-04
    0.4100000000E+07    0.5226317177E-01    0.2856457002E-01    0.6959533617E+00    0.2065133912E+00    0.8391122506E-04
    0.4300000000E+07    0.5162325058E-01    0.2824923860E-01    0.6959531686E+00    0.2080925700E+00    0.8413365206E-04
    0.4500000000E+07    0.5101267468E-01    0.2794771339E-01    0.6959529830E+00    0.2095950661E+00    0.8434651509E-04
    0.4700000000E+07    0.5042906978E-01    0.2765891502E-01    0.6959528044E+00    0.2110274975E+00    0.8455062409E-04
    0.4900000000E+07    0.4987033314E-01    0.2738188391E-01    0.6959526323E+00    0.2123956703E+00    0.8474668943E-04
    0.1000000000E+07    0.7004005497E-01    0.3699199756E-01    0.6959582379E+00    0.1588412721E+00    0.7758191666E-04
    0.3000000000E+07    0.5644962209E-01    0.3060970129E-01    0.6959545930E+00    0.1960492460E+00    0.8246691203E-04
    0.5000000000E+07    0.4959969770E-01    0.2724750974E-01    0.6959525485E+00    0.2130572840E+00    0.8484190445E-04
    0.7000000000E+07    0.4513076274E-01    0.2501110222E-01    0.6959511224E+00    0.2238932246E+00    0.8644351089E-04
    0.9000000000E+07    0.4186731369E-01    0.2335739835E-01    0.6959500228E+00    0.2317203110E+00    0.8765945789E-04
    0.1100000000E+08    0.3932646111E-01    0.2205792986E-01    0.6959491256E+00    0.2377763690E+00    0.8864264114E-04
    0.1300000000E+08    0.3726400332E-01    0.2099541231E-01    0.6959483666E+00    0.2426725078E+00    0.8946952521E-04
    0.1500000000E+08    0.3553989073E-01    0.2010184319E-01    0.6959477081E+00    0.2467541352E+00    0.9018397588E-04
    0.1700000000E+08    0.3406666199E-01    0.1933438829E-01    0.6959471261E+00    0.2502348566E+00    0.9081354532E-04
    0.1900000000E+08    0.3278621225E-01    0.1866438914E-01    0.6959466042E+00    0.2532555828E+00    0.9137669600E-04
    0.2100000000E+08    0.3165807840E-01    0.1807176884E-01    0.6959461310E+00    0.2559139211E+00    0.9188641633E-04
    0.2300000000E+08    0.3065301711E-01    0.1754194211E-01    0.6959456979E+00    0.2582801213E+00    0.9235219743E-04
    0.2500000000E+08    0.2974924892E-01    0.1706399666E-01    0.6959452984E+00    0.2604063295E+00    0.9278118968E-04
    0.2700000000E+08    0.2893014513E-01    0.1662956685E-01    0.6959449277E+00    0.2623322513E+00    0.9317891666E-04
