  Pressure (Pa) 22mC5-500 (mol/kg) 23mC5-500 (mol/kg) 24mC5-500 (mol/kg) 2mC6-500 (mol/kg) C7-500 (mol/kg)
    0.1000000000E+01    0.7948786515E-05    0.1523079025E-05    0.3665729249E-01    0.2780831459E-04    0.4219078310E-02
    0.3000000000E+01    0.2100213098E-04    0.4019612946E-05    0.9946635768E-01    0.7184796599E-04    0.4318568504E-02
    0.5000000000E+01    0.3131851101E-04    0.5988594291E-05    0.1513224681E+00    0.1053684132E-03    0.4399215006E-02
    0.7000000000E+01    0.3962908558E-04    0.7571556955E-05    0.1948616545E+00    0.1314324282E-03    0.4467033135E-02
    0.9000000000E+01    0.4642712590E-04    0.8863855006E-05    0.2319368124E+00    0.1520459066E-03    0.4525002984E-02
    0.1100000000E+02    0.5206080246E-04    0.9932724106E-05    0.2638884289E+00    0.1685940416E-03    0.4575181007E-02
    0.1300000000E+02    0.5678281850E-04    0.1082691666E-04    0.2917102641E+00    0.1820614508E-03    0.4619072918E-02
    0.1500000000E+02    0.6078068602E-04    0.1158257303E-04    0.3161546513E+00    0.1931635236E-03    0.4657814216E-02
    0.1700000000E+02    0.6419615778E-04    0.1222698720E-04    0.3378016197E+00    0.2024295181E-03    0.4692279553E-02
    0.1900000000E+02    0.6713813096E-04    0.1278110590E-04    0.3571055529E+00    0.2102570713E-03    0.4723154365E-02
    0.2100000000E+02    0.6969144961E-04    0.1326123242E-04    0.3744274657E+00    0.2169489547E-03    0.4750983783E-02
    0.2300000000E+02    0.7192304732E-04    0.1368021500E-04    0.3900578163E+00    0.2227384267E-03    0.4776206980E-02
    0.2500000000E+02    0.7388631922E-04    0.1404829214E-04    0.4042329415E+00    0.2278070647E-03    0.4799181846E-02
    0.2700000000E+02    0.7562428841E-04    0.1437370450E-04    0.4171471027E+00    0.2322975229E-03    0.4820203037E-02
    0.2900000000E+02    0.7717193521E-04    0.1466314474E-04    0.4289614510E+00    0.2363227999E-03    0.4839515413E-02
    0.3100000000E+02    0.7855793471E-04    0.1492209295E-04    0.4398107941E+00    0.2399730627E-03    0.4857324167E-02
    0.3300000000E+02    0.7980596957E-04    0.1515506981E-04    0.4498087682E+00    0.2433207337E-03    0.4873802584E-02
    0.3500000000E+02    0.8093573326E-04    0.1536583009E-04    0.4590518380E+00    0.2464243259E-03    0.4889098033E-02
    0.3700000000E+02    0.8196370510E-04    0.1555751195E-04    0.4676224222E+00    0.2493313626E-03    0.4903336657E-02
    0.3900000000E+02    0.8290375468E-04    0.1573275329E-04    0.4755913604E+00    0.2520806228E-03    0.4916627081E-02
    0.4100000000E+02    0.8376761757E-04    0.1589378331E-04    0.4830198783E+00    0.2547038814E-03    0.4929063366E-02
    0.4300000000E+02    0.8456527275E-04    0.1604249510E-04    0.4899611648E+00    0.2572272693E-03    0.4940727376E-02
    0.4500000000E+02    0.8530524447E-04    0.1618050364E-04    0.4964616494E+00    0.2596723441E-03    0.4951690709E-02
    0.4700000000E+02    0.8599484540E-04    0.1630919248E-04    0.5025620424E+00    0.2620569388E-03    0.4962016262E-02
    0.4900000000E+02    0.8664037367E-04    0.1642975160E-04    0.5082981901E+00    0.2643958388E-03    0.4971759521E-02
    0.1000000000E+02    0.4937190026E-04    0.9422819819E-05    0.2484842819E+00    0.1607590558E-03    0.4550961549E-02
    0.3000000000E+02    0.7788355674E-04    0.1479612784E-04    0.4344992015E+00    0.2381899159E-03    0.4848596242E-02
    0.5000000000E+02    0.8694834151E-04    0.1648730914E-04    0.5110397200E+00    0.2655520762E-03    0.4976428369E-02
    0.7000000000E+02    0.9178660490E-04    0.1739841604E-04    0.5527858257E+00    0.2883408950E-03    0.5048634171E-02
    0.9000000000E+02    0.9548697469E-04    0.1810951521E-04    0.5790720058E+00    0.3126772331E-03    0.5095387438E-02
    0.1100000000E+03    0.9893763510E-04    0.1878419271E-04    0.5971453963E+00    0.3393297588E-03    0.5128224526E-02
    0.1300000000E+03    0.1024382679E-03    0.1947608513E-04    0.6103352696E+00    0.3681237016E-03    0.5152547346E-02
    0.1500000000E+03    0.1060953486E-03    0.2020331483E-04    0.6203854909E+00    0.3987540590E-03    0.5171238332E-02
    0.1700000000E+03    0.1099440055E-03    0.2097117660E-04    0.6282978892E+00    0.4309499793E-03    0.5185983531E-02
    0.1900000000E+03    0.1139914229E-03    0.2178010688E-04    0.6346890118E+00    0.4644990757E-03    0.5197838936E-02
    0.2100000000E+03    0.1182338335E-03    0.2262874886E-04    0.6399591016E+00    0.4992409702E-03    0.5207501864E-02
    0.2300000000E+03    0.1226635767E-03    0.2351519472E-04    0.6443793113E+00    0.5350560703E-03    0.5215452619E-02
    0.2500000000E+03    0.1272721099E-03    0.2443749652E-04    0.6481398667E+00    0.5718556269E-03    0.5222033605E-02
    0.2700000000E+03    0.1320512792E-03    0.2539386845E-04    0.6513781628E+00    0.6095740399E-03    0.5227495997E-02
    0.2900000000E+03    0.1369938146E-03    0.2638275517E-04    0.6541959146E+00    0.6481631535E-03    0.5232028532E-02
    0.3100000000E+03    0.1420934757E-03    0.2740284217E-04    0.6566700333E+00    0.6875880774E-03    0.5235775975E-02
    0.3300000000E+03    0.1473450428E-03    0.2845304219E-04    0.6588597532E+00    0.7278241277E-03    0.5238851337E-02
    0.3500000000E+03    0.1527442431E-03    0.2953247287E-04    0.6608114341E+00    0.7688545726E-03    0.5241344209E-02
    0.3700000000E+03    0.1582876569E-03    0.3064043288E-04    0.6625618789E+00    0.8106689609E-03    0.5243326564E-02
    0.3900000000E+03    0.1639726203E-03    0.3177637928E-04    0.6641406758E+00    0.8532618705E-03    0.5244856907E-02
    0.4100000000E+03    0.1697971365E-03    0.3293990728E-04    0.6655718835E+00    0.8966319638E-03    0.5245983287E-02
    0.4300000000E+03    0.1757597956E-03    0.3413073281E-04    0.6668752653E+00    0.9407812686E-03    0.5246745522E-02
    0.4500000000E+03    0.1818597059E-03    0.3534867761E-04    0.6680672068E+00    0.9857146274E-03    0.5247176876E-02
    0.4700000000E+03    0.1880964348E-03    0.3659365665E-04    0.6691614081E+00    0.1031439272E-02    0.5247305330E-02
    0.4900000000E+03    0.1944699590E-03    0.3786566761E-04    0.6701694119E+00    0.1077964495E-02    0.5247154562E-02
    0.1000000000E+03    0.9721783029E-04    0.1844676747E-04    0.5888743146E+00    0.3257178738E-03    0.5113124252E-02
    0.3000000000E+03    0.1395243539E-03    0.2688897167E-04    0.6554718767E+00    0.6677728914E-03    0.5233992695E-02
    0.5000000000E+03    0.1977081133E-03    0.3851182974E-04    0.6706442096E+00    0.1101530726E-02    0.5246980887E-02
    0.7000000000E+03    0.2699109085E-03    0.5290653661E-04    0.6773612252E+00    0.1618441346E-02    0.5232419919E-02
    0.9000000000E+03    0.3579431949E-03    0.7043665063E-04    0.6811491323E+00    0.2236780489E-02    0.5201202804E-02
    0.1100000000E+04    0.4657204577E-03    0.9188379509E-04    0.6835800534E+00    0.2986229066E-02    0.5155136493E-02
    0.1300000000E+04    0.5992927253E-03    0.1184527721E-03    0.6852718823E+00    0.3909844306E-02    0.5092829404E-02
    0.1500000000E+04    0.7676457203E-03    0.1519313177E-03    0.6865168633E+00    0.5070305787E-02    0.5010660867E-02
    0.1700000000E+04    0.9842088955E-03    0.1949903122E-03    0.6874711400E+00    0.6560654383E-02    0.4902526903E-02
    0.1900000000E+04    0.1269361626E-02    0.2516824422E-03    0.6882257165E+00    0.8521823802E-02    0.4758905807E-02
    0.2100000000E+04    0.1654343772E-02    0.3282203186E-03    0.6888372144E+00    0.1116996078E-01    0.4565311883E-02
    0.2300000000E+04    0.2186440546E-02    0.4340086782E-03    0.6893427073E+00    0.1483293027E-01    0.4300489928E-02
    0.2500000000E+04    0.2931925423E-02    0.5822325513E-03    0.6897674851E+00    0.1997233749E-01    0.3936566092E-02
    0.2700000000E+04    0.3960950086E-02    0.7868590903E-03    0.6901293904E+00    0.2708280007E-01    0.3449375373E-02
    0.2900000000E+04    0.5277399618E-02    0.1048697651E-02    0.6904413714E+00    0.3621206375E-01    0.2855161537E-02
    0.3100000000E+04    0.6702925221E-02    0.1332332442E-02    0.6907130516E+00    0.4615566691E-01    0.2259861967E-02
    0.3300000000E+04    0.7931808469E-02    0.1576991093E-02    0.6909517327E+00    0.5481266364E-01    0.1811449023E-02
    0.3500000000E+04    0.8818233308E-02    0.1753647854E-02    0.6911630546E+00    0.6115858781E-01    0.1557249150E-02
    0.3700000000E+04    0.9434754992E-02    0.1876689552E-02    0.6913514425E+00    0.6567172148E-01    0.1439724207E-02
    0.3900000000E+04    0.9898958030E-02    0.1969475099E-02    0.6915204172E+00    0.6915163944E-01    0.1391871002E-02
    0.4100000000E+04    0.1028659829E-01    0.2047060029E-02    0.6916728146E+00    0.7211697442E-01    0.1374513240E-02
    0.4300000000E+04    0.1063487010E-01    0.2116837574E-02    0.6918109448E+00    0.7482312566E-01    0.1369656694E-02
    0.4500000000E+04    0.1096038120E-01    0.2182108861E-02    0.6919367083E+00    0.7738412590E-01    0.1369768615E-02
    0.4700000000E+04    0.1127041474E-01    0.2244321088E-02    0.6920516827E+00    0.7984972478E-01    0.1371799737E-02
    0.4900000000E+04    0.1156826263E-01    0.2304127770E-02    0.6921571889E+00    0.8224207866E-01    0.1374529271E-02
    0.1000000000E+04    0.4090419299E-03    0.8060647533E-04    0.6824842168E+00    0.2592793504E-02    0.5180057926E-02
    0.3000000000E+04    0.5995784431E-02    0.1191617165E-02    0.6905817473E+00    0.4121368842E-01    0.2547621664E-02
    0.5000000000E+04    0.1171315410E-01    0.2333235494E-02    0.6922067464E+00    0.8341430926E-01    0.1375989661E-02
    0.7000000000E+04    0.1416304295E-01    0.2826983803E-02    0.6928976193E+00    0.1041973279E+00    0.1402577150E-02
    0.9000000000E+04    0.1596259698E-01    0.3192151794E-02    0.6932775010E+00    0.1210133426E+00    0.1422781464E-02
    0.1100000000E+05    0.1730946260E-01    0.3467538996E-02    0.6935165064E+00    0.1349381522E+00    0.1439031263E-02
    0.1300000000E+05    0.1833099477E-01    0.3678193351E-02    0.6936799843E+00    0.1466849164E+00    0.1452650254E-02
    0.1500000000E+05    0.1911277255E-01    0.3840980555E-02    0.6937983657E+00    0.1567475527E+00    0.1464388648E-02
    0.1700000000E+05    0.1971415117E-01    0.3967622816E-02    0.6938877184E+00    0.1654793210E+00    0.1474713704E-02
    0.1900000000E+05    0.2017740587E-01    0.4066487359E-02    0.6939573176E+00    0.1731398062E+00    0.1483936601E-02
    0.2100000000E+05    0.2053333492E-01    0.4143683554E-02    0.6940128865E+00    0.1799242076E+00    0.1492275226E-02
    0.2300000000E+05    0.2080481569E-01    0.4203760053E-02    0.6940581455E+00    0.1859822576E+00    0.1499888207E-02
    0.2500000000E+05    0.2100913106E-01    0.4250161379E-02    0.6940956153E+00    0.1914308208E+00    0.1506894687E-02
    0.2700000000E+05    0.2115953185E-01    0.4285534970E-02    0.6941270637E+00    0.1963625093E+00    0.1513386479E-02
    0.2900000000E+05    0.2126631069E-01    0.4311942467E-02    0.6941537659E+00    0.2008517140E+00    0.1519435855E-02
    0.3100000000E+05    0.2133755537E-01    0.4331008129E-02    0.6941766646E+00    0.2049589136E+00    0.1525100748E-02
    0.3300000000E+05    0.2137968695E-01    0.4344024985E-02    0.6941964712E+00    0.2087338116E+00    0.1530428322E-02
    0.3500000000E+05    0.2139785047E-01    0.4352032025E-02    0.6942137324E+00    0.2122176560E+00    0.1535457498E-02
    0.3700000000E+05    0.2139620288E-01    0.4355871138E-02    0.6942288748E+00    0.2154449827E+00    0.1540220772E-02
    0.3900000000E+05    0.2137812797E-01    0.4356229702E-02    0.6942422364E+00    0.2184449419E+00    0.1544745567E-02
    0.4100000000E+05    0.2134639889E-01    0.4353672807E-02    0.6942540880E+00    0.2212423198E+00    0.1549055236E-02
    0.4300000000E+05    0.2130330222E-01    0.4348667924E-02    0.6942646492E+00    0.2238583356E+00    0.1553169834E-02
    0.4500000000E+05    0.2125073389E-01    0.4341603965E-02    0.6942740998E+00    0.2263112683E+00    0.1557106713E-02
    0.4700000000E+05    0.2119027380E-01    0.4332806170E-02    0.6942825882E+00    0.2286169552E+00    0.1560880990E-02
    0.4900000000E+05    0.2112324453E-01    0.4322547813E-02    0.6942902383E+00    0.2307891919E+00    0.1564505917E-02
    0.1000000000E+05    0.1668343161E-01    0.3339262795E-02    0.6934093011E+00    0.1282862067E+00    0.1431299130E-02
    0.3000000000E+05    0.2130593959E-01    0.4322305471E-02    0.6941656418E+00    0.2029497359E+00    0.1522313195E-02
    0.5000000000E+05    0.2108762104E-01    0.4316944441E-02    0.6942937821E+00    0.2318290999E+00    0.1566266079E-02
    0.7000000000E+05    0.2022295870E-01    0.4168481503E-02    0.6943388487E+00    0.2478881680E+00    0.1595856022E-02
    0.9000000000E+05    0.1930105432E-01    0.4000587684E-02    0.6943583461E+00    0.2583714350E+00    0.1618302972E-02
    0.1100000000E+06    0.1844228058E-01    0.3840431850E-02    0.6943671845E+00    0.2658680628E+00    0.1636444531E-02
    0.1300000000E+06    0.1766808219E-01    0.3694015598E-02    0.6943708054E+00    0.2715543583E+00    0.1651697374E-02
    0.1500000000E+06    0.1697507167E-01    0.3561673525E-02    0.6943716114E+00    0.2760491695E+00    0.1664873347E-02
    0.1700000000E+06    0.1635397022E-01    0.3442182706E-02    0.6943708018E+00    0.2797122334E+00    0.1676482003E-02
    0.1900000000E+06    0.1579499773E-01    0.3334001569E-02    0.6943690284E+00    0.2827684030E+00    0.1686864607E-02
    0.2100000000E+06    0.1528937392E-01    0.3235655962E-02    0.6943666687E+00    0.2853662033E+00    0.1696261146E-02
    0.2300000000E+06    0.1482961363E-01    0.3145846737E-02    0.6943639514E+00    0.2876081040E+00    0.1704846928E-02
    0.2500000000E+06    0.1440945003E-01    0.3063463137E-02    0.6943610201E+00    0.2895673314E+00    0.1712753996E-02
    0.2700000000E+06    0.1402366062E-01    0.2987565769E-02    0.6943579679E+00    0.2912977558E+00    0.1720084327E-02
    0.2900000000E+06    0.1366788737E-01    0.2917361992E-02    0.6943548557E+00    0.2928399863E+00    0.1726918350E-02
    0.3100000000E+06    0.1333847855E-01    0.2852181789E-02    0.6943517244E+00    0.2942252780E+00    0.1733320642E-02
    0.3300000000E+06    0.1303235767E-01    0.2791456625E-02    0.6943486016E+00    0.2954781218E+00    0.1739343849E-02
    0.3500000000E+06    0.1274691749E-01    0.2734701770E-02    0.6943455057E+00    0.2966180097E+00    0.1745031467E-02
    0.3700000000E+06    0.1247993511E-01    0.2681501802E-02    0.6943424492E+00    0.2976606699E+00    0.1750419854E-02
    0.3900000000E+06    0.1222950403E-01    0.2631498818E-02    0.6943394403E+00    0.2986189486E+00    0.1755539716E-02
    0.4100000000E+06    0.1199397981E-01    0.2584382863E-02    0.6943364842E+00    0.2995034528E+00    0.1760417227E-02
    0.4300000000E+06    0.1177193623E-01    0.2539884151E-02    0.6943335842E+00    0.3003230260E+00    0.1765074879E-02
    0.4500000000E+06    0.1156212999E-01    0.2497766729E-02    0.6943307418E+00    0.3010851068E+00    0.1769532150E-02
    0.4700000000E+06    0.1136347192E-01    0.2457823282E-02    0.6943279579E+00    0.3017960024E+00    0.1773806016E-02
    0.4900000000E+06    0.1117500349E-01    0.2419870862E-02    0.6943252322E+00    0.3024610992E+00    0.1777911366E-02
    0.1000000000E+06    0.1886144766E-01    0.3918947870E-02    0.6943636494E+00    0.2624008699E+00    0.1627803650E-02
    0.3000000000E+06    0.1350009182E-01    0.2884181632E-02    0.6943532905E+00    0.2935505841E+00    0.1730169930E-02
    0.5000000000E+06    0.1108432175E-01    0.2401589898E-02    0.6943238910E+00    0.3027779460E+00    0.1779905012E-02
    0.7000000000E+06    0.9643960032E-02    0.2109431360E-02    0.6942998446E+00    0.3075554510E+00    0.1813437256E-02
    0.9000000000E+06    0.8659044828E-02    0.1907635930E-02    0.6942800813E+00    0.3105735578E+00    0.1838891961E-02
    0.1100000000E+07    0.7930083025E-02    0.1757153105E-02    0.6942633899E+00    0.3126922906E+00    0.1859472232E-02
    0.1300000000E+07    0.7361967569E-02    0.1639165753E-02    0.6942489595E+00    0.3142808697E+00    0.1876779691E-02
    0.1500000000E+07    0.6902796768E-02    0.1543323934E-02    0.6942362516E+00    0.3155269256E+00    0.1891733039E-02
    0.1700000000E+07    0.6521500440E-02    0.1463393035E-02    0.6942248964E+00    0.3165369939E+00    0.1904909265E-02
    0.1900000000E+07    0.6198178599E-02    0.1395359157E-02    0.6942146305E+00    0.3173765393E+00    0.1916694976E-02
    0.2100000000E+07    0.5919410551E-02    0.1336503289E-02    0.6942052602E+00    0.3180882492E+00    0.1927362139E-02
    0.2300000000E+07    0.5675768780E-02    0.1284908033E-02    0.6941966395E+00    0.3187012780E+00    0.1937109481E-02
    0.2500000000E+07    0.5460408440E-02    0.1239176473E-02    0.6941886550E+00    0.3192362911E+00    0.1946086711E-02
    0.2700000000E+07    0.5268222167E-02    0.1198263065E-02    0.6941812175E+00    0.3197083914E+00    0.1954409474E-02
    0.2900000000E+07    0.5095310415E-02    0.1161367274E-02    0.6941742554E+00    0.3201289012E+00    0.1962168993E-02
    0.3100000000E+07    0.4938636841E-02    0.1127864171E-02    0.6941677103E+00    0.3205064949E+00    0.1969438518E-02
    0.3300000000E+07    0.4795796835E-02    0.1097257672E-02    0.6941615340E+00    0.3208479429E+00    0.1976277774E-02
    0.3500000000E+07    0.4664857736E-02    0.1069148182E-02    0.6941556861E+00    0.3211586160E+00    0.1982736109E-02
    0.3700000000E+07    0.4544245867E-02    0.1043209658E-02    0.6941501328E+00    0.3214428354E+00    0.1988854776E-02
    0.3900000000E+07    0.4432664988E-02    0.1019173022E-02    0.6941448451E+00    0.3217041221E+00    0.1994668619E-02
    0.4100000000E+07    0.4329036320E-02    0.9968139326E-03    0.6941397981E+00    0.3219453768E+00    0.2000207340E-02
    0.4300000000E+07    0.4232453717E-02    0.9759436251E-03    0.6941349704E+00    0.3221690137E+00    0.2005496465E-02
    0.4500000000E+07    0.4142149641E-02    0.9564019512E-03    0.6941303432E+00    0.3223770603E+00    0.2010558099E-02
    0.4700000000E+07    0.4057469006E-02    0.9380520147E-03    0.6941259001E+00    0.3225712330E+00    0.2015411509E-02
    0.4900000000E+07    0.3977848808E-02    0.9207759908E-03    0.6941216267E+00    0.3227529963E+00    0.2020073595E-02
    0.1000000000E+07    0.8269941351E-02    0.1827435328E-02    0.6942714103E+00    0.3117160778E+00    0.1849669030E-02
    0.3000000000E+07    0.5015106801E-02    0.1144225227E-02    0.6941709340E+00    0.3203226016E+00    0.1965860997E-02
    0.5000000000E+07    0.3939781600E-02    0.9125082652E-03    0.6941195495E+00    0.3228396243E+00    0.2022337619E-02
    0.7000000000E+07    0.3354360512E-02    0.7846797739E-03    0.6940844527E+00    0.3241498173E+00    0.2060418658E-02
    0.9000000000E+07    0.2972318198E-02    0.7005012371E-03    0.6940576468E+00    0.3249830421E+00    0.2089327489E-02
    0.1100000000E+08    0.2697686987E-02    0.6395696251E-03    0.6940358961E+00    0.3255716716E+00    0.2112700880E-02
    0.1300000000E+08    0.2487937751E-02    0.5927716948E-03    0.6940175611E+00    0.3260155349E+00    0.2132357481E-02
    0.1500000000E+08    0.2320930156E-02    0.5553339618E-03    0.6940016932E+00    0.3263654761E+00    0.2149340550E-02
    0.1700000000E+08    0.2183846413E-02    0.5244788988E-03    0.6939876935E+00    0.3266504458E+00    0.2164305328E-02
    0.1900000000E+08    0.2068681408E-02    0.4984643736E-03    0.6939751590E+00    0.3268882873E+00    0.2177690870E-02
    0.2100000000E+08    0.1970142369E-02    0.4761342052E-03    0.6939638052E+00    0.3270906707E+00    0.2189806041E-02
    0.2300000000E+08    0.1884570532E-02    0.4566864910E-03    0.6939534239E+00    0.3272655901E+00    0.2200876534E-02
    0.2500000000E+08    0.1809344584E-02    0.4395449889E-03    0.6939438576E+00    0.3274187283E+00    0.2211072376E-02
    0.2700000000E+08    0.1742530481E-02    0.4242833825E-03    0.6939349846E+00    0.3275542498E+00    0.2220524907E-02
