  Pressure (Pa) 22mC5-500 (mol/kg) 23mC5-500 (mol/kg) 24mC5-500 (mol/kg) 2mC6-500 (mol/kg) C7-500 (mol/kg)
    0.1000000000E+01    0.8053094845E-05    0.4631220560E-05    0.3665903006E-01    0.2848425146E-04    0.4171767707E-02
    0.3000000000E+01    0.2123299204E-04    0.1219599212E-04    0.9947920291E-01    0.7333865726E-04    0.4212519410E-02
    0.5000000000E+01    0.3165872068E-04    0.1816785763E-04    0.1513523128E+00    0.1075582856E-03    0.4240436323E-02
    0.7000000000E+01    0.4007079776E-04    0.2297699173E-04    0.1949113247E+00    0.1342686019E-03    0.4263178760E-02
    0.9000000000E+01    0.4696529034E-04    0.2691112487E-04    0.2320074257E+00    0.1554947725E-03    0.4282355530E-02
    0.1100000000E+02    0.5269169942E-04    0.3017275874E-04    0.2639801397E+00    0.1726312834E-03    0.4298815264E-02
    0.1300000000E+02    0.5750351550E-04    0.3290862078E-04    0.2918226858E+00    0.1866682479E-03    0.4313120492E-02
    0.1500000000E+02    0.6158877965E-04    0.3522744788E-04    0.3162871020E+00    0.1983247136E-03    0.4325676895E-02
    0.1700000000E+02    0.6508962966E-04    0.3721135167E-04    0.3379532660E+00    0.2081325642E-03    0.4336789772E-02
    0.1900000000E+02    0.6811525786E-04    0.3892334819E-04    0.3572754964E+00    0.2164914183E-03    0.4346695157E-02
    0.2100000000E+02    0.7075074275E-04    0.4041248689E-04    0.3746147941E+00    0.2237055973E-03    0.4355579177E-02
    0.2300000000E+02    0.7306320892E-04    0.4171742606E-04    0.3902616330E+00    0.2300096036E-03    0.4363590917E-02
    0.2500000000E+02    0.7510621002E-04    0.4286897540E-04    0.4044523829E+00    0.2355860338E-03    0.4370851376E-02
    0.2700000000E+02    0.7692290267E-04    0.4389193616E-04    0.4173813474E+00    0.2405783897E-03    0.4377459874E-02
    0.2900000000E+02    0.7854838096E-04    0.4480645387E-04    0.4292097238E+00    0.2451003846E-03    0.4383498752E-02
    0.3100000000E+02    0.8001141790E-04    0.4562902679E-04    0.4400723671E+00    0.2492427942E-03    0.4389036889E-02
    0.3300000000E+02    0.8133578105E-04    0.4637326737E-04    0.4500829603E+00    0.2530785647E-03    0.4394132363E-02
    0.3500000000E+02    0.8254123813E-04    0.4705048389E-04    0.4593380129E+00    0.2566666629E-03    0.4398834506E-02
    0.3700000000E+02    0.8364433373E-04    0.4767012943E-04    0.4679199863E+00    0.2600550085E-03    0.4403185498E-02
    0.3900000000E+02    0.8465899517E-04    0.4824015189E-04    0.4758997602E+00    0.2632827291E-03    0.4407221631E-02
    0.4100000000E+02    0.8559700933E-04    0.4876726926E-04    0.4833385974E+00    0.2663819073E-03    0.4410974301E-02
    0.4300000000E+02    0.8646840105E-04    0.4925718793E-04    0.4902897216E+00    0.2693789479E-03    0.4414470816E-02
    0.4500000000E+02    0.8728173573E-04    0.4971477717E-04    0.4967995942E+00    0.2722956529E-03    0.4417735042E-02
    0.4700000000E+02    0.8804436307E-04    0.5014420954E-04    0.5029089553E+00    0.2751500748E-03    0.4420787933E-02
    0.4900000000E+02    0.8876261472E-04    0.5054907475E-04    0.5086536783E+00    0.2779571965E-03    0.4423647963E-02
    0.1000000000E+02    0.4995683864E-04    0.2861577492E-04    0.2485654657E+00    0.1645047485E-03    0.4290885244E-02
    0.3000000000E+02    0.7929861488E-04    0.4522832258E-04    0.4347542124E+00    0.2472141108E-03    0.4386326557E-02
    0.5000000000E+02    0.8910684023E-04    0.5074328025E-04    0.5113993564E+00    0.2793469992E-03    0.4425010839E-02
    0.7000000000E+02    0.9466044598E-04    0.5390151814E-04    0.5532129599E+00    0.3067585280E-03    0.4445267983E-02
    0.9000000000E+02    0.9906834253E-04    0.5645521911E-04    0.5795464762E+00    0.3356881983E-03    0.4457124629E-02
    0.1100000000E+03    0.1032285244E-03    0.5890093334E-04    0.5976551529E+00    0.3669616837E-03    0.4464396923E-02
    0.1300000000E+03    0.1074464091E-03    0.6140295783E-04    0.6108725314E+00    0.4004378794E-03    0.4468864413E-02
    0.1500000000E+03    0.1118322952E-03    0.6401791905E-04    0.6209449279E+00    0.4358346123E-03    0.4471472564E-02
    0.1700000000E+03    0.1164241208E-03    0.6676336350E-04    0.6288756786E+00    0.4728981357E-03    0.4472771810E-02
    0.1900000000E+03    0.1212312964E-03    0.6964191886E-04    0.6352823102E+00    0.5114298732E-03    0.4473105086E-02
    0.2100000000E+03    0.1262519260E-03    0.7265062385E-04    0.6405657310E+00    0.5512812494E-03    0.4472697498E-02
    0.2300000000E+03    0.1314799958E-03    0.7578473214E-04    0.6449975622E+00    0.5923432101E-03    0.4471703046E-02
    0.2500000000E+03    0.1369084663E-03    0.7903929235E-04    0.6487683694E+00    0.6345367360E-03    0.4470230652E-02
    0.2700000000E+03    0.1425305942E-03    0.8240978518E-04    0.6520158008E+00    0.6778054470E-03    0.4468359491E-02
    0.2900000000E+03    0.1483404630E-03    0.8589234920E-04    0.6548417640E+00    0.7221100999E-03    0.4466148421E-02
    0.3100000000E+03    0.1543331531E-03    0.8948382651E-04    0.6573233200E+00    0.7674245550E-03    0.4463642021E-02
    0.3300000000E+03    0.1605047510E-03    0.9318173243E-04    0.6595198206E+00    0.8137328232E-03    0.4460874577E-02
    0.3500000000E+03    0.1668522896E-03    0.9698419685E-04    0.6614777199E+00    0.8610268944E-03    0.4457872789E-02
    0.3700000000E+03    0.1733736641E-03    0.1008898987E-03    0.6632338974E+00    0.9093051313E-03    0.4454657661E-02
    0.3900000000E+03    0.1800675445E-03    0.1048980031E-03    0.6648180038E+00    0.9585710708E-03    0.4451245836E-02
    0.4100000000E+03    0.1869332934E-03    0.1090081053E-03    0.6662541497E+00    0.1008832525E-02    0.4447650573E-02
    0.4300000000E+03    0.1939708923E-03    0.1132201818E-03    0.6675621420E+00    0.1060100903E-02    0.4443882459E-02
    0.4500000000E+03    0.2011808787E-03    0.1175345489E-03    0.6687584027E+00    0.1112390692E-02    0.4439949950E-02
    0.4700000000E+03    0.2085642917E-03    0.1219518283E-03    0.6698566631E+00    0.1165719070E-02    0.4435859772E-02
    0.4900000000E+03    0.2161226266E-03    0.1264729177E-03    0.6708684925E+00    0.1220105601E-02    0.4431617235E-02
    0.1000000000E+03    0.1011532903E-03    0.5767740947E-04    0.5893676095E+00    0.3510334165E-03    0.4461194884E-02
    0.3000000000E+03    0.1513142230E-03    0.8767464414E-04    0.6561215336E+00    0.7446423108E-03    0.4464929790E-02
    0.5000000000E+03    0.2199679726E-03    0.1287727414E-03    0.6713451227E+00    0.1247702384E-02    0.4429440166E-02
    0.7000000000E+03    0.3067390419E-03    0.1806280124E-03    0.6780907339E+00    0.1861612744E-02    0.4378445327E-02
    0.9000000000E+03    0.4154686691E-03    0.2455412510E-03    0.6818979721E+00    0.2618436466E-02    0.4312723962E-02
    0.1100000000E+04    0.5531996897E-03    0.3277212779E-03    0.6843433293E+00    0.3569150904E-02    0.4229165792E-02
    0.1300000000E+04    0.7309794922E-03    0.4337614302E-03    0.6860466118E+00    0.4790919831E-02    0.4121983775E-02
    0.1500000000E+04    0.9659670813E-03    0.5738976931E-03    0.6873010558E+00    0.6402330489E-02    0.3982002788E-02
    0.1700000000E+04    0.1285101268E-02    0.7641980541E-03    0.6882633799E+00    0.8589073278E-02    0.3795020426E-02
    0.1900000000E+04    0.1730675469E-02    0.1029890235E-02    0.6890249490E+00    0.1164289521E-01    0.3539467657E-02
    0.2100000000E+04    0.2366053809E-02    0.1408778070E-02    0.6896426252E+00    0.1600232347E-01    0.3184939002E-02
    0.2300000000E+04    0.3269410875E-02    0.1947525802E-02    0.6901536497E+00    0.2221297466E-01    0.2699097701E-02
    0.2500000000E+04    0.4476640086E-02    0.2667639391E-02    0.6905834338E+00    0.3054052533E-01    0.2083145653E-02
    0.2700000000E+04    0.5849198536E-02    0.3486648356E-02    0.6909499104E+00    0.4006124474E-01    0.1438271527E-02
    0.2900000000E+04    0.7071610419E-02    0.4216495062E-02    0.6912660968E+00    0.4862189332E-01    0.9397748979E-03
    0.3100000000E+04    0.7959713234E-02    0.4747268510E-02    0.6915416708E+00    0.5494102841E-01    0.6590597349E-03
    0.3300000000E+04    0.8576340823E-02    0.5116313498E-02    0.6917839769E+00    0.5942675426E-01    0.5327594578E-03
    0.3500000000E+04    0.9042799146E-02    0.5395903227E-02    0.6919986897E+00    0.6289995011E-01    0.4824270730E-03
    0.3700000000E+04    0.9435798244E-02    0.5631760590E-02    0.6921902630E+00    0.6588341528E-01    0.4637380365E-03
    0.3900000000E+04    0.9791400311E-02    0.5845383930E-02    0.6923622410E+00    0.6862360732E-01    0.4573891351E-03
    0.4100000000E+04    0.1012500292E-01    0.6045951777E-02    0.6925174795E+00    0.7122564731E-01    0.4557364803E-03
    0.4300000000E+04    0.1044311770E-01    0.6237343781E-02    0.6926583054E+00    0.7373364067E-01    0.4558469365E-03
    0.4500000000E+04    0.1074863624E-01    0.6421280560E-02    0.6927866331E+00    0.7616677095E-01    0.4566035841E-03
    0.4700000000E+04    0.1104299152E-01    0.6598612786E-02    0.6929040530E+00    0.7853417453E-01    0.4575812038E-03
    0.4900000000E+04    0.1132702160E-01    0.6769836396E-02    0.6930118962E+00    0.8084090494E-01    0.4586181236E-03
    0.1000000000E+04    0.4801306786E-03    0.2841276378E-03    0.6832407358E+00    0.3065485477E-02    0.4273470084E-02
    0.3000000000E+04    0.7557336228E-02    0.4506706703E-02    0.6914084557E+00    0.5206253004E-01    0.7744640532E-03
    0.5000000000E+04    0.1146535334E-01    0.6853268806E-02    0.6930625846E+00    0.8197259977E-01    0.4591379228E-03
    0.7000000000E+04    0.1379630364E-01    0.8263867266E-02    0.6937721250E+00    0.1020053120E+00    0.4680814598E-03
    0.9000000000E+04    0.1549262621E-01    0.9297834960E-02    0.6941658073E+00    0.1181337620E+00    0.4748327505E-03
    0.1100000000E+05    0.1675231699E-01    0.1007182963E-01    0.6944157874E+00    0.1314435884E+00    0.4802627753E-03
    0.1300000000E+05    0.1770138378E-01    0.1066024532E-01    0.6945883897E+00    0.1426473024E+00    0.4848137962E-03
    0.1500000000E+05    0.1842343009E-01    0.1111254608E-01    0.6947145882E+00    0.1522327805E+00    0.4887364608E-03
    0.1700000000E+05    0.1897583575E-01    0.1146275566E-01    0.6948107843E+00    0.1605457670E+00    0.4921868841E-03
    0.1900000000E+05    0.1939911156E-01    0.1173495002E-01    0.6948864729E+00    0.1678384230E+00    0.4952690358E-03
    0.2100000000E+05    0.1972255117E-01    0.1194657963E-01    0.6949475300E+00    0.1742991939E+00    0.4980557158E-03
    0.2300000000E+05    0.1996777562E-01    0.1211055558E-01    0.6949977860E+00    0.1800718893E+00    0.5005999249E-03
    0.2500000000E+05    0.2015102848E-01    0.1223660209E-01    0.6950398442E+00    0.1852682691E+00    0.5029414728E-03
    0.2700000000E+05    0.2028470364E-01    0.1233215788E-01    0.6950755354E+00    0.1899765816E+00    0.5051110362E-03
    0.2900000000E+05    0.2037838724E-01    0.1240299183E-01    0.6951061843E+00    0.1942674979E+00    0.5071327639E-03
    0.3100000000E+05    0.2043958356E-01    0.1245363238E-01    0.6951327730E+00    0.1981983265E+00    0.5090260133E-03
    0.3300000000E+05    0.2047423041E-01    0.1248767287E-01    0.6951560451E+00    0.2018160645E+00    0.5108065438E-03
    0.3500000000E+05    0.2048707129E-01    0.1250799235E-01    0.6951765734E+00    0.2051596445E+00    0.5124873604E-03
    0.3700000000E+05    0.2048192832E-01    0.1251691770E-01    0.6951948068E+00    0.2082616147E+00    0.5140793218E-03
    0.3900000000E+05    0.2046190507E-01    0.1251634435E-01    0.6952111016E+00    0.2111494135E+00    0.5155915909E-03
    0.4100000000E+05    0.2042953932E-01    0.1250782726E-01    0.6952257442E+00    0.2138463480E+00    0.5170319710E-03
    0.4300000000E+05    0.2038691931E-01    0.1249265034E-01    0.6952389677E+00    0.2163723544E+00    0.5184071635E-03
    0.4500000000E+05    0.2033577320E-01    0.1247187990E-01    0.6952509635E+00    0.2187445956E+00    0.5197229670E-03
    0.4700000000E+05    0.2027753857E-01    0.1244640627E-01    0.6952618903E+00    0.2209779341E+00    0.5209844328E-03
    0.4900000000E+05    0.2021341691E-01    0.1241697644E-01    0.6952718805E+00    0.2230853114E+00    0.5221959888E-03
    0.1000000000E+05    0.1616792359E-01    0.9711943967E-02    0.6943033726E+00    0.1250899035E+00    0.4776789926E-03
    0.3000000000E+05    0.2041264342E-01    0.1243059270E-01    0.6951199350E+00    0.1962747737E+00    0.5080943903E-03
    0.5000000000E+05    0.2017947011E-01    0.1240097868E-01    0.6952765601E+00    0.2240953601E+00    0.5227842886E-03
    0.7000000000E+05    0.1936582065E-01    0.1198307409E-01    0.6953406694E+00    0.2398093648E+00    0.5326744013E-03
    0.9000000000E+05    0.1850484607E-01    0.1151392561E-01    0.6953745575E+00    0.2502158727E+00    0.5401773639E-03
    0.1100000000E+06    0.1770395900E-01    0.1106687495E-01    0.6953949976E+00    0.2577519534E+00    0.5462414369E-03
    0.1300000000E+06    0.1698173070E-01    0.1065795300E-01    0.6954083556E+00    0.2635315024E+00    0.5513400549E-03
    0.1500000000E+06    0.1633463726E-01    0.1028792657E-01    0.6954175616E+00    0.2681445750E+00    0.5557445336E-03
    0.1700000000E+06    0.1575400180E-01    0.9953390008E-02    0.6954241448E+00    0.2719365724E+00    0.5596251669E-03
    0.1900000000E+06    0.1523078285E-01    0.9650098196E-02    0.6954289778E+00    0.2751248575E+00    0.5630960091E-03
    0.2100000000E+06    0.1475689252E-01    0.9374001745E-02    0.6954325927E+00    0.2778539431E+00    0.5662372665E-03
    0.2300000000E+06    0.1432544453E-01    0.9121533627E-02    0.6954353311E+00    0.2802241468E+00    0.5691075315E-03
    0.2500000000E+06    0.1393067488E-01    0.8889643105E-02    0.6954374216E+00    0.2823075755E+00    0.5717509351E-03
    0.2700000000E+06    0.1356777878E-01    0.8675748334E-02    0.6954390227E+00    0.2841575684E+00    0.5742015613E-03
    0.2900000000E+06    0.1323274460E-01    0.8477668921E-02    0.6954402470E+00    0.2858145437E+00    0.5764862924E-03
    0.3100000000E+06    0.1292220849E-01    0.8293560009E-02    0.6954411768E+00    0.2873097629E+00    0.5786267118E-03
    0.3300000000E+06    0.1263333425E-01    0.8121854596E-02    0.6954418733E+00    0.2886678355E+00    0.5806404160E-03
    0.3500000000E+06    0.1236371622E-01    0.7961215304E-02    0.6954423828E+00    0.2899084349E+00    0.5825419432E-03
    0.3700000000E+06    0.1211130160E-01    0.7810494804E-02    0.6954427411E+00    0.2910475019E+00    0.5843434457E-03
    0.3900000000E+06    0.1187432825E-01    0.7668703628E-02    0.6954429761E+00    0.2920981085E+00    0.5860551872E-03
    0.4100000000E+06    0.1165127488E-01    0.7534984023E-02    0.6954431096E+00    0.2930710888E+00    0.5876859159E-03
    0.4300000000E+06    0.1144082098E-01    0.7408588679E-02    0.6954431593E+00    0.2939755087E+00    0.5892431507E-03
    0.4500000000E+06    0.1124181437E-01    0.7288863384E-02    0.6954431392E+00    0.2948190201E+00    0.5907334013E-03
    0.4700000000E+06    0.1105324491E-01    0.7175232804E-02    0.6954430608E+00    0.2956081322E+00    0.5921623424E-03
    0.4900000000E+06    0.1087422288E-01    0.7067188780E-02    0.6954429336E+00    0.2963484220E+00    0.5935349509E-03
    0.1000000000E+06    0.1809484892E-01    0.1128604397E-01    0.6953859395E+00    0.2542555630E+00    0.5433530776E-03
    0.3000000000E+06    0.1307460268E-01    0.8383971992E-02    0.6954407445E+00    0.2865807019E+00    0.5775733602E-03
    0.5000000000E+06    0.1078804261E-01    0.7015118877E-02    0.6954428542E+00    0.2967017876E+00    0.5942015226E-03
    0.7000000000E+06    0.9415260803E-02    0.6180507941E-02    0.6954400158E+00    0.3020880599E+00    0.6054132938E-03
    0.9000000000E+06    0.8472133544E-02    0.5601255648E-02    0.6954363364E+00    0.3055524205E+00    0.6139246965E-03
    0.1100000000E+07    0.7771675436E-02    0.5167761945E-02    0.6954326408E+00    0.3080165727E+00    0.6208064793E-03
    0.1300000000E+07    0.7224298297E-02    0.4826939118E-02    0.6954291344E+00    0.3098831331E+00    0.6265940594E-03
    0.1500000000E+07    0.6780921865E-02    0.4549469274E-02    0.6954258614E+00    0.3113594403E+00    0.6315945653E-03
    0.1700000000E+07    0.6412072170E-02    0.4317634036E-02    0.6954228174E+00    0.3125644888E+00    0.6360008932E-03
    0.1900000000E+07    0.6098821838E-02    0.4119995064E-02    0.6954199839E+00    0.3135720562E+00    0.6399422953E-03
    0.2100000000E+07    0.5828377453E-02    0.3948786072E-02    0.6954173394E+00    0.3144306194E+00    0.6435096977E-03
    0.2300000000E+07    0.5591734655E-02    0.3798519422E-02    0.6954148633E+00    0.3151735076E+00    0.6467695419E-03
    0.2500000000E+07    0.5382344665E-02    0.3665190072E-02    0.6954125373E+00    0.3158244848E+00    0.6497718819E-03
    0.2700000000E+07    0.5195313621E-02    0.3545795692E-02    0.6954103451E+00    0.3164010091E+00    0.6525553830E-03
    0.2900000000E+07    0.5026899908E-02    0.3438034301E-02    0.6954082727E+00    0.3169162306E+00    0.6551505456E-03
    0.3100000000E+07    0.4874186577E-02    0.3340106602E-02    0.6954063081E+00    0.3173802671E+00    0.6575818612E-03
    0.3300000000E+07    0.4734860992E-02    0.3250582634E-02    0.6954044407E+00    0.3178010469E+00    0.6598692991E-03
    0.3500000000E+07    0.4607062515E-02    0.3168309348E-02    0.6954026615E+00    0.3181848817E+00    0.6620293596E-03
    0.3700000000E+07    0.4489274689E-02    0.3092345032E-02    0.6954009626E+00    0.3185368668E+00    0.6640758364E-03
    0.3900000000E+07    0.4380247317E-02    0.3021911806E-02    0.6953993369E+00    0.3188611666E+00    0.6660203801E-03
    0.4100000000E+07    0.4278939107E-02    0.2956360583E-02    0.6953977785E+00    0.3191612221E+00    0.6678729219E-03
    0.4300000000E+07    0.4184474740E-02    0.2895144792E-02    0.6953962819E+00    0.3194399048E+00    0.6696419975E-03
    0.4500000000E+07    0.4096112269E-02    0.2837800383E-02    0.6953948424E+00    0.3196996320E+00    0.6713349978E-03
    0.4700000000E+07    0.4013218033E-02    0.2783930417E-02    0.6953934558E+00    0.3199424557E+00    0.6729583658E-03
    0.4900000000E+07    0.3935247106E-02    0.2733193034E-02    0.6953921181E+00    0.3201701299E+00    0.6745177523E-03
    0.1000000000E+07    0.8098506335E-02    0.5370388398E-02    0.6954344716E+00    0.3068777338E+00    0.6175283824E-03
    0.3000000000E+07    0.4948737350E-02    0.3387938027E-02    0.6954072776E+00    0.3171541079E+00    0.6563853443E-03
    0.5000000000E+07    0.3897958003E-02    0.2708904916E-02    0.6953914666E+00    0.3202787661E+00    0.6752750333E-03
    0.7000000000E+07    0.3323645882E-02    0.2332811034E-02    0.6953803446E+00    0.3219322012E+00    0.6880129875E-03
    0.9000000000E+07    0.2947973922E-02    0.2084552482E-02    0.6953717338E+00    0.3229944396E+00    0.6976834248E-03
    0.1100000000E+08    0.2677485952E-02    0.1904558642E-02    0.6953646914E+00    0.3237502717E+00    0.7055025211E-03
    0.1300000000E+08    0.2470652508E-02    0.1766147072E-02    0.6953587240E+00    0.3243233539E+00    0.7120784811E-03
    0.1500000000E+08    0.2305811147E-02    0.1655313457E-02    0.6953535406E+00    0.3247771614E+00    0.7177602089E-03
    0.1700000000E+08    0.2170401770E-02    0.1563896541E-02    0.6953489547E+00    0.3251480597E+00    0.7227668484E-03
    0.1900000000E+08    0.2056570664E-02    0.1486771017E-02    0.6953448399E+00    0.3254585750E+00    0.7272452440E-03
    0.2100000000E+08    0.1959119930E-02    0.1420531923E-02    0.6953411064E+00    0.3257235029E+00    0.7312987000E-03
    0.2300000000E+08    0.1874453323E-02    0.1362815591E-02    0.6953376877E+00    0.3259530153E+00    0.7350027041E-03
    0.2500000000E+08    0.1799992425E-02    0.1311922222E-02    0.6953345337E+00    0.3261543660E+00    0.7384141262E-03
    0.2700000000E+08    0.1733833616E-02    0.1266593441E-02    0.6953316054E+00    0.3263328857E+00    0.7415768972E-03
