  Pressure (Pa) 22mC5-500 (mol/kg) 23mC5-500 (mol/kg) 24mC5-500 (mol/kg) 2mC6-500 (mol/kg) C7-500 (mol/kg)
    0.1000000000E+01    0.5529542251E-05    0.5284899516E-06    0.2142729234E+00    0.4655977070E-05    0.4204666103E-02
    0.3000000000E+01    0.9412006263E-05    0.8960607199E-06    0.3978222198E+00    0.7510070709E-05    0.4244424913E-02
    0.5000000000E+01    0.1084247458E-04    0.1030400941E-05    0.4800700295E+00    0.8591649081E-05    0.4262178082E-02
    0.7000000000E+01    0.1161162672E-04    0.1102841214E-05    0.5267424961E+00    0.9358136743E-05    0.4272554952E-02
    0.9000000000E+01    0.1215084081E-04    0.1154219655E-05    0.5568170568E+00    0.1007969280E-04    0.4279460040E-02
    0.1100000000E+02    0.1260159910E-04    0.1197765560E-05    0.5778110223E+00    0.1081776463E-04    0.4284434409E-02
    0.1300000000E+02    0.1301868878E-04    0.1238523685E-05    0.5932975986E+00    0.1158451253E-04    0.4288215853E-02
    0.1500000000E+02    0.1342543951E-04    0.1278598533E-05    0.6051926363E+00    0.1237912211E-04    0.4291204177E-02
    0.1700000000E+02    0.1383225821E-04    0.1318900955E-05    0.6146156976E+00    0.1319763065E-04    0.4293635843E-02
    0.1900000000E+02    0.1424378380E-04    0.1359816754E-05    0.6222648197E+00    0.1403578170E-04    0.4295660171E-02
    0.2100000000E+02    0.1466193727E-04    0.1401488988E-05    0.6285978332E+00    0.1488981574E-04    0.4297376383E-02
    0.2300000000E+02    0.1508731941E-04    0.1443945878E-05    0.6339275017E+00    0.1575661662E-04    0.4298853161E-02
    0.2500000000E+02    0.1551988630E-04    0.1487161781E-05    0.6384747614E+00    0.1663366259E-04    0.4300139668E-02
    0.2700000000E+02    0.1595928809E-04    0.1531087231E-05    0.6424001172E+00    0.1751892953E-04    0.4301272096E-02
    0.2900000000E+02    0.1640504291E-04    0.1575664011E-05    0.6458229823E+00    0.1841079459E-04    0.4302277726E-02
    0.3100000000E+02    0.1685662690E-04    0.1620832705E-05    0.6488340372E+00    0.1930795364E-04    0.4303177551E-02
    0.3300000000E+02    0.1731352037E-04    0.1666536368E-05    0.6515033813E+00    0.2020935469E-04    0.4303988007E-02
    0.3500000000E+02    0.1777523042E-04    0.1712722176E-05    0.6538860582E+00    0.2111414529E-04    0.4304722170E-02
    0.3700000000E+02    0.1824130103E-04    0.1759342010E-05    0.6560258920E+00    0.2202163150E-04    0.4305390582E-02
    0.3900000000E+02    0.1871131629E-04    0.1806352492E-05    0.6579582071E+00    0.2293124581E-04    0.4306001851E-02
    0.4100000000E+02    0.1918490006E-04    0.1853714757E-05    0.6597117938E+00    0.2384252216E-04    0.4306563078E-02
    0.4300000000E+02    0.1966171387E-04    0.1901394087E-05    0.6613103518E+00    0.2475507631E-04    0.4307080182E-02
    0.4500000000E+02    0.2014145393E-04    0.1949359524E-05    0.6627735684E+00    0.2566859037E-04    0.4307558142E-02
    0.4700000000E+02    0.2062384795E-04    0.1997583465E-05    0.6641179327E+00    0.2658280058E-04    0.4308001178E-02
    0.4900000000E+02    0.2110865191E-04    0.2046041294E-05    0.6653573597E+00    0.2749748752E-04    0.4308412892E-02
    0.1000000000E+02    0.1238275736E-04    0.1176553615E-05    0.5681710866E+00    0.1044539195E-04    0.4282131315E-02
    0.3000000000E+02    0.1663013918E-04    0.1598178012E-05    0.6473751973E+00    0.1885878334E-04    0.4302739746E-02
    0.5000000000E+02    0.2135188836E-04    0.2070350956E-05    0.6659414875E+00    0.2795495137E-04    0.4308607990E-02
    0.7000000000E+02    0.2630078906E-04    0.2564597858E-05    0.6742280793E+00    0.3709835756E-04    0.4311431483E-02
    0.9000000000E+02    0.3134260162E-04    0.3067556186E-05    0.6789211572E+00    0.4619768675E-04    0.4313014960E-02
    0.1100000000E+03    0.3642671941E-04    0.3574326640E-05    0.6819416032E+00    0.5524276542E-04    0.4313941801E-02
    0.1300000000E+03    0.4153176329E-04    0.4082886689E-05    0.6840483041E+00    0.6423941392E-04    0.4314467079E-02
    0.1500000000E+03    0.4664809369E-04    0.4592349646E-05    0.6856013784E+00    0.7319634456E-04    0.4314723227E-02
    0.1700000000E+03    0.5177133785E-04    0.5102330773E-05    0.6867936857E+00    0.8212201821E-04    0.4314787156E-02
    0.1900000000E+03    0.5689967420E-04    0.5612684632E-05    0.6877378291E+00    0.9102392513E-04    0.4314707212E-02
    0.2100000000E+03    0.6203258042E-04    0.6123385370E-05    0.6885039682E+00    0.9990852427E-04    0.4314515632E-02
    0.2300000000E+03    0.6717021423E-04    0.6634468186E-05    0.6891380946E+00    0.1087813567E-03    0.4314234909E-02
    0.2500000000E+03    0.7231309067E-04    0.7145999205E-05    0.6896716130E+00    0.1176471897E-03    0.4313881322E-02
    0.2700000000E+03    0.7746190732E-04    0.7658059396E-05    0.6901266992E+00    0.1265101504E-03    0.4313467005E-02
    0.2900000000E+03    0.8261744712E-04    0.8170735797E-05    0.6905194584E+00    0.1353738377E-03    0.4313001225E-02
    0.3100000000E+03    0.8778052362E-04    0.8684116672E-05    0.6908618692E+00    0.1442414143E-03    0.4312491210E-02
    0.3300000000E+03    0.9295195006E-04    0.9198288879E-05    0.6911630257E+00    0.1531156803E-03    0.4311942695E-02
    0.3500000000E+03    0.9813252221E-04    0.9713336471E-05    0.6914299564E+00    0.1619991330E-03    0.4311360304E-02
    0.3700000000E+03    0.1033230092E-03    0.1022934002E-04    0.6916681793E+00    0.1708940152E-03    0.4310747810E-02
    0.3900000000E+03    0.1085241494E-03    0.1074637637E-04    0.6918820866E+00    0.1798023540E-03    0.4310108332E-02
    0.4100000000E+03    0.1137366485E-03    0.1126451860E-04    0.6920752183E+00    0.1887259928E-03    0.4309444473E-02
    0.4300000000E+03    0.1189611801E-03    0.1178383615E-04    0.6922504590E+00    0.1976666176E-03    0.4308758425E-02
    0.4500000000E+03    0.1241983865E-03    0.1230439500E-04    0.6924101831E+00    0.2066257789E-03    0.4308052049E-02
    0.4700000000E+03    0.1294488804E-03    0.1282625792E-04    0.6925563627E+00    0.2156049093E-03    0.4307326937E-02
    0.4900000000E+03    0.1347132469E-03    0.1334948465E-04    0.6926906492E+00    0.2246053396E-03    0.4306584462E-02
    0.1000000000E+03    0.3388110440E-04    0.3320629814E-05    0.6805791123E+00    0.5072678156E-04    0.4313540354E-02
    0.3000000000E+03    0.8519799219E-04    0.8427332693E-05    0.6906963326E+00    0.1398069571E-03    0.4312751359E-02
    0.5000000000E+03    0.1373508080E-03    0.1361162736E-04    0.6927537767E+00    0.2291139332E-03    0.4306207089E-02
    0.7000000000E+03    0.1909548504E-03    0.1893872009E-04    0.6936383156E+00    0.3206690927E-03    0.4297966967E-02
    0.9000000000E+03    0.2464685320E-03    0.2445501385E-04    0.6941301413E+00    0.4154217274E-03    0.4288725441E-02
    0.1100000000E+04    0.3042421549E-03    0.3019562241E-04    0.6944431188E+00    0.5140238037E-03    0.4278702447E-02
    0.1300000000E+04    0.3645827554E-03    0.3619119633E-04    0.6946597030E+00    0.6170230035E-03    0.4267977057E-02
    0.1500000000E+04    0.4277843144E-03    0.4247102497E-04    0.6948184253E+00    0.7249339336E-03    0.4256570604E-02
    0.1700000000E+04    0.4941439096E-03    0.4906467651E-04    0.6949397014E+00    0.8382721177E-03    0.4244475091E-02
    0.1900000000E+04    0.5639719023E-03    0.5600302491E-04    0.6950353569E+00    0.9575739410E-03    0.4231664756E-02
    0.2100000000E+04    0.6375994788E-03    0.6331900630E-04    0.6951127147E+00    0.1083410701E-02    0.4218101238E-02
    0.2300000000E+04    0.7153850736E-03    0.7104826104E-04    0.6951765512E+00    0.1216400195E-02    0.4203735923E-02
    0.2500000000E+04    0.7977204719E-03    0.7922974229E-04    0.6952301146E+00    0.1357217519E-02    0.4188510882E-02
    0.2700000000E+04    0.8850370663E-03    0.8790633925E-04    0.6952756905E+00    0.1506606014E-02    0.4172359014E-02
    0.2900000000E+04    0.9778125995E-03    0.9712554822E-04    0.6953149341E+00    0.1665389010E-02    0.4155203678E-02
    0.3100000000E+04    0.1076578662E-02    0.1069402186E-03    0.6953490731E+00    0.1834482840E-02    0.4136957955E-02
    0.3300000000E+04    0.1181929200E-02    0.1174093990E-03    0.6953790374E+00    0.2014911596E-02    0.4117523595E-02
    0.3500000000E+04    0.1294530286E-02    0.1285993094E-03    0.6954055444E+00    0.2207824066E-02    0.4096789663E-02
    0.3700000000E+04    0.1415131447E-02    0.1405844674E-03    0.6954291562E+00    0.2414513378E-02    0.4074630884E-02
    0.3900000000E+04    0.1544578874E-02    0.1534490022E-03    0.6954503193E+00    0.2636439899E-02    0.4050905646E-02
    0.4100000000E+04    0.1683830879E-02    0.1672881917E-03    0.6954693932E+00    0.2875258060E-02    0.4025453638E-02
    0.4300000000E+04    0.1833976058E-02    0.1822102692E-03    0.6954866704E+00    0.3132847875E-02    0.3998093054E-02
    0.4500000000E+04    0.1996254658E-02    0.1983385481E-03    0.6955023913E+00    0.3411352058E-02    0.3968617301E-02
    0.4700000000E+04    0.2172083753E-02    0.2158139266E-03    0.6955167553E+00    0.3713219774E-02    0.3936791145E-02
    0.4900000000E+04    0.2363086908E-02    0.2347978377E-03    0.6955299292E+00    0.4041258235E-02    0.3902346194E-02
    0.1000000000E+04    0.2750531004E-03    0.2729530526E-04    0.6943022895E+00    0.4642060217E-03    0.4283804793E-02
    0.3000000000E+04    0.1026411262E-02    0.1019549162E-03    0.6953325777E+00    0.1748585777E-02    0.4146222976E-02
    0.5000000000E+04    0.2464851053E-02    0.2449123984E-03    0.6955361148E+00    0.4216081397E-02    0.3884047454E-02
    0.7000000000E+04    0.5980494004E-02    0.5943946193E-03    0.6956221601E+00    0.1027149549E-01    0.3270709232E-02
    0.9000000000E+04    0.1609141179E-01    0.1599948393E-02    0.6956692860E+00    0.2781513868E-01    0.1658714886E-02
    0.1100000000E+05    0.2695248778E-01    0.2681599451E-02    0.6956988366E+00    0.4708695842E-01    0.3393265269E-03
    0.1300000000E+05    0.3100028458E-01    0.3086554720E-02    0.6957189868E+00    0.5479881490E-01    0.2109443046E-03
    0.1500000000E+05    0.3390246949E-01    0.3377891482E-02    0.6957335353E+00    0.6061959877E-01    0.2062689399E-03
    0.1700000000E+05    0.3645597801E-01    0.3634795606E-02    0.6957444844E+00    0.6591249873E-01    0.2073850657E-03
    0.1900000000E+05    0.3874328866E-01    0.3865413076E-02    0.6957529882E+00    0.7080485923E-01    0.2086534982E-03
    0.2100000000E+05    0.4080150451E-01    0.4073386720E-02    0.6957597579E+00    0.7534779325E-01    0.2098169673E-03
    0.2300000000E+05    0.4265988860E-01    0.4261588976E-02    0.6957652552E+00    0.7958131219E-01    0.2108810412E-03
    0.2500000000E+05    0.4434296388E-01    0.4432428376E-02    0.6957697927E+00    0.8353923384E-01    0.2118610737E-03
    0.2700000000E+05    0.4587150097E-01    0.4587946228E-02    0.6957735892E+00    0.8725048350E-01    0.2127696340E-03
    0.2900000000E+05    0.4726320682E-01    0.4729883875E-02    0.6957768025E+00    0.9073996551E-01    0.2136166856E-03
    0.3100000000E+05    0.4853326342E-01    0.4859735334E-02    0.6957795491E+00    0.9402924606E-01    0.2144102313E-03
    0.3300000000E+05    0.4969475714E-01    0.4978789253E-02    0.6957819169E+00    0.9713710025E-01    0.2151567958E-03
    0.3500000000E+05    0.5075902382E-01    0.5088162647E-02    0.6957839731E+00    0.1000799544E+00    0.2158617700E-03
    0.3700000000E+05    0.5173592821E-01    0.5188828229E-02    0.6957857705E+00    0.1028722466E+00    0.2165296596E-03
    0.3900000000E+05    0.5263409200E-01    0.5281636717E-02    0.6957873506E+00    0.1055267219E+00    0.2171642703E-03
    0.4100000000E+05    0.5346108086E-01    0.5367335142E-02    0.6957887467E+00    0.1080546770E+00    0.2177688458E-03
    0.4300000000E+05    0.5422355904E-01    0.5446581984E-02    0.6957899858E+00    0.1104661628E+00    0.2183461736E-03
    0.4500000000E+05    0.5492741767E-01    0.5519959740E-02    0.6957910900E+00    0.1127701538E+00    0.2188986675E-03
    0.4700000000E+05    0.5557788206E-01    0.5587985430E-02    0.6957920774E+00    0.1149746904E+00    0.2194284314E-03
    0.4900000000E+05    0.5617960157E-01    0.5651119416E-02    0.6957929634E+00    0.1170869994E+00    0.2199373105E-03
    0.1000000000E+05    0.2281192928E-01    0.2268847563E-02    0.6956855933E+00    0.3962681328E-01    0.7439836598E-03
    0.3000000000E+05    0.4791257867E-01    0.4796235455E-02    0.6957782281E+00    0.9240839774E-01    0.2140197088E-03
    0.5000000000E+05    0.5646349639E-01    0.5680982248E-02    0.6957933723E+00    0.1181106298E+00    0.2201844344E-03
    0.7000000000E+05    0.6038501717E-01    0.6101079109E-02    0.6957984443E+00    0.1350275929E+00    0.2243410784E-03
    0.9000000000E+05    0.6225578181E-01    0.6312698771E-02    0.6958004684E+00    0.1473598555E+00    0.2274966088E-03
    0.1100000000E+06    0.6308615174E-01    0.6417018570E-02    0.6958012464E+00    0.1569399041E+00    0.2300479902E-03
    0.1300000000E+06    0.6334203770E-01    0.6461092564E-02    0.6958014286E+00    0.1647091296E+00    0.2321937181E-03
    0.1500000000E+06    0.6326288307E-01    0.6469325108E-02    0.6958012987E+00    0.1712073630E+00    0.2340476535E-03
    0.1700000000E+06    0.6298159123E-01    0.6455397287E-02    0.6958009963E+00    0.1767697115E+00    0.2356813082E-03
    0.1900000000E+06    0.6257625021E-01    0.6427435943E-02    0.6958005963E+00    0.1816170466E+00    0.2371425995E-03
    0.2100000000E+06    0.6209476012E-01    0.6390487282E-02    0.6958001410E+00    0.1859019353E+00    0.2384652363E-03
    0.2300000000E+06    0.6156748610E-01    0.6347794482E-02    0.6957996558E+00    0.1897338076E+00    0.2396738501E-03
    0.2500000000E+06    0.6101416394E-01    0.6301498838E-02    0.6957991561E+00    0.1931936160E+00    0.2407869976E-03
    0.2700000000E+06    0.6044785867E-01    0.6253044024E-02    0.6957986516E+00    0.1963428099E+00    0.2418190130E-03
    0.2900000000E+06    0.5987732773E-01    0.6203418915E-02    0.6957981484E+00    0.1992290635E+00    0.2427812038E-03
    0.3100000000E+06    0.5930848079E-01    0.6153308544E-02    0.6957976504E+00    0.2018900618E+00    0.2436826498E-03
    0.3300000000E+06    0.5874530778E-01    0.6103190747E-02    0.6957971601E+00    0.2043560798E+00    0.2445307542E-03
    0.3500000000E+06    0.5819048378E-01    0.6053399602E-02    0.6957966791E+00    0.2066517857E+00    0.2453316343E-03
    0.3700000000E+06    0.5764577162E-01    0.6004168001E-02    0.6957962082E+00    0.2087975320E+00    0.2460904038E-03
    0.3900000000E+06    0.5711229491E-01    0.5955656753E-02    0.6957957479E+00    0.2108102964E+00    0.2468113821E-03
    0.4100000000E+06    0.5659072606E-01    0.5907974817E-02    0.6957952983E+00    0.2127043826E+00    0.2474982510E-03
    0.4300000000E+06    0.5608141768E-01    0.5861193577E-02    0.6957948596E+00    0.2144919482E+00    0.2481541750E-03
    0.4500000000E+06    0.5558449530E-01    0.5815357032E-02    0.6957944315E+00    0.2161834099E+00    0.2487818942E-03
    0.4700000000E+06    0.5509992365E-01    0.5770489162E-02    0.6957940138E+00    0.2177877580E+00    0.2493837972E-03
    0.4900000000E+06    0.5462755433E-01    0.5726599293E-02    0.6957936063E+00    0.2193128028E+00    0.2499619791E-03
    0.1000000000E+06    0.6276437589E-01    0.6374579789E-02    0.6958009594E+00    0.1524221227E+00    0.2288326523E-03
    0.3000000000E+06    0.5959240770E-01    0.6178390536E-02    0.6957978985E+00    0.2005856779E+00    0.2432390231E-03
    0.5000000000E+06    0.5439587691E-01    0.5705021013E-02    0.6957934062E+00    0.2200477538E+00    0.2502427607E-03
    0.7000000000E+06    0.5032904405E-01    0.5321465694E-02    0.6957898592E+00    0.2318656703E+00    0.2549657406E-03
    0.9000000000E+06    0.4711894405E-01    0.5013422610E-02    0.6957869821E+00    0.2401672911E+00    0.2585514135E-03
    0.1100000000E+07    0.4450904355E-01    0.4760088071E-02    0.6957845692E+00    0.2464683139E+00    0.2614506758E-03
    0.1300000000E+07    0.4233152806E-01    0.4546908909E-02    0.6957824921E+00    0.2514890684E+00    0.2638890218E-03
    0.1500000000E+07    0.4047653480E-01    0.4364063585E-02    0.6957806683E+00    0.2556262072E+00    0.2659958109E-03
    0.1700000000E+07    0.3886961196E-01    0.4204771949E-02    0.6957790423E+00    0.2591203095E+00    0.2678522934E-03
    0.1900000000E+07    0.3745846321E-01    0.4064209339E-02    0.6957775746E+00    0.2621276764E+00    0.2695129141E-03
    0.2100000000E+07    0.3620516585E-01    0.3938842481E-02    0.6957762368E+00    0.2647552325E+00    0.2710159749E-03
    0.2300000000E+07    0.3508145687E-01    0.3826017207E-02    0.6957750073E+00    0.2670791286E+00    0.2723894644E-03
    0.2500000000E+07    0.3406577309E-01    0.3723695181E-02    0.6957738695E+00    0.2691553813E+00    0.2736544685E-03
    0.2700000000E+07    0.3314132818E-01    0.3630280701E-02    0.6957728104E+00    0.2710263059E+00    0.2748272756E-03
    0.2900000000E+07    0.3229482468E-01    0.3544503530E-02    0.6957718197E+00    0.2727245862E+00    0.2759207349E-03
    0.3100000000E+07    0.3151556746E-01    0.3465337603E-02    0.6957708888E+00    0.2742759491E+00    0.2769451639E-03
    0.3300000000E+07    0.3079483868E-01    0.3391943312E-02    0.6957700108E+00    0.2757009770E+00    0.2779089757E-03
    0.3500000000E+07    0.3012544772E-01    0.3323625712E-02    0.6957691798E+00    0.2770163719E+00    0.2788191214E-03
    0.3700000000E+07    0.2950140080E-01    0.3259803674E-02    0.6957683910E+00    0.2782358561E+00    0.2796814124E-03
    0.3900000000E+07    0.2891765435E-01    0.3199986763E-02    0.6957676401E+00    0.2793708290E+00    0.2805007569E-03
    0.4100000000E+07    0.2836992810E-01    0.3143757638E-02    0.6957669236E+00    0.2804308537E+00    0.2812813389E-03
    0.4300000000E+07    0.2785456146E-01    0.3090758479E-02    0.6957662385E+00    0.2814240241E+00    0.2820267546E-03
    0.4500000000E+07    0.2736840175E-01    0.3040680387E-02    0.6957655820E+00    0.2823572449E+00    0.2827401179E-03
    0.4700000000E+07    0.2690871632E-01    0.2993255024E-02    0.6957649517E+00    0.2832364497E+00    0.2834241430E-03
    0.4900000000E+07    0.2647312255E-01    0.2948247942E-02    0.6957643457E+00    0.2840667707E+00    0.2840812109E-03
    0.1000000000E+07    0.4575116178E-01    0.4880961359E-02    0.6957857270E+00    0.2435121441E+00    0.2600696178E-03
    0.3000000000E+07    0.3189737553E-01    0.3504150453E-02    0.6957713472E+00    0.2735172423E+00    0.2764410136E-03
    0.5000000000E+07    0.2626369718E-01    0.2926585915E-02    0.6957640511E+00    0.2844650184E+00    0.2844003018E-03
    0.7000000000E+07    0.2294630735E-01    0.2581357643E-02    0.6957590780E+00    0.2906954622E+00    0.2897676852E-03
    0.9000000000E+07    0.2068060593E-01    0.2343196664E-02    0.6957552836E+00    0.2948731492E+00    0.2938425929E-03
    0.1100000000E+08    0.1900094274E-01    0.2165296631E-02    0.6957522065E+00    0.2979335224E+00    0.2971374360E-03
    0.1300000000E+08    0.1768866299E-01    0.2025460753E-02    0.6957496138E+00    0.3003042175E+00    0.2999084743E-03
    0.1500000000E+08    0.1662521303E-01    0.1911563484E-02    0.6957473705E+00    0.3022129895E+00    0.3023027169E-03
    0.1700000000E+08    0.1573981382E-01    0.1816321654E-02    0.6957453918E+00    0.3037940521E+00    0.3044124999E-03
    0.1900000000E+08    0.1498716976E-01    0.1735050593E-02    0.6957436205E+00    0.3051324377E+00    0.3062996967E-03
    0.2100000000E+08    0.1433672757E-01    0.1664576480E-02    0.6957420162E+00    0.3062850430E+00    0.3080078355E-03
    0.2300000000E+08    0.1376700879E-01    0.1602659566E-02    0.6957405495E+00    0.3072916007E+00    0.3095687236E-03
    0.2500000000E+08    0.1326240235E-01    0.1547666355E-02    0.6957391981E+00    0.3081808281E+00    0.3110063241E-03
    0.2700000000E+08    0.1281124542E-01    0.1498372695E-02    0.6957379448E+00    0.3089740770E+00    0.3123391479E-03
