  Pressure (Pa) 22mC5-500 (mol/kg) 23mC5-500 (mol/kg) 24mC5-500 (mol/kg) 2mC6-500 (mol/kg) C7-500 (mol/kg)
    0.1000000000E+01    0.1024198134E-04    0.2208793785E-05    0.6964977183E-01    0.3408986203E-04    0.4147391563E-02
    0.3000000000E+01    0.2450529328E-04    0.5274832618E-05    0.1740800069E+00    0.7879622565E-04    0.4178172446E-02
    0.5000000000E+01    0.3395794355E-04    0.7299478807E-05    0.2486430970E+00    0.1067595472E-03    0.4190487631E-02
    0.7000000000E+01    0.4058779966E-04    0.8714898624E-05    0.3045510581E+00    0.1255154550E-03    0.4198408606E-02
    0.9000000000E+01    0.4544381845E-04    0.9748645382E-05    0.3480277786E+00    0.1388589421E-03    0.4204101237E-02
    0.1100000000E+02    0.4912948673E-04    0.1053136957E-04    0.3828054019E+00    0.1488782390E-03    0.4208403727E-02
    0.1300000000E+02    0.5201363977E-04    0.1114275572E-04    0.4112578827E+00    0.1567917294E-03    0.4211753414E-02
    0.1500000000E+02    0.5433248422E-04    0.1163372530E-04    0.4349673237E+00    0.1633423938E-03    0.4214412793E-02
    0.1700000000E+02    0.5624307076E-04    0.1203806001E-04    0.4550287390E+00    0.1689992795E-03    0.4216552688E-02
    0.1900000000E+02    0.5785308874E-04    0.1237887045E-04    0.4722241205E+00    0.1740667992E-03    0.4218290388E-02
    0.2100000000E+02    0.5923830863E-04    0.1267237827E-04    0.4871268352E+00    0.1787469501E-03    0.4219709639E-02
    0.2300000000E+02    0.6045322044E-04    0.1293022013E-04    0.5001668523E+00    0.1831761658E-03    0.4220872072E-02
    0.2500000000E+02    0.6153775124E-04    0.1316090052E-04    0.5116729380E+00    0.1874478844E-03    0.4221824167E-02
    0.2700000000E+02    0.6252163485E-04    0.1337073561E-04    0.5219007780E+00    0.1916267658E-03    0.4222601697E-02
    0.2900000000E+02    0.6342732860E-04    0.1356448231E-04    0.5310522165E+00    0.1957578718E-03    0.4223232677E-02
    0.3100000000E+02    0.6427200480E-04    0.1374576723E-04    0.5392887205E+00    0.1998727196E-03    0.4223739375E-02
    0.3300000000E+02    0.6506893782E-04    0.1391738502E-04    0.5467409958E+00    0.2039933489E-03    0.4224139728E-02
    0.3500000000E+02    0.6582848766E-04    0.1408150953E-04    0.5535159807E+00    0.2081350993E-03    0.4224448349E-02
    0.3700000000E+02    0.6655880846E-04    0.1423984577E-04    0.5597020130E+00    0.2123085338E-03    0.4224677267E-02
    0.3900000000E+02    0.6726636629E-04    0.1439374074E-04    0.5653727067E+00    0.2165207882E-03    0.4224836478E-02
    0.4100000000E+02    0.6795632255E-04    0.1454426538E-04    0.5705898966E+00    0.2207765280E-03    0.4224934361E-02
    0.4300000000E+02    0.6863282109E-04    0.1469227585E-04    0.5754059043E+00    0.2250786334E-03    0.4224977986E-02
    0.4500000000E+02    0.6929920572E-04    0.1483845982E-04    0.5798652997E+00    0.2294286942E-03    0.4224973370E-02
    0.4700000000E+02    0.6995818646E-04    0.1498337188E-04    0.5840062857E+00    0.2338273694E-03    0.4224925657E-02
    0.4900000000E+02    0.7061196784E-04    0.1512746073E-04    0.5878617960E+00    0.2382746504E-03    0.4224839280E-02
    0.1000000000E+02    0.4740591769E-04    0.1016554209E-04    0.3663321577E+00    0.1441935123E-03    0.4206393305E-02
    0.3000000000E+02    0.6385638601E-04    0.1365649115E-04    0.5352760377E+00    0.1978157659E-03    0.4223500352E-02
    0.5000000000E+02    0.7093748452E-04    0.1519931302E-04    0.5896915685E+00    0.2405163815E-03    0.4224782810E-02
    0.7000000000E+02    0.7746925031E-04    0.1665196116E-04    0.6165625074E+00    0.2876652159E-03    0.4222329077E-02
    0.9000000000E+02    0.8433541652E-04    0.1819003230E-04    0.6325802988E+00    0.3383818066E-03    0.4218375614E-02
    0.1100000000E+03    0.9163170820E-04    0.1982821552E-04    0.6432160248E+00    0.3917176481E-03    0.4213646537E-02
    0.1300000000E+03    0.9933405014E-04    0.2155859474E-04    0.6507923348E+00    0.4471158683E-03    0.4208444400E-02
    0.1500000000E+03    0.1074050312E-03    0.2337173336E-04    0.6564634319E+00    0.5042655179E-03    0.4202915900E-02
    0.1700000000E+03    0.1158132205E-03    0.2526012379E-04    0.6608677655E+00    0.5629953185E-03    0.4197139223E-02
    0.1900000000E+03    0.1245354107E-03    0.2721836094E-04    0.6643871701E+00    0.6232148082E-03    0.4191158631E-02
    0.2100000000E+03    0.1335554618E-03    0.2924274521E-04    0.6672640249E+00    0.6848821691E-03    0.4185000049E-02
    0.2300000000E+03    0.1428627589E-03    0.3133087399E-04    0.6696595944E+00    0.7479861568E-03    0.4178678784E-02
    0.2500000000E+03    0.1524509156E-03    0.3348132095E-04    0.6716853421E+00    0.8125356039E-03    0.4172203651E-02
    0.2700000000E+03    0.1623167952E-03    0.3569340134E-04    0.6734207770E+00    0.8785531285E-03    0.4165579296E-02
    0.2900000000E+03    0.1724597941E-03    0.3796700373E-04    0.6749241395E+00    0.9460712611E-03    0.4158807580E-02
    0.3100000000E+03    0.1828813234E-03    0.4030246970E-04    0.6762390675E+00    0.1015130010E-02    0.4151888425E-02
    0.3300000000E+03    0.1935844338E-03    0.4270050763E-04    0.6773989026E+00    0.1085775305E-02    0.4144820352E-02
    0.3500000000E+03    0.2045735432E-03    0.4516213060E-04    0.6784295586E+00    0.1158058010E-02    0.4137600837E-02
    0.3700000000E+03    0.2158542387E-03    0.4768861166E-04    0.6793514802E+00    0.1232033278E-02    0.4130226536E-02
    0.3900000000E+03    0.2274331339E-03    0.5028145149E-04    0.6801810139E+00    0.1307760169E-02    0.4122693450E-02
    0.4100000000E+03    0.2393177647E-03    0.5294235526E-04    0.6809313857E+00    0.1385301411E-02    0.4114997026E-02
    0.4300000000E+03    0.2515165166E-03    0.5567321628E-04    0.6816134122E+00    0.1464723294E-02    0.4107132230E-02
    0.4500000000E+03    0.2640385741E-03    0.5847610485E-04    0.6822360248E+00    0.1546095636E-02    0.4099093595E-02
    0.4700000000E+03    0.2768938879E-03    0.6135326099E-04    0.6828066638E+00    0.1629491811E-02    0.4090875256E-02
    0.4900000000E+03    0.2900931555E-03    0.6430709037E-04    0.6833315767E+00    0.1714988833E-02    0.4082470963E-02
    0.1000000000E+03    0.8793050537E-04    0.1899697794E-04    0.6383858088E+00    0.3647645613E-03    0.4216083782E-02
    0.3000000000E+03    0.1776355866E-03    0.3912696727E-04    0.6756028717E+00    0.9804053127E-03    0.4155366497E-02
    0.5000000000E+03    0.2968253173E-03    0.6581355414E-04    0.6835785698E+00    0.1758550250E-02    0.4078197029E-02
    0.7000000000E+03    0.4527878738E-03    0.1006999261E-03    0.6870556990E+00    0.2762397185E-02    0.3981106197E-02
    0.9000000000E+03    0.6620878867E-03    0.1474975997E-03    0.6890031115E+00    0.4102654174E-02    0.3854945441E-02
    0.1100000000E+04    0.9530493708E-03    0.2125426453E-03    0.6902482746E+00    0.5962657314E-02    0.3684785295E-02
    0.1300000000E+04    0.1374469293E-02    0.3067474718E-03    0.6911130140E+00    0.8656599502E-02    0.3445928581E-02
    0.1500000000E+04    0.2010504195E-02    0.4489329653E-03    0.6917485631E+00    0.1272693068E-01    0.3097985911E-02
    0.1700000000E+04    0.2993098529E-02    0.6686165640E-03    0.6922353718E+00    0.1902852775E-01    0.2583707486E-02
    0.1900000000E+04    0.4445714839E-02    0.9934535169E-03    0.6926201809E+00    0.2837794877E-01    0.1869157879E-02
    0.2100000000E+04    0.6215075892E-02    0.1389271936E-02    0.6929320039E+00    0.3983756033E-01    0.1081837942E-02
    0.2300000000E+04    0.7751282921E-02    0.1733180205E-02    0.6931898035E+00    0.4990418276E-01    0.5149024677E-03
    0.2500000000E+04    0.8783430476E-02    0.1964543455E-02    0.6934064969E+00    0.5680854205E-01    0.2520555507E-03
    0.2700000000E+04    0.9485500931E-02    0.2122186557E-02    0.6935911872E+00    0.6163258567E-01    0.1589391223E-03
    0.2900000000E+04    0.1004011603E-01    0.2246912538E-02    0.6937504744E+00    0.6553551880E-01    0.1294324055E-03
    0.3100000000E+04    0.1053006285E-01    0.2357223900E-02    0.6938892606E+00    0.6904543708E-01    0.1205315747E-03
    0.3300000000E+04    0.1098549114E-01    0.2459858504E-02    0.6940112628E+00    0.7235449158E-01    0.1180342283E-03
    0.3500000000E+04    0.1141711257E-01    0.2557208427E-02    0.6941193506E+00    0.7553015617E-01    0.1175098374E-03
    0.3700000000E+04    0.1182909270E-01    0.2650201996E-02    0.6942157748E+00    0.7859780217E-01    0.1175893949E-03
    0.3900000000E+04    0.1222341642E-01    0.2739279978E-02    0.6943023256E+00    0.8156879396E-01    0.1178480338E-03
    0.4100000000E+04    0.1260131707E-01    0.2824715232E-02    0.6943804448E+00    0.8444972216E-01    0.1181531451E-03
    0.4300000000E+04    0.1296374396E-01    0.2906717289E-02    0.6944513063E+00    0.8724543094E-01    0.1184634426E-03
    0.4500000000E+04    0.1331151782E-01    0.2985467123E-02    0.6945158760E+00    0.8996002341E-01    0.1187664546E-03
    0.4700000000E+04    0.1364538465E-01    0.3061129192E-02    0.6945749555E+00    0.9259720594E-01    0.1190588543E-03
    0.4900000000E+04    0.1396603603E-01    0.3133855958E-02    0.6946292160E+00    0.9516041396E-01    0.1193401998E-03
    0.1000000000E+04    0.7949345788E-03    0.1771965750E-03    0.6896873809E+00    0.4952056287E-02    0.3776616928E-02
    0.3000000000E+04    0.1029057984E-01    0.2303290482E-02    0.6938221747E+00    0.6732305496E-01    0.1236588457E-03
    0.5000000000E+04    0.1412160946E-01    0.3169163482E-02    0.6946547194E+00    0.9641529051E-01    0.1194768499E-03
    0.7000000000E+04    0.1667641898E-01    0.3751466200E-02    0.6950117871E+00    0.1183169887E+00    0.1217693234E-03
    0.9000000000E+04    0.1844463319E-01    0.4158325196E-02    0.6952100766E+00    0.1355314023E+00    0.1235023607E-03
    0.1100000000E+05    0.1969504723E-01    0.4449215626E-02    0.6953361484E+00    0.1494703496E+00    0.1249001593E-03
    0.1300000000E+05    0.2059082279E-01    0.4660333323E-02    0.6954233278E+00    0.1610244872E+00    0.1260738484E-03
    0.1500000000E+05    0.2123599336E-01    0.4814819655E-02    0.6954871743E+00    0.1707844398E+00    0.1270868042E-03
    0.1700000000E+05    0.2169956654E-01    0.4928068044E-02    0.6955359271E+00    0.1791579428E+00    0.1279786731E-03
    0.1900000000E+05    0.2202882554E-01    0.5010656775E-02    0.6955743565E+00    0.1864359511E+00    0.1287759438E-03
    0.2100000000E+05    0.2225705687E-01    0.5070055407E-02    0.6956054156E+00    0.1928319285E+00    0.1294972095E-03
    0.2300000000E+05    0.2240823588E-01    0.5111661054E-02    0.6956310299E+00    0.1985062252E+00    0.1301560332E-03
    0.2500000000E+05    0.2249997242E-01    0.5139450918E-02    0.6956525086E+00    0.2035817632E+00    0.1307626185E-03
    0.2700000000E+05    0.2254542103E-01    0.5156406130E-02    0.6956707725E+00    0.2081544522E+00    0.1313248382E-03
    0.2900000000E+05    0.2255455335E-01    0.5164794566E-02    0.6956864886E+00    0.2123002934E+00    0.1318488970E-03
    0.3100000000E+05    0.2253502579E-01    0.5166364046E-02    0.6957001514E+00    0.2160803437E+00    0.1323397729E-03
    0.3300000000E+05    0.2249278376E-01    0.5162477103E-02    0.6957121354E+00    0.2195442568E+00    0.1328015220E-03
    0.3500000000E+05    0.2243249009E-01    0.5154206724E-02    0.6957227293E+00    0.2227328569E+00    0.1332374938E-03
    0.3700000000E+05    0.2235783398E-01    0.5142405517E-02    0.6957321595E+00    0.2256800420E+00    0.1336504869E-03
    0.3900000000E+05    0.2227175702E-01    0.5127756415E-02    0.6957406058E+00    0.2284142113E+00    0.1340428639E-03
    0.4100000000E+05    0.2217662086E-01    0.5110810357E-02    0.6957482128E+00    0.2309593514E+00    0.1344166380E-03
    0.4300000000E+05    0.2207433301E-01    0.5092014628E-02    0.6957550982E+00    0.2333358733E+00    0.1347735389E-03
    0.4500000000E+05    0.2196644241E-01    0.5071734414E-02    0.6957613587E+00    0.2355612641E+00    0.1351150636E-03
    0.4700000000E+05    0.2185421265E-01    0.5050269371E-02    0.6957670746E+00    0.2376505998E+00    0.1354425170E-03
    0.4900000000E+05    0.2173867861E-01    0.5027866468E-02    0.6957723129E+00    0.2396169538E+00    0.1357570430E-03
    0.1000000000E+05    0.1912258858E-01    0.4315611760E-02    0.6952794325E+00    0.1428457199E+00    0.1242346574E-03
    0.3000000000E+05    0.2254796608E-01    0.5166338763E-02    0.6956935509E+00    0.2142327058E+00    0.1320982106E-03
    0.5000000000E+05    0.2167994446E-01    0.5016378610E-02    0.6957747710E+00    0.2405576321E+00    0.1359097782E-03
    0.7000000000E+05    0.2047281136E-01    0.4771751655E-02    0.6958088367E+00    0.2550403325E+00    0.1384782793E-03
    0.9000000000E+05    0.1935045660E-01    0.4536495998E-02    0.6958273319E+00    0.2644664045E+00    0.1404276517E-03
    0.1100000000E+06    0.1836512339E-01    0.4326430968E-02    0.6958388197E+00    0.2712036444E+00    0.1420035679E-03
    0.1300000000E+06    0.1750665166E-01    0.4141381053E-02    0.6958465733E+00    0.2763162524E+00    0.1433287974E-03
    0.1500000000E+06    0.1675534684E-01    0.3978110094E-02    0.6958521104E+00    0.2803610251E+00    0.1444737370E-03
    0.1700000000E+06    0.1609279433E-01    0.3833198647E-02    0.6958562292E+00    0.2836606727E+00    0.1454825891E-03
    0.1900000000E+06    0.1550375808E-01    0.3703680694E-02    0.6958593885E+00    0.2864165839E+00    0.1463849670E-03
    0.2100000000E+06    0.1497603018E-01    0.3587117091E-02    0.6958618706E+00    0.2887616776E+00    0.1472016997E-03
    0.2300000000E+06    0.1449988203E-01    0.3481530830E-02    0.6958638580E+00    0.2907876267E+00    0.1479480062E-03
    0.2500000000E+06    0.1406752796E-01    0.3385320323E-02    0.6958654740E+00    0.2925599405E+00    0.1486353505E-03
    0.2700000000E+06    0.1367268772E-01    0.3297181507E-02    0.6958668049E+00    0.2941268198E+00    0.1492725880E-03
    0.2900000000E+06    0.1331024876E-01    0.3216044772E-02    0.6958679124E+00    0.2955246109E+00    0.1498667033E-03
    0.3100000000E+06    0.1297600995E-01    0.3141025685E-02    0.6958688422E+00    0.2967812985E+00    0.1504233051E-03
    0.3300000000E+06    0.1266648757E-01    0.3071386939E-02    0.6958696285E+00    0.2979188202E+00    0.1509469660E-03
    0.3500000000E+06    0.1237876784E-01    0.3006508995E-02    0.6958702975E+00    0.2989546440E+00    0.1514414644E-03
    0.3700000000E+06    0.1211039391E-01    0.2945867343E-02    0.6958708696E+00    0.2999028720E+00    0.1519099585E-03
    0.3900000000E+06    0.1185927862E-01    0.2889014771E-02    0.6958713609E+00    0.3007750278E+00    0.1523551161E-03
    0.4100000000E+06    0.1162363645E-01    0.2835567447E-02    0.6958717841E+00    0.3015806312E+00    0.1527792110E-03
    0.4300000000E+06    0.1140193004E-01    0.2785193894E-02    0.6958721497E+00    0.3023276235E+00    0.1531841976E-03
    0.4500000000E+06    0.1119282773E-01    0.2737606203E-02    0.6958724661E+00    0.3030226876E+00    0.1535717681E-03
    0.4700000000E+06    0.1099516962E-01    0.2692552958E-02    0.6958727402E+00    0.3036714927E+00    0.1539433975E-03
    0.4900000000E+06    0.1080794011E-01    0.2649813514E-02    0.6958729777E+00    0.3042788831E+00    0.1543003797E-03
    0.1000000000E+06    0.1884081763E-01    0.4428188397E-02    0.6958336853E+00    0.2680875469E+00    0.1412529106E-03
    0.3000000000E+06    0.1313983696E-01    0.3177819672E-02    0.6958683972E+00    0.2961691011E+00    0.1501493866E-03
    0.5000000000E+06    0.1071795263E-01    0.2629249761E-02    0.6958730843E+00    0.3045683730E+00    0.1544737399E-03
    0.7000000000E+06    0.9296438741E-02    0.2302456164E-02    0.6958741339E+00    0.3089448673E+00    0.1573897700E-03
    0.9000000000E+06    0.8331855944E-02    0.2078507436E-02    0.6958741766E+00    0.3117223288E+00    0.1596035802E-03
    0.1100000000E+07    0.7621246457E-02    0.1912294645E-02    0.6958738552E+00    0.3136790655E+00    0.1613935847E-03
    0.1300000000E+07    0.7069163165E-02    0.1782389922E-02    0.6958733885E+00    0.3151504234E+00    0.1628990138E-03
    0.1500000000E+07    0.6623958167E-02    0.1677111090E-02    0.6958728652E+00    0.3163073276E+00    0.1641997375E-03
    0.1700000000E+07    0.6254893249E-02    0.1589463681E-02    0.6958723254E+00    0.3172470746E+00    0.1653459214E-03
    0.1900000000E+07    0.5942365488E-02    0.1514964669E-02    0.6958717882E+00    0.3180295841E+00    0.1663711803E-03
    0.2100000000E+07    0.5673198209E-02    0.1450587678E-02    0.6958712627E+00    0.3186940039E+00    0.1672991623E-03
    0.2300000000E+07    0.5438159659E-02    0.1394204386E-02    0.6958707532E+00    0.3192671174E+00    0.1681471474E-03
    0.2500000000E+07    0.5230561524E-02    0.1344267664E-02    0.6958702617E+00    0.3197679400E+00    0.1689281544E-03
    0.2700000000E+07    0.5045422171E-02    0.1299621683E-02    0.6958697884E+00    0.3202103882E+00    0.1696522395E-03
    0.2900000000E+07    0.4878943816E-02    0.1259382862E-02    0.6958693332E+00    0.3206049087E+00    0.1703273357E-03
    0.3100000000E+07    0.4728173200E-02    0.1222862369E-02    0.6958688955E+00    0.3209595150E+00    0.1709598133E-03
    0.3300000000E+07    0.4590774157E-02    0.1189514034E-02    0.6958684744E+00    0.3212804688E+00    0.1715548663E-03
    0.3500000000E+07    0.4464870899E-02    0.1158898367E-02    0.6958680689E+00    0.3215727424E+00    0.1721167863E-03
    0.3700000000E+07    0.4348937398E-02    0.1130657103E-02    0.6958676783E+00    0.3218403404E+00    0.1726491612E-03
    0.3900000000E+07    0.4241717644E-02    0.1104494810E-02    0.6958673017E+00    0.3220865286E+00    0.1731550212E-03
    0.4100000000E+07    0.4142167077E-02    0.1080165351E-02    0.6958669381E+00    0.3223140004E+00    0.1736369498E-03
    0.4300000000E+07    0.4049408848E-02    0.1057461760E-02    0.6958665868E+00    0.3225249988E+00    0.1740971669E-03
    0.4500000000E+07    0.3962700662E-02    0.1036208551E-02    0.6958662471E+00    0.3227214091E+00    0.1745375951E-03
    0.4700000000E+07    0.3881409308E-02    0.1016255798E-02    0.6958659182E+00    0.3229048286E+00    0.1749599103E-03
    0.4900000000E+07    0.3804990849E-02    0.9974745247E-03    0.6958655995E+00    0.3230766210E+00    0.1753655822E-03
    0.1000000000E+07    0.7952223241E-02    0.1989845665E-02    0.6958740430E+00    0.3127767279E+00    0.1605409206E-03
    0.3000000000E+07    0.4801753405E-02    0.1240694820E-02    0.6958691122E+00    0.3207867750E+00    0.1706485533E-03
    0.5000000000E+07    0.3768459481E-02    0.9884877079E-03    0.6958654439E+00    0.3231585297E+00    0.1755625882E-03
    0.7000000000E+07    0.3207047346E-02    0.8496398877E-03    0.6958627459E+00    0.3244000358E+00    0.1788764038E-03
    0.9000000000E+07    0.2841036242E-02    0.7582973330E-03    0.6958606166E+00    0.3251923700E+00    0.1813922553E-03
    0.1100000000E+08    0.2578087410E-02    0.6922207640E-03    0.6958588563E+00    0.3257535253E+00    0.1834265003E-03
    0.1300000000E+08    0.2377342479E-02    0.6414924354E-03    0.6958573543E+00    0.3261774883E+00    0.1851373513E-03
    0.1500000000E+08    0.2217551689E-02    0.6009227123E-03    0.6958560433E+00    0.3265122568E+00    0.1866155702E-03
    0.1700000000E+08    0.2086421288E-02    0.5674940669E-03    0.6958548793E+00    0.3267852189E+00    0.1879181647E-03
    0.1900000000E+08    0.1976277376E-02    0.5393148353E-03    0.6958538321E+00    0.3270132844E+00    0.1890833351E-03
    0.2100000000E+08    0.1882048196E-02    0.5151301160E-03    0.6958528797E+00    0.3272075297E+00    0.1901379554E-03
    0.2300000000E+08    0.1800228889E-02    0.4940698242E-03    0.6958520062E+00    0.3273755518E+00    0.1911016632E-03
    0.2500000000E+08    0.1728309069E-02    0.4755088928E-03    0.6958511991E+00    0.3275227573E+00    0.1919892532E-03
    0.2700000000E+08    0.1664436945E-02    0.4589849886E-03    0.6958504488E+00    0.3276531122E+00    0.1928121541E-03
