  Pressure (Pa) 22mC5-500 (mol/kg) 23mC5-500 (mol/kg) 24mC5-500 (mol/kg) 2mC6-500 (mol/kg) C7-500 (mol/kg)
    0.1000000000E+01    0.1006859537E-04    0.7233838984E-05    0.6965121916E-01    0.3303437874E-05    0.4185095445E-02
    0.3000000000E+01    0.2413424354E-04    0.1730709821E-04    0.1740876549E+00    0.7653420514E-05    0.4231619861E-02
    0.5000000000E+01    0.3341847093E-04    0.2393076876E-04    0.2486561691E+00    0.1034687428E-04    0.4261922684E-02
    0.7000000000E+01    0.3989178732E-04    0.2853251681E-04    0.3045672837E+00    0.1212686992E-04    0.4284459286E-02
    0.9000000000E+01    0.4459788194E-04    0.3186694047E-04    0.3480450107E+00    0.1336969872E-04    0.4302029772E-02
    0.1100000000E+02    0.4813779387E-04    0.3436772170E-04    0.3828219490E+00    0.1428267550E-04    0.4316163638E-02
    0.1300000000E+02    0.5087897766E-04    0.3629944843E-04    0.4112725018E+00    0.1498677916E-04    0.4327804893E-02
    0.1500000000E+02    0.5305676384E-04    0.3783120675E-04    0.4349791364E+00    0.1555575852E-04    0.4337575144E-02
    0.1700000000E+02    0.5482760114E-04    0.3907515416E-04    0.4550371451E+00    0.1603613970E-04    0.4345902503E-02
    0.1900000000E+02    0.5629874123E-04    0.4010800000E-04    0.4722287255E+00    0.1645808848E-04    0.4353092218E-02
    0.2100000000E+02    0.5754562271E-04    0.4098356935E-04    0.4871273952E+00    0.1684159597E-04    0.4359368142E-02
    0.2300000000E+02    0.5862247578E-04    0.4174045762E-04    0.5001632327E+00    0.1720014270E-04    0.4364898353E-02
    0.2500000000E+02    0.5956901891E-04    0.4240685784E-04    0.5116650830E+00    0.1754294215E-04    0.4369811611E-02
    0.2700000000E+02    0.6041481502E-04    0.4300369667E-04    0.5218886883E+00    0.1787635403E-04    0.4374208288E-02
    0.2900000000E+02    0.6118217909E-04    0.4354672460E-04    0.5310359329E+00    0.1820479629E-04    0.4378167825E-02
    0.3100000000E+02    0.6188816314E-04    0.4404794088E-04    0.5392683119E+00    0.1853134646E-04    0.4381753954E-02
    0.3300000000E+02    0.6254593876E-04    0.4451658449E-04    0.5467165505E+00    0.1885814532E-04    0.4385018417E-02
    0.3500000000E+02    0.6316577713E-04    0.4495983559E-04    0.5534875997E+00    0.1918667243E-04    0.4388003679E-02
    0.3700000000E+02    0.6375575497E-04    0.4538332000E-04    0.5596698056E+00    0.1951793685E-04    0.4390744929E-02
    0.3900000000E+02    0.6432227030E-04    0.4579147717E-04    0.5653367867E+00    0.1985261075E-04    0.4393271586E-02
    0.4100000000E+02    0.6487042428E-04    0.4618783211E-04    0.5705503798E+00    0.2019112411E-04    0.4395608442E-02
    0.4300000000E+02    0.6540430706E-04    0.4657519879E-04    0.5753629067E+00    0.2053373244E-04    0.4397776546E-02
    0.4500000000E+02    0.6592721430E-04    0.4695583371E-04    0.5798189363E+00    0.2088056564E-04    0.4399793886E-02
    0.4700000000E+02    0.6644181260E-04    0.4733155320E-04    0.5839566693E+00    0.2123166342E-04    0.4401675933E-02
    0.4900000000E+02    0.6695026713E-04    0.4770382372E-04    0.5878090365E+00    0.2158700119E-04    0.4403436071E-02
    0.1000000000E+02    0.4648668422E-04    0.3320213506E-04    0.3663492290E+00    0.1385842187E-04    0.4309457599E-02
    0.3000000000E+02    0.6154194252E-04    0.4380192643E-04    0.5352576816E+00    0.1836815586E-04    0.4380004086E-02
    0.5000000000E+02    0.6720275489E-04    0.4788904577E-04    0.5896372778E+00    0.2176623960E-04    0.4404274121E-02
    0.7000000000E+02    0.7221706688E-04    0.5160306999E-04    0.6164824992E+00    0.2554546631E-04    0.4416794636E-02
    0.9000000000E+02    0.7744371570E-04    0.5551083697E-04    0.6324816487E+00    0.2960281092E-04    0.4424440239E-02
    0.1100000000E+03    0.8296465260E-04    0.5965108281E-04    0.6431033510E+00    0.3383509463E-04    0.4429547479E-02
    0.1300000000E+03    0.8874604469E-04    0.6399017068E-04    0.6506687438E+00    0.3818065812E-04    0.4433143102E-02
    0.1500000000E+03    0.9474244074E-04    0.6849066730E-04    0.6563310962E+00    0.4260342744E-04    0.4435754435E-02
    0.1700000000E+03    0.1009151463E-03    0.7312214361E-04    0.6607282585E+00    0.4708173556E-04    0.4437682540E-02
    0.1900000000E+03    0.1072340182E-03    0.7786142068E-04    0.6642416665E+00    0.5160217388E-04    0.4439113033E-02
    0.2100000000E+03    0.1136760694E-03    0.8269106889E-04    0.6671134248E+00    0.5615623468E-04    0.4440167237E-02
    0.2300000000E+03    0.1202237861E-03    0.8759794246E-04    0.6695046027E+00    0.6073842156E-04    0.4440928180E-02
    0.2500000000E+03    0.1268637427E-03    0.9257204440E-04    0.6715265210E+00    0.6534514722E-04    0.4441454836E-02
    0.2700000000E+03    0.1335855613E-03    0.9760569887E-04    0.6732585829E+00    0.6997406778E-04    0.4441790387E-02
    0.2900000000E+03    0.1403811499E-03    0.1026929565E-03    0.6747589477E+00    0.7462366817E-04    0.4441967279E-02
    0.3100000000E+03    0.1472441483E-03    0.1078291667E-03    0.6760711905E+00    0.7929299662E-04    0.4442010422E-02
    0.3300000000E+03    0.1541695216E-03    0.1130106673E-03    0.6772286039E+00    0.8398149056E-04    0.4441939303E-02
    0.3500000000E+03    0.1611532605E-03    0.1182345574E-03    0.6782570620E+00    0.8868885991E-04    0.4441769419E-02
    0.3700000000E+03    0.1681921579E-03    0.1234985283E-03    0.6791769780E+00    0.9341500753E-04    0.4441513266E-02
    0.3900000000E+03    0.1752836400E-03    0.1288007379E-03    0.6800046723E+00    0.9815997403E-04    0.4441181051E-02
    0.4100000000E+03    0.1824256380E-03    0.1341397141E-03    0.6807533497E+00    0.1029238990E-03    0.4440781201E-02
    0.4300000000E+03    0.1896164894E-03    0.1395142818E-03    0.6814338086E+00    0.1077069933E-03    0.4440320747E-02
    0.4500000000E+03    0.1968548610E-03    0.1449235056E-03    0.6820549657E+00    0.1125095196E-03    0.4439805605E-02
    0.4700000000E+03    0.2041396888E-03    0.1503666458E-03    0.6826242486E+00    0.1173317772E-03    0.4439240792E-02
    0.4900000000E+03    0.2114701305E-03    0.1558431232E-03    0.6831478941E+00    0.1221740926E-03    0.4438630599E-02
    0.1000000000E+03    0.8016877364E-04    0.5755362213E-04    0.6382796813E+00    0.3170171579E-04    0.4427230067E-02
    0.3000000000E+03    0.1438045647E-03    0.1052551916E-03    0.6754363016E+00    0.7695590908E-04    0.4442004243E-02
    0.5000000000E+03    0.2151522444E-03    0.1585937192E-03    0.6833942838E+00    0.1246028792E-03    0.4438309658E-02
    0.7000000000E+03    0.2910994924E-03    0.2152978179E-03    0.6868623181E+00    0.1743210269E-03    0.4430181592E-02
    0.9000000000E+03    0.3714743184E-03    0.2752683207E-03    0.6888039347E+00    0.2264726200E-03    0.4419757901E-02
    0.1100000000E+04    0.4565695542E-03    0.3387367185E-03    0.6900449536E+00    0.2814285210E-03    0.4407701387E-02
    0.1300000000E+04    0.5468243892E-03    0.4060372733E-03    0.6909065116E+00    0.3395580648E-03    0.4394263571E-02
    0.1500000000E+04    0.6427605386E-03    0.4775628614E-03    0.6915394986E+00    0.4012440808E-03    0.4379533736E-02
    0.1700000000E+04    0.7449707714E-03    0.5537578317E-03    0.6920241723E+00    0.4668961401E-03    0.4363520825E-02
    0.1900000000E+04    0.8541225660E-03    0.6351213877E-03    0.6924071563E+00    0.5369618383E-03    0.4346185873E-02
    0.2100000000E+04    0.9709678299E-03    0.7222151709E-03    0.6927173881E+00    0.6119374030E-03    0.4327456140E-02
    0.2300000000E+04    0.1096356243E-02    0.8156733950E-03    0.6929737786E+00    0.6923786088E-03    0.4307231261E-02
    0.2500000000E+04    0.1231251726E-02    0.9162152350E-03    0.6931892083E+00    0.7789127252E-03    0.4285385407E-02
    0.2700000000E+04    0.1376752239E-02    0.1024659656E-02    0.6933727536E+00    0.8722521061E-03    0.4261767140E-02
    0.2900000000E+04    0.1534113451E-02    0.1141943109E-02    0.6935309944E+00    0.9732100046E-03    0.4236197717E-02
    0.3100000000E+04    0.1704777051E-02    0.1269140671E-02    0.6936688170E+00    0.1082719236E-02    0.4208468160E-02
    0.3300000000E+04    0.1890404687E-02    0.1407491368E-02    0.6937899263E+00    0.1201854396E-02    0.4178335211E-02
    0.3500000000E+04    0.2092918702E-02    0.1558428580E-02    0.6938971823E+00    0.1331858447E-02    0.4145516146E-02
    0.3700000000E+04    0.2314551130E-02    0.1723616584E-02    0.6939928279E+00    0.1474174640E-02    0.4109682361E-02
    0.3900000000E+04    0.2557902585E-02    0.1904994487E-02    0.6940786468E+00    0.1630484876E-02    0.4070451590E-02
    0.4100000000E+04    0.2826012969E-02    0.2104828972E-02    0.6941560754E+00    0.1802755773E-02    0.4027378580E-02
    0.4300000000E+04    0.3122446030E-02    0.2325777380E-02    0.6942262832E+00    0.1993293800E-02    0.3979944053E-02
    0.4500000000E+04    0.3451389770E-02    0.2570962616E-02    0.6942902323E+00    0.2204810831E-02    0.3927541832E-02
    0.4700000000E+04    0.3817774277E-02    0.2844061074E-02    0.6943487210E+00    0.2440501204E-02    0.3869464122E-02
    0.4900000000E+04    0.4227407313E-02    0.3149403812E-02    0.6944024177E+00    0.2704130614E-02    0.3804885206E-02
    0.1000000000E+04    0.4134066925E-03    0.3065459805E-03    0.6894859805E+00    0.2535770905E-03    0.4413912651E-02
    0.3000000000E+04    0.1617684196E-02    0.1204229359E-02    0.6936022033E+00    0.1026832153E-02    0.4222617300E-02
    0.5000000000E+04    0.4450533900E-02    0.3315726836E-02    0.6944276487E+00    0.2847779771E-02    0.3769863294E-02
    0.7000000000E+04    0.1356323371E-01    0.1011026519E-01    0.6947802367E+00    0.8740277100E-02    0.2418515132E-02
    0.9000000000E+04    0.2897624332E-01    0.2161471565E-01    0.6949752255E+00    0.1888278481E-01    0.5933152360E-03
    0.1100000000E+05    0.3480869803E-01    0.2598634500E-01    0.6950986717E+00    0.2298228167E-01    0.3824749089E-03
    0.1300000000E+05    0.3865115629E-01    0.2887742815E-01    0.6951836646E+00    0.2584422191E-01    0.3783975921E-03
    0.1500000000E+05    0.4198300732E-01    0.3139022199E-01    0.6952456339E+00    0.2841436601E-01    0.3811489357E-03
    0.1700000000E+05    0.4493373444E-01    0.3362060769E-01    0.6952927398E+00    0.3076717077E-01    0.3838103051E-03
    0.1900000000E+05    0.4756402855E-01    0.3561330988E-01    0.6953297006E+00    0.3293441143E-01    0.3861999364E-03
    0.2100000000E+05    0.4992106866E-01    0.3740310284E-01    0.6953594333E+00    0.3494081074E-01    0.3883622911E-03
    0.2300000000E+05    0.5204323150E-01    0.3901829218E-01    0.6953838374E+00    0.3680668895E-01    0.3903374694E-03
    0.2500000000E+05    0.5396210218E-01    0.4048219078E-01    0.6954042027E+00    0.3854895393E-01    0.3921560313E-03
    0.2700000000E+05    0.5570390973E-01    0.4181417209E-01    0.6954214354E+00    0.4018180047E-01    0.3938415794E-03
    0.2900000000E+05    0.5729061125E-01    0.4303046589E-01    0.6954361906E+00    0.4171724146E-01    0.3954127156E-03
    0.3100000000E+05    0.5874072359E-01    0.4414476895E-01    0.6954489536E+00    0.4316551798E-01    0.3968843652E-03
    0.3300000000E+05    0.6006996835E-01    0.4516871885E-01    0.6954600913E+00    0.4453541955E-01    0.3982686891E-03
    0.3500000000E+05    0.6129177743E-01    0.4611226555E-01    0.6954698862E+00    0.4583453685E-01    0.3995757296E-03
    0.3700000000E+05    0.6241769302E-01    0.4698396537E-01    0.6954785596E+00    0.4706946297E-01    0.4008138774E-03
    0.3900000000E+05    0.6345768668E-01    0.4779121578E-01    0.6954862867E+00    0.4824595509E-01    0.4019902160E-03
    0.4100000000E+05    0.6442041621E-01    0.4854044432E-01    0.6954932087E+00    0.4936906543E-01    0.4031107812E-03
    0.4300000000E+05    0.6531343375E-01    0.4923726185E-01    0.6954994399E+00    0.5044324813E-01    0.4041807587E-03
    0.4500000000E+05    0.6614335566E-01    0.4988658767E-01    0.6955050743E+00    0.5147244700E-01    0.4052046373E-03
    0.4700000000E+05    0.6691600223E-01    0.5049275234E-01    0.6955101898E+00    0.5246016818E-01    0.4061863286E-03
    0.4900000000E+05    0.6763651298E-01    0.5105958283E-01    0.6955148514E+00    0.5340954059E-01    0.4071292628E-03
    0.1000000000E+05    0.3246144624E-01    0.2422428011E-01    0.6950432024E+00    0.2129316679E-01    0.4151386274E-03
    0.3000000000E+05    0.5803169947E-01    0.4359959544E-01    0.6954427959E+00    0.4245169516E-01    0.3961601600E-03
    0.5000000000E+05    0.6797866136E-01    0.5132932364E-01    0.6955170294E+00    0.5387073325E-01    0.4075871552E-03
    0.7000000000E+05    0.7295566332E-01    0.5530922583E-01    0.6955463803E+00    0.6162851096E-01    0.4152873342E-03
    0.9000000000E+05    0.7575179275E-01    0.5762299654E-01    0.6955612907E+00    0.6750421357E-01    0.4211313396E-03
    0.1100000000E+06    0.7742013658E-01    0.5906381899E-01    0.6955698758E+00    0.7224666639E-01    0.4258557192E-03
    0.1300000000E+06    0.7844134102E-01    0.5999672715E-01    0.6955751851E+00    0.7623522223E-01    0.4298285432E-03
    0.1500000000E+06    0.7906367805E-01    0.6061188701E-01    0.6955786080E+00    0.7968672477E-01    0.4332608641E-03
    0.1700000000E+06    0.7942712069E-01    0.6101746002E-01    0.6955808619E+00    0.8273615080E-01    0.4362852022E-03
    0.1900000000E+06    0.7961590570E-01    0.6127913650E-01    0.6955823517E+00    0.8547301673E-01    0.4389903374E-03
    0.2100000000E+06    0.7968335227E-01    0.6143889490E-01    0.6955833215E+00    0.8795966946E-01    0.4414387157E-03
    0.2300000000E+06    0.7966459183E-01    0.6152467206E-01    0.6955839260E+00    0.9024125674E-01    0.4436759626E-03
    0.2500000000E+06    0.7958353856E-01    0.6155568544E-01    0.6955842677E+00    0.9235152330E-01    0.4457364473E-03
    0.2700000000E+06    0.7945691419E-01    0.6154552230E-01    0.6955844164E+00    0.9431636104E-01    0.4476467174E-03
    0.2900000000E+06    0.7929667625E-01    0.6150401337E-01    0.6955844212E+00    0.9615607935E-01    0.4494277129E-03
    0.3100000000E+06    0.7911153843E-01    0.6143841227E-01    0.6955843175E+00    0.9788691081E-01    0.4510962477E-03
    0.3300000000E+06    0.7890795285E-01    0.6135416193E-01    0.6955841309E+00    0.9952204120E-01    0.4526660307E-03
    0.3500000000E+06    0.7869076238E-01    0.6125540636E-01    0.6955838810E+00    0.1010723331E+00    0.4541483887E-03
    0.3700000000E+06    0.7846364421E-01    0.6114534066E-01    0.6955835821E+00    0.1025468465E+00    0.4555527903E-03
    0.3900000000E+06    0.7822941774E-01    0.6102645556E-01    0.6955832455E+00    0.1039532205E+00    0.4568872328E-03
    0.4100000000E+06    0.7799026246E-01    0.6090071143E-01    0.6955828797E+00    0.1052979592E+00    0.4581585331E-03
    0.4300000000E+06    0.7774787457E-01    0.6076966422E-01    0.6955824917E+00    0.1065866487E+00    0.4593725501E-03
    0.4500000000E+06    0.7750358123E-01    0.6063455796E-01    0.6955820866E+00    0.1078241242E+00    0.4605343567E-03
    0.4700000000E+06    0.7725842515E-01    0.6049639359E-01    0.6955816688E+00    0.1090146003E+00    0.4616483751E-03
    0.4900000000E+06    0.7701322775E-01    0.6035598091E-01    0.6955812415E+00    0.1101617751E+00    0.4627184840E-03
    0.1000000000E+06    0.7668913869E-01    0.5842388591E-01    0.6955661246E+00    0.6998811487E-01    0.4236053570E-03
    0.3000000000E+06    0.7920677246E-01    0.6147384868E-01    0.6955843811E+00    0.9703422009E-01    0.4502751180E-03
    0.5000000000E+06    0.7689082180E-01    0.6028514219E-01    0.6955810251E+00    0.1107201593E+00    0.4632381573E-03
    0.7000000000E+06    0.7453962977E-01    0.5885786740E-01    0.6955766376E+00    0.1202386203E+00    0.4719793215E-03
    0.9000000000E+06    0.7244534892E-01    0.5751876215E-01    0.6955725463E+00    0.1276191470E+00    0.4786154037E-03
    0.1100000000E+07    0.7059900174E-01    0.5630460617E-01    0.6955688789E+00    0.1336754534E+00    0.4839810361E-03
    0.1300000000E+07    0.6895996171E-01    0.5520655945E-01    0.6955655959E+00    0.1388227845E+00    0.4884935994E-03
    0.1500000000E+07    0.6749099436E-01    0.5420889358E-01    0.6955626379E+00    0.1433040377E+00    0.4923925242E-03
    0.1700000000E+07    0.6616234216E-01    0.5329678486E-01    0.6955599516E+00    0.1472745144E+00    0.4958281931E-03
    0.1900000000E+07    0.6495078976E-01    0.5245772313E-01    0.6955574935E+00    0.1508399582E+00    0.4989013739E-03
    0.2100000000E+07    0.6383817120E-01    0.5168144557E-01    0.6955552288E+00    0.1540758335E+00    0.5016829557E-03
    0.2300000000E+07    0.6281011574E-01    0.5095956794E-01    0.6955531296E+00    0.1570379978E+00    0.5042247394E-03
    0.2500000000E+07    0.6185510694E-01    0.5028521009E-01    0.6955511734E+00    0.1597690213E+00    0.5065657497E-03
    0.2700000000E+07    0.6096379580E-01    0.4965268299E-01    0.6955493421E+00    0.1623021326E+00    0.5087361327E-03
    0.2900000000E+07    0.6012849990E-01    0.4905724173E-01    0.6955476204E+00    0.1646637922E+00    0.5107596685E-03
    0.3100000000E+07    0.5934283519E-01    0.4849489434E-01    0.6955459959E+00    0.1668754298E+00    0.5126554524E-03
    0.3300000000E+07    0.5860144215E-01    0.4796225411E-01    0.6955444580E+00    0.1689546552E+00    0.5144390542E-03
    0.3500000000E+07    0.5789977942E-01    0.4745642511E-01    0.6955429979E+00    0.1709161227E+00    0.5161233389E-03
    0.3700000000E+07    0.5723396634E-01    0.4697491295E-01    0.6955416079E+00    0.1727721630E+00    0.5177190612E-03
    0.3900000000E+07    0.5660066132E-01    0.4651555442E-01    0.6955402814E+00    0.1745332530E+00    0.5192353049E-03
    0.4100000000E+07    0.5599696677E-01    0.4607646175E-01    0.6955390129E+00    0.1762083728E+00    0.5206798134E-03
    0.4300000000E+07    0.5542035403E-01    0.4565597802E-01    0.6955377974E+00    0.1778052799E+00    0.5220592419E-03
    0.4500000000E+07    0.5486860341E-01    0.4525264105E-01    0.6955366305E+00    0.1793307224E+00    0.5233793531E-03
    0.4700000000E+07    0.5433975591E-01    0.4486515418E-01    0.6955355084E+00    0.1807906086E+00    0.5246451706E-03
    0.4900000000E+07    0.5383207405E-01    0.4449236218E-01    0.6955344277E+00    0.1821901410E+00    0.5258611004E-03
    0.1000000000E+07    0.7149367169E-01    0.5689627222E-01    0.6955706610E+00    0.1307812868E+00    0.4814251371E-03
    0.3000000000E+07    0.5972981993E-01    0.4877215568E-01    0.6955467967E+00    0.1657871851E+00    0.5117224846E-03
    0.5000000000E+07    0.5358567980E-01    0.4431114948E-01    0.6955339020E+00    0.1828687347E+00    0.5264515899E-03
    0.7000000000E+07    0.4946861490E-01    0.4125640619E-01    0.6955249766E+00    0.1941565644E+00    0.5363840584E-03
    0.9000000000E+07    0.4640020837E-01    0.3894789615E-01    0.6955181171E+00    0.2025239591E+00    0.5439246831E-03
    0.1100000000E+08    0.4397181711E-01    0.3710222074E-01    0.6955125307E+00    0.2091292236E+00    0.5500217431E-03
    0.1300000000E+08    0.4197365778E-01    0.3557134554E-01    0.6955078101E+00    0.2145572704E+00    0.5551494734E-03
    0.1500000000E+08    0.4028380891E-01    0.3426814436E-01    0.6955037176E+00    0.2191448578E+00    0.5595799271E-03
    0.1700000000E+08    0.3882522425E-01    0.3313701322E-01    0.6955001023E+00    0.2231035295E+00    0.5634839790E-03
    0.1900000000E+08    0.3754617230E-01    0.3214031473E-01    0.6954968619E+00    0.2265747513E+00    0.5669761301E-03
    0.2100000000E+08    0.3641028082E-01    0.3125140490E-01    0.6954939244E+00    0.2296577030E+00    0.5701369314E-03
    0.2300000000E+08    0.3539103209E-01    0.3045074366E-01    0.6954912367E+00    0.2324245424E+00    0.5730252442E-03
    0.2500000000E+08    0.3446851756E-01    0.2972358474E-01    0.6954887586E+00    0.2349293589E+00    0.5756854130E-03
    0.2700000000E+08    0.3362742394E-01    0.2905853315E-01    0.6954864589E+00    0.2372137075E+00    0.5781516928E-03
