  Pressure (Pa) 22mC5-500 (mol/kg) 23mC5-500 (mol/kg) 24mC5-500 (mol/kg) 2mC6-500 (mol/kg) C7-500 (mol/kg)
    0.1000000000E+01    0.8069834394E-05    0.1157530424E-05    0.1741023173E+00    0.2566202099E-05    0.4216229845E-02
    0.3000000000E+01    0.1492170406E-04    0.2132731434E-05    0.3480995992E+00    0.4489694306E-05    0.4272508282E-02
    0.5000000000E+01    0.1776506746E-04    0.2533868245E-05    0.4350596297E+00    0.5232397011E-05    0.4300753896E-02
    0.7000000000E+01    0.1928101572E-04    0.2746941465E-05    0.4872236164E+00    0.5672664831E-05    0.4318150524E-02
    0.9000000000E+01    0.2025410122E-04    0.2884091548E-05    0.5219947087E+00    0.6027488087E-05    0.4330079500E-02
    0.1100000000E+02    0.2097874458E-04    0.2987066714E-05    0.5468288469E+00    0.6363205638E-05    0.4338842077E-02
    0.1300000000E+02    0.2158302660E-04    0.3073864090E-05    0.5654531777E+00    0.6701872926E-05    0.4345595854E-02
    0.1500000000E+02    0.2212828848E-04    0.3153011392E-05    0.5799380183E+00    0.7050541732E-05    0.4350989487E-02
    0.1700000000E+02    0.2264586240E-04    0.3228808125E-05    0.5915254182E+00    0.7410790873E-05    0.4355415944E-02
    0.1900000000E+02    0.2315243505E-04    0.3303506424E-05    0.6010057032E+00    0.7782179716E-05    0.4359127844E-02
    0.2100000000E+02    0.2365709829E-04    0.3378306230E-05    0.6089057212E+00    0.8163584170E-05    0.4362295363E-02
    0.2300000000E+02    0.2416482276E-04    0.3453842543E-05    0.6155901929E+00    0.8553728155E-05    0.4365037562E-02
    0.2500000000E+02    0.2467826689E-04    0.3530437430E-05    0.6213196210E+00    0.8951391020E-05    0.4367440387E-02
    0.2700000000E+02    0.2519876149E-04    0.3608236127E-05    0.6262850335E+00    0.9355479995E-05    0.4369567539E-02
    0.2900000000E+02    0.2572686485E-04    0.3687283088E-05    0.6306296970E+00    0.9765046107E-05    0.4371467300E-02
    0.3100000000E+02    0.2626268450E-04    0.3767565614E-05    0.6344631650E+00    0.1017927726E-04    0.4373176983E-02
    0.3300000000E+02    0.2680606777E-04    0.3849039373E-05    0.6378706440E+00    0.1059748317E-04    0.4374725915E-02
    0.3500000000E+02    0.2735671639E-04    0.3931643523E-05    0.6409194006E+00    0.1101907859E-04    0.4376137491E-02
    0.3700000000E+02    0.2791425617E-04    0.4015309717E-05    0.6436632472E+00    0.1144356732E-04    0.4377430622E-02
    0.3900000000E+02    0.2847827935E-04    0.4099967463E-05    0.6461457455E+00    0.1187052815E-04    0.4378620776E-02
    0.4100000000E+02    0.2904837035E-04    0.4185547253E-05    0.6484025365E+00    0.1229960276E-04    0.4379720737E-02
    0.4300000000E+02    0.2962412107E-04    0.4271982341E-05    0.6504630620E+00    0.1273048555E-04    0.4380741175E-02
    0.4500000000E+02    0.3020513976E-04    0.4359209688E-05    0.6523518570E+00    0.1316291520E-04    0.4381691070E-02
    0.4700000000E+02    0.3079105580E-04    0.4447170381E-05    0.6540895304E+00    0.1359666759E-04    0.4382578041E-02
    0.4900000000E+02    0.3138152183E-04    0.4535809758E-05    0.6556935203E+00    0.1403154999E-04    0.4383408601E-02
    0.1000000000E+02    0.2063722346E-04    0.2938406222E-05    0.5353671791E+00    0.6195817313E-05    0.4334767746E-02
    0.3000000000E+02    0.2599381521E-04    0.3727272150E-05    0.6326045209E+00    0.9971624352E-05    0.4372343909E-02
    0.5000000000E+02    0.3167835910E-04    0.4580368016E-05    0.6564501136E+00    0.1424936209E-04    0.4383804508E-02
    0.7000000000E+02    0.3778765299E-04    0.5496929434E-05    0.6672284923E+00    0.1863487924E-04    0.4389784213E-02
    0.9000000000E+02    0.4410760462E-04    0.6444029809E-05    0.6733704358E+00    0.2303583851E-04    0.4393543254E-02
    0.1100000000E+03    0.5053986370E-04    0.7407056686E-05    0.6773378723E+00    0.2742834349E-04    0.4396133720E-02
    0.1300000000E+03    0.5703680785E-04    0.8379064933E-05    0.6801118329E+00    0.3180645410E-04    0.4398013524E-02
    0.1500000000E+03    0.6357361770E-04    0.9356490419E-05    0.6821603768E+00    0.3616981703E-04    0.4399419333E-02
    0.1700000000E+03    0.7013664609E-04    0.1033740406E-04    0.6837351129E+00    0.4051991514E-04    0.4400488062E-02
    0.1900000000E+03    0.7671813688E-04    0.1132072962E-04    0.6849833524E+00    0.4485877292E-04    0.4401305511E-02
    0.2100000000E+03    0.8331362464E-04    0.1230586245E-04    0.6859970760E+00    0.4918847957E-04    0.4401928758E-02
    0.2300000000E+03    0.8992056576E-04    0.1329247048E-04    0.6868366815E+00    0.5351101381E-04    0.4402397570E-02
    0.2500000000E+03    0.9653757795E-04    0.1428038454E-04    0.6875434675E+00    0.5782818733E-04    0.4402740696E-02
    0.2700000000E+03    0.1031639986E-03    0.1526953514E-04    0.6881466298E+00    0.6214163589E-04    0.4402979556E-02
    0.2900000000E+03    0.1097996192E-03    0.1625991475E-04    0.6886673919E+00    0.6645282913E-04    0.4403130514E-02
    0.3100000000E+03    0.1164445204E-03    0.1725155458E-04    0.6891215525E+00    0.7076308687E-04    0.4403206338E-02
    0.3300000000E+03    0.1230989677E-03    0.1824451000E-04    0.6895211143E+00    0.7507359666E-04    0.4403217172E-02
    0.3500000000E+03    0.1297633437E-03    0.1923885118E-04    0.6898753598E+00    0.7938543033E-04    0.4403171203E-02
    0.3700000000E+03    0.1364381037E-03    0.2023465700E-04    0.6901915803E+00    0.8369955892E-04    0.4403075125E-02
    0.3900000000E+03    0.1431237463E-03    0.2123201112E-04    0.6904755827E+00    0.8801686567E-04    0.4402934483E-02
    0.4100000000E+03    0.1498207935E-03    0.2223099930E-04    0.6907320489E+00    0.9233815731E-04    0.4402753916E-02
    0.4300000000E+03    0.1565297779E-03    0.2323170774E-04    0.6909647958E+00    0.9666417370E-04    0.4402537342E-02
    0.4500000000E+03    0.1632512331E-03    0.2423422191E-04    0.6911769660E+00    0.1009955961E-03    0.4402288097E-02
    0.4700000000E+03    0.1699856885E-03    0.2523862583E-04    0.6913711706E+00    0.1053330543E-03    0.4402009048E-02
    0.4900000000E+03    0.1767336653E-03    0.2624500166E-04    0.6915495969E+00    0.1096771327E-03    0.4401702670E-02
    0.1000000000E+03    0.4731341532E-04    0.6924097301E-05    0.6755467937E+00    0.2523372541E-04    0.4394948417E-02
    0.3000000000E+03    0.1131208966E-03    0.1675557412E-04    0.6889019729E+00    0.6860799782E-04    0.4403177131E-02
    0.5000000000E+03    0.1801128841E-03    0.2674895413E-04    0.6916334816E+00    0.1118518259E-03    0.4401539918E-02
    0.7000000000E+03    0.2485246181E-03    0.3694978567E-04    0.6928093378E+00    0.1558086419E-03    0.4397251248E-02
    0.9000000000E+03    0.3187924506E-03    0.4742549805E-04    0.6934634919E+00    0.2008857201E-03    0.4391596823E-02
    0.1100000000E+04    0.3912611939E-03    0.5822837128E-04    0.6938798725E+00    0.2473466743E-03    0.4385025337E-02
    0.1300000000E+04    0.4662240485E-03    0.6940252318E-04    0.6941680448E+00    0.2953980635E-03    0.4377736280E-02
    0.1500000000E+04    0.5439499907E-03    0.8098827187E-04    0.6943792366E+00    0.3452219690E-03    0.4369828261E-02
    0.1700000000E+04    0.6246995364E-03    0.9302458574E-04    0.6945406004E+00    0.3969911268E-03    0.4361350794E-02
    0.1900000000E+04    0.7087344569E-03    0.1055505743E-03    0.6946678680E+00    0.4508771846E-03    0.4352326143E-02
    0.2100000000E+04    0.7963243962E-03    0.1186064951E-03    0.6947707828E+00    0.5070558783E-03    0.4342759762E-02
    0.2300000000E+04    0.8877518783E-03    0.1322345108E-03    0.6948557010E+00    0.5657107168E-03    0.4332645711E-02
    0.2500000000E+04    0.9833164902E-03    0.1464793190E-03    0.6949269455E+00    0.6270359287E-03    0.4321969626E-02
    0.2700000000E+04    0.1083338689E-02    0.1613887233E-03    0.6949875586E+00    0.6912390626E-03    0.4310710392E-02
    0.2900000000E+04    0.1188163509E-02    0.1770141886E-03    0.6950397431E+00    0.7585434691E-03    0.4298841066E-02
    0.3100000000E+04    0.1298164350E-02    0.1934114074E-03    0.6950851335E+00    0.8291908078E-03    0.4286329352E-02
    0.3300000000E+04    0.1413746997E-02    0.2106408997E-03    0.6951249675E+00    0.9034436837E-03    0.4273137765E-02
    0.3500000000E+04    0.1535353967E-02    0.2287686632E-03    0.6951602001E+00    0.9815884947E-03    0.4259223597E-02
    0.3700000000E+04    0.1663469319E-02    0.2478668897E-03    0.6951915794E+00    0.1063938563E-02    0.4244538713E-02
    0.3900000000E+04    0.1798623998E-02    0.2680147639E-03    0.6952197001E+00    0.1150837621E-02    0.4229029216E-02
    0.4100000000E+04    0.1941401853E-02    0.2892993609E-03    0.6952450405E+00    0.1242663733E-02    0.4212634984E-02
    0.4300000000E+04    0.2092446439E-02    0.3118166601E-03    0.6952679900E+00    0.1339833715E-02    0.4195289103E-02
    0.4500000000E+04    0.2252468725E-02    0.3356726970E-03    0.6952888687E+00    0.1442808162E-02    0.4176917168E-02
    0.4700000000E+04    0.2422255887E-02    0.3609848735E-03    0.6953079420E+00    0.1552097172E-02    0.4157436469E-02
    0.4900000000E+04    0.2602681337E-02    0.3878834547E-03    0.6953254319E+00    0.1668266875E-02    0.4136755033E-02
    0.1000000000E+04    0.3547325695E-03    0.5278315458E-04    0.6936925070E+00    0.2239294752E-03    0.4388409908E-02
    0.3000000000E+04    0.1242492374E-02    0.1851126668E-03    0.6950632025E+00    0.7934333822E-03    0.4292667729E-02
    0.5000000000E+04    0.2697182729E-02    0.4019722882E-03    0.6953336428E+00    0.1729126042E-02    0.4125932496E-02
    0.7000000000E+04    0.5468428777E-02    0.8151691069E-03    0.6954477619E+00    0.3516992780E-02    0.3812632664E-02
    0.9000000000E+04    0.1183730826E-01    0.1764999518E-02    0.6955101371E+00    0.7641832641E-02    0.3121216928E-02
    0.1100000000E+05    0.2682782021E-01    0.4001611471E-02    0.6955491650E+00    0.1742073320E-01    0.1627395542E-02
    0.1300000000E+05    0.4131777053E-01    0.6166263399E-02    0.6955757168E+00    0.2706794157E-01    0.4978451327E-03
    0.1500000000E+05    0.4720626849E-01    0.7049270280E-02    0.6955948411E+00    0.3122789494E-01    0.3305753755E-03
    0.1700000000E+05    0.5116735987E-01    0.7645260885E-02    0.6956091976E+00    0.3417283205E-01    0.3186992353E-03
    0.1900000000E+05    0.5463904669E-01    0.8168644467E-02    0.6956203184E+00    0.3683083887E-01    0.3194896539E-03
    0.2100000000E+05    0.5779208247E-01    0.8644816765E-02    0.6956291468E+00    0.3930767178E-01    0.3211654311E-03
    0.2300000000E+05    0.6067452478E-01    0.9080877093E-02    0.6956362952E+00    0.4162969266E-01    0.3227839343E-03
    0.2500000000E+05    0.6331855786E-01    0.9481568380E-02    0.6956421775E+00    0.4381370907E-01    0.3242830752E-03
    0.2700000000E+05    0.6575084035E-01    0.9850819643E-02    0.6956470836E+00    0.4587363708E-01    0.3256737634E-03
    0.2900000000E+05    0.6799418260E-01    0.1019199435E-01    0.6956512223E+00    0.4782146989E-01    0.3269703814E-03
    0.3100000000E+05    0.7006827123E-01    0.1050799690E-01    0.6956547476E+00    0.4966764262E-01    0.3281850873E-03
    0.3300000000E+05    0.7199018945E-01    0.1080134895E-01    0.6956577756E+00    0.5142128511E-01    0.3293278619E-03
    0.3500000000E+05    0.7377483192E-01    0.1107425032E-01    0.6956603951E+00    0.5309042319E-01    0.3304069593E-03
    0.3700000000E+05    0.7543524224E-01    0.1132862847E-01    0.6956626757E+00    0.5468214314E-01    0.3314292797E-03
    0.3900000000E+05    0.7698289010E-01    0.1156617921E-01    0.6956646722E+00    0.5620272731E-01    0.3324006506E-03
    0.4100000000E+05    0.7842790009E-01    0.1178840030E-01    0.6956664284E+00    0.5765776677E-01    0.3333260389E-03
    0.4300000000E+05    0.7977924201E-01    0.1199661939E-01    0.6956679799E+00    0.5905225537E-01    0.3342097133E-03
    0.4500000000E+05    0.8104488974E-01    0.1219201738E-01    0.6956693556E+00    0.6039066880E-01    0.3350553696E-03
    0.4700000000E+05    0.8223195476E-01    0.1237564802E-01    0.6956705796E+00    0.6167703117E-01    0.3358662292E-03
    0.4900000000E+05    0.8334679878E-01    0.1254845450E-01    0.6956716717E+00    0.6291497167E-01    0.3366451173E-03
    0.1000000000E+05    0.1805935463E-01    0.2693164961E-02    0.6955316851E+00    0.1168821741E-01    0.2478084628E-02
    0.3000000000E+05    0.6905126019E-01    0.1035297634E-01    0.6956530537E+00    0.4875666512E-01    0.3275873040E-03
    0.5000000000E+05    0.8387894475E-01    0.1263106669E-01    0.6956721736E+00    0.6351682185E-01    0.3370233624E-03
    0.7000000000E+05    0.9184559215E-01    0.1388067997E-01    0.6956782041E+00    0.7366368192E-01    0.3433853262E-03
    0.9000000000E+05    0.9655902648E-01    0.1463810970E-01    0.6956803428E+00    0.8133487633E-01    0.3482148808E-03
    0.1100000000E+06    0.9950394083E-01    0.1512538222E-01    0.6956809249E+00    0.8748680506E-01    0.3521197092E-03
    0.1300000000E+06    0.1013967103E+00    0.1545028577E-01    0.6956807837E+00    0.9262014171E-01    0.3554036528E-03
    0.1500000000E+06    0.1026223246E+00    0.1567111308E-01    0.6956802775E+00    0.9702641334E-01    0.3582409943E-03
    0.1700000000E+06    0.1034044874E+00    0.1582195662E-01    0.6956795802E+00    0.1008889718E+00    0.3607411910E-03
    0.1900000000E+06    0.1038811181E+00    0.1592397697E-01    0.6956787833E+00    0.1043300790E+00    0.3629775845E-03
    0.2100000000E+06    0.1041412904E+00    0.1599093611E-01    0.6956779373E+00    0.1074350879E+00    0.3650017683E-03
    0.2300000000E+06    0.1042447206E+00    0.1603212754E-01    0.6956770717E+00    0.1102658267E+00    0.3668514424E-03
    0.2500000000E+06    0.1042326881E+00    0.1605402432E-01    0.6956762038E+00    0.1128684620E+00    0.3685550079E-03
    0.2700000000E+06    0.1041344634E+00    0.1606125301E-01    0.6956753439E+00    0.1152783512E+00    0.3701344039E-03
    0.2900000000E+06    0.1039712526E+00    0.1605719351E-01    0.6956744983E+00    0.1175231608E+00    0.3716069365E-03
    0.3100000000E+06    0.1037587014E+00    0.1604436155E-01    0.6956736705E+00    0.1196249421E+00    0.3729865021E-03
    0.3300000000E+06    0.1035085352E+00    0.1602466007E-01    0.6956728626E+00    0.1216015531E+00    0.3742844315E-03
    0.3500000000E+06    0.1032296604E+00    0.1599954878E-01    0.6956720755E+00    0.1234676591E+00    0.3755100869E-03
    0.3700000000E+06    0.1029289206E+00    0.1597016119E-01    0.6956713095E+00    0.1252354521E+00    0.3766712949E-03
    0.3900000000E+06    0.1026116279E+00    0.1593738697E-01    0.6956705644E+00    0.1269151794E+00    0.3777746660E-03
    0.4100000000E+06    0.1022819407E+00    0.1590193105E-01    0.6956698398E+00    0.1285155372E+00    0.3788258351E-03
    0.4300000000E+06    0.1019431389E+00    0.1586435662E-01    0.6956691352E+00    0.1300439709E+00    0.3798296453E-03
    0.4500000000E+06    0.1015978255E+00    0.1582511695E-01    0.6956684499E+00    0.1315069047E+00    0.3807902904E-03
    0.4700000000E+06    0.1012480774E+00    0.1578457917E-01    0.6956677831E+00    0.1329099220E+00    0.3817114259E-03
    0.4900000000E+06    0.1008955583E+00    0.1574304236E-01    0.6956671341E+00    0.1342579066E+00    0.3825962582E-03
    0.1000000000E+06    0.9819690873E-01    0.1490715855E-01    0.6956807594E+00    0.8456275375E-01    0.3502596708E-03
    0.3000000000E+06    0.1038703348E+00    0.1605174309E-01    0.6956740820E+00    0.1185907290E+00    0.3723075798E-03
    0.5000000000E+06    0.1007186884E+00    0.1572197763E-01    0.6956668161E+00    0.1349126248E+00    0.3830259575E-03
    0.7000000000E+06    0.9724887040E-01    0.1528878055E-01    0.6956612226E+00    0.1459353185E+00    0.3902538250E-03
    0.9000000000E+06    0.9409912120E-01    0.1487577265E-01    0.6956567289E+00    0.1543099068E+00    0.3957411614E-03
    0.1100000000E+07    0.9130553498E-01    0.1449992084E-01    0.6956529791E+00    0.1610742246E+00    0.4001780253E-03
    0.1300000000E+07    0.8882234270E-01    0.1416015668E-01    0.6956497612E+00    0.1667488624E+00    0.4039095140E-03
    0.1500000000E+07    0.8659858204E-01    0.1385211551E-01    0.6956469418E+00    0.1716343152E+00    0.4071335980E-03
    0.1700000000E+07    0.8459095918E-01    0.1357131868E-01    0.6956444318E+00    0.1759206341E+00    0.4099746217E-03
    0.1900000000E+07    0.8276468917E-01    0.1331386435E-01    0.6956421689E+00    0.1797360344E+00    0.4125159063E-03
    0.2100000000E+07    0.8109208954E-01    0.1307650019E-01    0.6956401079E+00    0.1831712826E+00    0.4148160682E-03
    0.2300000000E+07    0.7955102825E-01    0.1285654503E-01    0.6956382152E+00    0.1862930809E+00    0.4169179405E-03
    0.2500000000E+07    0.7812364508E-01    0.1265178674E-01    0.6956364647E+00    0.1891519339E+00    0.4188537922E-03
    0.2700000000E+07    0.7679537272E-01    0.1246039017E-01    0.6956348361E+00    0.1917870283E+00    0.4206485506E-03
    0.2900000000E+07    0.7555420235E-01    0.1228082174E-01    0.6956333133E+00    0.1942293956E+00    0.4223218794E-03
    0.3100000000E+07    0.7439013324E-01    0.1211178994E-01    0.6956318829E+00    0.1965040379E+00    0.4238895685E-03
    0.3300000000E+07    0.7329475792E-01    0.1195219868E-01    0.6956305341E+00    0.1986314006E+00    0.4253644925E-03
    0.3500000000E+07    0.7226094647E-01    0.1180111076E-01    0.6956292580E+00    0.2006284190E+00    0.4267572895E-03
    0.3700000000E+07    0.7128260383E-01    0.1165771930E-01    0.6956280468E+00    0.2025092809E+00    0.4280768526E-03
    0.3900000000E+07    0.7035448126E-01    0.1152132501E-01    0.6956268943E+00    0.2042859910E+00    0.4293306932E-03
    0.4100000000E+07    0.6947202826E-01    0.1139131817E-01    0.6956257947E+00    0.2059687979E+00    0.4305252146E-03
    0.4300000000E+07    0.6863127523E-01    0.1126716416E-01    0.6956247433E+00    0.2075665207E+00    0.4316659198E-03
    0.4500000000E+07    0.6782873953E-01    0.1114839174E-01    0.6956237361E+00    0.2090868032E+00    0.4327575741E-03
    0.4700000000E+07    0.6706134967E-01    0.1103458352E-01    0.6956227692E+00    0.2105363140E+00    0.4338043316E-03
    0.4900000000E+07    0.6632638354E-01    0.1092536810E-01    0.6956218396E+00    0.2119209051E+00    0.4348098357E-03
    0.1000000000E+07    0.9266021239E-01    0.1468311886E-01    0.6956547767E+00    0.1578536388E+00    0.3980645363E-03
    0.3000000000E+07    0.7496308884E-01    0.1219506138E-01    0.6956325872E+00    0.1953863117E+00    0.4231180650E-03
    0.5000000000E+07    0.6597029160E-01    0.1087237759E-01    0.6956213878E+00    0.2125904933E+00    0.4352981369E-03
    0.7000000000E+07    0.6008145845E-01    0.9989028548E-02    0.6956137637E+00    0.2235596361E+00    0.4435117498E-03
    0.9000000000E+07    0.5577118754E-01    0.9334223156E-02    0.6956079498E+00    0.2314847780E+00    0.4497474694E-03
    0.1100000000E+08    0.5240987323E-01    0.8818795810E-02    0.6956032366E+00    0.2376168154E+00    0.4547894520E-03
    0.1300000000E+08    0.4967812248E-01    0.8396811663E-02    0.6955992660E+00    0.2425739490E+00    0.4590298571E-03
    0.1500000000E+08    0.4739234240E-01    0.8041569101E-02    0.6955958312E+00    0.2467058308E+00    0.4626936543E-03
    0.1700000000E+08    0.4543767309E-01    0.7736215677E-02    0.6955928017E+00    0.2502287911E+00    0.4659221465E-03
    0.1900000000E+08    0.4373769652E-01    0.7469458170E-02    0.6955900900E+00    0.2532855851E+00    0.4688100187E-03
    0.2100000000E+08    0.4223913218E-01    0.7233374549E-02    0.6955876342E+00    0.2559751204E+00    0.4714238819E-03
    0.2300000000E+08    0.4090343376E-01    0.7022203247E-02    0.6955853891E+00    0.2583685946E+00    0.4738124110E-03
    0.2500000000E+08    0.3970186777E-01    0.6831629458E-02    0.6955833205E+00    0.2605188632E+00    0.4760122761E-03
    0.2700000000E+08    0.3861247898E-01    0.6658342565E-02    0.6955814021E+00    0.2624661753E+00    0.4780518046E-03
