  Pressure (Pa) 22mC5-500 (mol/kg) 23mC5-500 (mol/kg) 24mC5-500 (mol/kg) 2mC6-500 (mol/kg) C7-500 (mol/kg)
    0.1000000000E+01    0.8632639992E-05    0.1859179247E-05    0.1514011695E+00    0.1682365738E-04    0.4168759583E-02
    0.3000000000E+01    0.1683983131E-04    0.3615405142E-05    0.3164823213E+00    0.3124783553E-04    0.4194747954E-02
    0.5000000000E+01    0.2062489754E-04    0.4419714556E-05    0.4047488666E+00    0.3748385459E-04    0.4205535590E-02
    0.7000000000E+01    0.2276259046E-04    0.4872374177E-05    0.4596973582E+00    0.4120307555E-04    0.4211864814E-02
    0.9000000000E+01    0.2416362033E-04    0.5169280794E-05    0.4971981978E+00    0.4403995221E-04    0.4216042333E-02
    0.1100000000E+02    0.2519819317E-04    0.5389580306E-05    0.5244232947E+00    0.4656720973E-04    0.4218988956E-02
    0.1300000000E+02    0.2603823296E-04    0.5569781784E-05    0.5450874398E+00    0.4900774763E-04    0.4221158765E-02
    0.1500000000E+02    0.2677115979E-04    0.5728310628E-05    0.5613073686E+00    0.5145229582E-04    0.4222804480E-02
    0.1700000000E+02    0.2744439327E-04    0.5875076406E-05    0.5743776568E+00    0.5393708585E-04    0.4224078800E-02
    0.1900000000E+02    0.2808489114E-04    0.6015656870E-05    0.5851345650E+00    0.5647467131E-04    0.4225079759E-02
    0.2100000000E+02    0.2870850433E-04    0.6153292867E-05    0.5941423701E+00    0.5906710756E-04    0.4225873331E-02
    0.2300000000E+02    0.2932476903E-04    0.6289905637E-05    0.6017956266E+00    0.6171188601E-04    0.4226505618E-02
    0.2500000000E+02    0.2993949728E-04    0.6426644134E-05    0.6083785162E+00    0.6440469197E-04    0.4227009855E-02
    0.2700000000E+02    0.3055624034E-04    0.6564192585E-05    0.6141009202E+00    0.6714070035E-04    0.4227410632E-02
    0.2900000000E+02    0.3117714567E-04    0.6702949592E-05    0.6191212127E+00    0.6991517439E-04    0.4227726546E-02
    0.3100000000E+02    0.3180347414E-04    0.6843135556E-05    0.6235611480E+00    0.7272372527E-04    0.4227971938E-02
    0.3300000000E+02    0.3243592013E-04    0.6984858681E-05    0.6275158667E+00    0.7556240524E-04    0.4228158048E-02
    0.3500000000E+02    0.3307481368E-04    0.7128156360E-05    0.6310607907E+00    0.7842772035E-04    0.4228293817E-02
    0.3700000000E+02    0.3372025050E-04    0.7273021534E-05    0.6342564800E+00    0.8131660592E-04    0.4228386452E-02
    0.3900000000E+02    0.3437217663E-04    0.7419419688E-05    0.6371521219E+00    0.8422638676E-04    0.4228441824E-02
    0.4100000000E+02    0.3503044418E-04    0.7567299914E-05    0.6397880806E+00    0.8715473306E-04    0.4228464772E-02
    0.4300000000E+02    0.3569484837E-04    0.7716602138E-05    0.6421977909E+00    0.9009961734E-04    0.4228459318E-02
    0.4500000000E+02    0.3636515211E-04    0.7867261850E-05    0.6444091841E+00    0.9305927479E-04    0.4228428834E-02
    0.4700000000E+02    0.3704110244E-04    0.8019213183E-05    0.6464457751E+00    0.9603216795E-04    0.4228376171E-02
    0.4900000000E+02    0.3772244141E-04    0.8172390894E-05    0.6483275029E+00    0.9901695574E-04    0.4228303754E-02
    0.1000000000E+02    0.2471317564E-04    0.5286125834E-05    0.5118118113E+00    0.4532377883E-04    0.4217634560E-02
    0.3000000000E+02    0.3148957815E-04    0.6772855139E-05    0.6214072477E+00    0.7131544770E-04    0.4227857293E-02
    0.5000000000E+02    0.3806505146E-04    0.8249419741E-05    0.6492157102E+00    0.1005134381E-03    0.4228260799E-02
    0.7000000000E+02    0.4514323734E-04    0.9840644190E-05    0.6619115815E+00    0.1308512778E-03    0.4226740953E-02
    0.9000000000E+02    0.5253743255E-04    0.1150174157E-04    0.6691821733E+00    0.1616622283E-03    0.4224490958E-02
    0.1100000000E+03    0.6014456008E-04    0.1320934122E-04    0.6738928434E+00    0.1927551898E-03    0.4221875693E-02
    0.1300000000E+03    0.6791166130E-04    0.1495170636E-04    0.6771932080E+00    0.2240762302E-03    0.4219044934E-02
    0.1500000000E+03    0.7581048735E-04    0.1672268144E-04    0.6796341425E+00    0.2556175628E-03    0.4216071365E-02
    0.1700000000E+03    0.8382553595E-04    0.1851894524E-04    0.6815126710E+00    0.2873883016E-03    0.4212994266E-02
    0.1900000000E+03    0.9194828744E-04    0.2033871126E-04    0.6830030849E+00    0.3194038003E-03    0.4209836485E-02
    0.2100000000E+03    0.1001742581E-03    0.2218107135E-04    0.6842144001E+00    0.3516814515E-03    0.4206612011E-02
    0.2300000000E+03    0.1085014058E-03    0.2404564401E-04    0.6852182998E+00    0.3842389757E-03    0.4203329708E-02
    0.2500000000E+03    0.1169292242E-03    0.2593237606E-04    0.6860638548E+00    0.4170937383E-03    0.4199995315E-02
    0.2700000000E+03    0.1254582066E-03    0.2784142626E-04    0.6867857886E+00    0.4502625117E-03    0.4196612576E-02
    0.2900000000E+03    0.1340895172E-03    0.2977309448E-04    0.6874093634E+00    0.4837614320E-03    0.4193183915E-02
    0.3100000000E+03    0.1428247849E-03    0.3172777738E-04    0.6879533972E+00    0.5176060404E-03    0.4189710854E-02
    0.3300000000E+03    0.1516659693E-03    0.3370594014E-04    0.6884321954E+00    0.5518113564E-03    0.4186194280E-02
    0.3500000000E+03    0.1606152733E-03    0.3570809792E-04    0.6888568271E+00    0.5863919616E-03    0.4182634625E-02
    0.3700000000E+03    0.1696750848E-03    0.3773480376E-04    0.6892359913E+00    0.6213620812E-03    0.4179031986E-02
    0.3900000000E+03    0.1788479378E-03    0.3978664044E-04    0.6895766187E+00    0.6567356608E-03    0.4175386207E-02
    0.4100000000E+03    0.1881364853E-03    0.4186421510E-04    0.6898842997E+00    0.6925264355E-03    0.4171696939E-02
    0.4300000000E+03    0.1975434820E-03    0.4396815565E-04    0.6901635933E+00    0.7287479918E-03    0.4167963682E-02
    0.4500000000E+03    0.2070717724E-03    0.4609910850E-04    0.6904182543E+00    0.7654138234E-03    0.4164185815E-02
    0.4700000000E+03    0.2167242829E-03    0.4825773705E-04    0.6906514033E+00    0.8025373799E-03    0.4160362617E-02
    0.4900000000E+03    0.2265040174E-03    0.5044472087E-04    0.6908656554E+00    0.8401321115E-03    0.4156493286E-02
    0.1000000000E+03    0.5631847637E-04    0.1235064112E-04    0.6717648421E+00    0.1771784862E-03    0.4223216966E-02
    0.3000000000E+03    0.1384440405E-03    0.3074753137E-04    0.6876903405E+00    0.5006395752E-03    0.4191452867E-02
    0.5000000000E+03    0.2314425529E-03    0.5154906270E-04    0.6909663986E+00    0.8591103811E-03    0.4154541051E-02
    0.7000000000E+03    0.3376918820E-03    0.7530460682E-04    0.6923797787E+00    0.1266793474E-02    0.4112829702E-02
    0.9000000000E+03    0.4607585641E-03    0.1028158584E-03    0.6931673285E+00    0.1738387365E-02    0.4065184676E-02
    0.1100000000E+04    0.6052355030E-03    0.1351113294E-03    0.6936693107E+00    0.2291908016E-02    0.4010045041E-02
    0.1300000000E+04    0.7772042389E-03    0.1735515573E-03    0.6940171727E+00    0.2950934035E-02    0.3945349614E-02
    0.1500000000E+04    0.9849194009E-03    0.2199826932E-03    0.6942724229E+00    0.3747371687E-02    0.3868335294E-02
    0.1700000000E+04    0.1239819020E-02    0.2769626697E-03    0.6944676843E+00    0.4725411920E-02    0.3775231216E-02
    0.1900000000E+04    0.1558032632E-02    0.3480986487E-03    0.6946218694E+00    0.5947406454E-02    0.3660813055E-02
    0.2100000000E+04    0.1962604110E-02    0.4385444031E-03    0.6947466974E+00    0.7502537421E-02    0.3517775282E-02
    0.2300000000E+04    0.2486582358E-02    0.5556920676E-03    0.6948498172E+00    0.9518924132E-02    0.3335927936E-02
    0.2500000000E+04    0.3176593634E-02    0.7099722386E-03    0.6949364333E+00    0.1217777444E-01    0.3101455291E-02
    0.2700000000E+04    0.4094387896E-02    0.9152022995E-03    0.6950102100E+00    0.1572007271E-01    0.2797242246E-02
    0.2900000000E+04    0.5307763599E-02    0.1186561524E-02    0.6950738017E+00    0.2041280545E-01    0.2407232586E-02
    0.3100000000E+04    0.6851814705E-02    0.1531930551E-02    0.6951291786E+00    0.2640083389E-01    0.1930498268E-02
    0.3300000000E+04    0.8648823116E-02    0.1933976161E-02    0.6951778336E+00    0.3339708244E-01    0.1405974673E-02
    0.3500000000E+04    0.1045912618E-01    0.2339141859E-02    0.6952209185E+00    0.4048646037E-01    0.9201642208E-03
    0.3700000000E+04    0.1200769257E-01    0.2685921165E-02    0.6952593364E+00    0.4660575706E-01    0.5562430219E-03
    0.3900000000E+04    0.1318670756E-01    0.2950164524E-02    0.6952938053E+00    0.5132735193E-01    0.3322133034E-03
    0.4100000000E+04    0.1406063043E-01    0.3146245829E-02    0.6953249030E+00    0.5488879706E-01    0.2122773897E-03
    0.4300000000E+04    0.1473990845E-01    0.3298840330E-02    0.6953531000E+00    0.5771018511E-01    0.1530578731E-03
    0.4500000000E+04    0.1530802572E-01    0.3426607370E-02    0.6953787831E+00    0.6011131189E-01    0.1249941829E-03
    0.4700000000E+04    0.1581362013E-01    0.3540420114E-02    0.6954022733E+00    0.6227912591E-01    0.1119672200E-03
    0.4900000000E+04    0.1628214856E-01    0.3645969945E-02    0.6954238392E+00    0.6431160084E-01    0.1060078280E-03
    0.1000000000E+04    0.5299823147E-03    0.1182898372E-03    0.6934433442E+00    0.2003591701E-02    0.4038666875E-02
    0.3000000000E+04    0.6039561811E-02    0.1350239671E-02    0.6951024144E+00    0.2324841620E-01    0.2178509479E-02
    0.5000000000E+04    0.1650681418E-01    0.3696607807E-02    0.6954339728E+00    0.6529362303E-01    0.1044028711E-03
    0.7000000000E+04    0.2030031985E-01    0.4553964618E-02    0.6955756175E+00    0.8257062875E-01    0.1025556868E-03
    0.9000000000E+04    0.2319192810E-01    0.5211005036E-02    0.6956540168E+00    0.9681415416E-01    0.1040013557E-03
    0.1100000000E+05    0.2544381663E-01    0.5725622389E-02    0.6957037087E+00    0.1088296269E+00    0.1051714844E-03
    0.1300000000E+05    0.2722191471E-01    0.6134484883E-02    0.6957379678E+00    0.1191308211E+00    0.1061550299E-03
    0.1500000000E+05    0.2864112672E-01    0.6463026217E-02    0.6957629836E+00    0.1280823932E+00    0.1070044994E-03
    0.1700000000E+05    0.2978330443E-01    0.6729394307E-02    0.6957820293E+00    0.1359506509E+00    0.1077528264E-03
    0.1900000000E+05    0.3070816595E-01    0.6946852393E-02    0.6957969980E+00    0.1429348299E+00    0.1084220559E-03
    0.2100000000E+05    0.3146018509E-01    0.7125295355E-02    0.6958090602E+00    0.1491871139E+00    0.1090276837E-03
    0.2300000000E+05    0.3207307847E-01    0.7272238220E-02    0.6958189785E+00    0.1548258636E+00    0.1095810263E-03
    0.2500000000E+05    0.3257280950E-01    0.7393478572E-02    0.6958272707E+00    0.1599446030E+00    0.1100906047E-03
    0.2700000000E+05    0.3297964857E-01    0.7493551269E-02    0.6958343007E+00    0.1646182734E+00    0.1105629988E-03
    0.2900000000E+05    0.3330961623E-01    0.7576047305E-02    0.6958403319E+00    0.1689076792E+00    0.1110033969E-03
    0.3100000000E+05    0.3357551352E-01    0.7643841665E-02    0.6958455591E+00    0.1728627093E+00    0.1114159643E-03
    0.3300000000E+05    0.3378766999E-01    0.7699258941E-02    0.6958501301E+00    0.1765247112E+00    0.1118040963E-03
    0.3500000000E+05    0.3395449523E-01    0.7744195547E-02    0.6958541585E+00    0.1799282673E+00    0.1121705978E-03
    0.3700000000E+05    0.3408289105E-01    0.7780211169E-02    0.6958577333E+00    0.1831025435E+00    0.1125178132E-03
    0.3900000000E+05    0.3417856346E-01    0.7808598050E-02    0.6958609251E+00    0.1860723245E+00    0.1128477222E-03
    0.4100000000E+05    0.3424626150E-01    0.7830434093E-02    0.6958637906E+00    0.1888588192E+00    0.1131620123E-03
    0.4300000000E+05    0.3428996205E-01    0.7846623985E-02    0.6958663761E+00    0.1914802934E+00    0.1134621336E-03
    0.4500000000E+05    0.3431301412E-01    0.7857931366E-02    0.6958687195E+00    0.1939525715E+00    0.1137493416E-03
    0.4700000000E+05    0.3431825266E-01    0.7865004197E-02    0.6958708520E+00    0.1962894382E+00    0.1140247305E-03
    0.4900000000E+05    0.3430808889E-01    0.7868394957E-02    0.6958728001E+00    0.1985029625E+00    0.1142892603E-03
    0.1000000000E+05    0.2438599188E-01    0.5483500253E-02    0.6956813723E+00    0.1030640083E+00    0.1046141947E-03
    0.3000000000E+05    0.3344987741E-01    0.7611625616E-02    0.6958430358E+00    0.1709242301E+00    0.1112129316E-03
    0.5000000000E+05    0.3429788691E-01    0.7868860150E-02    0.6958737119E+00    0.1995668397E+00    0.1144177214E-03
    0.7000000000E+05    0.3365355639E-01    0.7769888904E-02    0.6958861505E+00    0.2163792989E+00    0.1165783727E-03
    0.9000000000E+05    0.3265886407E-01    0.7579101123E-02    0.6958926615E+00    0.2278104522E+00    0.1182185663E-03
    0.1100000000E+06    0.3161165927E-01    0.7368029617E-02    0.6958965470E+00    0.2362582020E+00    0.1195447013E-03
    0.1300000000E+06    0.3060291740E-01    0.7159836706E-02    0.6958990563E+00    0.2428450303E+00    0.1206599730E-03
    0.1500000000E+06    0.2965980444E-01    0.6962312078E-02    0.6959007626E+00    0.2481763828E+00    0.1216235723E-03
    0.1700000000E+06    0.2878735804E-01    0.6777682624E-02    0.6959019641E+00    0.2526119549E+00    0.1224726731E-03
    0.1900000000E+06    0.2798266974E-01    0.6606035542E-02    0.6959028304E+00    0.2563809974E+00    0.1232321834E-03
    0.2100000000E+06    0.2724018581E-01    0.6446641353E-02    0.6959034646E+00    0.2596376435E+00    0.1239196252E-03
    0.2300000000E+06    0.2655378395E-01    0.6298497763E-02    0.6959039328E+00    0.2624899711E+00    0.1245478019E-03
    0.2500000000E+06    0.2591758394E-01    0.6160558993E-02    0.6959042790E+00    0.2650163804E+00    0.1251263588E-03
    0.2700000000E+06    0.2532623626E-01    0.6031830565E-02    0.6959045336E+00    0.2672753560E+00    0.1256627466E-03
    0.2900000000E+06    0.2477499168E-01    0.5911404510E-02    0.6959047181E+00    0.2693115614E+00    0.1261628426E-03
    0.3100000000E+06    0.2425968047E-01    0.5798467908E-02    0.6959048482E+00    0.2711597927E+00    0.1266313663E-03
    0.3300000000E+06    0.2377665800E-01    0.5692299763E-02    0.6959049356E+00    0.2728476282E+00    0.1270721655E-03
    0.3500000000E+06    0.2332274138E-01    0.5592263191E-02    0.6959049890E+00    0.2743972550E+00    0.1274884199E-03
    0.3700000000E+06    0.2289514784E-01    0.5497796200E-02    0.6959050151E+00    0.2758267583E+00    0.1278827873E-03
    0.3900000000E+06    0.2249143897E-01    0.5408402533E-02    0.6959050192E+00    0.2771510525E+00    0.1282575127E-03
    0.4100000000E+06    0.2210947194E-01    0.5323643223E-02    0.6959050054E+00    0.2783825649E+00    0.1286145099E-03
    0.4300000000E+06    0.2174735765E-01    0.5243129078E-02    0.6959049769E+00    0.2795317473E+00    0.1289554235E-03
    0.4500000000E+06    0.2140342507E-01    0.5166514118E-02    0.6959049365E+00    0.2806074639E+00    0.1292816778E-03
    0.4700000000E+06    0.2107619109E-01    0.5093489903E-02    0.6959048861E+00    0.2816172897E+00    0.1295945142E-03
    0.4900000000E+06    0.2076433495E-01    0.5023780664E-02    0.6959048275E+00    0.2825677432E+00    0.1298950217E-03
    0.1000000000E+06    0.3213379772E-01    0.7474095340E-02    0.6958948305E+00    0.2323199118E+00    0.1189130064E-03
    0.3000000000E+06    0.2451308377E-01    0.5854047165E-02    0.6959047891E+00    0.2702573055E+00    0.1264007928E-03
    0.5000000000E+06    0.2061379983E-01    0.4990090875E-02    0.6959047955E+00    0.2830224993E+00    0.1300409567E-03
    0.7000000000E+06    0.1818122525E-01    0.4442015969E-02    0.6959039648E+00    0.2900433845E+00    0.1324957065E-03
    0.9000000000E+06    0.1647383384E-01    0.4053162252E-02    0.6959030365E+00    0.2946523738E+00    0.1343593494E-03
    0.1100000000E+07    0.1518762599E-01    0.3757886067E-02    0.6959021456E+00    0.2979780065E+00    0.1358662357E-03
    0.1300000000E+07    0.1417209403E-01    0.3523267142E-02    0.6959013190E+00    0.3005244001E+00    0.1371335645E-03
    0.1500000000E+07    0.1334296506E-01    0.3330703275E-02    0.6959005577E+00    0.3025555343E+00    0.1382285691E-03
    0.1700000000E+07    0.1264881771E-01    0.3168762910E-02    0.6958998559E+00    0.3042249158E+00    0.1391934786E-03
    0.1900000000E+07    0.1205622058E-01    0.3029970558E-02    0.6958992068E+00    0.3056287460E+00    0.1400565901E-03
    0.2100000000E+07    0.1154235119E-01    0.2909197807E-02    0.6958986040E+00    0.3068308061E+00    0.1408378107E-03
    0.2300000000E+07    0.1109101387E-01    0.2802789824E-02    0.6958980417E+00    0.3078752846E+00    0.1415516874E-03
    0.2500000000E+07    0.1069034754E-01    0.2708059872E-02    0.6958975150E+00    0.3087938983E+00    0.1422091793E-03
    0.2700000000E+07    0.1033143534E-01    0.2622981332E-02    0.6958970200E+00    0.3096100837E+00    0.1428187522E-03
    0.2900000000E+07    0.1000742420E-01    0.2545991912E-02    0.6958965529E+00    0.3103415859E+00    0.1433870843E-03
    0.3100000000E+07    0.9712946883E-02    0.2475864639E-02    0.6958961109E+00    0.3110021213E+00    0.1439195382E-03
    0.3300000000E+07    0.9443730633E-02    0.2411620254E-02    0.6958956915E+00    0.3116024828E+00    0.1444204864E-03
    0.3500000000E+07    0.9196325113E-02    0.2352466117E-02    0.6958952924E+00    0.3121512954E+00    0.1448935418E-03
    0.3700000000E+07    0.8967908866E-02    0.2297752636E-02    0.6958949118E+00    0.3126555459E+00    0.1453417247E-03
    0.3900000000E+07    0.8756148776E-02    0.2246941548E-02    0.6958945480E+00    0.3131209627E+00    0.1457675863E-03
    0.4100000000E+07    0.8559096187E-02    0.2199582421E-02    0.6958941995E+00    0.3135522930E+00    0.1461733012E-03
    0.4300000000E+07    0.8375108870E-02    0.2155294960E-02    0.6958938652E+00    0.3139535089E+00    0.1465607383E-03
    0.4500000000E+07    0.8202791544E-02    0.2113755507E-02    0.6958935438E+00    0.3143279631E+00    0.1469315162E-03
    0.4700000000E+07    0.8040949959E-02    0.2074686583E-02    0.6958932345E+00    0.3146785074E+00    0.1472870456E-03
    0.4900000000E+07    0.7888555022E-02    0.2037848711E-02    0.6958929363E+00    0.3150075857E+00    0.1476285639E-03
    0.1000000000E+07    0.1578965076E-01    0.3896349943E-02    0.6959025836E+00    0.2964360087E+00    0.1351484329E-03
    0.3000000000E+07    0.9856782861E-02    0.2510136697E-02    0.6958963290E+00    0.3106799915E+00    0.1436575026E-03
    0.5000000000E+07    0.7815616518E-02    0.2020200355E-02    0.6958927911E+00    0.3151647452E+00    0.1477944151E-03
    0.7000000000E+07    0.6687662102E-02    0.1745781399E-02    0.6958903185E+00    0.3175676287E+00    0.1505841831E-03
    0.9000000000E+07    0.5945240422E-02    0.1563487163E-02    0.6958884100E+00    0.3191220434E+00    0.1527021820E-03
    0.1100000000E+08    0.5408472998E-02    0.1430760665E-02    0.6958868521E+00    0.3202330631E+00    0.1544147373E-03
    0.1300000000E+08    0.4996787388E-02    0.1328383179E-02    0.6958855336E+00    0.3210781445E+00    0.1558550407E-03
    0.1500000000E+08    0.4667923118E-02    0.1246210286E-02    0.6958843894E+00    0.3217489447E+00    0.1570995008E-03
    0.1700000000E+08    0.4397275685E-02    0.1178304961E-02    0.6958833778E+00    0.3222982168E+00    0.1581961097E-03
    0.1900000000E+08    0.4169410032E-02    0.1120926238E-02    0.6958824706E+00    0.3227587568E+00    0.1591770268E-03
    0.2100000000E+08    0.3974083561E-02    0.1071582061E-02    0.6958816478E+00    0.3231521682E+00    0.1600648759E-03
    0.2300000000E+08    0.3804194105E-02    0.1028538550E-02    0.6958808947E+00    0.3234933395E+00    0.1608761893E-03
    0.2500000000E+08    0.3654640000E-02    0.9905463959E-03    0.6958802002E+00    0.3237929097E+00    0.1616234220E-03
    0.2700000000E+08    0.3521648604E-02    0.9566791770E-03    0.6958795555E+00    0.3240587108E+00    0.1623161953E-03
