  Pressure (Pa) 22mC5-500 (mol/kg) 23mC5-500 (mol/kg) 24mC5-500 (mol/kg) 2mC6-500 (mol/kg) C7-500 (mol/kg)
    0.1000000000E+01    0.8105969312E-05    0.1744347968E-05    0.1741049654E+00    0.5176319278E-05    0.4199530974E-02
    0.3000000000E+01    0.1500296160E-04    0.3217203176E-05    0.3481109026E+00    0.9078027455E-05    0.4241405126E-02
    0.5000000000E+01    0.1788510036E-04    0.3827548016E-05    0.4350781240E+00    0.1061048322E-04    0.4261804154E-02
    0.7000000000E+01    0.1943692618E-04    0.4155152347E-05    0.4872476302E+00    0.1153460597E-04    0.4274254381E-02
    0.9000000000E+01    0.2044412873E-04    0.4368480201E-05    0.5220230297E+00    0.1228574828E-04    0.4282736090E-02
    0.1100000000E+02    0.2120168639E-04    0.4530278097E-05    0.5468606147E+00    0.1299725553E-04    0.4288929346E-02
    0.1300000000E+02    0.2183800488E-04    0.4667614056E-05    0.5654877687E+00    0.1371362589E-04    0.4293674557E-02
    0.1500000000E+02    0.2241463506E-04    0.4793326309E-05    0.5799749682E+00    0.1444921225E-04    0.4297441152E-02
    0.1700000000E+02    0.2296305403E-04    0.4913896368E-05    0.5915643720E+00    0.1520734449E-04    0.4300512918E-02
    0.1900000000E+02    0.2350005379E-04    0.5032725867E-05    0.6010463838E+00    0.1598726649E-04    0.4303072004E-02
    0.2100000000E+02    0.2403480568E-04    0.5151632407E-05    0.6089479080E+00    0.1678682460E-04    0.4305240964E-02
    0.2300000000E+02    0.2457234219E-04    0.5271582247E-05    0.6156337070E+00    0.1760354025E-04    0.4307105450E-02
    0.2500000000E+02    0.2511537098E-04    0.5393069448E-05    0.6213643154E+00    0.1843503083E-04    0.4308727239E-02
    0.2700000000E+02    0.2566526292E-04    0.5516320775E-05    0.6263307860E+00    0.1927915856E-04    0.4310152079E-02
    0.2900000000E+02    0.2622260939E-04    0.5641410277E-05    0.6306764045E+00    0.2013406502E-04    0.4311414618E-02
    0.3100000000E+02    0.2678754567E-04    0.5768325078E-05    0.6345107400E+00    0.2099815918E-04    0.4312541615E-02
    0.3300000000E+02    0.2735994263E-04    0.5897003924E-05    0.6379190111E+00    0.2187008868E-04    0.4313554088E-02
    0.3500000000E+02    0.2793952223E-04    0.6027360047E-05    0.6409684948E+00    0.2274870718E-04    0.4314468792E-02
    0.3700000000E+02    0.2852592774E-04    0.6159294823E-05    0.6437130118E+00    0.2363304329E-04    0.4315299264E-02
    0.3900000000E+02    0.2911876668E-04    0.6292705910E-05    0.6461961307E+00    0.2452227290E-04    0.4316056568E-02
    0.4100000000E+02    0.2971763691E-04    0.6427492040E-05    0.6484534983E+00    0.2541569551E-04    0.4316749843E-02
    0.4300000000E+02    0.3032214223E-04    0.6563555742E-05    0.6505145615E+00    0.2631271423E-04    0.4317386712E-02
    0.4500000000E+02    0.3093190149E-04    0.6700804814E-05    0.6524038594E+00    0.2721281915E-04    0.4317973589E-02
    0.4700000000E+02    0.3154655354E-04    0.6839153004E-05    0.6541420044E+00    0.2811557345E-04    0.4318515911E-02
    0.4900000000E+02    0.3216575959E-04    0.6978520216E-05    0.6557464379E+00    0.2902060197E-04    0.4319018322E-02
    0.1000000000E+02    0.2084383458E-04    0.4453647916E-05    0.5353973139E+00    0.1264259227E-04    0.4286054205E-02
    0.3000000000E+02    0.2650413231E-04    0.5704642534E-05    0.6326516722E+00    0.2056505338E-04    0.4311993631E-02
    0.5000000000E+02    0.3247697080E-04    0.7048562594E-05    0.6565032433E+00    0.2947386630E-04    0.4319255831E-02
    0.7000000000E+02    0.3887549631E-04    0.8487900550E-05    0.6672848891E+00    0.3860030965E-04    0.4322639322E-02
    0.9000000000E+02    0.4549076047E-04    0.9974411981E-05    0.6734289780E+00    0.4776591760E-04    0.4324464547E-02
    0.1100000000E+03    0.5222689475E-04    0.1148673101E-04    0.6773979734E+00    0.5692590489E-04    0.4325475765E-02
    0.1300000000E+03    0.5903773113E-04    0.1301476398E-04    0.6801731412E+00    0.6607015929E-04    0.4325995004E-02
    0.1500000000E+03    0.6589941175E-04    0.1455337894E-04    0.6822226618E+00    0.7519914659E-04    0.4326187730E-02
    0.1700000000E+03    0.7279898193E-04    0.1609983664E-04    0.6837982134E+00    0.8431667988E-04    0.4326149108E-02
    0.1900000000E+03    0.7972921805E-04    0.1765264145E-04    0.6850471503E+00    0.9342746221E-04    0.4325938430E-02
    0.2100000000E+03    0.8668608603E-04    0.1921098259E-04    0.6860614815E+00    0.1025362040E-03    0.4325594907E-02
    0.2300000000E+03    0.9366740678E-04    0.2077444326E-04    0.6869016244E+00    0.1116473141E-03    0.4325145696E-02
    0.2500000000E+03    0.1006721168E-03    0.2234284084E-04    0.6876088915E+00    0.1207648124E-03    0.4324610314E-02
    0.2700000000E+03    0.1076998402E-03    0.2391613510E-04    0.6882124887E+00    0.1298923284E-03    0.4324003215E-02
    0.2900000000E+03    0.1147506322E-03    0.2549437363E-04    0.6887336474E+00    0.1390331320E-03    0.4323335373E-02
    0.3100000000E+03    0.1218248208E-03    0.2707765846E-04    0.6891881723E+00    0.1481901737E-03    0.4322615296E-02
    0.3300000000E+03    0.1289229067E-03    0.2866612519E-04    0.6895880709E+00    0.1573661252E-03    0.4321849700E-02
    0.3500000000E+03    0.1360454991E-03    0.3025992964E-04    0.6899426294E+00    0.1665634168E-03    0.4321043969E-02
    0.3700000000E+03    0.1431932734E-03    0.3185923937E-04    0.6902591422E+00    0.1757842694E-03    0.4320202477E-02
    0.3900000000E+03    0.1503669441E-03    0.3346422803E-04    0.6905434186E+00    0.1850307236E-03    0.4319328819E-02
    0.4100000000E+03    0.1575672458E-03    0.3507507183E-04    0.6908001428E+00    0.1943046634E-03    0.4318425980E-02
    0.4300000000E+03    0.1647949218E-03    0.3669194715E-04    0.6910331332E+00    0.2036078371E-03    0.4317496464E-02
    0.4500000000E+03    0.1720507156E-03    0.3831502904E-04    0.6912455342E+00    0.2129418746E-03    0.4316542384E-02
    0.4700000000E+03    0.1793353658E-03    0.3994449036E-04    0.6914399579E+00    0.2223083030E-03    0.4315565539E-02
    0.4900000000E+03    0.1866496031E-03    0.4158050117E-04    0.6916185929E+00    0.2317085587E-03    0.4314567471E-02
    0.1000000000E+03    0.4884733206E-04    0.1072813915E-04    0.6756061702E+00    0.5234763987E-04    0.4325046449E-02
    0.3000000000E+03    0.1182847738E-03    0.2628537739E-04    0.6889684143E+00    0.1436094500E-03    0.4322981408E-02
    0.5000000000E+03    0.1903180425E-03    0.4240101496E-04    0.6917025782E+00    0.2364217988E-03    0.4314060900E-02
    0.7000000000E+03    0.2654100498E-03    0.5919424005E-04    0.6928800741E+00    0.3327604817E-03    0.4303057191E-02
    0.9000000000E+03    0.3442199057E-03    0.7681599903E-04    0.6935354165E+00    0.4337258477E-03    0.4290729732E-02
    0.1100000000E+04    0.4273431736E-03    0.9540078212E-04    0.6939527307E+00    0.5401676901E-03    0.4277291807E-02
    0.1300000000E+04    0.5153610800E-03    0.1150791752E-03    0.6942416729E+00    0.6528700121E-03    0.4262794677E-02
    0.1500000000E+04    0.6088751466E-03    0.1359860229E-03    0.6944535202E+00    0.7726254273E-03    0.4247220776E-02
    0.1700000000E+04    0.7085307874E-03    0.1582658550E-03    0.6946154554E+00    0.9002755162E-03    0.4230514472E-02
    0.1900000000E+04    0.8150361975E-03    0.1820771748E-03    0.6947432297E+00    0.1036739198E-02    0.4212593721E-02
    0.2100000000E+04    0.9291799362E-03    0.2075964219E-03    0.6948465998E+00    0.1183037279E-02    0.4193354405E-02
    0.2300000000E+04    0.1051849137E-02    0.2350220623E-03    0.6949319317E+00    0.1340316928E-02    0.4172671295E-02
    0.2500000000E+04    0.1184049647E-02    0.2645791019E-03    0.6950035554E+00    0.1509878250E-02    0.4150397149E-02
    0.2700000000E+04    0.1326929174E-02    0.2965242702E-03    0.6950645185E+00    0.1693204573E-02    0.4126360548E-02
    0.2900000000E+04    0.1481804488E-02    0.3311521103E-03    0.6951170282E+00    0.1891997901E-02    0.4100362688E-02
    0.3100000000E+04    0.1650193843E-02    0.3688022327E-03    0.6951627222E+00    0.2108221099E-02    0.4072173171E-02
    0.3300000000E+04    0.1833855928E-02    0.4098680338E-03    0.6952028411E+00    0.2344148553E-02    0.4041524722E-02
    0.3500000000E+04    0.2034836943E-02    0.4548072291E-03    0.6952383420E+00    0.2602427411E-02    0.4008106679E-02
    0.3700000000E+04    0.2255527682E-02    0.5041546272E-03    0.6952699750E+00    0.2886151862E-02    0.3971557070E-02
    0.3900000000E+04    0.2498732856E-02    0.5585376430E-03    0.6952983363E+00    0.3198953420E-02    0.3931453015E-02
    0.4100000000E+04    0.2767755263E-02    0.6186951343E-03    0.6953239055E+00    0.3545110634E-02    0.3887299175E-02
    0.4300000000E+04    0.3066497691E-02    0.6855002082E-03    0.6953470731E+00    0.3929682064E-02    0.3838513965E-02
    0.4500000000E+04    0.3399585545E-02    0.7599876692E-03    0.6953681602E+00    0.4358666542E-02    0.3784413266E-02
    0.4700000000E+04    0.3772512794E-02    0.8433866882E-03    0.6953874330E+00    0.4839194238E-02    0.3724191537E-02
    0.4900000000E+04    0.4191812410E-02    0.9371589629E-03    0.6954051144E+00    0.5379750357E-02    0.3656900533E-02
    0.1000000000E+04    0.3852061810E-03    0.8597987390E-04    0.6937649232E+00    0.4862127940E-03    0.4284144167E-02
    0.3000000000E+04    0.1564206136E-02    0.3495761732E-03    0.6951406418E+00    0.1997796579E-02    0.4086557657E-02
    0.5000000000E+04    0.4421224615E-02    0.9884659804E-03    0.6954134182E+00    0.5675623230E-02    0.3620263099E-02
    0.7000000000E+04    0.1417997719E-01    0.3171612479E-02    0.6955290926E+00    0.1832304218E-01    0.2154839434E-02
    0.9000000000E+04    0.2937098082E-01    0.6574220821E-02    0.6955926409E+00    0.3841072972E-01    0.3744168853E-03
    0.1100000000E+05    0.3470611577E-01    0.7775033536E-02    0.6956326137E+00    0.4602282243E-01    0.2256694840E-03
    0.1300000000E+05    0.3845794407E-01    0.8622660252E-02    0.6956599581E+00    0.5168762135E-01    0.2235153010E-03
    0.1500000000E+05    0.4171443380E-01    0.9360243121E-02    0.6956797659E+00    0.5679235619E-01    0.2251718401E-03
    0.1700000000E+05    0.4458202047E-01    0.1001137452E-01    0.6956947238E+00    0.6145460809E-01    0.2267410349E-03
    0.1900000000E+05    0.4712149913E-01    0.1058948440E-01    0.6957063818E+00    0.6573705287E-01    0.2281484237E-03
    0.2100000000E+05    0.4938120303E-01    0.1110525517E-01    0.6957156961E+00    0.6968984876E-01    0.2294222678E-03
    0.2300000000E+05    0.5140058546E-01    0.1156741317E-01    0.6957232881E+00    0.7335440961E-01    0.2305861758E-03
    0.2500000000E+05    0.5321217570E-01    0.1198315877E-01    0.6957295788E+00    0.7676528184E-01    0.2316580526E-03
    0.2700000000E+05    0.5484302201E-01    0.1235848375E-01    0.6957348632E+00    0.7995152825E-01    0.2326517306E-03
    0.2900000000E+05    0.5631578891E-01    0.1269841272E-01    0.6957393545E+00    0.8293778730E-01    0.2335781190E-03
    0.3100000000E+05    0.5764960223E-01    0.1300718911E-01    0.6957432099E+00    0.8574509458E-01    0.2344459755E-03
    0.3300000000E+05    0.5886070681E-01    0.1328841999E-01    0.6957465484E+00    0.8839152677E-01    0.2352624397E-03
    0.3500000000E+05    0.5996298356E-01    0.1354519002E-01    0.6957494610E+00    0.9089271138E-01    0.2360334095E-03
    0.3700000000E+05    0.6096835961E-01    0.1378015179E-01    0.6957520192E+00    0.9326223395E-01    0.2367638151E-03
    0.3900000000E+05    0.6188713638E-01    0.1399559820E-01    0.6957542794E+00    0.9551196608E-01    0.2374578199E-03
    0.4100000000E+05    0.6272825408E-01    0.1419352080E-01    0.6957562868E+00    0.9765233176E-01    0.2381189725E-03
    0.4300000000E+05    0.6349950651E-01    0.1437565719E-01    0.6957580780E+00    0.9969252511E-01    0.2387503226E-03
    0.4500000000E+05    0.6420771669E-01    0.1454352979E-01    0.6957596832E+00    0.1016406897E+00    0.2393545106E-03
    0.4700000000E+05    0.6485888138E-01    0.1469847778E-01    0.6957611271E+00    0.1035040672E+00    0.2399338380E-03
    0.4900000000E+05    0.6545829066E-01    0.1484168352E-01    0.6957624305E+00    0.1052891210E+00    0.2404903235E-03
    0.1000000000E+05    0.3248214813E-01    0.7273718898E-02    0.6956146841E+00    0.4277683095E-01    0.2462850564E-03
    0.3000000000E+05    0.5699898859E-01    0.1285645610E-01    0.6957413535E+00    0.8436261731E-01    0.2340188846E-03
    0.5000000000E+05    0.6574007180E-01    0.1490921515E-01    0.6957630350E+00    0.1061541095E+00    0.2407605651E-03
    0.7000000000E+05    0.6955182256E-01    0.1584354062E-01    0.6957707897E+00    0.1204722415E+00    0.2453059552E-03
    0.9000000000E+05    0.7128599779E-01    0.1629923168E-01    0.6957742360E+00    0.1309893243E+00    0.2487565089E-03
    0.1100000000E+06    0.7199877641E-01    0.1651551026E-01    0.6957758749E+00    0.1392455512E+00    0.2515463858E-03
    0.1300000000E+06    0.7216021201E-01    0.1659992391E-01    0.6957766220E+00    0.1460165393E+00    0.2538926661E-03
    0.1500000000E+06    0.7200597919E-01    0.1660698529E-01    0.6957768831E+00    0.1517425849E+00    0.2559198669E-03
    0.1700000000E+06    0.7166449565E-01    0.1656675325E-01    0.6957768618E+00    0.1566957631E+00    0.2577061907E-03
    0.1900000000E+06    0.7121011860E-01    0.1649686272E-01    0.6957766694E+00    0.1610551819E+00    0.2593040369E-03
    0.2100000000E+06    0.7068790630E-01    0.1640815818E-01    0.6957763705E+00    0.1649446680E+00    0.2607502670E-03
    0.2300000000E+06    0.7012611725E-01    0.1630755511E-01    0.6957760047E+00    0.1684532351E+00    0.2620718159E-03
    0.2500000000E+06    0.6954293561E-01    0.1619958987E-01    0.6957755971E+00    0.1716469368E+00    0.2632889752E-03
    0.2700000000E+06    0.6895028146E-01    0.1608730385E-01    0.6957751640E+00    0.1745760971E+00    0.2644174196E-03
    0.2900000000E+06    0.6835606299E-01    0.1597276987E-01    0.6957747162E+00    0.1772799165E+00    0.2654695135E-03
    0.3100000000E+06    0.6776555587E-01    0.1585741710E-01    0.6957742611E+00    0.1797895134E+00    0.2664551854E-03
    0.3300000000E+06    0.6718227361E-01    0.1574223776E-01    0.6957738038E+00    0.1821299974E+00    0.2673825309E-03
    0.3500000000E+06    0.6660853098E-01    0.1562792212E-01    0.6957733477E+00    0.1843219185E+00    0.2682582387E-03
    0.3700000000E+06    0.6604581682E-01    0.1551494867E-01    0.6957728953E+00    0.1863823067E+00    0.2690879008E-03
    0.3900000000E+06    0.6549504530E-01    0.1540364550E-01    0.6957724482E+00    0.1883254313E+00    0.2698762401E-03
    0.4100000000E+06    0.6495672812E-01    0.1529423289E-01    0.6957720075E+00    0.1901633665E+00    0.2706272826E-03
    0.4300000000E+06    0.6443109413E-01    0.1518685314E-01    0.6957715739E+00    0.1919064191E+00    0.2713444886E-03
    0.4500000000E+06    0.6391817336E-01    0.1508159195E-01    0.6957711480E+00    0.1935634575E+00    0.2720308542E-03
    0.4700000000E+06    0.6341785677E-01    0.1497849375E-01    0.6957707300E+00    0.1951421675E+00    0.2726889913E-03
    0.4900000000E+06    0.6292993893E-01    0.1487757285E-01    0.6957703199E+00    0.1966492530E+00    0.2733211908E-03
    0.1000000000E+06    0.7173280991E-01    0.1642879892E-01    0.6957752060E+00    0.1353406757E+00    0.2502174459E-03
    0.3000000000E+06    0.6806009237E-01    0.1591512543E-01    0.6957744892E+00    0.1785573020E+00    0.2659701089E-03
    0.5000000000E+06    0.6269054675E-01    0.1482792718E-01    0.6957701179E+00    0.1973778035E+00    0.2736282047E-03
    0.7000000000E+06    0.5847328131E-01    0.1394138606E-01    0.6957664757E+00    0.2093016878E+00    0.2787924248E-03
    0.9000000000E+06    0.5511606438E-01    0.1322229964E-01    0.6957634631E+00    0.2179257749E+00    0.2827130756E-03
    0.1100000000E+07    0.5236293297E-01    0.1262527313E-01    0.6957609106E+00    0.2246175648E+00    0.2858831850E-03
    0.1300000000E+07    0.5004753551E-01    0.1211853932E-01    0.6957586997E+00    0.2300445170E+00    0.2885493164E-03
    0.1500000000E+07    0.4806077863E-01    0.1168054804E-01    0.6957567503E+00    0.2345821694E+00    0.2908529154E-03
    0.1700000000E+07    0.4632842960E-01    0.1129632971E-01    0.6957550068E+00    0.2384624346E+00    0.2928828234E-03
    0.1900000000E+07    0.4479809245E-01    0.1095516456E-01    0.6957534295E+00    0.2418383301E+00    0.2946985717E-03
    0.2100000000E+07    0.4343158012E-01    0.1064915369E-01    0.6957519891E+00    0.2448159578E+00    0.2963420407E-03
    0.2300000000E+07    0.4220029006E-01    0.1037232861E-01    0.6957506634E+00    0.2474717934E+00    0.2978438338E-03
    0.2500000000E+07    0.4108229393E-01    0.1012008016E-01    0.6957494352E+00    0.2498626997E+00    0.2992270069E-03
    0.2700000000E+07    0.4006044155E-01    0.9888781078E-02    0.6957482908E+00    0.2520320512E+00    0.3005093700E-03
    0.2900000000E+07    0.3912108663E-01    0.9675529645E-02    0.6957472193E+00    0.2540136483E+00    0.3017049727E-03
    0.3100000000E+07    0.3825320689E-01    0.9477970921E-02    0.6957462118E+00    0.2558343145E+00    0.3028250965E-03
    0.3300000000E+07    0.3744778148E-01    0.9294169387E-02    0.6957452609E+00    0.2575156715E+00    0.3038789402E-03
    0.3500000000E+07    0.3669734120E-01    0.9122516287E-02    0.6957443604E+00    0.2590753876E+00    0.3048741047E-03
    0.3700000000E+07    0.3599563719E-01    0.8961660998E-02    0.6957435052E+00    0.2605280738E+00    0.3058169438E-03
    0.3900000000E+07    0.3533739284E-01    0.8810459378E-02    0.6957426909E+00    0.2618859419E+00    0.3067128246E-03
    0.4100000000E+07    0.3471811514E-01    0.8667934308E-02    0.6957419135E+00    0.2631592954E+00    0.3075663219E-03
    0.4300000000E+07    0.3413394931E-01    0.8533245158E-02    0.6957411698E+00    0.2643569014E+00    0.3083813678E-03
    0.4500000000E+07    0.3358156528E-01    0.8405663860E-02    0.6957404570E+00    0.2654862777E+00    0.3091613669E-03
    0.4700000000E+07    0.3305806815E-01    0.8284555971E-02    0.6957397725E+00    0.2665539153E+00    0.3099092873E-03
    0.4900000000E+07    0.3256092683E-01    0.8169365521E-02    0.6957391140E+00    0.2675654546E+00    0.3106277323E-03
    0.1000000000E+07    0.5367607457E-01    0.1291080591E-01    0.6957621379E+00    0.2214619057E+00    0.2843731100E-03
    0.3000000000E+07    0.3867881711E-01    0.9574918270E-02    0.6957467080E+00    0.2549426412E+00    0.3022738522E-03
    0.5000000000E+07    0.3232153372E-01    0.8113833991E-02    0.6957387940E+00    0.2680517525E+00    0.3109766296E-03
    0.7000000000E+07    0.2849597704E-01    0.7220772258E-02    0.6957333851E+00    0.2757576791E+00    0.3168453779E-03
    0.9000000000E+07    0.2584570307E-01    0.6595596141E-02    0.6957292529E+00    0.2810317218E+00    0.3213009155E-03
    0.1100000000E+08    0.2386040580E-01    0.6123601473E-02    0.6957258994E+00    0.2849523600E+00    0.3249035207E-03
    0.1300000000E+08    0.2229678744E-01    0.5749520836E-02    0.6957230723E+00    0.2880238334E+00    0.3279333918E-03
    0.1500000000E+08    0.2102138173E-01    0.5442793200E-02    0.6957206254E+00    0.2905192574E+00    0.3305512702E-03
    0.1700000000E+08    0.1995375241E-01    0.5184881614E-02    0.6957184665E+00    0.2926017401E+00    0.3328581176E-03
    0.1900000000E+08    0.1904201877E-01    0.4963765460E-02    0.6957165335E+00    0.2943757612E+00    0.3349215873E-03
    0.2100000000E+08    0.1825095159E-01    0.4771244403E-02    0.6957147825E+00    0.2959118815E+00    0.3367892731E-03
    0.2300000000E+08    0.1755564175E-01    0.4601496794E-02    0.6957131814E+00    0.2972597706E+00    0.3384959539E-03
    0.2500000000E+08    0.1693789266E-01    0.4450254432E-02    0.6957117060E+00    0.2984555796E+00    0.3400678309E-03
    0.2700000000E+08    0.1638404834E-01    0.4314303753E-02    0.6957103376E+00    0.2995263537E+00    0.3415251442E-03
