  Pressure (Pa) 22mC5-500 (mol/kg) 23mC5-500 (mol/kg) 24mC5-500 (mol/kg) 2mC6-500 (mol/kg) C7-500 (mol/kg)
    0.1000000000E+01    0.8632680807E-05    0.6197296237E-06    0.1513999691E+00    0.2243191234E-04    0.4168600251E-02
    0.3000000000E+01    0.1684035240E-04    0.1205174477E-05    0.3164778907E+00    0.4166700252E-04    0.4194405756E-02
    0.5000000000E+01    0.2062645841E-04    0.1473355275E-05    0.4047426275E+00    0.4998715038E-04    0.4205039645E-02
    0.7000000000E+01    0.2276566375E-04    0.1624354502E-05    0.4596903171E+00    0.5495379648E-04    0.4211228287E-02
    0.9000000000E+01    0.2416862289E-04    0.1723467003E-05    0.4971908968E+00    0.5874600334E-04    0.4215273339E-02
    0.1100000000E+02    0.2520551061E-04    0.1797072460E-05    0.5244160170E+00    0.6212728798E-04    0.4218093176E-02
    0.1300000000E+02    0.2604823211E-04    0.1857339191E-05    0.5450803318E+00    0.6539477726E-04    0.4220140474E-02
    0.1500000000E+02    0.2678419522E-04    0.1910408095E-05    0.5613005029E+00    0.6866939445E-04    0.4221667042E-02
    0.1700000000E+02    0.2746081088E-04    0.1959581722E-05    0.5743710662E+00    0.7199941113E-04    0.4222824955E-02
    0.1900000000E+02    0.2810503030E-04    0.2006718845E-05    0.5851282599E+00    0.7540153638E-04    0.4223711791E-02
    0.2100000000E+02    0.2873269933E-04    0.2052899368E-05    0.5941363487E+00    0.7887848703E-04    0.4224393176E-02
    0.2300000000E+02    0.2935335001E-04    0.2098763397E-05    0.6017898804E+00    0.8242689868E-04    0.4224914945E-02
    0.2500000000E+02    0.2997279095E-04    0.2144693662E-05    0.6083730333E+00    0.8604100178E-04    0.4225310118E-02
    0.2700000000E+02    0.3059457048E-04    0.2190918023E-05    0.6140956870E+00    0.8971434862E-04    0.4225603107E-02
    0.2900000000E+02    0.3122083358E-04    0.2237569163E-05    0.6191162151E+00    0.9344061128E-04    0.4225812367E-02
    0.3100000000E+02    0.3185283899E-04    0.2284720389E-05    0.6235563722E+00    0.9721392732E-04    0.4225952114E-02
    0.3300000000E+02    0.3249127921E-04    0.2332407630E-05    0.6275112994E+00    0.1010290238E-03    0.4226033485E-02
    0.3500000000E+02    0.3313648266E-04    0.2380643231E-05    0.6310564191E+00    0.1048812340E-03    0.4226065333E-02
    0.3700000000E+02    0.3378854364E-04    0.2429424732E-05    0.6342522922E+00    0.1087664646E-03    0.4226054784E-02
    0.3900000000E+02    0.3444740694E-04    0.2478740537E-05    0.6371481068E+00    0.1126811425E-03    0.4226007644E-02
    0.4100000000E+02    0.3511292359E-04    0.2528573595E-05    0.6397842278E+00    0.1166221559E-03    0.4225928690E-02
    0.4300000000E+02    0.3578488788E-04    0.2578903813E-05    0.6421940909E+00    0.1205867967E-03    0.4225821891E-02
    0.4500000000E+02    0.3646306188E-04    0.2629709625E-05    0.6444056279E+00    0.1245727080E-03    0.4225690572E-02
    0.4700000000E+02    0.3714719195E-04    0.2680969024E-05    0.6464423545E+00    0.1285778361E-03    0.4225537540E-02
    0.4900000000E+02    0.3783701952E-04    0.2732660217E-05    0.6483242102E+00    0.1326003902E-03    0.4225365183E-02
    0.1000000000E+02    0.2471928881E-04    0.1762498011E-05    0.5118044971E+00    0.6046334345E-04    0.4216801567E-02
    0.3000000000E+02    0.3153606475E-04    0.2261079336E-05    0.6214023628E+00    0.9532173154E-04    0.4225890172E-02
    0.5000000000E+02    0.3818398953E-04    0.2758661091E-05    0.6492124788E+00    0.1346177050E-03    0.4225272408E-02
    0.7000000000E+02    0.4536550864E-04    0.3296762612E-05    0.6619092887E+00    0.1755901054E-03    0.4222771618E-02
    0.9000000000E+02    0.5289377000E-04    0.3860443931E-05    0.6691804687E+00    0.2173492959E-03    0.4219557479E-02
    0.1100000000E+03    0.6066598492E-04    0.4441936377E-05    0.6738915369E+00    0.2596420408E-03    0.4215983223E-02
    0.1300000000E+03    0.6862973652E-04    0.5037368125E-05    0.6771921864E+00    0.3023992738E-03    0.4212191637E-02
    0.1500000000E+03    0.7675749036E-04    0.5644740603E-05    0.6796333335E+00    0.3456143255E-03    0.4208250687E-02
    0.1700000000E+03    0.8503458951E-04    0.6263009766E-05    0.6815120258E+00    0.3893037206E-03    0.4204196190E-02
    0.1900000000E+03    0.9345346717E-04    0.6891651148E-05    0.6830025692E+00    0.4334928458E-03    0.4200048287E-02
    0.2100000000E+03    0.1020106861E-03    0.7530440039E-05    0.6842139888E+00    0.4782102807E-03    0.4195818736E-02
    0.2300000000E+03    0.1107053358E-03    0.8179333609E-05    0.6852179742E+00    0.5234854729E-03    0.4191514497E-02
    0.2500000000E+03    0.1195381216E-03    0.8838404446E-05    0.6860636006E+00    0.5693478034E-03    0.4187139620E-02
    0.2700000000E+03    0.1285108255E-03    0.9507801528E-05    0.6867855946E+00    0.6158262552E-03    0.4182696314E-02
    0.2900000000E+03    0.1376259768E-03    0.1018772652E-04    0.6874092205E+00    0.6629493496E-03    0.4178185572E-02
    0.3100000000E+03    0.1468866444E-03    0.1087841897E-04    0.6879532983E+00    0.7107451999E-03    0.4173607559E-02
    0.3300000000E+03    0.1562963044E-03    0.1158014696E-04    0.6884321346E+00    0.7592416127E-03    0.4168961858E-02
    0.3500000000E+03    0.1658587533E-03    0.1229320096E-04    0.6888567996E+00    0.8084662054E-03    0.4164247626E-02
    0.3700000000E+03    0.1755780518E-03    0.1301788997E-04    0.6892359929E+00    0.8584465242E-03    0.4159463703E-02
    0.3900000000E+03    0.1854584874E-03    0.1375453894E-04    0.6895766460E+00    0.9092101576E-03    0.4154608685E-02
    0.4100000000E+03    0.1955045503E-03    0.1450348716E-04    0.6898843499E+00    0.9607848412E-03    0.4149680973E-02
    0.4300000000E+03    0.2057209191E-03    0.1526508729E-04    0.6901636638E+00    0.1013198556E-02    0.4144678806E-02
    0.4500000000E+03    0.2161124514E-03    0.1603970484E-04    0.6904183429E+00    0.1066479616E-02    0.4139600288E-02
    0.4700000000E+03    0.2266841800E-03    0.1682771789E-04    0.6906515084E+00    0.1120656758E-02    0.4134443403E-02
    0.4900000000E+03    0.2374413118E-03    0.1762951715E-04    0.6908657751E+00    0.1175759212E-02    0.4129206026E-02
    0.1000000000E+03    0.5675345073E-04    0.4149265758E-05    0.6717633543E+00    0.2384355249E-03    0.4217803855E-02
    0.3000000000E+03    0.1422379122E-03    0.1053171064E-04    0.6876902204E+00    0.6867614365E-03    0.4175904989E-02
    0.5000000000E+03    0.2428910790E-03    0.1803571219E-04    0.6909665252E+00    0.1203666720E-02    0.4126556463E-02
    0.7000000000E+03    0.3630519325E-03    0.2699054103E-04    0.6923799918E+00    0.1818147735E-02    0.4068739051E-02
    0.9000000000E+03    0.5093755175E-03    0.3789359465E-04    0.6931675793E+00    0.2565648472E-02    0.3999659692E-02
    0.1100000000E+04    0.6913227435E-03    0.5145050999E-04    0.6936695794E+00    0.3495188304E-02    0.3915356608E-02
    0.1300000000E+04    0.9227685967E-03    0.6869566580E-04    0.6940174498E+00    0.4678272829E-02    0.3810125372E-02
    0.1500000000E+04    0.1224657530E-02    0.9119033540E-04    0.6942727032E+00    0.6222778271E-02    0.3675536692E-02
    0.1700000000E+04    0.1629325276E-02    0.1213450370E-03    0.6944679652E+00    0.8295417854E-02    0.3498907462E-02
    0.1900000000E+04    0.2187087883E-02    0.1629110841E-03    0.6946221492E+00    0.1115611924E-01    0.3261174922E-02
    0.2100000000E+04    0.2973870677E-02    0.2215502350E-03    0.6947469750E+00    0.1519842151E-01    0.2935101311E-02
    0.2300000000E+04    0.4089179053E-02    0.3046857385E-03    0.6948500922E+00    0.2094163024E-01    0.2488863307E-02
    0.2500000000E+04    0.5605331485E-02    0.4177221472E-03    0.6949367053E+00    0.2877391460E-01    0.1910576062E-02
    0.2700000000E+04    0.7417204677E-02    0.5528462499E-03    0.6950104788E+00    0.3817966621E-01    0.1267156459E-02
    0.2900000000E+04    0.9151611108E-02    0.6822572707E-03    0.6950740673E+00    0.4725614122E-01    0.7197678597E-03
    0.3100000000E+04    0.1047903227E-01    0.7813844096E-03    0.6951294409E+00    0.5429710943E-01    0.3795722418E-03
    0.3300000000E+04    0.1140257475E-01    0.8504380396E-03    0.6951780926E+00    0.5929474795E-01    0.2144448559E-03
    0.3500000000E+04    0.1207991476E-01    0.9011576940E-03    0.6952211743E+00    0.6304563783E-01    0.1446909961E-03
    0.3700000000E+04    0.1263285214E-01    0.9426172666E-03    0.6952595890E+00    0.6617130267E-01    0.1170121707E-03
    0.3900000000E+04    0.1312351734E-01    0.9794464498E-03    0.6952940548E+00    0.6899001386E-01    0.1063388267E-03
    0.4100000000E+04    0.1357943511E-01    0.1013696314E-02    0.6953251495E+00    0.7164284156E-01    0.1023295244E-03
    0.4300000000E+04    0.1401238602E-01    0.1046244446E-02    0.6953533436E+00    0.7418988016E-01    0.1009107301E-03
    0.4500000000E+04    0.1442754123E-01    0.1077475718E-02    0.6953790239E+00    0.7665712630E-01    0.1004982128E-03
    0.4700000000E+04    0.1482736074E-01    0.1107572875E-02    0.6954025113E+00    0.7905656891E-01    0.1004758002E-03
    0.4900000000E+04    0.1521318894E-01    0.1136635496E-02    0.6954240746E+00    0.8139444183E-01    0.1006027230E-03
    0.1000000000E+04    0.5951572025E-03    0.4428522451E-04    0.6934436056E+00    0.3003851909E-02    0.3959717519E-02
    0.3000000000E+04    0.9873175340E-02    0.7361280109E-03    0.6951026783E+00    0.5106853583E-01    0.5231136280E-03
    0.5000000000E+04    0.1540113938E-01    0.1150799764E-02    0.6954342069E+00    0.8254153565E-01    0.1006898309E-03
    0.7000000000E+04    0.1857473500E-01    0.1390755637E-02    0.6955758294E+00    0.1028723034E+00    0.1025529385E-03
    0.9000000000E+04    0.2089338173E-01    0.1567308145E-02    0.6956542119E+00    0.1192756465E+00    0.1040013799E-03
    0.1100000000E+05    0.2262102451E-01    0.1699890735E-02    0.6957038906E+00    0.1328321626E+00    0.1051715108E-03
    0.1300000000E+05    0.2392655223E-01    0.1800963225E-02    0.6957381391E+00    0.1442546902E+00    0.1061550550E-03
    0.1500000000E+05    0.2492255130E-01    0.1878849141E-02    0.6957631460E+00    0.1540334560E+00    0.1070045234E-03
    0.1700000000E+05    0.2568660266E-01    0.1939296499E-02    0.6957821841E+00    0.1625170980E+00    0.1077528495E-03
    0.1900000000E+05    0.2627366577E-01    0.1986386400E-02    0.6957971463E+00    0.1699606255E+00    0.1084220781E-03
    0.2100000000E+05    0.2672359860E-01    0.2023085394E-02    0.6958092028E+00    0.1765550715E+00    0.1090277051E-03
    0.2300000000E+05    0.2706589448E-01    0.2051593839E-02    0.6958191160E+00    0.1824465135E+00    0.1095810471E-03
    0.2500000000E+05    0.2732276090E-01    0.2073572594E-02    0.6958274037E+00    0.1877486665E+00    0.1100906250E-03
    0.2700000000E+05    0.2751117587E-01    0.2090294624E-02    0.6958344296E+00    0.1925514512E+00    0.1105630184E-03
    0.2900000000E+05    0.2764429443E-01    0.2102748835E-02    0.6958404571E+00    0.1969269656E+00    0.1110034161E-03
    0.3100000000E+05    0.2773243119E-01    0.2111712694E-02    0.6958456810E+00    0.2009337361E+00    0.1114159831E-03
    0.3300000000E+05    0.2778375947E-01    0.2117803985E-02    0.6958502489E+00    0.2046198007E+00    0.1118041147E-03
    0.3500000000E+05    0.2780481736E-01    0.2121518313E-02    0.6958542744E+00    0.2080249844E+00    0.1121706158E-03
    0.3700000000E+05    0.2780087941E-01    0.2123256695E-02    0.6958578465E+00    0.2111826028E+00    0.1125178308E-03
    0.3900000000E+05    0.2777623347E-01    0.2123346142E-02    0.6958610358E+00    0.2141207565E+00    0.1128477395E-03
    0.4100000000E+05    0.2773438939E-01    0.2122055189E-02    0.6958638990E+00    0.2168633261E+00    0.1131620293E-03
    0.4300000000E+05    0.2767823819E-01    0.2119605763E-02    0.6958664824E+00    0.2194307465E+00    0.1134621503E-03
    0.4500000000E+05    0.2761017464E-01    0.2116182341E-02    0.6958688237E+00    0.2218406152E+00    0.1137493579E-03
    0.4700000000E+05    0.2753219267E-01    0.2111939076E-02    0.6958709543E+00    0.2241081755E+00    0.1140247467E-03
    0.4900000000E+05    0.2744596013E-01    0.2107005406E-02    0.6958729006E+00    0.2262467033E+00    0.1142892761E-03
    0.1000000000E+05    0.2181886536E-01    0.1638195231E-02    0.6956815605E+00    0.1263587127E+00    0.1046142217E-03
    0.3000000000E+05    0.2769343122E-01    0.2107625201E-02    0.6958431593E+00    0.1989732256E+00    0.1112129506E-03
    0.5000000000E+05    0.2740019679E-01    0.2104314471E-02    0.6958738115E+00    0.2272712689E+00    0.1144177371E-03
    0.7000000000E+05    0.2629436367E-01    0.2033303766E-02    0.6958862366E+00    0.2431700473E+00    0.1165783866E-03
    0.9000000000E+05    0.2511784974E-01    0.1953113943E-02    0.6958927386E+00    0.2536452084E+00    0.1182185789E-03
    0.1100000000E+06    0.2402163675E-01    0.1876574004E-02    0.6958966175E+00    0.2611961549E+00    0.1195447130E-03
    0.1300000000E+06    0.2303253842E-01    0.1806525332E-02    0.6958991217E+00    0.2669633497E+00    0.1206599839E-03
    0.1500000000E+06    0.2214624550E-01    0.1743134970E-02    0.6959008239E+00    0.2715496428E+00    0.1216235826E-03
    0.1700000000E+06    0.2135106568E-01    0.1685832584E-02    0.6959020220E+00    0.2753071324E+00    0.1224726829E-03
    0.1900000000E+06    0.2063467722E-01    0.1633894972E-02    0.6959028854E+00    0.2784568969E+00    0.1232321928E-03
    0.2100000000E+06    0.1998601135E-01    0.1586628787E-02    0.6959035172E+00    0.2811455961E+00    0.1239196343E-03
    0.2300000000E+06    0.1939562416E-01    0.1543421884E-02    0.6959039833E+00    0.2834748214E+00    0.1245478106E-03
    0.2500000000E+06    0.1885560173E-01    0.1503750098E-02    0.6959043276E+00    0.2855174468E+00    0.1251263672E-03
    0.2700000000E+06    0.1835934282E-01    0.1467169537E-02    0.6959045804E+00    0.2873272736E+00    0.1256627547E-03
    0.2900000000E+06    0.1790133379E-01    0.1433305201E-02    0.6959047634E+00    0.2889449944E+00    0.1261628505E-03
    0.3100000000E+06    0.1747695043E-01    0.1401839742E-02    0.6959048922E+00    0.2904020266E+00    0.1266313740E-03
    0.3300000000E+06    0.1708229357E-01    0.1372503598E-02    0.6959049783E+00    0.2917230607E+00    0.1270721730E-03
    0.3500000000E+06    0.1671405598E-01    0.1345066712E-02    0.6959050305E+00    0.2929278026E+00    0.1274884272E-03
    0.3700000000E+06    0.1636941567E-01    0.1319331740E-02    0.6959050556E+00    0.2940321945E+00    0.1278827944E-03
    0.3900000000E+06    0.1604595048E-01    0.1295128508E-02    0.6959050587E+00    0.2950492903E+00    0.1282575197E-03
    0.4100000000E+06    0.1574156956E-01    0.1272309519E-02    0.6959050440E+00    0.2959898933E+00    0.1286145167E-03
    0.4300000000E+06    0.1545445829E-01    0.1250746289E-02    0.6959050147E+00    0.2968630314E+00    0.1289554302E-03
    0.4500000000E+06    0.1518303365E-01    0.1230326362E-02    0.6959049734E+00    0.2976763144E+00    0.1292816844E-03
    0.4700000000E+06    0.1492590799E-01    0.1210950859E-02    0.6959049223E+00    0.2984362073E+00    0.1295945207E-03
    0.4900000000E+06    0.1468185929E-01    0.1192532461E-02    0.6959048630E+00    0.2991482427E+00    0.1298950281E-03
    0.1000000000E+06    0.2455679109E-01    0.1914106596E-02    0.6958949040E+00    0.2576969261E+00    0.1189130185E-03
    0.3000000000E+06    0.1768519790E-01    0.1417290475E-02    0.6959048338E+00    0.2896919192E+00    0.1264008006E-03
    0.5000000000E+06    0.1456439613E-01    0.1183657636E-02    0.6959048307E+00    0.2994878292E+00    0.1300409630E-03
    0.7000000000E+06    0.1269519766E-01    0.1041553656E-02    0.6959039948E+00    0.3046392880E+00    0.1324957120E-03
    0.9000000000E+06    0.1141322477E-01    0.9431005516E-03    0.6959030631E+00    0.3079258599E+00    0.1343593543E-03
    0.1100000000E+07    0.1046235418E-01    0.8695197313E-03    0.6959021698E+00    0.3102493275E+00    0.1358662403E-03
    0.1300000000E+07    0.9720066964E-02    0.8117302660E-03    0.6959013414E+00    0.3120007782E+00    0.1371335688E-03
    0.1500000000E+07    0.9119330103E-02    0.7647239841E-03    0.6959005786E+00    0.3133804745E+00    0.1382285731E-03
    0.1700000000E+07    0.8619933003E-02    0.7254776254E-03    0.6958998756E+00    0.3145028146E+00    0.1391934824E-03
    0.1900000000E+07    0.8196077952E-02    0.6920413824E-03    0.6958992255E+00    0.3154384459E+00    0.1400565937E-03
    0.2100000000E+07    0.7830342059E-02    0.6630925141E-03    0.6958986218E+00    0.3162336293E+00    0.1408378142E-03
    0.2300000000E+07    0.7510471492E-02    0.6376970691E-03    0.6958980587E+00    0.3169200742E+00    0.1415516908E-03
    0.2500000000E+07    0.7227559904E-02    0.6151738730E-03    0.6958975314E+00    0.3175203289E+00    0.1422091825E-03
    0.2700000000E+07    0.6974955491E-02    0.5950125942E-03    0.6958970358E+00    0.3180509177E+00    0.1428187553E-03
    0.2900000000E+07    0.6747575261E-02    0.5768221556E-03    0.6958965682E+00    0.3185242603E+00    0.1433870873E-03
    0.3100000000E+07    0.6541458423E-02    0.5602970294E-03    0.6958961257E+00    0.3189498927E+00    0.1439195411E-03
    0.3300000000E+07    0.6353466129E-02    0.5451945109E-03    0.6958957059E+00    0.3193352736E+00    0.1444204893E-03
    0.3500000000E+07    0.6181074029E-02    0.5313189761E-03    0.6958953064E+00    0.3196863303E+00    0.1448935446E-03
    0.3700000000E+07    0.6022225492E-02    0.5185107169E-03    0.6958949254E+00    0.3200078403E+00    0.1453417275E-03
    0.3900000000E+07    0.5875225585E-02    0.5066378573E-03    0.6958945612E+00    0.3203037024E+00    0.1457675890E-03
    0.4100000000E+07    0.5738663045E-02    0.4955903919E-03    0.6958942124E+00    0.3205771333E+00    0.1461733038E-03
    0.4300000000E+07    0.5611351915E-02    0.4852757182E-03    0.6958938778E+00    0.3208308139E+00    0.1465607409E-03
    0.4500000000E+07    0.5492287229E-02    0.4756152377E-03    0.6958935562E+00    0.3210669985E+00    0.1469315187E-03
    0.4700000000E+07    0.5380610919E-02    0.4665417372E-03    0.6958932466E+00    0.3212875978E+00    0.1472870480E-03
    0.4900000000E+07    0.5275585270E-02    0.4579973451E-03    0.6958929482E+00    0.3214942438E+00    0.1476285663E-03
    0.1000000000E+07    0.1090589032E-01    0.9039026260E-03    0.6959026090E+00    0.3091770511E+00    0.1351484376E-03
    0.3000000000E+07    0.6642071571E-02    0.5683678585E-03    0.6958963440E+00    0.3187425328E+00    0.1436575056E-03
    0.5000000000E+07    0.5225363578E-02    0.4539076308E-03    0.6958928029E+00    0.3215927805E+00    0.1477944175E-03
    0.7000000000E+07    0.4452379748E-02    0.3906221542E-03    0.6958903285E+00    0.3230870316E+00    0.1505841852E-03
    0.9000000000E+07    0.3947282120E-02    0.3488919676E-03    0.6958884189E+00    0.3240412193E+00    0.1527021838E-03
    0.1100000000E+08    0.3583873364E-02    0.3186590114E-03    0.6958868601E+00    0.3247171595E+00    0.1544147390E-03
    0.1300000000E+08    0.3306140428E-02    0.2954235365E-03    0.6958855410E+00    0.3252278804E+00    0.1558550423E-03
    0.1500000000E+08    0.3084891029E-02    0.2768259069E-03    0.6958843963E+00    0.3256311493E+00    0.1570995023E-03
    0.1700000000E+08    0.2903210491E-02    0.2614919401E-03    0.6958833843E+00    0.3259599454E+00    0.1581961112E-03
    0.1900000000E+08    0.2750527954E-02    0.2485591198E-03    0.6958824768E+00    0.3262346379E+00    0.1591770281E-03
    0.2100000000E+08    0.2619850369E-02    0.2374547038E-03    0.6958816537E+00    0.3264685721E+00    0.1600648772E-03
    0.2300000000E+08    0.2506341358E-02    0.2277812601E-03    0.6958809004E+00    0.3266709027E+00    0.1608761905E-03
    0.2500000000E+08    0.2406534522E-02    0.2192530791E-03    0.6958802056E+00    0.3268481458E+00    0.1616234232E-03
    0.2700000000E+08    0.2317871407E-02    0.2116587111E-03    0.6958795607E+00    0.3270050814E+00    0.1623161965E-03
