  Pressure (Pa) 22mC5-500 (mol/kg) 23mC5-500 (mol/kg) 24mC5-500 (mol/kg) 2mC6-500 (mol/kg) C7-500 (mol/kg)
    0.1000000000E+01    0.1024193122E-04    0.4417563077E-05    0.6965077805E-01    0.2386238371E-04    0.4147694517E-02
    0.3000000000E+01    0.2450479118E-04    0.1054942847E-04    0.1740858532E+00    0.5515339391E-04    0.4178804193E-02
    0.5000000000E+01    0.3395619113E-04    0.1459815085E-04    0.2486542268E+00    0.7472063153E-04    0.4191392485E-02
    0.7000000000E+01    0.4058391608E-04    0.1742802868E-04    0.3045666908E+00    0.8783905440E-04    0.4199561836E-02
    0.9000000000E+01    0.4543696092E-04    0.1949418608E-04    0.3480469512E+00    0.9716538363E-04    0.4205487697E-02
    0.1100000000E+02    0.4911887072E-04    0.2105794990E-04    0.3828272502E+00    0.1041616053E-03    0.4210012864E-02
    0.1300000000E+02    0.5199853353E-04    0.2227871245E-04    0.4112816994E+00    0.1096807694E-03    0.4213577331E-02
    0.1500000000E+02    0.5431219855E-04    0.2325833536E-04    0.4349925495E+00    0.1142431002E-03    0.4216445304E-02
    0.1700000000E+02    0.5621694943E-04    0.2406439649E-04    0.4550549386E+00    0.1181770345E-03    0.4218788789E-02
    0.1900000000E+02    0.5782050091E-04    0.2474312811E-04    0.4722509569E+00    0.1216957393E-03    0.4220725937E-02
    0.2100000000E+02    0.5919864297E-04    0.2532698209E-04    0.4871540481E+00    0.1249406722E-03    0.4222341145E-02
    0.2300000000E+02    0.6040588071E-04    0.2583923831E-04    0.5001942413E+00    0.1280073828E-03    0.4223696549E-02
    0.2500000000E+02    0.6148215299E-04    0.2629691093E-04    0.5117003484E+00    0.1309613135E-03    0.4224839034E-02
    0.2700000000E+02    0.6245720289E-04    0.2671263631E-04    0.5219280912E+00    0.1338477546E-03    0.4225804702E-02
    0.2900000000E+02    0.6335349507E-04    0.2709593149E-04    0.5310793413E+00    0.1366982717E-03    0.4226621841E-02
    0.3100000000E+02    0.6418820768E-04    0.2745405225E-04    0.5393155874E+00    0.1395349451E-03    0.4227312948E-02
    0.3300000000E+02    0.6497461977E-04    0.2779258990E-04    0.5467675523E+00    0.1423732172E-03    0.4227896153E-02
    0.3500000000E+02    0.6572309510E-04    0.2811589380E-04    0.5535421875E+00    0.1452238375E-03    0.4228386234E-02
    0.3700000000E+02    0.6644179081E-04    0.2842737529E-04    0.5597278413E+00    0.1480942095E-03    0.4228795368E-02
    0.3900000000E+02    0.6713717539E-04    0.2872972942E-04    0.5653981357E+00    0.1509893360E-03    0.4229133676E-02
    0.4100000000E+02    0.6781441216E-04    0.2902509891E-04    0.5706149123E+00    0.1539124889E-03    0.4229409647E-02
    0.4300000000E+02    0.6847764647E-04    0.2931519673E-04    0.5754304976E+00    0.1568656890E-03    0.4229630452E-02
    0.4500000000E+02    0.6913022328E-04    0.2960139874E-04    0.5798894657E+00    0.1598500527E-03    0.4229802193E-02
    0.4700000000E+02    0.6977485346E-04    0.2988481446E-04    0.5840300227E+00    0.1628660440E-03    0.4229930097E-02
    0.4900000000E+02    0.7041374219E-04    0.3016634157E-04    0.5878851047E+00    0.1659136583E-03    0.4230018664E-02
    0.1000000000E+02    0.4739727545E-04    0.2032717922E-04    0.3663527665E+00    0.1008913241E-03    0.4207892227E-02
    0.3000000000E+02    0.6377764062E-04    0.2727775584E-04    0.5353030411E+00    0.1381172445E-03    0.4226981927E-02
    0.5000000000E+02    0.7073160938E-04    0.3030663010E-04    0.5897146640E+00    0.1674492289E-03    0.4230049435E-02
    0.7000000000E+02    0.7708192278E-04    0.3313088849E-04    0.6165816730E+00    0.1996543976E-03    0.4229318231E-02
    0.9000000000E+02    0.8371195585E-04    0.3610156072E-04    0.6325963340E+00    0.2341144110E-03    0.4227068142E-02
    0.1100000000E+03    0.9071621217E-04    0.3924747825E-04    0.6432296198E+00    0.2701597967E-03    0.4224044851E-02
    0.1300000000E+03    0.9806892105E-04    0.4255205087E-04    0.6508040066E+00    0.3073931479E-03    0.4220564057E-02
    0.1500000000E+03    0.1057306367E-03    0.4599549580E-04    0.6564735620E+00    0.3455876896E-03    0.4216781566E-02
    0.1700000000E+03    0.1136676171E-03    0.4956176457E-04    0.6608766383E+00    0.3846131784E-03    0.4212782474E-02
    0.1900000000E+03    0.1218540991E-03    0.5323890452E-04    0.6643950017E+00    0.4243948500E-03    0.4208616664E-02
    0.2100000000E+03    0.1302711598E-03    0.5701827226E-04    0.6672709824E+00    0.4648909746E-03    0.4204314877E-02
    0.2300000000E+03    0.1389051816E-03    0.6089372025E-04    0.6696658092E+00    0.5060802432E-03    0.4199896736E-02
    0.2500000000E+03    0.1477465579E-03    0.6486095623E-04    0.6716909191E+00    0.5479544292E-03    0.4195375043E-02
    0.2700000000E+03    0.1567887126E-03    0.6891707319E-04    0.6734258013E+00    0.5905139769E-03    0.4190758234E-02
    0.2900000000E+03    0.1660273788E-03    0.7306021058E-04    0.6749286809E+00    0.6337652687E-03    0.4186051840E-02
    0.3100000000E+03    0.1754600736E-03    0.7728931075E-04    0.6762431837E+00    0.6777188892E-03    0.4181259403E-02
    0.3300000000E+03    0.1850857139E-03    0.8160394249E-04    0.6774026422E+00    0.7223884985E-03    0.4176383052E-02
    0.3500000000E+03    0.1949043339E-03    0.8600417234E-04    0.6784329625E+00    0.7677900891E-03    0.4171423899E-02
    0.3700000000E+03    0.2049168757E-03    0.9049046970E-04    0.6793545833E+00    0.8139414885E-03    0.4166382298E-02
    0.3900000000E+03    0.2151250320E-03    0.9506363629E-04    0.6801838462E+00    0.8608620243E-03    0.4161258028E-02
    0.4100000000E+03    0.2255311291E-03    0.9972475336E-04    0.6809339732E+00    0.9085722985E-03    0.4156050417E-02
    0.4300000000E+03    0.2361380372E-03    0.1044751419E-03    0.6816157773E+00    0.9570940363E-03    0.4150758439E-02
    0.4500000000E+03    0.2469491026E-03    0.1093163327E-03    0.6822381873E+00    0.1006449987E-02    0.4145380776E-02
    0.4700000000E+03    0.2579680964E-03    0.1142500431E-03    0.6828086410E+00    0.1056663859E-02    0.4139915871E-02
    0.4900000000E+03    0.2691991755E-03    0.1192781604E-03    0.6833333841E+00    0.1107760290E-02    0.4134361955E-02
    0.1000000000E+03    0.8716811177E-04    0.3765339325E-04    0.6384005490E+00    0.2519689352E-03    0.4225627954E-02
    0.3000000000E+03    0.1707195694E-03    0.7516405525E-04    0.6756071939E+00    0.6556534960E-03    0.4183666216E-02
    0.5000000000E+03    0.2748956440E-03    0.1218282545E-03    0.6835802974E+00    0.1133647411E-02    0.4131551018E-02
    0.7000000000E+03    0.4012539144E-03    0.1783704775E-03    0.6870563269E+00    0.1704542833E-02    0.4070096600E-02
    0.9000000000E+03    0.5561384080E-03    0.2476442830E-03    0.6890031583E+00    0.2400045025E-02    0.3996581817E-02
    0.1100000000E+04    0.7493185389E-03    0.3340255027E-03    0.6902479751E+00    0.3265224352E-02    0.3906904412E-02
    0.1300000000E+04    0.9953216554E-03    0.4440138951E-03    0.6911124921E+00    0.4365883072E-02    0.3795131979E-02
    0.1500000000E+04    0.1316027956E-02    0.5873959373E-03    0.6917478908E+00    0.5800671116E-02    0.3652562662E-02
    0.1700000000E+04    0.1744864285E-02    0.7791220060E-03    0.6922345941E+00    0.7720242231E-02    0.3466296022E-02
    0.1900000000E+04    0.2332830501E-02    0.1042004122E-02    0.6926193275E+00    0.1035481858E-01    0.3217427343E-02
    0.2100000000E+04    0.3154229070E-02    0.1409284475E-02    0.6929310952E+00    0.1404099558E-01    0.2880152018E-02
    0.2300000000E+04    0.4299895057E-02    0.1921621761E-02    0.6931888538E+00    0.1919356968E-01    0.2427275957E-02
    0.2500000000E+04    0.5821143946E-02    0.2602046783E-02    0.6934055167E+00    0.2605700595E-01    0.1856081182E-02
    0.2700000000E+04    0.7594232418E-02    0.3395350256E-02    0.6935901843E+00    0.3409581090E-01    0.1239159720E-02
    0.2900000000E+04    0.9272064024E-02    0.4146401708E-02    0.6937494548E+00    0.4176346357E-01    0.7232210253E-03
    0.3100000000E+04    0.1057153777E-01    0.4728555024E-02    0.6938882287E+00    0.4777926794E-01    0.3999369251E-03
    0.3300000000E+04    0.1149787713E-01    0.5144032993E-02    0.6940102221E+00    0.5214820630E-01    0.2382888645E-03
    0.3500000000E+04    0.1218965712E-01    0.5454728241E-02    0.6941183039E+00    0.5548094437E-01    0.1672823528E-03
    0.3700000000E+04    0.1275817086E-01    0.5710378637E-02    0.6942147242E+00    0.5827291007E-01    0.1379379190E-03
    0.3900000000E+04    0.1326298065E-01    0.5937609369E-02    0.6943012730E+00    0.6079029307E-01    0.1261657159E-03
    0.4100000000E+04    0.1373171945E-01    0.6148773247E-02    0.6943793914E+00    0.6315668212E-01    0.1215700697E-03
    0.4300000000E+04    0.1417670424E-01    0.6349374996E-02    0.6944502533E+00    0.6542695760E-01    0.1198771586E-03
    0.4500000000E+04    0.1460351457E-01    0.6541906364E-02    0.6945148243E+00    0.6762568170E-01    0.1193560507E-03
    0.4700000000E+04    0.1501484723E-01    0.6727569782E-02    0.6945739059E+00    0.6976442174E-01    0.1193067802E-03
    0.4900000000E+04    0.1541216693E-01    0.6907016690E-02    0.6946281690E+00    0.7184919541E-01    0.1194452981E-03
    0.1000000000E+04    0.6471689098E-03    0.2883507051E-03    0.6896872342E+00    0.2807912379E-02    0.3954082521E-02
    0.3000000000E+04    0.9974823761E-02    0.4461159365E-02    0.6938211484E+00    0.4500478098E-01    0.5372242575E-03
    0.5000000000E+04    0.1560587366E-01    0.6994542789E-02    0.6946536740E+00    0.7287252620E-01    0.1195454730E-03
    0.7000000000E+04    0.1889690444E-01    0.8486168694E-02    0.6950107852E+00    0.9106957732E-01    0.1217691770E-03
    0.9000000000E+04    0.2133313223E-01    0.9597571595E-02    0.6952091235E+00    0.1058468663E+00    0.1235021985E-03
    0.1100000000E+05    0.2317416760E-01    0.1044343470E-01    0.6953352402E+00    0.1181348659E+00    0.1249000030E-03
    0.1300000000E+05    0.2458701984E-01    0.1109767266E-01    0.6954224595E+00    0.1285494330E+00    0.1260736974E-03
    0.1500000000E+05    0.2568362107E-01    0.1160992095E-01    0.6954863413E+00    0.1375155175E+00    0.1270866582E-03
    0.1700000000E+05    0.2654150217E-01    0.1201462932E-01    0.6955351254E+00    0.1453362594E+00    0.1279785316E-03
    0.1900000000E+05    0.2721586692E-01    0.1233637759E-01    0.6955735828E+00    0.1522340197E+00    0.1287758063E-03
    0.2100000000E+05    0.2774695249E-01    0.1259311976E-01    0.6956046669E+00    0.1583758194E+00    0.1294970757E-03
    0.2300000000E+05    0.2816468263E-01    0.1279823709E-01    0.6956303038E+00    0.1638897000E+00    0.1301559028E-03
    0.2500000000E+05    0.2849170282E-01    0.1296187891E-01    0.6956518031E+00    0.1688755790E+00    0.1307624911E-03
    0.2700000000E+05    0.2874541415E-01    0.1309186203E-01    0.6956700859E+00    0.1734126529E+00    0.1313247138E-03
    0.2900000000E+05    0.2893936909E-01    0.1319428885E-01    0.6956858193E+00    0.1775645656E+00    0.1318487752E-03
    0.3100000000E+05    0.2908424958E-01    0.1327398088E-01    0.6956994980E+00    0.1813830956E+00    0.1323396535E-03
    0.3300000000E+05    0.2918856531E-01    0.1333478877E-01    0.6957114968E+00    0.1849108345E+00    0.1328014049E-03
    0.3500000000E+05    0.2925916062E-01    0.1337981753E-01    0.6957221045E+00    0.1881831672E+00    0.1332373789E-03
    0.3700000000E+05    0.2930158807E-01    0.1341159285E-01    0.6957315475E+00    0.1912297566E+00    0.1336503740E-03
    0.3900000000E+05    0.2932038748E-01    0.1343218533E-01    0.6957400059E+00    0.1940756739E+00    0.1340427529E-03
    0.4100000000E+05    0.2931929696E-01    0.1344330478E-01    0.6957476242E+00    0.1967422684E+00    0.1344165288E-03
    0.4300000000E+05    0.2930141439E-01    0.1344637223E-01    0.6957545202E+00    0.1992478451E+00    0.1347734313E-03
    0.4500000000E+05    0.2926932210E-01    0.1344257582E-01    0.6957607908E+00    0.2016081989E+00    0.1351149576E-03
    0.4700000000E+05    0.2922518429E-01    0.1343291438E-01    0.6957665162E+00    0.2038370380E+00    0.1354424125E-03
    0.4900000000E+05    0.2917082358E-01    0.1341823181E-01    0.6957717635E+00    0.2059463246E+00    0.1357569400E-03
    0.1000000000E+05    0.2231599248E-01    0.1004836293E-01    0.6952785024E+00    0.1122579760E+00    0.1242344981E-03
    0.3000000000E+05    0.2901736758E-01    0.1323671627E-01    0.6956928897E+00    0.1795126522E+00    0.1320980900E-03
    0.5000000000E+05    0.2914030103E-01    0.1340923581E-01    0.6957742260E+00    0.2069594651E+00    0.1359096759E-03
    0.7000000000E+05    0.2826392616E-01    0.1309234553E-01    0.6958083604E+00    0.2229224392E+00    0.1384781882E-03
    0.9000000000E+05    0.2722231492E-01    0.1267751761E-01    0.6958269025E+00    0.2337351704E+00    0.1404275684E-03
    0.1100000000E+06    0.2620775720E-01    0.1226006313E-01    0.6958384251E+00    0.2417104667E+00    0.1420034905E-03
    0.1300000000E+06    0.2526802448E-01    0.1186644867E-01    0.6958462059E+00    0.2479217229E+00    0.1433287246E-03
    0.1500000000E+06    0.2441045880E-01    0.1150297287E-01    0.6958517650E+00    0.2529451889E+00    0.1444736680E-03
    0.1700000000E+06    0.2363029948E-01    0.1116939957E-01    0.6958559021E+00    0.2571222444E+00    0.1454825234E-03
    0.1900000000E+06    0.2291956750E-01    0.1086340720E-01    0.6958590770E+00    0.2606700668E+00    0.1463849039E-03
    0.2100000000E+06    0.2227002741E-01    0.1058216629E-01    0.6958615725E+00    0.2637344870E+00    0.1472016391E-03
    0.2300000000E+06    0.2167414483E-01    0.1032291059E-01    0.6958635717E+00    0.2664176677E+00    0.1479479476E-03
    0.2500000000E+06    0.2112532715E-01    0.1008312950E-01    0.6958651982E+00    0.2687936661E+00    0.1486352939E-03
    0.2700000000E+06    0.2061790750E-01    0.9860613493E-02    0.6958665383E+00    0.2709176968E+00    0.1492725330E-03
    0.2900000000E+06    0.2014704489E-01    0.9653443296E-02    0.6958676543E+00    0.2728319068E+00    0.1498666499E-03
    0.3100000000E+06    0.1970860666E-01    0.9459959624E-02    0.6958685917E+00    0.2745691194E+00    0.1504232530E-03
    0.3300000000E+06    0.1929905722E-01    0.9278728699E-02    0.6958693849E+00    0.2761553403E+00    0.1509469152E-03
    0.3500000000E+06    0.1891536101E-01    0.9108509430E-02    0.6958700603E+00    0.2776114855E+00    0.1514414147E-03
    0.3700000000E+06    0.1855490064E-01    0.8948224338E-02    0.6958706383E+00    0.2789545996E+00    0.1519099099E-03
    0.3900000000E+06    0.1821540895E-01    0.8796934627E-02    0.6958711350E+00    0.2801987356E+00    0.1523550685E-03
    0.4100000000E+06    0.1789491308E-01    0.8653819165E-02    0.6958715634E+00    0.2813556002E+00    0.1527791644E-03
    0.4300000000E+06    0.1759168832E-01    0.8518156870E-02    0.6958719337E+00    0.2824350372E+00    0.1531841519E-03
    0.4500000000E+06    0.1730422030E-01    0.8389312017E-02    0.6958722545E+00    0.2834453938E+00    0.1535717232E-03
    0.4700000000E+06    0.1703117357E-01    0.8266721956E-02    0.6958725327E+00    0.2843938015E+00    0.1539433533E-03
    0.4900000000E+06    0.1677136569E-01    0.8149886844E-02    0.6958727742E+00    0.2852863966E+00    0.1543003362E-03
    0.1000000000E+06    0.2670713013E-01    0.1246671089E-01    0.6958332745E+00    0.2379938413E+00    0.1412528304E-03
    0.3000000000E+06    0.1992400648E-01    0.9555085140E-02    0.6958681429E+00    0.2737208759E+00    0.1501493338E-03
    0.5000000000E+06    0.1664609326E-01    0.8093486218E-02    0.6958728827E+00    0.2857134528E+00    0.1544736968E-03
    0.7000000000E+06    0.1463319251E-01    0.7181314052E-02    0.6958739611E+00    0.2923056073E+00    0.1573897324E-03
    0.9000000000E+06    0.1323171473E-01    0.6539491711E-02    0.6958740229E+00    0.2966326388E+00    0.1596035462E-03
    0.1100000000E+07    0.1218126624E-01    0.6054642095E-02    0.6958737152E+00    0.2997550687E+00    0.1613935535E-03
    0.1300000000E+07    0.1135477848E-01    0.5670774888E-02    0.6958732590E+00    0.3021462870E+00    0.1628989846E-03
    0.1500000000E+07    0.1068174488E-01    0.5356553341E-02    0.6958727441E+00    0.3040540672E+00    0.1641997100E-03
    0.1700000000E+07    0.1011941572E-01    0.5092848051E-02    0.6958722113E+00    0.3056224480E+00    0.1653458953E-03
    0.1900000000E+07    0.9640128583E-02    0.4867211511E-02    0.6958716799E+00    0.3069416800E+00    0.1663711554E-03
    0.2100000000E+07    0.9225068831E-02    0.4671137264E-02    0.6958711594E+00    0.3080715921E+00    0.1672991383E-03
    0.2300000000E+07    0.8860924616E-02    0.4498581876E-02    0.6958706543E+00    0.3090536320E+00    0.1681471244E-03
    0.2500000000E+07    0.8537970787E-02    0.4345114088E-02    0.6958701665E+00    0.3099175486E+00    0.1689281321E-03
    0.2700000000E+07    0.8248911367E-02    0.4207398595E-02    0.6958696967E+00    0.3106853249E+00    0.1696522179E-03
    0.2900000000E+07    0.7988148980E-02    0.4082868997E-02    0.6958692446E+00    0.3113736056E+00    0.1703273149E-03
    0.3100000000E+07    0.7751306562E-02    0.3969512962E-02    0.6958688096E+00    0.3119952576E+00    0.1709597930E-03
    0.3300000000E+07    0.7534904317E-02    0.3865726675E-02    0.6958683910E+00    0.3125604056E+00    0.1715548465E-03
    0.3500000000E+07    0.7336135605E-02    0.3770213580E-02    0.6958679879E+00    0.3130771415E+00    0.1721167670E-03
    0.3700000000E+07    0.7152707785E-02    0.3681912283E-02    0.6958675994E+00    0.3135520209E+00    0.1726491423E-03
    0.3900000000E+07    0.6982726851E-02    0.3599944175E-02    0.6958672247E+00    0.3139904187E+00    0.1731550028E-03
    0.4100000000E+07    0.6824612270E-02    0.3523574673E-02    0.6958668629E+00    0.3143967901E+00    0.1736369317E-03
    0.4300000000E+07    0.6677033099E-02    0.3452184090E-02    0.6958665133E+00    0.3147748628E+00    0.1740971492E-03
    0.4500000000E+07    0.6538859349E-02    0.3385245416E-02    0.6958661751E+00    0.3151277839E+00    0.1745375778E-03
    0.4700000000E+07    0.6409124484E-02    0.3322307147E-02    0.6958658477E+00    0.3154582303E+00    0.1749598932E-03
    0.4900000000E+07    0.6286996139E-02    0.3262979864E-02    0.6958655305E+00    0.3157684964E+00    0.1753655655E-03
    0.1000000000E+07    0.1267240860E-01    0.6281750206E-02    0.6958738967E+00    0.2983072360E+00    0.1605408882E-03
    0.3000000000E+07    0.7866973283E-02    0.4024902739E-02    0.6958690250E+00    0.3116920727E+00    0.1706485327E-03
    0.5000000000E+07    0.6228555199E-02    0.3234562969E-02    0.6958653755E+00    0.3159166909E+00    0.1755625716E-03
    0.7000000000E+07    0.5325711268E-02    0.2793158727E-02    0.6958626877E+00    0.3181842238E+00    0.1788763894E-03
    0.9000000000E+07    0.4732342043E-02    0.2500383588E-02    0.6958605650E+00    0.3196530632E+00    0.1813922424E-03
    0.1100000000E+08    0.4303744562E-02    0.2287423228E-02    0.6958588095E+00    0.3207040565E+00    0.1834264884E-03
    0.1300000000E+08    0.3975240492E-02    0.2123269522E-02    0.6958573111E+00    0.3215042023E+00    0.1851373402E-03
    0.1500000000E+08    0.3712953847E-02    0.1991579051E-02    0.6958560030E+00    0.3221398252E+00    0.1866155597E-03
    0.1700000000E+08    0.3497181868E-02    0.1882796952E-02    0.6958548414E+00    0.3226606445E+00    0.1879181548E-03
    0.1900000000E+08    0.3315574182E-02    0.1790907510E-02    0.6958537961E+00    0.3230975894E+00    0.1890833257E-03
    0.2100000000E+08    0.3159940276E-02    0.1711905917E-02    0.6958528454E+00    0.3234710457E+00    0.1901379464E-03
    0.2300000000E+08    0.3024603785E-02    0.1643007245E-02    0.6958519734E+00    0.3237950693E+00    0.1911016545E-03
    0.2500000000E+08    0.2905488975E-02    0.1582205764E-02    0.6958511676E+00    0.3240797093E+00    0.1919892449E-03
    0.2700000000E+08    0.2799582964E-02    0.1528014684E-02    0.6958504185E+00    0.3243323669E+00    0.1928121460E-03
