  Pressure (Pa) 22mC5-500 (mol/kg) 23mC5-500 (mol/kg) 24mC5-500 (mol/kg) 2mC6-500 (mol/kg) C7-500 (mol/kg)
    0.1000000000E+01    0.1073744353E-04    0.4631212985E-05    0.3665910443E-01    0.2492360462E-04    0.4171821167E-02
    0.3000000000E+01    0.2831054325E-04    0.1219593954E-04    0.9947971360E-01    0.6417052373E-04    0.4212634388E-02
    0.5000000000E+01    0.4221129636E-04    0.1816770491E-04    0.1513534144E+00    0.9411138312E-04    0.4240603197E-02
    0.7000000000E+01    0.5342703161E-04    0.2297667219E-04    0.1949130258E+00    0.1174809343E-03    0.4263393169E-02
    0.9000000000E+01    0.6261916281E-04    0.2691056817E-04    0.2320096687E+00    0.1360511996E-03    0.4282614757E-02
    0.1100000000E+02    0.7025369149E-04    0.3017189473E-04    0.2639828400E+00    0.1510423714E-03    0.4299117385E-02
    0.1300000000E+02    0.7666860927E-04    0.3290738128E-04    0.2918257520E+00    0.1633208216E-03    0.4313464046E-02
    0.1500000000E+02    0.8211464327E-04    0.3522576724E-04    0.3162904457E+00    0.1735157398E-03    0.4326060724E-02
    0.1700000000E+02    0.8678131650E-04    0.3720916687E-04    0.3379568062E+00    0.1820925453E-03    0.4337212927E-02
    0.1900000000E+02    0.9081422431E-04    0.3892059866E-04    0.3572791612E+00    0.1894009228E-03    0.4347156850E-02
    0.2100000000E+02    0.9432680970E-04    0.4040911425E-04    0.3746185210E+00    0.1957071690E-03    0.4356078737E-02
    0.2300000000E+02    0.9740857645E-04    0.4171337384E-04    0.3902653683E+00    0.2012164868E-03    0.4364127767E-02
    0.2500000000E+02    0.1001309332E-03    0.4286418875E-04    0.4044560811E+00    0.2060886589E-03    0.4371425017E-02
    0.2700000000E+02    0.1025514252E-03    0.4388636162E-04    0.4173849700E+00    0.2104492587E-03    0.4378069866E-02
    0.2900000000E+02    0.1047168473E-03    0.4480003912E-04    0.4292132389E+00    0.2143977925E-03    0.4384144711E-02
    0.3100000000E+02    0.1066655658E-03    0.4562172051E-04    0.4400757481E+00    0.2180136953E-03    0.4389718471E-02
    0.3300000000E+02    0.1084292725E-03    0.4636501904E-04    0.4500861854E+00    0.2213608000E-03    0.4394849264E-02
    0.3500000000E+02    0.1100343261E-03    0.4704124367E-04    0.4593410643E+00    0.2244907066E-03    0.4399586452E-02
    0.3700000000E+02    0.1115027872E-03    0.4765984804E-04    0.4679228497E+00    0.2274453485E-03    0.4403972244E-02
    0.3900000000E+02    0.1128532267E-03    0.4822878053E-04    0.4759024242E+00    0.2302589646E-03    0.4408042956E-02
    0.4100000000E+02    0.1141013614E-03    0.4875475950E-04    0.4833410532E+00    0.2329596298E-03    0.4411830005E-02
    0.4300000000E+02    0.1152605584E-03    0.4924349166E-04    0.4902919624E+00    0.2355704498E-03    0.4415360719E-02
    0.4500000000E+02    0.1163422389E-03    0.4969984653E-04    0.4968016151E+00    0.2381105029E-03    0.4418658981E-02
    0.4700000000E+02    0.1173562029E-03    0.5012799689E-04    0.5029107529E+00    0.2405955861E-03    0.4421745759E-02
    0.4900000000E+02    0.1183108930E-03    0.5053153261E-04    0.5086552505E+00    0.2430388101E-03    0.4424639540E-02
    0.1000000000E+02    0.6660757168E-04    0.2861507324E-04    0.2485679487E+00    0.1439333697E-03    0.4291166125E-02
    0.3000000000E+02    0.1057161747E-03    0.4522146842E-04    0.4347576635E+00    0.2162430115E-03    0.4386990368E-02
    0.5000000000E+02    0.1187683312E-03    0.5072505560E-04    0.5114008156E+00    0.2442482072E-03    0.4426019246E-02
    0.7000000000E+02    0.1261370153E-03    0.5386716712E-04    0.5532122325E+00    0.2680749918E-03    0.4446608354E-02
    0.9000000000E+02    0.1319674974E-03    0.5640000803E-04    0.5795438947E+00    0.2931828280E-03    0.4458792525E-02
    0.1100000000E+03    0.1374569180E-03    0.5882004526E-04    0.5976510839E+00    0.3202933382E-03    0.4466391867E-02
    0.1300000000E+03    0.1430122254E-03    0.6129145292E-04    0.6108672828E+00    0.3492818678E-03    0.4471188279E-02
    0.1500000000E+03    0.1487801565E-03    0.6387071130E-04    0.6209387421E+00    0.3799000907E-03    0.4474128819E-02
    0.1700000000E+03    0.1548109280E-03    0.6657520277E-04    0.6288687441E+00    0.4119243641E-03    0.4475765102E-02
    0.1900000000E+03    0.1611166847E-03    0.6940737524E-04    0.6352747736E+00    0.4451791527E-03    0.4476441001E-02
    0.2100000000E+03    0.1676944637E-03    0.7236407313E-04    0.6405577071E+00    0.4795325198E-03    0.4476382409E-02
    0.2300000000E+03    0.1745357809E-03    0.7544034190E-04    0.6449891418E+00    0.5148869650E-03    0.4475744011E-02
    0.2500000000E+03    0.1816307535E-03    0.7863100828E-04    0.6487596251E+00    0.5511711285E-03    0.4474635351E-02
    0.2700000000E+03    0.1889698639E-03    0.8193131747E-04    0.6520067911E+00    0.5883333209E-03    0.4473136180E-02
    0.2900000000E+03    0.1965446658E-03    0.8533715885E-04    0.6548325364E+00    0.6263367087E-03    0.4471305903E-02
    0.3100000000E+03    0.2043480112E-03    0.8884511138E-04    0.6573139133E+00    0.6651557830E-03    0.4469189626E-02
    0.3300000000E+03    0.2123740618E-03    0.9245241299E-04    0.6595102671E+00    0.7047737728E-03    0.4466822151E-02
    0.3500000000E+03    0.2206182078E-03    0.9615690147E-04    0.6614680463E+00    0.7451807414E-03    0.4464230690E-02
    0.3700000000E+03    0.2290769558E-03    0.9995694847E-04    0.6632241260E+00    0.7863721751E-03    0.4461436757E-02
    0.3900000000E+03    0.2377478101E-03    0.1038513962E-03    0.6648081533E+00    0.8283479299E-03    0.4458457510E-02
    0.4100000000E+03    0.2466291618E-03    0.1078395006E-03    0.6662442361E+00    0.8711114384E-03    0.4455306727E-02
    0.4300000000E+03    0.2557201893E-03    0.1119208818E-03    0.6675521786E+00    0.9146691082E-03    0.4451995526E-02
    0.4500000000E+03    0.2650207723E-03    0.1160954818E-03    0.6687484011E+00    0.9590298638E-03    0.4448532903E-02
    0.4700000000E+03    0.2745314176E-03    0.1203635296E-03    0.6698466330E+00    0.1004204795E-02    0.4444926137E-02
    0.4900000000E+03    0.2842531975E-03    0.1247255108E-03    0.6708584424E+00    0.1050206885E-02    0.4441181112E-02
    0.1000000000E+03    0.1347200462E-03    0.5760996904E-04    0.5893642415E+00    0.3064890877E-03    0.4463026193E-02
    0.3000000000E+03    0.2004181655E-03    0.8707855867E-04    0.6561122121E+00    0.6456455129E-03    0.4470281134E-02
    0.5000000000E+03    0.2891937393E-03    0.1269419422E-03    0.6713350654E+00    0.1073522638E-02    0.4439258269E-02
    0.7000000000E+03    0.3997284916E-03    0.1764908777E-03    0.6780807679E+00    0.1587678645E-02    0.4394245134E-02
    0.9000000000E+03    0.5358101346E-03    0.2374297066E-03    0.6818882866E+00    0.2210180885E-02    0.4336769691E-02
    0.1100000000E+04    0.7046362500E-03    0.3129866729E-03    0.6843339621E+00    0.2975780336E-02    0.4264861587E-02
    0.1300000000E+04    0.9172650533E-03    0.4081131431E-03    0.6860375566E+00    0.3935473428E-02    0.4174541794E-02
    0.1500000000E+04    0.1190322119E-02    0.5302484003E-03    0.6872922930E+00    0.5164837993E-02    0.4059565443E-02
    0.1700000000E+04    0.1549015459E-02    0.6906695306E-03    0.6882548870E+00    0.6777965878E-02    0.3910494045E-02
    0.1900000000E+04    0.2031887317E-02    0.9066184884E-03    0.6890167040E+00    0.8949219264E-02    0.3713209825E-02
    0.2100000000E+04    0.2697179907E-02    0.1204152789E-02    0.6896346078E+00    0.1194253385E-01    0.3447198989E-02
    0.2300000000E+04    0.3626875020E-02    0.1619960373E-02    0.6901458418E+00    0.1613097800E-01    0.3085605149E-02
    0.2500000000E+04    0.4910472803E-02    0.2194121163E-02    0.6905758191E+00    0.2192636444E-01    0.2604436723E-02
    0.2700000000E+04    0.6564972126E-02    0.2934337984E-02    0.6909424745E+00    0.2942183679E-01    0.2015903874E-02
    0.2900000000E+04    0.8391756362E-02    0.3751907829E-02    0.6912588270E+00    0.3774338197E-01    0.1416539658E-02
    0.3100000000E+04    0.1001350071E-01    0.4478122831E-02    0.6915345556E+00    0.4519874152E-01    0.9516544698E-03
    0.3300000000E+04    0.1121685065E-01    0.5017477992E-02    0.6917770062E+00    0.5081283062E-01    0.6787731396E-03
    0.3500000000E+04    0.1206837126E-01    0.5399632620E-02    0.6919918544E+00    0.5486731540E-01    0.5478145499E-03
    0.3700000000E+04    0.1271325290E-01    0.5689460513E-02    0.6921835548E+00    0.5800635072E-01    0.4917069590E-03
    0.3900000000E+04    0.1325170818E-01    0.5931758957E-02    0.6923556525E+00    0.6067790787E-01    0.4691687114E-03
    0.4100000000E+04    0.1373474389E-01    0.6149333518E-02    0.6925110041E+00    0.6311073165E-01    0.4606857533E-03
    0.4300000000E+04    0.1418566310E-01    0.6352603199E-02    0.6926519367E+00    0.6540934289E-01    0.4579322628E-03
    0.4500000000E+04    0.1461485302E-01    0.6546210816E-02    0.6927803658E+00    0.6762011239E-01    0.4574860456E-03
    0.4700000000E+04    0.1502706258E-01    0.6732277227E-02    0.6928978818E+00    0.6976395317E-01    0.4579559491E-03
    0.4900000000E+04    0.1542462651E-01    0.6911843326E-02    0.6930058166E+00    0.7185086169E-01    0.4587772020E-03
    0.1000000000E+04    0.6155439412E-03    0.2731183337E-03    0.6832312086E+00    0.2572362092E-02    0.4302822213E-02
    0.3000000000E+04    0.9249371365E-02    0.4135880167E-02    0.6914012645E+00    0.4167494440E-01    0.1160359926E-02
    0.5000000000E+04    0.1561834357E-01    0.6999378783E-02    0.6930565491E+00    0.7287472415E-01    0.4592412726E-03
    0.7000000000E+04    0.1890780847E-01    0.8490379064E-02    0.6937667976E+00    0.9107206071E-01    0.4680780422E-03
    0.9000000000E+04    0.2134284508E-01    0.9601301291E-02    0.6941609723E+00    0.1058488442E+00    0.4748295716E-03
    0.1100000000E+05    0.2318302094E-01    0.1044681932E-01    0.6944113214E+00    0.1181365145E+00    0.4802598062E-03
    0.1300000000E+05    0.2459521469E-01    0.1110079401E-01    0.6945842142E+00    0.1285508493E+00    0.4848109945E-03
    0.1500000000E+05    0.2569129021E-01    0.1161283284E-01    0.6947106494E+00    0.1375167609E+00    0.4887337969E-03
    0.1700000000E+05    0.2654873878E-01    0.1201736940E-01    0.6948070435E+00    0.1453373690E+00    0.4921843365E-03
    0.1900000000E+05    0.2722273938E-01    0.1233897341E-01    0.6948829010E+00    0.1522350224E+00    0.4952665882E-03
    0.2100000000E+05    0.2775351276E-01    0.1259559218E-01    0.6949441045E+00    0.1583767348E+00    0.4980533555E-03
    0.2300000000E+05    0.2817097132E-01    0.1280060240E-01    0.6949944891E+00    0.1638905425E+00    0.5005976416E-03
    0.2500000000E+05    0.2849775236E-01    0.1296415008E-01    0.6950366615E+00    0.1688763599E+00    0.5029392584E-03
    0.2700000000E+05    0.2875125096E-01    0.1309404962E-01    0.6950724550E+00    0.1734133808E+00    0.5051088838E-03
    0.2900000000E+05    0.2894501502E-01    0.1319640155E-01    0.6951031962E+00    0.1775652476E+00    0.5071306678E-03
    0.3100000000E+05    0.2908972295E-01    0.1327602600E-01    0.6951298690E+00    0.1813837374E+00    0.5090239685E-03
    0.3300000000E+05    0.2919388167E-01    0.1333677247E-01    0.6951532179E+00    0.1849114407E+00    0.5108045462E-03
    0.3500000000E+05    0.2926433330E-01    0.1338174512E-01    0.6951738169E+00    0.1881837417E+00    0.5124854063E-03
    0.3700000000E+05    0.2930662859E-01    0.1341346888E-01    0.6951921155E+00    0.1912303028E+00    0.5140774081E-03
    0.3900000000E+05    0.2932530589E-01    0.1343401379E-01    0.6952084708E+00    0.1940761945E+00    0.5155897148E-03
    0.4100000000E+05    0.2932410210E-01    0.1344508915E-01    0.6952231698E+00    0.1967427657E+00    0.5170301299E-03
    0.4300000000E+05    0.2930611406E-01    0.1344811560E-01    0.6952364459E+00    0.1992483213E+00    0.5184053553E-03
    0.4500000000E+05    0.2927392325E-01    0.1344428093E-01    0.6952484911E+00    0.2016086557E+00    0.5197211897E-03
    0.4700000000E+05    0.2922969312E-01    0.1343458367E-01    0.6952594642E+00    0.2038374770E+00    0.5209826846E-03
    0.4900000000E+05    0.2917524567E-01    0.1341986748E-01    0.6952694981E+00    0.2059467472E+00    0.5221942681E-03
    0.1000000000E+05    0.2232524439E-01    0.1005190737E-01    0.6942987341E+00    0.1122597736E+00    0.4776759250E-03
    0.3000000000E+05    0.2902292513E-01    0.1323879435E-01    0.6951169900E+00    0.1795133134E+00    0.5080923204E-03
    0.5000000000E+05    0.2914468167E-01    0.1341085542E-01    0.6952741986E+00    0.2069598800E+00    0.5227825811E-03
    0.7000000000E+05    0.2826767063E-01    0.1309371968E-01    0.6953386322E+00    0.2229227443E+00    0.5326729005E-03
    0.9000000000E+05    0.2722564506E-01    0.1267873294E-01    0.6953727350E+00    0.2337354130E+00    0.5401760023E-03
    0.1100000000E+06    0.2621078960E-01    0.1226116490E-01    0.6953933310E+00    0.2417106686E+00    0.5462401777E-03
    0.1300000000E+06    0.2527082938E-01    0.1186746403E-01    0.6954068090E+00    0.2479218963E+00    0.5513388755E-03
    0.1500000000E+06    0.2441308241E-01    0.1150391960E-01    0.6954161111E+00    0.2529453410E+00    0.5557434187E-03
    0.1700000000E+06    0.2363277414E-01    0.1117029009E-01    0.6954227738E+00    0.2571223801E+00    0.5596241057E-03
    0.1900000000E+06    0.2292191691E-01    0.1086425056E-01    0.6954276738E+00    0.2606701894E+00    0.5630949935E-03
    0.2100000000E+06    0.2227226952E-01    0.1058296936E-01    0.6954313463E+00    0.2637345989E+00    0.5662362904E-03
    0.2300000000E+06    0.2167629367E-01    0.1032367871E-01    0.6954341350E+00    0.2664177706E+00    0.5691065900E-03
    0.2500000000E+06    0.2112739392E-01    0.1008386691E-01    0.6954362699E+00    0.2687937615E+00    0.5717500243E-03
    0.2700000000E+06    0.2061990128E-01    0.9861323659E-02    0.6954379104E+00    0.2709177857E+00    0.5742006780E-03
    0.2900000000E+06    0.2014897322E-01    0.9654129064E-02    0.6954391702E+00    0.2728319901E+00    0.5764854339E-03
    0.3100000000E+06    0.1971047584E-01    0.9460623377E-02    0.6954401322E+00    0.2745691977E+00    0.5786258758E-03
    0.3300000000E+06    0.1930087260E-01    0.9279372457E-02    0.6954408579E+00    0.2761554143E+00    0.5806396006E-03
    0.3500000000E+06    0.1891712716E-01    0.9109134919E-02    0.6954413943E+00    0.2776115556E+00    0.5825411467E-03
    0.3700000000E+06    0.1855662153E-01    0.8948833049E-02    0.6954417774E+00    0.2789546663E+00    0.5843426667E-03
    0.3900000000E+06    0.1821708804E-01    0.8797527859E-02    0.6954420351E+00    0.2801987991E+00    0.5860544244E-03
    0.4100000000E+06    0.1789655339E-01    0.8654398057E-02    0.6954421899E+00    0.2813556609E+00    0.5876851683E-03
    0.4300000000E+06    0.1759329254E-01    0.8518722428E-02    0.6954422593E+00    0.2824350954E+00    0.5892424172E-03
    0.4500000000E+06    0.1730579081E-01    0.8389865133E-02    0.6954422577E+00    0.2834454495E+00    0.5907326811E-03
    0.4700000000E+06    0.1703271249E-01    0.8267263426E-02    0.6954421967E+00    0.2843938551E+00    0.5921616346E-03
    0.4900000000E+06    0.1677287494E-01    0.8150417384E-02    0.6954420858E+00    0.2852864482E+00    0.5935342549E-03
    0.1000000000E+06    0.2671030048E-01    0.1246786521E-01    0.6953842005E+00    0.2379940617E+00    0.5433517708E-03
    0.3000000000E+06    0.1992590452E-01    0.9555759628E-02    0.6954396842E+00    0.2737209566E+00    0.5775725132E-03
    0.5000000000E+06    0.1664758833E-01    0.8094011540E-02    0.6954420142E+00    0.2857135035E+00    0.5942008321E-03
    0.7000000000E+06    0.1463447008E-01    0.7181759625E-02    0.6954392958E+00    0.2923056445E+00    0.6054126907E-03
    0.9000000000E+06    0.1323285075E-01    0.6539885720E-02    0.6954356948E+00    0.2966326684E+00    0.6139241516E-03
    0.1100000000E+07    0.1218230058E-01    0.6054999249E-02    0.6954320557E+00    0.2997550933E+00    0.6208059769E-03
    0.1300000000E+07    0.1135573515E-01    0.5671104005E-02    0.6954285927E+00    0.3021463081E+00    0.6265935898E-03
    0.1500000000E+07    0.1068263967E-01    0.5356860197E-02    0.6954253543E+00    0.3040540857E+00    0.6315941222E-03
    0.1700000000E+07    0.1012025968E-01    0.5093136674E-02    0.6954223387E+00    0.3056224645E+00    0.6360004720E-03
    0.1900000000E+07    0.9640929791E-02    0.4867484842E-02    0.6954195292E+00    0.3069416950E+00    0.6399418927E-03
    0.2100000000E+07    0.9225833430E-02    0.4671397529E-02    0.6954169052E+00    0.3080716057E+00    0.6435093112E-03
    0.2300000000E+07    0.8861657390E-02    0.4498830807E-02    0.6954144470E+00    0.3090536445E+00    0.6467691694E-03
    0.2500000000E+07    0.8538675558E-02    0.4345353065E-02    0.6954121367E+00    0.3099175602E+00    0.6497715218E-03
    0.2700000000E+07    0.8249591241E-02    0.4207628738E-02    0.6954099585E+00    0.3106853357E+00    0.6525550341E-03
    0.2900000000E+07    0.7988806525E-02    0.4083091230E-02    0.6954078987E+00    0.3113736158E+00    0.6551502067E-03
    0.3100000000E+07    0.7751943930E-02    0.3969728059E-02    0.6954059455E+00    0.3119952671E+00    0.6575815313E-03
    0.3300000000E+07    0.7535523332E-02    0.3865935290E-02    0.6954040885E+00    0.3125604146E+00    0.6598689775E-03
    0.3500000000E+07    0.7336737830E-02    0.3770416272E-02    0.6954023187E+00    0.3130771501E+00    0.6620290457E-03
    0.3700000000E+07    0.7153294573E-02    0.3682109537E-02    0.6954006285E+00    0.3135520290E+00    0.6640755295E-03
    0.3900000000E+07    0.6983299379E-02    0.3600136411E-02    0.6953990109E+00    0.3139904265E+00    0.6660200797E-03
    0.4100000000E+07    0.6825171572E-02    0.3523762261E-02    0.6953974600E+00    0.3143967975E+00    0.6678726276E-03
    0.4300000000E+07    0.6677580089E-02    0.3452367355E-02    0.6953959703E+00    0.3147748699E+00    0.6696417088E-03
    0.4500000000E+07    0.6539394841E-02    0.3385424648E-02    0.6953945373E+00    0.3151277906E+00    0.6713347145E-03
    0.4700000000E+07    0.6409649204E-02    0.3322482605E-02    0.6953931567E+00    0.3154582369E+00    0.6729580874E-03
    0.4900000000E+07    0.6287510738E-02    0.3263151780E-02    0.6953918248E+00    0.3157685027E+00    0.6745174786E-03
    0.1000000000E+07    0.1267349005E-01    0.6282124414E-02    0.6954338603E+00    0.2983072629E+00    0.6175278603E-03
    0.3000000000E+07    0.7867620493E-02    0.4025121315E-02    0.6954069095E+00    0.3116920825E+00    0.6563850100E-03
    0.5000000000E+07    0.6229064963E-02    0.3234733193E-02    0.6953911761E+00    0.3159166971E+00    0.6752747619E-03
    0.7000000000E+07    0.5326146858E-02    0.2793303105E-02    0.6953800960E+00    0.3181842284E+00    0.6880127509E-03
    0.9000000000E+07    0.4732729364E-02    0.2500511255E-02    0.6953715126E+00    0.3196530668E+00    0.6976832113E-03
    0.1100000000E+08    0.4304097210E-02    0.2287538952E-02    0.6953644899E+00    0.3207040595E+00    0.7055023245E-03
    0.1300000000E+08    0.3975566655E-02    0.2123376160E-02    0.6953585376E+00    0.3215042049E+00    0.7120782975E-03
    0.1500000000E+08    0.3713258910E-02    0.1991678475E-02    0.6953533661E+00    0.3221398274E+00    0.7177600357E-03
    0.1700000000E+08    0.3497469598E-02    0.1882890468E-02    0.6953487902E+00    0.3226606465E+00    0.7227666839E-03
    0.1900000000E+08    0.3315847338E-02    0.1790996071E-02    0.6953446837E+00    0.3230975912E+00    0.7272450868E-03
    0.2100000000E+08    0.3160200950E-02    0.1711990244E-02    0.6953409572E+00    0.3234710473E+00    0.7312985491E-03
    0.2300000000E+08    0.3024853609E-02    0.1643087900E-02    0.6953375447E+00    0.3237950708E+00    0.7350025587E-03
    0.2500000000E+08    0.2905729250E-02    0.1582283193E-02    0.6953343962E+00    0.3240797107E+00    0.7384139857E-03
    0.2700000000E+08    0.2799814751E-02    0.1528089251E-02    0.6953314727E+00    0.3243323682E+00    0.7415767611E-03
