  Pressure (Pa) 22mC5-500 (mol/kg) 23mC5-500 (mol/kg) 24mC5-500 (mol/kg) 2mC6-500 (mol/kg) C7-500 (mol/kg)
    0.1000000000E+01    0.1073743522E-04    0.2315605834E-05    0.3665853648E-01    0.3560558549E-04    0.4171582014E-02
    0.3000000000E+01    0.2831045684E-04    0.6097959121E-05    0.9947568367E-01    0.9167513411E-04    0.4212119421E-02
    0.5000000000E+01    0.4221142021E-04    0.9083899613E-05    0.1513444185E+00    0.1344534580E-03    0.4239854946E-02
    0.7000000000E+01    0.5342792097E-04    0.1148856617E-04    0.1948986268E+00    0.1678480876E-03    0.4262430855E-02
    0.9000000000E+01    0.6262149158E-04    0.1345584750E-04    0.2319899617E+00    0.1943907562E-03    0.4281450374E-02
    0.1100000000E+02    0.7025817525E-04    0.1508700326E-04    0.2639581751E+00    0.2158246279E-03    0.4297759454E-02
    0.1300000000E+02    0.7667596715E-04    0.1645539868E-04    0.2917965878E+00    0.2333872994E-03    0.4311919060E-02
    0.1500000000E+02    0.8212558000E-04    0.1761540016E-04    0.3162572717E+00    0.2479774929E-03    0.4324333848E-02
    0.1700000000E+02    0.8679651484E-04    0.1860805991E-04    0.3379201028E+00    0.2602599620E-03    0.4335308393E-02
    0.1900000000E+02    0.9083434296E-04    0.1946488185E-04    0.3572393795E+00    0.2707341309E-03    0.4345078197E-02
    0.2100000000E+02    0.9435248372E-04    0.2021038661E-04    0.3745760742E+00    0.2797803094E-03    0.4353828972E-02
    0.2300000000E+02    0.9744041901E-04    0.2086389947E-04    0.3902206293E+00    0.2876915444E-03    0.4361709478E-02
    0.2500000000E+02    0.1001695378E-03    0.2144082178E-04    0.4044093831E+00    0.2946960101E-03    0.4368840449E-02
    0.2700000000E+02    0.1025973679E-03    0.2195355105E-04    0.4173366088E+00    0.3009730229E-03    0.4375320987E-02
    0.2900000000E+02    0.1047706892E-03    0.2241215734E-04    0.4291634760E+00    0.3066646720E-03    0.4381233253E-02
    0.3100000000E+02    0.1067278545E-03    0.2282488738E-04    0.4400248143E+00    0.3118843828E-03    0.4386645970E-02
    0.3300000000E+02    0.1085005448E-03    0.2319854535E-04    0.4500342837E+00    0.3167233005E-03    0.4391617083E-02
    0.3500000000E+02    0.1101151086E-03    0.2353878361E-04    0.4592883733E+00    0.3212551022E-03    0.4396195812E-02
    0.3700000000E+02    0.1115935985E-03    0.2385032719E-04    0.4678695264E+00    0.3255396611E-03    0.4400424238E-02
    0.3900000000E+02    0.1129545783E-03    0.2413714874E-04    0.4758486065E+00    0.3296258643E-03    0.4404338563E-02
    0.4100000000E+02    0.1142137586E-03    0.2440260612E-04    0.4832868622E+00    0.3335537971E-03    0.4407970108E-02
    0.4300000000E+02    0.1153845014E-03    0.2464955159E-04    0.4902375045E+00    0.3373564500E-03    0.4411346114E-02
    0.4500000000E+02    0.1164782237E-03    0.2488041897E-04    0.4967469836E+00    0.3410610632E-03    0.4414490384E-02
    0.4700000000E+02    0.1175047218E-03    0.2509729387E-04    0.5028560298E+00    0.3446901922E-03    0.4417423818E-02
    0.4900000000E+02    0.1184724352E-03    0.2530197055E-04    0.5086005076E+00    0.3482625574E-03    0.4420164841E-02
    0.1000000000E+02    0.6661088768E-04    0.1430832622E-04    0.2485457098E+00    0.2056594343E-03    0.4289904051E-02
    0.3000000000E+02    0.1057741723E-03    0.2262380159E-04    0.4347072881E+00    0.3093273638E-03    0.4383998207E-02
    0.5000000000E+02    0.1189365677E-03    0.2540022720E-04    0.5113460869E+00    0.3500324260E-03    0.4421468368E-02
    0.7000000000E+02    0.1264644224E-03    0.2700682931E-04    0.5531599104E+00    0.3850723325E-03    0.4440553189E-02
    0.9000000000E+02    0.1325020937E-03    0.2831951998E-04    0.5794956480E+00    0.4222456998E-03    0.4451249464E-02
    0.1100000000E+03    0.1382474443E-03    0.2958669846E-04    0.5976070696E+00    0.4625895927E-03    0.4457358751E-02
    0.1300000000E+03    0.1441087705E-03    0.3089075471E-04    0.6108272040E+00    0.5059350325E-03    0.4460651841E-02
    0.1500000000E+03    0.1502344971E-03    0.3226030666E-04    0.6209021897E+00    0.5519381969E-03    0.4462068200E-02
    0.1700000000E+03    0.1566767680E-03    0.3370447645E-04    0.6288353115E+00    0.6002919451E-03    0.4462153735E-02
    0.1900000000E+03    0.1634498536E-03    0.3522496327E-04    0.6352440928E+00    0.6507590990E-03    0.4461247709E-02
    0.2100000000E+03    0.1705530977E-03    0.3682070488E-04    0.6405294565E+00    0.7031659136E-03    0.4459572084E-02
    0.2300000000E+03    0.1779804954E-03    0.3848977822E-04    0.6449630445E+00    0.7573889473E-03    0.4457278041E-02
    0.2500000000E+03    0.1857248145E-03    0.4023018907E-04    0.6487354433E+00    0.8133432005E-03    0.4454471899E-02
    0.2700000000E+03    0.1937793593E-03    0.4204019088E-04    0.6519843209E+00    0.8709728801E-03    0.4451230353E-02
    0.2900000000E+03    0.2021386812E-03    0.4391839840E-04    0.6548116024E+00    0.9302445431E-03    0.4447609860E-02
    0.3100000000E+03    0.2107988107E-03    0.4586381157E-04    0.6572943638E+00    0.9911420852E-03    0.4443652632E-02
    0.3300000000E+03    0.2197572744E-03    0.4787580164E-04    0.6594919706E+00    0.1053663086E-02    0.4439390590E-02
    0.3500000000E+03    0.2290130230E-03    0.4995408333E-04    0.6614508881E+00    0.1117816139E-02    0.4434848054E-02
    0.3700000000E+03    0.2385663264E-03    0.5209868380E-04    0.6632080056E+00    0.1183618891E-02    0.4430043606E-02
    0.3900000000E+03    0.2484186660E-03    0.5430991320E-04    0.6647929825E+00    0.1251096600E-02    0.4424991418E-02
    0.4100000000E+03    0.2585726337E-03    0.5658833857E-04    0.6662299368E+00    0.1320281071E-02    0.4419702207E-02
    0.4300000000E+03    0.2690318447E-03    0.5893476180E-04    0.6675386816E+00    0.1391209874E-02    0.4414183941E-02
    0.4500000000E+03    0.2798008637E-03    0.6135020134E-04    0.6687356448E+00    0.1463925765E-02    0.4408442362E-02
    0.4700000000E+03    0.2908851448E-03    0.6383587753E-04    0.6698345622E+00    0.1538476278E-02    0.4402481383E-02
    0.4900000000E+03    0.3022909842E-03    0.6639320108E-04    0.6708470076E+00    0.1614913430E-02    0.4396303390E-02
    0.1000000000E+03    0.1353764405E-03    0.2895170245E-04    0.5893181323E+00    0.4420227247E-03    0.4454739180E-02
    0.3000000000E+03    0.2064313341E-03    0.4488275199E-04    0.6560919879E+00    0.9604905159E-03    0.4445671138E-02
    0.5000000000E+03    0.3081166767E-03    0.6769922127E-04    0.6713239316E+00    0.1653856928E-02    0.4393133399E-02
    0.7000000000E+03    0.4437087319E-03    0.9807360680E-04    0.6780739732E+00    0.2548062156E-02    0.4318048102E-02
    0.9000000000E+03    0.6249919056E-03    0.1386458944E-03    0.6818839706E+00    0.3725914321E-02    0.4217026514E-02
    0.1100000000E+04    0.8733419099E-03    0.1942002838E-03    0.6843312215E+00    0.5328114949E-02    0.4079984671E-02
    0.1300000000E+04    0.1225561717E-02    0.2729693683E-03    0.6860358901E+00    0.7593168115E-02    0.3889028198E-02
    0.1500000000E+04    0.1745415294E-02    0.3892153358E-03    0.6872913963E+00    0.1093315007E-01    0.3613911328E-02
    0.1700000000E+04    0.2540085824E-02    0.5669155799E-03    0.6882545626E+00    0.1604226948E-01    0.3206671924E-02
    0.1900000000E+04    0.3756111631E-02    0.8388684548E-03    0.6890168174E+00    0.2387762799E-01    0.2610945121E-02
    0.2100000000E+04    0.5438881318E-02    0.1215299465E-02    0.6896350637E+00    0.3476707701E-01    0.1841872417E-02
    0.2300000000E+04    0.7215346639E-02    0.1612887457E-02    0.6901465705E+00    0.4635663547E-01    0.1123205079E-02
    0.2500000000E+04    0.8548212357E-02    0.1911481903E-02    0.6905767683E+00    0.5518794093E-01    0.6993578892E-03
    0.2700000000E+04    0.9409895836E-02    0.2104826360E-02    0.6909436044E+00    0.6104207337E-01    0.5282353419E-03
    0.2900000000E+04    0.1002513403E-01    0.2243121543E-02    0.6912601062E+00    0.6533985717E-01    0.4716920505E-03
    0.3100000000E+04    0.1053549051E-01    0.2358007805E-02    0.6915359594E+00    0.6898500549E-01    0.4549256479E-03
    0.3300000000E+04    0.1099740801E-01    0.2462102537E-02    0.6917785147E+00    0.7233885763E-01    0.4507718338E-03
    0.3500000000E+04    0.1143091853E-01    0.2559882672E-02    0.6919934515E+00    0.7552918126E-01    0.4504998153E-03
    0.3700000000E+04    0.1184329034E-01    0.2652970815E-02    0.6921852271E+00    0.7860152653E-01    0.4513896749E-03
    0.3900000000E+04    0.1223752670E-01    0.2742035695E-02    0.6923573891E+00    0.8157392225E-01    0.4525978625E-03
    0.4100000000E+04    0.1261519489E-01    0.2827424978E-02    0.6925127957E+00    0.8445516447E-01    0.4538634669E-03
    0.4300000000E+04    0.1297735363E-01    0.2909372722E-02    0.6926537757E+00    0.8725083169E-01    0.4551074803E-03
    0.4500000000E+04    0.1332485896E-01    0.2988067853E-02    0.6927822455E+00    0.8996527296E-01    0.4563080031E-03
    0.4700000000E+04    0.1365846770E-01    0.3063677273E-02    0.6928997966E+00    0.9260227700E-01    0.4574610075E-03
    0.4900000000E+04    0.1397887410E-01    0.3136354071E-02    0.6930077617E+00    0.9516530638E-01    0.4585678914E-03
    0.1000000000E+04    0.7389481023E-03    0.1641396954E-03    0.6832277610E+00    0.4462038645E-02    0.4153903280E-02
    0.3000000000E+04    0.1028859522E-01    0.2302411678E-02    0.6914026088E+00    0.6721310444E-01    0.4607098478E-03
    0.5000000000E+04    0.1413433002E-01    0.3171637636E-02    0.6930585078E+00    0.9642009653E-01    0.4591049169E-03
    0.7000000000E+04    0.1668732317E-01    0.3753571418E-02    0.6937688890E+00    0.1183205371E+00    0.4680793428E-03
    0.9000000000E+04    0.1845434610E-01    0.4160190054E-02    0.6941630735E+00    0.1355342279E+00    0.4748309434E-03
    0.1100000000E+05    0.1970390062E-01    0.4450907946E-02    0.6944133919E+00    0.1494727047E+00    0.4802611748E-03
    0.1300000000E+05    0.2059901768E-01    0.4661894006E-02    0.6945862400E+00    0.1610265105E+00    0.4848123471E-03
    0.1500000000E+05    0.2124366254E-01    0.4816275610E-02    0.6947126263E+00    0.1707862162E+00    0.4887351281E-03
    0.1700000000E+05    0.2170680318E-01    0.4929438092E-02    0.6948089715E+00    0.1791595279E+00    0.4921856444E-03
    0.1900000000E+05    0.2203569803E-01    0.5011954689E-02    0.6948847817E+00    0.1864373835E+00    0.4952678724E-03
    0.2100000000E+05    0.2226361718E-01    0.5071291626E-02    0.6949459403E+00    0.1928332362E+00    0.4980546163E-03
    0.2300000000E+05    0.2241452460E-01    0.5112843716E-02    0.6949962824E+00    0.1985074288E+00    0.5005988798E-03
    0.2500000000E+05    0.2250602199E-01    0.5140586511E-02    0.6950384149E+00    0.2035828788E+00    0.5029404749E-03
    0.2700000000E+05    0.2255125787E-01    0.5157499929E-02    0.6950741709E+00    0.2081554921E+00    0.5051100796E-03
    0.2900000000E+05    0.2256019930E-01    0.5165850924E-02    0.6951048770E+00    0.2123012677E+00    0.5071318438E-03
    0.3100000000E+05    0.2254049918E-01    0.5167386610E-02    0.6951315166E+00    0.2160812606E+00    0.5090251258E-03
    0.3300000000E+05    0.2249810014E-01    0.5163468961E-02    0.6951548342E+00    0.2195451228E+00    0.5108056857E-03
    0.3500000000E+05    0.2243766278E-01    0.5155170520E-02    0.6951754037E+00    0.2227336777E+00    0.5124865287E-03
    0.3700000000E+05    0.2236287451E-01    0.5143343536E-02    0.6951936745E+00    0.2256808222E+00    0.5140785144E-03
    0.3900000000E+05    0.2227667545E-01    0.5128670647E-02    0.6952100034E+00    0.2284149549E+00    0.5155908056E-03
    0.4100000000E+05    0.2218142601E-01    0.5111702547E-02    0.6952246774E+00    0.2309600618E+00    0.5170312060E-03
    0.4300000000E+05    0.2207903270E-01    0.5092886317E-02    0.6952379298E+00    0.2333365536E+00    0.5184064173E-03
    0.4500000000E+05    0.2197104358E-01    0.5072586971E-02    0.6952499523E+00    0.2355619167E+00    0.5197222383E-03
    0.4700000000E+05    0.2185872150E-01    0.5051104020E-02    0.6952609039E+00    0.2376512270E+00    0.5209837203E-03
    0.4900000000E+05    0.2174310072E-01    0.5028684307E-02    0.6952709173E+00    0.2396175575E+00    0.5221952914E-03
    0.1000000000E+05    0.1913184054E-01    0.4317383991E-02    0.6943008228E+00    0.1428482879E+00    0.4776772976E-03
    0.3000000000E+05    0.2255352365E-01    0.5167377806E-02    0.6951186539E+00    0.2142336505E+00    0.5080934870E-03
    0.5000000000E+05    0.2168432512E-01    0.5017188421E-02    0.6952756078E+00    0.2405582249E+00    0.5227835984E-03
    0.7000000000E+05    0.2047655584E-01    0.4772438733E-02    0.6953398803E+00    0.2550407684E+00    0.5326738189E-03
    0.9000000000E+05    0.1935378676E-01    0.4537103666E-02    0.6953738693E+00    0.2644667511E+00    0.5401768489E-03
    0.1100000000E+06    0.1836815580E-01    0.4326981854E-02    0.6953943794E+00    0.2712039329E+00    0.5462409691E-03
    0.1300000000E+06    0.1750945656E-01    0.4141888731E-02    0.6954077894E+00    0.2763165001E+00    0.5513396226E-03
    0.1500000000E+06    0.1675797046E-01    0.3978583459E-02    0.6954170359E+00    0.2803612424E+00    0.5557441291E-03
    0.1700000000E+06    0.1609526900E-01    0.3833643905E-02    0.6954236519E+00    0.2836608666E+00    0.5596247851E-03
    0.1900000000E+06    0.1550610749E-01    0.3704102376E-02    0.6954285121E+00    0.2864167590E+00    0.5630956461E-03
    0.2100000000E+06    0.1497827230E-01    0.3587518626E-02    0.6954321500E+00    0.2887618374E+00    0.5662369195E-03
    0.2300000000E+06    0.1450203088E-01    0.3481914888E-02    0.6954349082E+00    0.2907877738E+00    0.5691071984E-03
    0.2500000000E+06    0.1406959473E-01    0.3385689031E-02    0.6954370160E+00    0.2925600767E+00    0.5717506142E-03
    0.2700000000E+06    0.1367468151E-01    0.3297536591E-02    0.6954386323E+00    0.2941269468E+00    0.5742012511E-03
    0.2900000000E+06    0.1331217710E-01    0.3216387657E-02    0.6954398702E+00    0.2955247299E+00    0.5764859918E-03
    0.3100000000E+06    0.1297787913E-01    0.3141357563E-02    0.6954408122E+00    0.2967814105E+00    0.5786264199E-03
    0.3300000000E+06    0.1266830295E-01    0.3071708818E-02    0.6954415197E+00    0.2979189259E+00    0.5806401319E-03
    0.3500000000E+06    0.1238053400E-01    0.3006821740E-02    0.6954420393E+00    0.2989547442E+00    0.5825416663E-03
    0.3700000000E+06    0.1211211481E-01    0.2946171699E-02    0.6954424068E+00    0.2999029672E+00    0.5843431754E-03
    0.3900000000E+06    0.1186095771E-01    0.2889311387E-02    0.6954426502E+00    0.3007751186E+00    0.5860549229E-03
    0.4100000000E+06    0.1162527677E-01    0.2835856893E-02    0.6954427915E+00    0.3015807179E+00    0.5876856573E-03
    0.4300000000E+06    0.1140353426E-01    0.2785476673E-02    0.6954428484E+00    0.3023277065E+00    0.5892428973E-03
    0.4500000000E+06    0.1119439824E-01    0.2737882761E-02    0.6954428350E+00    0.3030227673E+00    0.5907331527E-03
    0.4700000000E+06    0.1099670854E-01    0.2692823694E-02    0.6954427630E+00    0.3036715693E+00    0.5921620984E-03
    0.4900000000E+06    0.1080944936E-01    0.2650078784E-02    0.6954426417E+00    0.3042789568E+00    0.5935347112E-03
    0.1000000000E+06    0.1884398799E-01    0.4428765560E-02    0.6953852891E+00    0.2680878617E+00    0.5433525881E-03
    0.3000000000E+06    0.1314173500E-01    0.3178156916E-02    0.6954403739E+00    0.2961692165E+00    0.5775730641E-03
    0.5000000000E+06    0.1071944770E-01    0.2629512422E-02    0.6954425651E+00    0.3045684453E+00    0.5942012849E-03
    0.7000000000E+06    0.9297716314E-02    0.2302678951E-02    0.6954397694E+00    0.3089449204E+00    0.6054130874E-03
    0.9000000000E+06    0.8332991966E-02    0.2078704441E-02    0.6954361174E+00    0.3117223711E+00    0.6139245105E-03
    0.1100000000E+07    0.7622280797E-02    0.1912473222E-02    0.6954324412E+00    0.3136791006E+00    0.6208063079E-03
    0.1300000000E+07    0.7070119833E-02    0.1782554480E-02    0.6954289497E+00    0.3151504536E+00    0.6265938993E-03
    0.1500000000E+07    0.6624852955E-02    0.1677264518E-02    0.6954256884E+00    0.3163073541E+00    0.6315944142E-03
    0.1700000000E+07    0.6255737203E-02    0.1589607992E-02    0.6954226540E+00    0.3172470983E+00    0.6360007495E-03
    0.1900000000E+07    0.5943166696E-02    0.1515101335E-02    0.6954198285E+00    0.3180296055E+00    0.6399421578E-03
    0.2100000000E+07    0.5673962808E-02    0.1450717811E-02    0.6954171909E+00    0.3186940233E+00    0.6435095656E-03
    0.2300000000E+07    0.5438892434E-02    0.1394328852E-02    0.6954147209E+00    0.3192671354E+00    0.6467694145E-03
    0.2500000000E+07    0.5231266296E-02    0.1344387153E-02    0.6954124001E+00    0.3197679567E+00    0.6497717586E-03
    0.2700000000E+07    0.5046102046E-02    0.1299736755E-02    0.6954102125E+00    0.3202104036E+00    0.6525552635E-03
    0.2900000000E+07    0.4879601362E-02    0.1259493979E-02    0.6954081444E+00    0.3206049232E+00    0.6551504294E-03
    0.3100000000E+07    0.4728810568E-02    0.1222969917E-02    0.6954061835E+00    0.3209595287E+00    0.6575817480E-03
    0.3300000000E+07    0.4591393173E-02    0.1189618341E-02    0.6954043196E+00    0.3212804817E+00    0.6598691886E-03
    0.3500000000E+07    0.4465473125E-02    0.1158999713E-02    0.6954025436E+00    0.3215727546E+00    0.6620292517E-03
    0.3700000000E+07    0.4349524186E-02    0.1130755730E-02    0.6954008475E+00    0.3218403520E+00    0.6640757308E-03
    0.3900000000E+07    0.4242290172E-02    0.1104590928E-02    0.6953992245E+00    0.3220865397E+00    0.6660202766E-03
    0.4100000000E+07    0.4142726379E-02    0.1080259145E-02    0.6953976686E+00    0.3223140110E+00    0.6678728204E-03
    0.4300000000E+07    0.4049955838E-02    0.1057553393E-02    0.6953961743E+00    0.3225250089E+00    0.6696418979E-03
    0.4500000000E+07    0.3963236154E-02    0.1036298167E-02    0.6953947370E+00    0.3227214188E+00    0.6713349000E-03
    0.4700000000E+07    0.3881934028E-02    0.1016343527E-02    0.6953933523E+00    0.3229048379E+00    0.6729582696E-03
    0.4900000000E+07    0.3805505449E-02    0.9975604826E-03    0.6953920166E+00    0.3230766300E+00    0.6745176577E-03
    0.1000000000E+07    0.7953304689E-02    0.1990032769E-02    0.6954342630E+00    0.3127767663E+00    0.6175282043E-03
    0.3000000000E+07    0.4802400616E-02    0.1240804108E-02    0.6954071512E+00    0.3207867891E+00    0.6563852296E-03
    0.5000000000E+07    0.3768969245E-02    0.9885728199E-03    0.6953913660E+00    0.3231585385E+00    0.6752749394E-03
    0.7000000000E+07    0.3207482936E-02    0.8497120763E-03    0.6953802579E+00    0.3244000423E+00    0.6880129050E-03
    0.9000000000E+07    0.2841423563E-02    0.7583611664E-03    0.6953716562E+00    0.3251923752E+00    0.6976833499E-03
    0.1100000000E+08    0.2578440058E-02    0.6922786258E-03    0.6953646204E+00    0.3257535295E+00    0.7055024519E-03
    0.1300000000E+08    0.2377668643E-02    0.6415457543E-03    0.6953586581E+00    0.3261774920E+00    0.7120784161E-03
    0.1500000000E+08    0.2217856753E-02    0.6009724244E-03    0.6953534786E+00    0.3265122601E+00    0.7177601474E-03
    0.1700000000E+08    0.2086709019E-02    0.5675408249E-03    0.6953488960E+00    0.3267852218E+00    0.7227667898E-03
    0.1900000000E+08    0.1976550533E-02    0.5393591158E-03    0.6953447841E+00    0.3270132870E+00    0.7272451879E-03
    0.2100000000E+08    0.1882308870E-02    0.5151722796E-03    0.6953410529E+00    0.3272075321E+00    0.7312986460E-03
    0.2300000000E+08    0.1800478712E-02    0.4941101516E-03    0.6953376363E+00    0.3273755540E+00    0.7350026519E-03
    0.2500000000E+08    0.1728549345E-02    0.4755476074E-03    0.6953344842E+00    0.3275227594E+00    0.7384140756E-03
    0.2700000000E+08    0.1664668731E-02    0.4590222720E-03    0.6953315575E+00    0.3276531141E+00    0.7415768480E-03
