  Pressure (Pa) 22mC5-500 (mol/kg) 23mC5-500 (mol/kg) 24mC5-500 (mol/kg) 2mC6-500 (mol/kg) C7-500 (mol/kg)
    0.1000000000E+01    0.7511507876E-05    0.5387995063E-06    0.2142778396E+00    0.1206197154E-04    0.4167121103E-02
    0.3000000000E+01    0.1285426088E-04    0.9187113295E-06    0.3978415703E+00    0.1970234963E-04    0.4188126632E-02
    0.5000000000E+01    0.1490317636E-04    0.1063572235E-05    0.4801006286E+00    0.2283716118E-04    0.4195210908E-02
    0.7000000000E+01    0.1605940058E-04    0.1145721176E-05    0.5267814822E+00    0.2515125365E-04    0.4198923478E-02
    0.9000000000E+01    0.1690243974E-04    0.1206318256E-05    0.5568624799E+00    0.2733315671E-04    0.4201187253E-02
    0.1100000000E+02    0.1762303271E-04    0.1258748410E-05    0.5778615416E+00    0.2954282206E-04    0.4202681997E-02
    0.1300000000E+02    0.1829544306E-04    0.1308146532E-05    0.5933522612E+00    0.3181431436E-04    0.4203715952E-02
    0.1500000000E+02    0.1895155886E-04    0.1356675176E-05    0.6052507422E+00    0.3414795659E-04    0.4204450624E-02
    0.1700000000E+02    0.1960579650E-04    0.1405285324E-05    0.6146767173E+00    0.3653547272E-04    0.4204979283E-02
    0.1900000000E+02    0.2026473440E-04    0.1454391971E-05    0.6223283431E+00    0.3896740825E-04    0.4205359749E-02
    0.2100000000E+02    0.2093123103E-04    0.1504160240E-05    0.6286635357E+00    0.4143526162E-04    0.4205629863E-02
    0.2300000000E+02    0.2160631897E-04    0.1554635542E-05    0.6339951215E+00    0.4393194167E-04    0.4205815474E-02
    0.2500000000E+02    0.2229012440E-04    0.1605805949E-05    0.6385440844E+00    0.4645170224E-04    0.4205934870E-02
    0.2700000000E+02    0.2298233124E-04    0.1657633163E-05    0.6424709657E+00    0.4898993770E-04    0.4206001370E-02
    0.2900000000E+02    0.2368242150E-04    0.1710068211E-05    0.6458952070E+00    0.5154296740E-04    0.4206024910E-02
    0.3100000000E+02    0.2438980125E-04    0.1763059440E-05    0.6489075116E+00    0.5410784728E-04    0.4206013065E-02
    0.3300000000E+02    0.2510386638E-04    0.1816556501E-05    0.6515779968E+00    0.5668221622E-04    0.4205971712E-02
    0.3500000000E+02    0.2582403604E-04    0.1870512237E-05    0.6539617212E+00    0.5926417414E-04    0.4205905482E-02
    0.3700000000E+02    0.2654976836E-04    0.1924883443E-05    0.6561025209E+00    0.6185218656E-04    0.4205818078E-02
    0.3900000000E+02    0.2728056664E-04    0.1979631038E-05    0.6580357304E+00    0.6444500997E-04    0.4205712499E-02
    0.4100000000E+02    0.2801598033E-04    0.2034719940E-05    0.6597901484E+00    0.6704163362E-04    0.4205591196E-02
    0.4300000000E+02    0.2875560332E-04    0.2090118788E-05    0.6613894819E+00    0.6964123384E-04    0.4205456197E-02
    0.4500000000E+02    0.2949907086E-04    0.2145799615E-05    0.6628534241E+00    0.7224313810E-04    0.4205309191E-02
    0.4700000000E+02    0.3024605603E-04    0.2201737504E-05    0.6641984692E+00    0.7484679658E-04    0.4205151600E-02
    0.4900000000E+02    0.3099626608E-04    0.2257910259E-05    0.6654385368E+00    0.7745175956E-04    0.4204984627E-02
    0.1000000000E+02    0.1727192657E-04    0.1233129506E-05    0.5682191971E+00    0.2843106869E-04    0.4202006572E-02
    0.3000000000E+02    0.2403523821E-04    0.1736497510E-05    0.6474480614E+00    0.5282408573E-04    0.4206023010E-02
    0.5000000000E+02    0.3137249742E-04    0.2286078443E-05    0.6660229712E+00    0.7875461254E-04    0.4204897950E-02
    0.7000000000E+02    0.3901587776E-04    0.2857986393E-05    0.6743142979E+00    0.1048208616E-03    0.4202856490E-02
    0.9000000000E+02    0.4680619055E-04    0.3440329197E-05    0.6790105050E+00    0.1308546514E-03    0.4200483201E-02
    0.1100000000E+03    0.5468574073E-04    0.4028934076E-05    0.6820332380E+00    0.1568603183E-03    0.4197950322E-02
    0.1300000000E+03    0.6263194227E-04    0.4622218303E-05    0.6841417190E+00    0.1828704876E-03    0.4195326311E-02
    0.1500000000E+03    0.7063601667E-04    0.5219597976E-05    0.6856962398E+00    0.2089194291E-03    0.4192643243E-02
    0.1700000000E+03    0.7869520742E-04    0.5820916854E-05    0.6868897595E+00    0.2350377583E-03    0.4189917747E-02
    0.1900000000E+03    0.8680957060E-04    0.6426214264E-05    0.6878349431E+00    0.2612518864E-03    0.4187159010E-02
    0.2100000000E+03    0.9498052796E-04    0.7035621899E-05    0.6886019911E+00    0.2875845417E-03    0.4184372301E-02
    0.2300000000E+03    0.1032101710E-03    0.7649314911E-05    0.6892369233E+00    0.3140554461E-03    0.4181560679E-02
    0.2500000000E+03    0.1115009107E-03    0.8267487742E-05    0.6897711644E+00    0.3406819191E-03    0.4178725896E-02
    0.2700000000E+03    0.1198552968E-03    0.8890341906E-05    0.6902269055E+00    0.3674793677E-03    0.4175868893E-02
    0.2900000000E+03    0.1282759231E-03    0.9518079824E-05    0.6906202629E+00    0.3944616747E-03    0.4172990097E-02
    0.3100000000E+03    0.1367653793E-03    0.1015090180E-04    0.6909632240E+00    0.4216415011E-03    0.4170089595E-02
    0.3300000000E+03    0.1453262270E-03    0.1078900471E-04    0.6912648899E+00    0.4490305252E-03    0.4167167249E-02
    0.3500000000E+03    0.1539609901E-03    0.1143258155E-04    0.6915322945E+00    0.4766396309E-03    0.4164222765E-02
    0.3700000000E+03    0.1626721527E-03    0.1208182152E-04    0.6917709603E+00    0.5044790577E-03    0.4161255742E-02
    0.3900000000E+03    0.1714621604E-03    0.1273691031E-04    0.6919852835E+00    0.5325585217E-03    0.4158265704E-02
    0.4100000000E+03    0.1803334250E-03    0.1339803055E-04    0.6921788069E+00    0.5608873140E-03    0.4155252119E-02
    0.4300000000E+03    0.1892883291E-03    0.1406536227E-04    0.6923544179E+00    0.5894743811E-03    0.4152214416E-02
    0.4500000000E+03    0.1983292317E-03    0.1473908340E-04    0.6925144930E+00    0.6183283916E-03    0.4149151997E-02
    0.4700000000E+03    0.2074584740E-03    0.1541937025E-04    0.6926610062E+00    0.6474577923E-03    0.4146064240E-02
    0.4900000000E+03    0.2166783845E-03    0.1610639794E-04    0.6927956105E+00    0.6768708545E-03    0.4142950505E-02
    0.1000000000E+03    0.5073669230E-04    0.3733981993E-05    0.6806696824E+00    0.1438591301E-03    0.4199231169E-02
    0.3000000000E+03    0.1325118866E-03    0.9833842913E-05    0.6907974178E+00    0.4080261474E-03    0.4171542564E-02
    0.5000000000E+03    0.2213230658E-03    0.1645249411E-04    0.6928588915E+00    0.6916863056E-03    0.4141383692E-02
    0.7000000000E+03    0.3195482186E-03    0.2377115913E-04    0.6937459341E+00    0.1004846754E-02    0.4108517903E-02
    0.9000000000E+03    0.4295990114E-03    0.3197040081E-04    0.6942395799E+00    0.1355643423E-02    0.4072240433E-02
    0.1100000000E+04    0.5542131218E-03    0.4125454463E-04    0.6945539894E+00    0.1752986287E-02    0.4031737484E-02
    0.1300000000E+04    0.6967186107E-03    0.5187176139E-04    0.6947717554E+00    0.2207611275E-02    0.3986036820E-02
    0.1500000000E+04    0.8613025740E-03    0.6413419269E-04    0.6949314846E+00    0.2732993730E-02    0.3933936453E-02
    0.1700000000E+04    0.1053347894E-02    0.7844309092E-04    0.6950536386E+00    0.3346450670E-02    0.3873914733E-02
    0.1900000000E+04    0.1279889758E-02    0.9532287124E-04    0.6951500727E+00    0.4070622204E-02    0.3804011376E-02
    0.2100000000E+04    0.1550251568E-02    0.1154685354E-03    0.6952281303E+00    0.4935532473E-02    0.3721666263E-02
    0.2300000000E+04    0.1876934625E-02    0.1398120235E-03    0.6952926026E+00    0.5981476181E-02    0.3623501093E-02
    0.2500000000E+04    0.2276843945E-02    0.1696136454E-03    0.6953467486E+00    0.7263005232E-02    0.3505031683E-02
    0.2700000000E+04    0.2772897966E-02    0.2065821776E-03    0.6953928625E+00    0.8854185999E-02    0.3360316900E-02
    0.2900000000E+04    0.3395892109E-02    0.2530139733E-03    0.6954326058E+00    0.1085473853E-01    0.3181613904E-02
    0.3100000000E+04    0.4185907679E-02    0.3118983437E-03    0.6954672114E+00    0.1339482709E-01    0.2959288405E-02
    0.3300000000E+04    0.5191036929E-02    0.3868231394E-03    0.6954976136E+00    0.1663139256E-01    0.2682655384E-02
    0.3500000000E+04    0.6458090811E-02    0.4812829999E-03    0.6955245329E+00    0.2071887977E-01    0.2343202464E-02
    0.3700000000E+04    0.8006645254E-02    0.5967455723E-03    0.6955485345E+00    0.2572628449E-01    0.1942203720E-02
    0.3900000000E+04    0.9784236548E-02    0.7293111816E-03    0.6955700672E+00    0.3149254125E-01    0.1502175279E-02
    0.4100000000E+04    0.1163462524E-01    0.8673433332E-03    0.6955894926E+00    0.3752163952E-01    0.1071995790E-02
    0.4300000000E+04    0.1334501090E-01    0.9949820566E-03    0.6956071048E+00    0.4313030170E-01    0.7090872210E-03
    0.4500000000E+04    0.1476542704E-01    0.1101041819E-02    0.6956231458E+00    0.4783096330E-01    0.4461068793E-03
    0.4700000000E+04    0.1587407755E-01    0.1183887010E-02    0.6956378163E+00    0.5154579325E-01    0.2783480949E-03
    0.4900000000E+04    0.1673477015E-01    0.1248265038E-02    0.6956512843E+00    0.5447394057E-01    0.1804804770E-03
    0.1000000000E+04    0.4898944273E-03    0.3646259788E-04    0.6944124819E+00    0.1547878674E-02    0.4052573429E-02
    0.3000000000E+04    0.3767153195E-02    0.2806855811E-03    0.6954504866E+00    0.1204800199E-01    0.3076568435E-02
    0.5000000000E+04    0.1709784618E-01    0.1275443899E-02    0.6956576125E+00    0.5572457994E-01    0.1493367129E-03
    0.7000000000E+04    0.2174273621E-01    0.1624359537E-02    0.6957460455E+00    0.7260523515E-01    0.6595884912E-04
    0.9000000000E+04    0.2514528642E-01    0.1881207726E-02    0.6957949717E+00    0.8590868578E-01    0.6672988645E-04
    0.1100000000E+05    0.2787352833E-01    0.2088100224E-02    0.6958259715E+00    0.9730420667E-01    0.6747925608E-04
    0.1300000000E+05    0.3008803064E-01    0.2256852095E-02    0.6958473369E+00    0.1071994948E+00    0.6810965128E-04
    0.1500000000E+05    0.3190321741E-01    0.2395893594E-02    0.6958629330E+00    0.1158906691E+00    0.6865420481E-04
    0.1700000000E+05    0.3340299182E-01    0.2511414796E-02    0.6958748037E+00    0.1235994104E+00    0.6913398026E-04
    0.1900000000E+05    0.3465014430E-01    0.2608054647E-02    0.6958841307E+00    0.1304951188E+00    0.6956308446E-04
    0.2100000000E+05    0.3569250461E-01    0.2689351853E-02    0.6958916446E+00    0.1367095764E+00    0.6995143689E-04
    0.2300000000E+05    0.3656707652E-01    0.2758048158E-02    0.6958978214E+00    0.1423469205E+00    0.7030628339E-04
    0.2500000000E+05    0.3730288401E-01    0.2816297254E-02    0.6959029841E+00    0.1474905937E+00    0.7063308119E-04
    0.2700000000E+05    0.3792297195E-01    0.2865811755E-02    0.6959073599E+00    0.1522082888E+00    0.7093604486E-04
    0.2900000000E+05    0.3844583917E-01    0.2907968556E-02    0.6959111130E+00    0.1565555342E+00    0.7121849838E-04
    0.3100000000E+05    0.3888648230E-01    0.2943885639E-02    0.6959143650E+00    0.1605783386E+00    0.7148311045E-04
    0.3300000000E+05    0.3925716770E-01    0.2974478914E-02    0.6959172079E+00    0.1643151701E+00    0.7173205673E-04
    0.3500000000E+05    0.3956801014E-01    0.3000504871E-02    0.6959197128E+00    0.1677984593E+00    0.7196713472E-04
    0.3700000000E+05    0.3982741208E-01    0.3022592985E-02    0.6959219350E+00    0.1710557542E+00    0.7218984690E-04
    0.3900000000E+05    0.4004240096E-01    0.3041270612E-02    0.6959239186E+00    0.1741106181E+00    0.7240146223E-04
    0.4100000000E+05    0.4021889083E-01    0.3056982327E-02    0.6959256991E+00    0.1769833350E+00    0.7260306229E-04
    0.4300000000E+05    0.4036188737E-01    0.3070105084E-02    0.6959273051E+00    0.1796914698E+00    0.7279557663E-04
    0.4500000000E+05    0.4047564985E-01    0.3080960207E-02    0.6959287603E+00    0.1822503156E+00    0.7297981008E-04
    0.4700000000E+05    0.4056382025E-01    0.3089822955E-02    0.6959300842E+00    0.1846732558E+00    0.7315646418E-04
    0.4900000000E+05    0.4062952685E-01    0.3096930207E-02    0.6959312933E+00    0.1869720581E+00    0.7332615424E-04
    0.1000000000E+05    0.2658232374E-01    0.1990061953E-02    0.6958120385E+00    0.9181622068E-01    0.6712214922E-04
    0.3000000000E+05    0.3867561568E-01    0.2926645639E-02    0.6959127953E+00    0.1586049301E+00    0.7135288859E-04
    0.5000000000E+05    0.4065481433E-01    0.3099890609E-02    0.6959318592E+00    0.1880782032E+00    0.7340855986E-04
    0.7000000000E+05    0.4047224382E-01    0.3104329601E-02    0.6959395681E+00    0.2056644994E+00    0.7479463395E-04
    0.9000000000E+05    0.3966055180E-01    0.3056950691E-02    0.6959435915E+00    0.2177297460E+00    0.7584688317E-04
    0.1100000000E+06    0.3866394991E-01    0.2992532834E-02    0.6959459847E+00    0.2266999629E+00    0.7669767579E-04
    0.1300000000E+06    0.3763764330E-01    0.2923652636E-02    0.6959475246E+00    0.2337259163E+00    0.7741320056E-04
    0.1500000000E+06    0.3664026709E-01    0.2855316617E-02    0.6959485672E+00    0.2394334816E+00    0.7803142486E-04
    0.1700000000E+06    0.3569352289E-01    0.2789561678E-02    0.6959492977E+00    0.2441966484E+00    0.7857619465E-04
    0.1900000000E+06    0.3480383168E-01    0.2727153628E-02    0.6959498213E+00    0.2482548166E+00    0.7906348821E-04
    0.2100000000E+06    0.3397107409E-01    0.2668286744E-02    0.6959502018E+00    0.2517695025E+00    0.7950454597E-04
    0.2300000000E+06    0.3319237971E-01    0.2612894766E-02    0.6959504801E+00    0.2548542887E+00    0.7990758154E-04
    0.2500000000E+06    0.3246384473E-01    0.2560796605E-02    0.6959506835E+00    0.2575917742E+00    0.8027878272E-04
    0.2700000000E+06    0.3178132566E-01    0.2511766819E-02    0.6959508308E+00    0.2600437112E+00    0.8062292943E-04
    0.2900000000E+06    0.3114080170E-01    0.2465570115E-02    0.6959509352E+00    0.2622573527E+00    0.8094379224E-04
    0.3100000000E+06    0.3053852969E-01    0.2421977979E-02    0.6959510064E+00    0.2642695786E+00    0.8124439887E-04
    0.3300000000E+06    0.2997109801E-01    0.2380776232E-02    0.6959510515E+00    0.2661096679E+00    0.8152721803E-04
    0.3500000000E+06    0.2943543166E-01    0.2341767917E-02    0.6959510761E+00    0.2678012122E+00    0.8179428957E-04
    0.3700000000E+06    0.2892877465E-01    0.2304773805E-02    0.6959510841E+00    0.2693634702E+00    0.8204731872E-04
    0.3900000000E+06    0.2844866300E-01    0.2269631720E-02    0.6959510788E+00    0.2708123457E+00    0.8228774581E-04
    0.4100000000E+06    0.2799289503E-01    0.2236195323E-02    0.6959510628E+00    0.2721611077E+00    0.8251679859E-04
    0.4300000000E+06    0.2755950222E-01    0.2204332696E-02    0.6959510380E+00    0.2734209297E+00    0.8273553231E-04
    0.4500000000E+06    0.2714672213E-01    0.2173924902E-02    0.6959510060E+00    0.2746012991E+00    0.8294486068E-04
    0.4700000000E+06    0.2675297394E-01    0.2144864614E-02    0.6959509681E+00    0.2757103328E+00    0.8314558023E-04
    0.4900000000E+06    0.2637683680E-01    0.2117054850E-02    0.6959509254E+00    0.2767550229E+00    0.8333838956E-04
    0.1000000000E+06    0.3917221792E-01    0.3025817457E-02    0.6959449285E+00    0.2225124360E+00    0.7629240447E-04
    0.3000000000E+06    0.3083510541E-01    0.2443462247E-02    0.6959509744E+00    0.2632866603E+00    0.8109646192E-04
    0.5000000000E+06    0.2619496736E-01    0.2103591153E-02    0.6959509025E+00    0.2772551653E+00    0.8343202332E-04
    0.7000000000E+06    0.2323030127E-01    0.1882565885E-02    0.6959503347E+00    0.2850017332E+00    0.8500702791E-04
    0.9000000000E+06    0.2112306656E-01    0.1723697478E-02    0.6959497188E+00    0.2901132622E+00    0.8620277532E-04
    0.1100000000E+07    0.1952276548E-01    0.1602052684E-02    0.6959491337E+00    0.2938146347E+00    0.8716962433E-04
    0.1300000000E+07    0.1825196771E-01    0.1504825244E-02    0.6959485936E+00    0.2966561842E+00    0.8798277020E-04
    0.1500000000E+07    0.1720991822E-01    0.1424669736E-02    0.6959480978E+00    0.2989273550E+00    0.8868535033E-04
    0.1700000000E+07    0.1633452450E-01    0.1357024559E-02    0.6959476418E+00    0.3007970448E+00    0.8930445933E-04
    0.1900000000E+07    0.1558511333E-01    0.1298883091E-02    0.6959472206E+00    0.3023713996E+00    0.8985825300E-04
    0.2100000000E+07    0.1493375363E-01    0.1248169853E-02    0.6959468299E+00    0.3037209592E+00    0.9035950400E-04
    0.2300000000E+07    0.1436052870E-01    0.1203398244E-02    0.6959464658E+00    0.3048946924E+00    0.9081754581E-04
    0.2500000000E+07    0.1385079349E-01    0.1163470836E-02    0.6959461251E+00    0.3059278074E+00    0.9123941002E-04
    0.2700000000E+07    0.1339350051E-01    0.1127556872E-02    0.6959458050E+00    0.3068463601E+00    0.9163052842E-04
    0.2900000000E+07    0.1298013411E-01    0.1095013959E-02    0.6959455032E+00    0.3076701043E+00    0.9199518585E-04
    0.3100000000E+07    0.1260400765E-01    0.1065336227E-02    0.6959452177E+00    0.3084143273E+00    0.9233682306E-04
    0.3300000000E+07    0.1225978588E-01    0.1038118974E-02    0.6959449468E+00    0.3090910706E+00    0.9265824550E-04
    0.3500000000E+07    0.1194315171E-01    0.1013033932E-02    0.6959446892E+00    0.3097099659E+00    0.9296177131E-04
    0.3700000000E+07    0.1165056845E-01    0.9898115615E-03    0.6959444436E+00    0.3102788223E+00    0.9324933840E-04
    0.3900000000E+07    0.1137910671E-01    0.9682281363E-03    0.6959442089E+00    0.3108040473E+00    0.9352258357E-04
    0.4100000000E+07    0.1112631613E-01    0.9480961426E-03    0.6959439841E+00    0.3112909546E+00    0.9378290212E-04
    0.4300000000E+07    0.1089012881E-01    0.9292570401E-03    0.6959437685E+00    0.3117439934E+00    0.9403149327E-04
    0.4500000000E+07    0.1066878562E-01    0.9115757203E-03    0.6959435614E+00    0.3121669209E+00    0.9426939541E-04
    0.4700000000E+07    0.1046077908E-01    0.8949362128E-03    0.6959433620E+00    0.3125629352E+00    0.9449751377E-04
    0.4900000000E+07    0.1026480882E-01    0.8792383178E-03    0.6959431698E+00    0.3129347781E+00    0.9471664229E-04
    0.1000000000E+07    0.2027312334E-01    0.1659198639E-02    0.6959494209E+00    0.2920970442E+00    0.8670906708E-04
    0.3000000000E+07    0.1278777654E-01    0.1079844279E-02    0.6959453585E+00    0.3080513386E+00    0.9216869372E-04
    0.5000000000E+07    0.1017097870E-01    0.8717148070E-03    0.6959430762E+00    0.3131123874E+00    0.9482305745E-04
    0.7000000000E+07    0.8717059465E-02    0.7544915359E-03    0.6959414837E+00    0.3158299170E+00    0.9661306034E-04
    0.9000000000E+07    0.7757221514E-02    0.6763830497E-03    0.6959402556E+00    0.3175895982E+00    0.9797203820E-04
    0.1100000000E+08    0.7061903646E-02    0.6193993662E-03    0.6959392534E+00    0.3188479777E+00    0.9907087213E-04
    0.1300000000E+08    0.6527864138E-02    0.5753823698E-03    0.6959384056E+00    0.3198054176E+00    0.9999502134E-04
    0.1500000000E+08    0.6100803651E-02    0.5400136712E-03    0.6959376700E+00    0.3205655223E+00    0.1007935116E-03
    0.1700000000E+08    0.5749044368E-02    0.5107606425E-03    0.6959370197E+00    0.3211879682E+00    0.1014971360E-03
    0.1900000000E+08    0.5452682578E-02    0.4860248561E-03    0.6959364367E+00    0.3217098761E+00    0.1021265289E-03
    0.2100000000E+08    0.5198493493E-02    0.4647401169E-03    0.6959359080E+00    0.3221557087E+00    0.1026962064E-03
    0.2300000000E+08    0.4977297439E-02    0.4461637993E-03    0.6959354241E+00    0.3225423301E+00    0.1032167762E-03
    0.2500000000E+08    0.4782494542E-02    0.4297603292E-03    0.6959349778E+00    0.3228817944E+00    0.1036962296E-03
    0.2700000000E+08    0.4609200502E-02    0.4151322386E-03    0.6959345636E+00    0.3231829769E+00    0.1041407401E-03
