  Pressure (Pa) 22mC5-500 (mol/kg) 23mC5-500 (mol/kg) 24mC5-500 (mol/kg) 2mC6-500 (mol/kg) C7-500 (mol/kg)
    0.1000000000E+01    0.9692721911E-05    0.4875890366E-05    0.9949897138E-01    0.1605439664E-04    0.4147496281E-02
    0.3000000000E+01    0.2142511834E-04    0.1075213865E-04    0.2321091135E+00    0.3405892312E-04    0.4176828470E-02
    0.5000000000E+01    0.2816804470E-04    0.1411280163E-04    0.3164669153E+00    0.4371154636E-04    0.4187293830E-02
    0.7000000000E+01    0.3245622042E-04    0.1624151188E-04    0.3748560880E+00    0.4964743310E-04    0.4193476451E-02
    0.9000000000E+01    0.3539682183E-04    0.1769719460E-04    0.4176691939E+00    0.5375540020E-04    0.4197651474E-02
    0.1100000000E+02    0.3754122043E-04    0.1875729909E-04    0.4504058936E+00    0.5691015984E-04    0.4200660289E-02
    0.1300000000E+02    0.3918971435E-04    0.1957242558E-04    0.4762492732E+00    0.5955211031E-04    0.4202915678E-02
    0.1500000000E+02    0.4051703798E-04    0.2022989240E-04    0.4971693962E+00    0.6191644684E-04    0.4204651058E-02
    0.1700000000E+02    0.4163017311E-04    0.2078295959E-04    0.5144508828E+00    0.6413417197E-04    0.4206010494E-02
    0.1900000000E+02    0.4259731273E-04    0.2126544097E-04    0.5289671687E+00    0.6628039947E-04    0.4207088475E-02
    0.2100000000E+02    0.4346336234E-04    0.2169950824E-04    0.5413328366E+00    0.6839895959E-04    0.4207949855E-02
    0.2300000000E+02    0.4425869090E-04    0.2210008716E-04    0.5519928964E+00    0.7051558039E-04    0.4208640762E-02
    0.2500000000E+02    0.4500429369E-04    0.2247744541E-04    0.5612774979E+00    0.7264524412E-04    0.4209194972E-02
    0.2700000000E+02    0.4571495336E-04    0.2283877333E-04    0.5694367429E+00    0.7479643269E-04    0.4209637816E-02
    0.2900000000E+02    0.4640123724E-04    0.2318918046E-04    0.5766635603E+00    0.7697364637E-04    0.4209988684E-02
    0.3100000000E+02    0.4707079440E-04    0.2353234087E-04    0.5831091604E+00    0.7917893199E-04    0.4210262683E-02
    0.3300000000E+02    0.4772921784E-04    0.2387092123E-04    0.5888937331E+00    0.8141282726E-04    0.4210471764E-02
    0.3500000000E+02    0.4838062992E-04    0.2420687051E-04    0.5941140150E+00    0.8367495247E-04    0.4210625508E-02
    0.3700000000E+02    0.4902808693E-04    0.2454161977E-04    0.5988487442E+00    0.8596438502E-04    0.4210731692E-02
    0.3900000000E+02    0.4967386354E-04    0.2487622204E-04    0.6031626601E+00    0.8827989795E-04    0.4210796691E-02
    0.4100000000E+02    0.5031965540E-04    0.2521145183E-04    0.6071094823E+00    0.9062011198E-04    0.4210825788E-02
    0.4300000000E+02    0.5096672561E-04    0.2554787668E-04    0.6107341596E+00    0.9298359207E-04    0.4210823394E-02
    0.4500000000E+02    0.5161601166E-04    0.2588590933E-04    0.6140745898E+00    0.9536890793E-04    0.4210793223E-02
    0.4700000000E+02    0.5226820435E-04    0.2622584600E-04    0.6171629504E+00    0.9777467109E-04    0.4210738425E-02
    0.4900000000E+02    0.5292380671E-04    0.2656789488E-04    0.6200267383E+00    0.1001995566E-03    0.4210661689E-02
    0.1000000000E+02    0.3654584452E-04    0.1826529734E-04    0.4350608326E+00    0.5541783099E-04    0.4199269995E-02
    0.3000000000E+02    0.4673771684E-04    0.2336148015E-04    0.5799758746E+00    0.7807271946E-04    0.4210134482E-02
    0.5000000000E+02    0.5325300346E-04    0.2673975775E-04    0.6213819362E+00    0.1014187766E-03    0.4210615830E-02
    0.7000000000E+02    0.6005793750E-04    0.3030165808E-04    0.6409977445E+00    0.1265476794E-03    0.4208966813E-02
    0.9000000000E+02    0.6726160707E-04    0.3407879481E-04    0.6524415504E+00    0.1526310201E-03    0.4206516828E-02
    0.1100000000E+03    0.7478386801E-04    0.3802303298E-04    0.6599399153E+00    0.1792924422E-03    0.4203675762E-02
    0.1300000000E+03    0.8255701172E-04    0.4209717918E-04    0.6652333033E+00    0.2063625633E-03    0.4200610811E-02
    0.1500000000E+03    0.9053533713E-04    0.4627685987E-04    0.6691696879E+00    0.2337625632E-03    0.4197402117E-02
    0.1700000000E+03    0.9868885648E-04    0.5054635269E-04    0.6722116281E+00    0.2614560585E-03    0.4194092317E-02
    0.1900000000E+03    0.1069978345E-03    0.5489544207E-04    0.6746328985E+00    0.2894278959E-03    0.4190705765E-02
    0.2100000000E+03    0.1154492136E-03    0.5931744585E-04    0.6766058842E+00    0.3176741103E-03    0.4187257070E-02
    0.2300000000E+03    0.1240343680E-03    0.6380800191E-04    0.6782445403E+00    0.3461968700E-03    0.4183755278E-02
    0.2500000000E+03    0.1327476835E-03    0.6836431151E-04    0.6796272141E+00    0.3750018040E-03    0.4180206090E-02
    0.2700000000E+03    0.1415856421E-03    0.7298465664E-04    0.6808095459E+00    0.4040965328E-03    0.4176613106E-02
    0.2900000000E+03    0.1505462191E-03    0.7766808452E-04    0.6818321396E+00    0.4334898377E-03    0.4172978554E-02
    0.3100000000E+03    0.1596284778E-03    0.8241419676E-04    0.6827253207E+00    0.4631911821E-03    0.4169303745E-02
    0.3300000000E+03    0.1688322904E-03    0.8722300543E-04    0.6835121949E+00    0.4932104321E-03    0.4165589356E-02
    0.3500000000E+03    0.1781581433E-03    0.9209483290E-04    0.6842106766E+00    0.5235576938E-03    0.4161835618E-02
    0.3700000000E+03    0.1876069993E-03    0.9703024117E-04    0.6848348685E+00    0.5542432217E-03    0.4158042442E-02
    0.3900000000E+03    0.1971801974E-03    0.1020299810E-03    0.6853960251E+00    0.5852773672E-03    0.4154209499E-02
    0.4100000000E+03    0.2068793802E-03    0.1070949554E-03    0.6859032365E+00    0.6166705550E-03    0.4150336285E-02
    0.4300000000E+03    0.2167064407E-03    0.1122261920E-03    0.6863639251E+00    0.6484332740E-03    0.4146422161E-02
    0.4500000000E+03    0.2266634822E-03    0.1174248240E-03    0.6867842115E+00    0.6805760789E-03    0.4142466382E-02
    0.4700000000E+03    0.2367527889E-03    0.1226920744E-03    0.6871691875E+00    0.7131095973E-03    0.4138468118E-02
    0.4900000000E+03    0.2469768035E-03    0.1280292457E-03    0.6875231238E+00    0.7460445410E-03    0.4134426471E-02
    0.1000000000E+03    0.7098771908E-04    0.3603269957E-04    0.6565443499E+00    0.1659030523E-03    0.4205131727E-02
    0.3000000000E+03    0.1550721626E-03    0.8003331262E-04    0.6822933210E+00    0.4483013955E-03    0.4171146127E-02
    0.5000000000E+03    0.2521401287E-03    0.1307244782E-03    0.6876896020E+00    0.7626659208E-03    0.4132389082E-02
    0.7000000000E+03    0.3631825828E-03    0.1886719806E-03    0.6900289550E+00    0.1118898556E-02    0.4089105055E-02
    0.9000000000E+03    0.4914353740E-03    0.2555795479E-03    0.6913356295E+00    0.1528885990E-02    0.4040132252E-02
    0.1100000000E+04    0.6412756027E-03    0.3337368833E-03    0.6921697835E+00    0.2007198924E-02    0.3983959595E-02
    0.1300000000E+04    0.8185044084E-03    0.4261733263E-03    0.6927484750E+00    0.2572679830E-02    0.3918649972E-02
    0.1500000000E+04    0.1030913226E-02    0.5369552018E-03    0.6931734692E+00    0.3250447911E-02    0.3841663618E-02
    0.1700000000E+04    0.1289133577E-02    0.6716300041E-03    0.6934988152E+00    0.4074704229E-02    0.3749605316E-02
    0.1900000000E+04    0.1607880631E-02    0.8378757530E-03    0.6937558782E+00    0.5092778097E-02    0.3637870998E-02
    0.2100000000E+04    0.2007732399E-02    0.1046429913E-02    0.6939641099E+00    0.6370907544E-02    0.3500169588E-02
    0.2300000000E+04    0.2517521634E-02    0.1312338463E-02    0.6941362147E+00    0.8002038594E-02    0.3327937713E-02
    0.2500000000E+04    0.3177019580E-02    0.1656358324E-02    0.6942808416E+00    0.1011467352E-01    0.3109828096E-02
    0.2700000000E+04    0.4038189419E-02    0.2105615693E-02    0.6944040827E+00    0.1287733897E-01    0.2831943711E-02
    0.2900000000E+04    0.5159513006E-02    0.2690653909E-02    0.6945103534E+00    0.1648114087E-01    0.2480667425E-02
    0.3100000000E+04    0.6581216188E-02    0.3432518233E-02    0.6946029318E+00    0.2106121525E-01    0.2051656482E-02
    0.3300000000E+04    0.8269832849E-02    0.4313836738E-02    0.6946843028E+00    0.2651895224E-01    0.1567015015E-02
    0.3500000000E+04    0.1006275663E-01    0.5249864435E-02    0.6947563843E+00    0.3234112609E-01    0.1087862585E-02
    0.3700000000E+04    0.1171422020E-01    0.6112411775E-02    0.6948206805E+00    0.3774156307E-01    0.6913427981E-03
    0.3900000000E+04    0.1305579642E-01    0.6813554800E-02    0.6948783872E+00    0.4217403040E-01    0.4183437550E-03
    0.4100000000E+04    0.1407945032E-01    0.7349013932E-02    0.6949304673E+00    0.4560393791E-01    0.2563626558E-03
    0.4300000000E+04    0.1486838479E-01    0.7762130614E-02    0.6949777050E+00    0.4829181825E-01    0.1691859881E-03
    0.4500000000E+04    0.1551030277E-01    0.8098626204E-02    0.6950207450E+00    0.5051589133E-01    0.1247709647E-03
    0.4700000000E+04    0.1606574897E-01    0.8390073417E-02    0.6950601227E+00    0.5246918454E-01    0.1027682264E-03
    0.4900000000E+04    0.1656999309E-01    0.8654867407E-02    0.6950962860E+00    0.5426443020E-01    0.9202688657E-04
    0.1000000000E+04    0.5633333041E-03    0.2930828659E-03    0.6917941604E+00    0.1758444793E-02    0.4013055252E-02
    0.3000000000E+04    0.5832341024E-02    0.3041729484E-02    0.6945581833E+00    0.1864711764E-01    0.2275354570E-02
    0.5000000000E+04    0.1680929477E-01    0.8780597314E-02    0.6951132827E+00    0.5512319375E-01    0.8896230680E-04
    0.7000000000E+04    0.2080715101E-01    0.1088653791E-01    0.6953511926E+00    0.7004686837E-01    0.8306317212E-04
    0.9000000000E+04    0.2388990374E-01    0.1251836967E-01    0.6954832620E+00    0.8241345661E-01    0.8423170803E-04
    0.1100000000E+05    0.2632694907E-01    0.1381498928E-01    0.6955672106E+00    0.9292280746E-01    0.8518185299E-04
    0.1300000000E+05    0.2828098583E-01    0.1486027177E-01    0.6956252507E+00    0.1019937655E+00    0.8598014443E-04
    0.1500000000E+05    0.2986570204E-01    0.1571291247E-01    0.6956677503E+00    0.1099256651E+00    0.8666939686E-04
    0.1700000000E+05    0.3116276114E-01    0.1641513679E-01    0.6957001984E+00    0.1169384623E+00    0.8727644250E-04
    0.1900000000E+05    0.3223220416E-01    0.1699803802E-01    0.6957257727E+00    0.1231976123E+00    0.8781922750E-04
    0.2100000000E+05    0.3311906857E-01    0.1748497645E-01    0.6957464398E+00    0.1288301103E+00    0.8831035899E-04
    0.2300000000E+05    0.3385773184E-01    0.1789381192E-01    0.6957634821E+00    0.1339351598E+00    0.8875903917E-04
    0.2500000000E+05    0.3447483937E-01    0.1823841003E-01    0.6957777714E+00    0.1385914604E+00    0.8917219446E-04
    0.2700000000E+05    0.3499132513E-01    0.1852968254E-01    0.6957899210E+00    0.1428623057E+00    0.8955517148E-04
    0.2900000000E+05    0.3542383545E-01    0.1877632106E-01    0.6958003747E+00    0.1467992241E+00    0.8991218524E-04
    0.3100000000E+05    0.3578575095E-01    0.1898532422E-01    0.6958094618E+00    0.1504446272E+00    0.9024661866E-04
    0.3300000000E+05    0.3608793246E-01    0.1916238273E-01    0.6958174316E+00    0.1538337694E+00    0.9056122881E-04
    0.3500000000E+05    0.3633927343E-01    0.1931216488E-01    0.6958244765E+00    0.1569962199E+00    0.9085829293E-04
    0.3700000000E+05    0.3654711493E-01    0.1943853114E-01    0.6958307470E+00    0.1599569820E+00    0.9113971412E-04
    0.3900000000E+05    0.3671756097E-01    0.1954469749E-01    0.6958363627E+00    0.1627373570E+00    0.9140709930E-04
    0.4100000000E+05    0.3685572104E-01    0.1963336105E-01    0.6958414201E+00    0.1653556165E+00    0.9166181791E-04
    0.4300000000E+05    0.3696589850E-01    0.1970679785E-01    0.6958459973E+00    0.1678275334E+00    0.9190504668E-04
    0.4500000000E+05    0.3705173832E-01    0.1976693953E-01    0.6958501588E+00    0.1701668021E+00    0.9213780431E-04
    0.4700000000E+05    0.3711634398E-01    0.1981543408E-01    0.6958539580E+00    0.1723853779E+00    0.9236097867E-04
    0.4900000000E+05    0.3716237072E-01    0.1985369444E-01    0.6958574395E+00    0.1744937496E+00    0.9257534836E-04
    0.1000000000E+05    0.2517755947E-01    0.1320261384E-01    0.6955294468E+00    0.8787068957E-01    0.8472939166E-04
    0.3000000000E+05    0.3561288695E-01    0.1888514448E-01    0.6958050719E+00    0.1486560131E+00    0.9008203946E-04
    0.5000000000E+05    0.3717914295E-01    0.1986937380E-01    0.6958590731E+00    0.1755095415E+00    0.9267944922E-04
    0.7000000000E+05    0.3695196380E-01    0.1986669549E-01    0.6958817041E+00    0.1917968070E+00    0.9443024958E-04
    0.9000000000E+05    0.3621875864E-01    0.1956816476E-01    0.6958939812E+00    0.2031656059E+00    0.9575919379E-04
    0.1100000000E+06    0.3534298161E-01    0.1917447706E-01    0.6959016006E+00    0.2117539485E+00    0.9683362001E-04
    0.1300000000E+06    0.3444934126E-01    0.1875721440E-01    0.6959067388E+00    0.2185778390E+00    0.9773717571E-04
    0.1500000000E+06    0.3358409273E-01    0.1834456683E-01    0.6959104049E+00    0.2241927383E+00    0.9851783339E-04
    0.1700000000E+06    0.3276386435E-01    0.1794786477E-01    0.6959131293E+00    0.2289327696E+00    0.9920571881E-04
    0.1900000000E+06    0.3199317206E-01    0.1757127508E-01    0.6959152170E+00    0.2330133615E+00    0.9982101611E-04
    0.2100000000E+06    0.3127142099E-01    0.1721576557E-01    0.6959168553E+00    0.2365809320E+00    0.1003779234E-03
    0.2300000000E+06    0.3059591392E-01    0.1688085735E-01    0.6959181656E+00    0.2397392010E+00    0.1008868150E-03
    0.2500000000E+06    0.2996320207E-01    0.1656544184E-01    0.6959192298E+00    0.2425641337E+00    0.1013555062E-03
    0.2700000000E+06    0.2936970178E-01    0.1626817395E-01    0.6959201050E+00    0.2451129165E+00    0.1017900336E-03
    0.2900000000E+06    0.2881197107E-01    0.1598766348E-01    0.6959208323E+00    0.2474295991E+00    0.1021951592E-03
    0.3100000000E+06    0.2828682388E-01    0.1572256660E-01    0.6959214419E+00    0.2495487812E+00    0.1025747068E-03
    0.3300000000E+06    0.2779136611E-01    0.1547162678E-01    0.6959219566E+00    0.2514980994E+00    0.1029317937E-03
    0.3500000000E+06    0.2732299445E-01    0.1523368991E-01    0.6959223937E+00    0.2532999528E+00    0.1032689962E-03
    0.3700000000E+06    0.2687937836E-01    0.1500770621E-01    0.6959227668E+00    0.2549727291E+00    0.1035884675E-03
    0.3900000000E+06    0.2645843545E-01    0.1479272580E-01    0.6959230865E+00    0.2565316943E+00    0.1038920264E-03
    0.4100000000E+06    0.2605830538E-01    0.1458789129E-01    0.6959233612E+00    0.2579896514E+00    0.1041812234E-03
    0.4300000000E+06    0.2567732464E-01    0.1439242936E-01    0.6959235979E+00    0.2593574343E+00    0.1044573909E-03
    0.4500000000E+06    0.2531400344E-01    0.1420564232E-01    0.6959238022E+00    0.2606442862E+00    0.1047216828E-03
    0.4700000000E+06    0.2496700490E-01    0.1402690009E-01    0.6959239785E+00    0.2618581507E+00    0.1049751047E-03
    0.4900000000E+06    0.2463512677E-01    0.1385563283E-01    0.6959241308E+00    0.2630059011E+00    0.1052185390E-03
    0.1000000000E+06    0.3578808483E-01    0.1937719902E-01    0.6958981960E+00    0.2077285901E+00    0.9632183021E-04
    0.3000000000E+06    0.2854551236E-01    0.1585326919E-01    0.6959211502E+00    0.2485120104E+00    0.1023879211E-03
    0.5000000000E+06    0.2447451496E-01    0.1377263907E-01    0.6959241989E+00    0.2635568839E+00    0.1053367575E-03
    0.7000000000E+06    0.2184252041E-01    0.1240264277E-01    0.6959248501E+00    0.2722211118E+00    0.1073252837E-03
    0.9000000000E+06    0.1995467180E-01    0.1140859842E-01    0.6959248428E+00    0.2780818961E+00    0.1088349620E-03
    0.1100000000E+07    0.1851071035E-01    0.1064183881E-01    0.6959246001E+00    0.2824038092E+00    0.1100556397E-03
    0.1300000000E+07    0.1735740289E-01    0.1002532734E-01    0.6959242654E+00    0.2857692159E+00    0.1110822583E-03
    0.1500000000E+07    0.1640712242E-01    0.9514544473E-02    0.6959238963E+00    0.2884903125E+00    0.1119692822E-03
    0.1700000000E+07    0.1560553888E-01    0.9081665217E-02    0.6959235188E+00    0.2907521155E+00    0.1127509202E-03
    0.1900000000E+07    0.1491687561E-01    0.8708247630E-02    0.6959231449E+00    0.2926724170E+00    0.1134500950E-03
    0.2100000000E+07    0.1431644982E-01    0.8381499153E-02    0.6959227804E+00    0.2943303688E+00    0.1140829330E-03
    0.2300000000E+07    0.1378658833E-01    0.8092217307E-02    0.6959224278E+00    0.2957814506E+00    0.1146612179E-03
    0.2500000000E+07    0.1331424763E-01    0.7833582458E-02    0.6959220883E+00    0.2970658934E+00    0.1151938276E-03
    0.2700000000E+07    0.1288955544E-01    0.7600414162E-02    0.6959217618E+00    0.2982136969E+00    0.1156876199E-03
    0.2900000000E+07    0.1250487882E-01    0.7388693902E-02    0.6959214482E+00    0.2992477616E+00    0.1161480045E-03
    0.3100000000E+07    0.1215420758E-01    0.7195248036E-02    0.6959211468E+00    0.3001859202E+00    0.1165793255E-03
    0.3300000000E+07    0.1183273391E-01    0.7017530882E-02    0.6959208571E+00    0.3010422991E+00    0.1169851250E-03
    0.3500000000E+07    0.1153655830E-01    0.6853472472E-02    0.6959205784E+00    0.3018282570E+00    0.1173683295E-03
    0.3700000000E+07    0.1126247914E-01    0.6701369316E-02    0.6959203100E+00    0.3025530477E+00    0.1177313858E-03
    0.3900000000E+07    0.1100783914E-01    0.6559804452E-02    0.6959200513E+00    0.3032242980E+00    0.1180763604E-03
    0.4100000000E+07    0.1077041131E-01    0.6427587931E-02    0.6959198017E+00    0.3038483593E+00    0.1184050150E-03
    0.4300000000E+07    0.1054831290E-01    0.6303711798E-02    0.6959195607E+00    0.3044305705E+00    0.1187188634E-03
    0.4500000000E+07    0.1033993953E-01    0.6187315576E-02    0.6959193276E+00    0.3049754566E+00    0.1190192168E-03
    0.4700000000E+07    0.1014391420E-01    0.6077659460E-02    0.6959191021E+00    0.3054868828E+00    0.1193072180E-03
    0.4900000000E+07    0.9959047273E-02    0.5974103260E-02    0.6959188836E+00    0.3059681729E+00    0.1195838694E-03
    0.1000000000E+07    0.1918890275E-01    0.1100266855E-01    0.6959247388E+00    0.2803897899E+00    0.1094741722E-03
    0.3000000000E+07    0.1232561726E-01    0.7289858457E-02    0.6959212960E+00    0.2997278720E+00    0.1163670603E-03
    0.5000000000E+07    0.9870469742E-02    0.5924435622E-02    0.6959187769E+00    0.3061984314E+00    0.1197182193E-03
    0.7000000000E+07    0.8492595316E-02    0.5147491227E-02    0.6959169291E+00    0.3097524523E+00    0.1219781085E-03
    0.9000000000E+07    0.7577340271E-02    0.4626539420E-02    0.6959154724E+00    0.3120861994E+00    0.1236938232E-03
    0.1100000000E+08    0.6911453249E-02    0.4244809599E-02    0.6959142689E+00    0.3137717008E+00    0.1250811037E-03
    0.1300000000E+08    0.6398352514E-02    0.3948965550E-02    0.6959132424E+00    0.3150638288E+00    0.1262478432E-03
    0.1500000000E+08    0.5986979869E-02    0.3710625148E-02    0.6959123467E+00    0.3160958471E+00    0.1272559374E-03
    0.1700000000E+08    0.5647428855E-02    0.3513074439E-02    0.6959115516E+00    0.3169451872E+00    0.1281442630E-03
    0.1900000000E+08    0.5360847604E-02    0.3345729467E-02    0.6959108364E+00    0.3176603568E+00    0.1289388708E-03
    0.2100000000E+08    0.5114676209E-02    0.3201510783E-02    0.6959101860E+00    0.3182735138E+00    0.1296580877E-03
    0.2300000000E+08    0.4900176337E-02    0.3075475710E-02    0.6959095896E+00    0.3188069410E+00    0.1303153059E-03
    0.2500000000E+08    0.4711052819E-02    0.2964052313E-02    0.6959090385E+00    0.3192766362E+00    0.1309206146E-03
    0.2700000000E+08    0.4542638649E-02    0.2864584943E-02    0.6959085263E+00    0.3196944255E+00    0.1314818077E-03
