  Pressure (Pa) 22mC5-500 (mol/kg) 23mC5-500 (mol/kg) 24mC5-500 (mol/kg) 2mC6-500 (mol/kg) C7-500 (mol/kg)
    0.1000000000E+01    0.1056878075E-04    0.3796701643E-05    0.3665744460E-01    0.6916010540E-05    0.4239422238E-02
    0.3000000000E+01    0.2793513193E-04    0.1002387709E-04    0.9946716104E-01    0.1787934663E-04    0.4370935010E-02
    0.5000000000E+01    0.4165614599E-04    0.1493363758E-04    0.1513236361E+00    0.2621769424E-04    0.4478688850E-02
    0.7000000000E+01    0.5270393536E-04    0.1887879207E-04    0.1948625097E+00    0.3269345147E-04    0.4569500155E-02
    0.9000000000E+01    0.6173535820E-04    0.2209741548E-04    0.2319365787E+00    0.3780709337E-04    0.4647219658E-02
    0.1100000000E+02    0.6921427683E-04    0.2475746143E-04    0.2638863603E+00    0.4190446995E-04    0.4714559642E-02
    0.1300000000E+02    0.7547744364E-04    0.2698074191E-04    0.2917056980E+00    0.4523149589E-04    0.4773518134E-02
    0.1500000000E+02    0.8077477112E-04    0.2885756906E-04    0.3161470246E+00    0.4796687479E-04    0.4825605680E-02
    0.1700000000E+02    0.8529520055E-04    0.3045615434E-04    0.3377904678E+00    0.5024282713E-04    0.4871987275E-02
    0.1900000000E+02    0.8918388773E-04    0.3182884924E-04    0.3570905018E+00    0.5215869612E-04    0.4913576548E-02
    0.2100000000E+02    0.9255392997E-04    0.3301640126E-04    0.3744082208E+00    0.5379012536E-04    0.4951100442E-02
    0.2300000000E+02    0.9549455115E-04    0.3405092296E-04    0.3900341514E+00    0.5519539093E-04    0.4985144782E-02
    0.2500000000E+02    0.9807692823E-04    0.3495800422E-04    0.4042046882E+00    0.5641985585E-04    0.5016187076E-02
    0.2700000000E+02    0.1003584116E-03    0.3575824135E-04    0.4171141410E+00    0.5749915748E-04    0.5044620532E-02
    0.2900000000E+02    0.1023856296E-03    0.3646836143E-04    0.4289237012E+00    0.5846152299E-04    0.5070771948E-02
    0.3100000000E+02    0.1041968051E-03    0.3710206048E-04    0.4397682097E+00    0.5932947457E-04    0.5094915216E-02
    0.3300000000E+02    0.1058235051E-03    0.3767063653E-04    0.4497613300E+00    0.6012110059E-04    0.5117281654E-02
    0.3500000000E+02    0.1072919786E-03    0.3818347303E-04    0.4589995492E+00    0.6085101385E-04    0.5138068003E-02
    0.3700000000E+02    0.1086241896E-03    0.3864841212E-04    0.4675653040E+00    0.6153108137E-04    0.5157442682E-02
    0.3900000000E+02    0.1098386229E-03    0.3907204555E-04    0.4755294491E+00    0.6217098537E-04    0.5175550727E-02
    0.4100000000E+02    0.1109509184E-03    0.3945994348E-04    0.4829532217E+00    0.6277865818E-04    0.5192517736E-02
    0.4300000000E+02    0.1119743743E-03    0.3981683596E-04    0.4898898202E+00    0.6336062211E-04    0.5208453028E-02
    0.4500000000E+02    0.1129203497E-03    0.4014675791E-04    0.4963856813E+00    0.6392225704E-04    0.5223452217E-02
    0.4700000000E+02    0.1137985884E-03    0.4045316583E-04    0.5024815215E+00    0.6446801242E-04    0.5237599302E-02
    0.4900000000E+02    0.1146174819E-03    0.4073903234E-04    0.5082131910E+00    0.6500157649E-04    0.5250968388E-02
    0.1000000000E+02    0.6564541557E-04    0.2348877004E-04    0.2484832194E+00    0.3996556133E-04    0.4682048678E-02
    0.3000000000E+02    0.1033161111E-03    0.3679400754E-04    0.4344590384E+00    0.5890607860E-04    0.5083079248E-02
    0.5000000000E+02    0.1150069803E-03    0.4087507847E-04    0.5109525108E+00    0.6526476514E-04    0.5257381990E-02
    0.7000000000E+02    0.1210036945E-03    0.4298402531E-04    0.5526587015E+00    0.7040268295E-04    0.5357364270E-02
    0.9000000000E+02    0.1254199414E-03    0.4456934279E-04    0.5789126073E+00    0.7584459315E-04    0.5423333462E-02
    0.1100000000E+03    0.1294369410E-03    0.4603887656E-04    0.5969598550E+00    0.8177933904E-04    0.5470708317E-02
    0.1300000000E+03    0.1334519429E-03    0.4752585866E-04    0.6101282767E+00    0.8816068392E-04    0.5506712945E-02
    0.1500000000E+03    0.1376049088E-03    0.4907485348E-04    0.6201606327E+00    0.9491011314E-04    0.5535204812E-02
    0.1700000000E+03    0.1419408061E-03    0.5069840509E-04    0.6280579401E+00    0.1019577245E-03    0.5558442191E-02
    0.1900000000E+03    0.1464673820E-03    0.5239692516E-04    0.6344361503E+00    0.1092482155E-03    0.5577840871E-02
    0.2100000000E+03    0.1511777714E-03    0.5416633730E-04    0.6396950647E+00    0.1167392269E-03    0.5594336847E-02
    0.2300000000E+03    0.1560598787E-03    0.5600117246E-04    0.6441055040E+00    0.1243985148E-03    0.5608575705E-02
    0.2500000000E+03    0.1611003770E-03    0.5789584038E-04    0.6478574402E+00    0.1322014547E-03    0.5621018421E-02
    0.2700000000E+03    0.1662863930E-03    0.5984513147E-04    0.6510880716E+00    0.1401291106E-03    0.5632003783E-02
    0.2900000000E+03    0.1716061600E-03    0.6184438548E-04    0.6538989589E+00    0.1481668056E-03    0.5641786930E-02
    0.3100000000E+03    0.1770492084E-03    0.6388951577E-04    0.6563668904E+00    0.1563030738E-03    0.5650564062E-02
    0.3300000000E+03    0.1826063496E-03    0.6597697394E-04    0.6585510014E+00    0.1645288928E-03    0.5658488813E-02
    0.3500000000E+03    0.1882695754E-03    0.6810369309E-04    0.6604975711E+00    0.1728371186E-03    0.5665683405E-02
    0.3700000000E+03    0.1940319294E-03    0.7026702701E-04    0.6622433361E+00    0.1812220643E-03    0.5672246439E-02
    0.3900000000E+03    0.1998873757E-03    0.7246469265E-04    0.6638178299E+00    0.1896791854E-03    0.5678258451E-02
    0.4100000000E+03    0.2058306769E-03    0.7469471871E-04    0.6652450651E+00    0.1982048401E-03    0.5683785956E-02
    0.4300000000E+03    0.2118572855E-03    0.7695540092E-04    0.6665447664E+00    0.2067961071E-03    0.5688884437E-02
    0.4500000000E+03    0.2179632490E-03    0.7924526376E-04    0.6677332866E+00    0.2154506445E-03    0.5693600597E-02
    0.4700000000E+03    0.2241451282E-03    0.8156302801E-04    0.6688242976E+00    0.2241665796E-03    0.5697974068E-02
    0.4900000000E+03    0.2303999278E-03    0.8390758322E-04    0.6698293181E+00    0.2329424230E-03    0.5702038734E-02
    0.1000000000E+03    0.1274442522E-03    0.4530704230E-04    0.5887011758E+00    0.7875150623E-04    0.5448781933E-02
    0.3000000000E+03    0.1743128774E-03    0.6286144987E-04    0.6551717495E+00    0.1522232317E-03    0.5646290799E-02
    0.5000000000E+03    0.2335538431E-03    0.8508960077E-04    0.6703026951E+00    0.2373524325E-03    0.5703964541E-02
    0.7000000000E+03    0.2999835534E-03    0.1099612817E-03    0.6769983438E+00    0.3285304923E-03    0.5731605801E-02
    0.9000000000E+03    0.3721781637E-03    0.1369550887E-03    0.6807727814E+00    0.4253866180E-03    0.5746250212E-02
    0.1100000000E+04    0.4498956010E-03    0.1659890642E-03    0.6831942108E+00    0.5283045620E-03    0.5753447619E-02
    0.1300000000E+04    0.5333202119E-03    0.1971372257E-03    0.6848788603E+00    0.6378876802E-03    0.5755615289E-02
    0.1500000000E+04    0.6228487471E-03    0.2305508875E-03    0.6861181399E+00    0.7548592154E-03    0.5753978455E-02
    0.1700000000E+04    0.7190202810E-03    0.2664332927E-03    0.6870677260E+00    0.8800465196E-03    0.5749209038E-02
    0.1900000000E+04    0.8224947585E-03    0.3050320496E-03    0.6878183388E+00    0.1014388460E-02    0.5741683456E-02
    0.2100000000E+04    0.9340519099E-03    0.3466389785E-03    0.6884264168E+00    0.1158952077E-02    0.5731601479E-02
    0.2300000000E+04    0.1054600903E-02    0.3915938618E-03    0.6889289095E+00    0.1314955076E-02    0.5719045998E-02
    0.2500000000E+04    0.1185197330E-02    0.4402908712E-03    0.6893510196E+00    0.1483793701E-02    0.5704014594E-02
    0.2700000000E+04    0.1327066572E-02    0.4931873407E-03    0.6897105260E+00    0.1667076655E-02    0.5686436218E-02
    0.2900000000E+04    0.1481633740E-02    0.5508149730E-03    0.6900203293E+00    0.1866666297E-02    0.5666179242E-02
    0.3100000000E+04    0.1650561096E-02    0.6137938198E-03    0.6902900169E+00    0.2084728800E-02    0.5643053984E-02
    0.3300000000E+04    0.1835794352E-02    0.6828495716E-03    0.6905268622E+00    0.2323795429E-02    0.5616811239E-02
    0.3500000000E+04    0.2039619808E-02    0.7588348774E-03    0.6907364827E+00    0.2586837643E-02    0.5587137555E-02
    0.3700000000E+04    0.2264734728E-02    0.8427556065E-03    0.6909232854E+00    0.2877359318E-02    0.5553647535E-02
    0.3900000000E+04    0.2514333984E-02    0.9358031721E-03    0.6910907765E+00    0.3199510117E-02    0.5515873145E-02
    0.4100000000E+04    0.2792216474E-02    0.1039394234E-02    0.6912417797E+00    0.3558224712E-02    0.5473249837E-02
    0.4300000000E+04    0.3102915279E-02    0.1155219259E-02    0.6913785950E+00    0.3959393145E-02    0.5425099228E-02
    0.4500000000E+04    0.3451855536E-02    0.1285301421E-02    0.6915031143E+00    0.4410067705E-02    0.5370608082E-02
    0.4700000000E+04    0.3845543198E-02    0.1432067041E-02    0.6916169080E+00    0.4918710743E-02    0.5308803599E-02
    0.4900000000E+04    0.4291785188E-02    0.1598427751E-02    0.6917212908E+00    0.5495484482E-02    0.5238525563E-02
    0.1000000000E+04    0.4103413811E-03    0.1512147494E-03    0.6821027554E+00    0.4760534400E-03    0.5750588538E-02
    0.3000000000E+04    0.1564188042E-02    0.5815928430E-03    0.6901596877E+00    0.1973239599E-02    0.5654989288E-02
    0.5000000000E+04    0.4537469670E-02    0.1690021330E-02    0.6917703064E+00    0.5813140434E-02    0.5199787933E-02
    0.7000000000E+04    0.1536401074E-01    0.5727456407E-02    0.6924523649E+00    0.1988361532E-01    0.3559121013E-02
    0.9000000000E+04    0.2923537233E-01    0.1090815230E-01    0.6928258462E+00    0.3835788150E-01    0.1986521259E-02
    0.1100000000E+05    0.3393232250E-01    0.1267215202E-01    0.6930598032E+00    0.4517755592E-01    0.1919631113E-02
    0.1300000000E+05    0.3748258074E-01    0.1401018288E-01    0.6932190996E+00    0.5061005104E-01    0.1935712067E-02
    0.1500000000E+05    0.4056170849E-01    0.1517372984E-01    0.6933339041E+00    0.5550877489E-01    0.1951288956E-02
    0.1700000000E+05    0.4326121797E-01    0.1619654916E-01    0.6934201265E+00    0.5997179043E-01    0.1965037111E-02
    0.1900000000E+05    0.4564197907E-01    0.1710105920E-01    0.6934869393E+00    0.6406213769E-01    0.1977319135E-02
    0.2100000000E+05    0.4775247480E-01    0.1790512853E-01    0.6935399952E+00    0.6783054084E-01    0.1988423566E-02
    0.2300000000E+05    0.4963201530E-01    0.1862325659E-01    0.6935829637E+00    0.7131863208E-01    0.1998561602E-02
    0.2500000000E+05    0.5131280027E-01    0.1926732979E-01    0.6936183282E+00    0.7456093506E-01    0.2007891920E-02
    0.2700000000E+05    0.5282144402E-01    0.1984718074E-01    0.6936478275E+00    0.7758633801E-01    0.2016536794E-02
    0.2900000000E+05    0.5418012546E-01    0.2037101018E-01    0.6936727145E+00    0.8041921273E-01    0.2024592475E-02
    0.3100000000E+05    0.5540746654E-01    0.2084570939E-01    0.6936939141E+00    0.8308027561E-01    0.2032136120E-02
    0.3300000000E+05    0.5651921092E-01    0.2127710938E-01    0.6937121231E+00    0.8558725768E-01    0.2039230540E-02
    0.3500000000E+05    0.5752875361E-01    0.2167017550E-01    0.6937278763E+00    0.8795543154E-01    0.2045927569E-02
    0.3700000000E+05    0.5844755853E-01    0.2202916089E-01    0.6937415906E+00    0.9019802974E-01    0.2052270489E-02
    0.3900000000E+05    0.5928549044E-01    0.2235772854E-01    0.6937535955E+00    0.9232657989E-01    0.2058295816E-02
    0.4100000000E+05    0.6005108115E-01    0.2265904924E-01    0.6937641548E+00    0.9435117530E-01    0.2064034653E-02
    0.4300000000E+05    0.6075174447E-01    0.2293588067E-01    0.6937734819E+00    0.9628069528E-01    0.2069513709E-02
    0.4500000000E+05    0.6139395121E-01    0.2319063187E-01    0.6937817516E+00    0.9812298568E-01    0.2074756093E-02
    0.4700000000E+05    0.6198337245E-01    0.2342541602E-01    0.6937891076E+00    0.9988500786E-01    0.2079781937E-02
    0.4900000000E+05    0.6252499769E-01    0.2364209397E-01    0.6937956699E+00    0.1015729624E+00    0.2084608890E-02
    0.1000000000E+05    0.3187983918E-01    0.1190029529E-01    0.6929549909E+00    0.4213783170E-01    0.1920938846E-02
    0.3000000000E+05    0.5480916894E-01    0.2061411428E-01    0.6936837273E+00    0.8177004927E-01    0.2028424085E-02
    0.5000000000E+05    0.6277928410E-01    0.2374416466E-01    0.6937986854E+00    0.1023909197E+00    0.2086952715E-02
    0.7000000000E+05    0.6619252169E-01    0.2514793030E-01    0.6938348595E+00    0.1159403596E+00    0.2126354014E-02
    0.9000000000E+05    0.6771571885E-01    0.2582397717E-01    0.6938475934E+00    0.1259187292E+00    0.2156243142E-02
    0.1100000000E+06    0.6831938150E-01    0.2613939211E-01    0.6938509528E+00    0.1337777113E+00    0.2180398991E-02
    0.1300000000E+06    0.6843064787E-01    0.2625748175E-01    0.6938499579E+00    0.1402444603E+00    0.2200708140E-02
    0.1500000000E+06    0.6826197963E-01    0.2626042302E-01    0.6938467698E+00    0.1457307370E+00    0.2218251706E-02
    0.1700000000E+06    0.6792843353E-01    0.2619328562E-01    0.6938424359E+00    0.1504907460E+00    0.2233708240E-02
    0.1900000000E+06    0.6749628898E-01    0.2608239926E-01    0.6938375065E+00    0.1546918245E+00    0.2247532186E-02
    0.2100000000E+06    0.6700552669E-01    0.2594389847E-01    0.6938322871E+00    0.1584497202E+00    0.2260043118E-02
    0.2300000000E+06    0.6648111336E-01    0.2578804098E-01    0.6938269543E+00    0.1618477087E+00    0.2271474481E-02
    0.2500000000E+06    0.6593904618E-01    0.2562153704E-01    0.6938216121E+00    0.1649476498E+00    0.2282002103E-02
    0.2700000000E+06    0.6538976421E-01    0.2544887366E-01    0.6938163230E+00    0.1677967274E+00    0.2291761778E-02
    0.2900000000E+06    0.6484015811E-01    0.2527310088E-01    0.6938111238E+00    0.1704317409E+00    0.2300860605E-02
    0.3100000000E+06    0.6429479724E-01    0.2509631584E-01    0.6938060361E+00    0.1728819402E+00    0.2309384573E-02
    0.3300000000E+06    0.6375670195E-01    0.2491997007E-01    0.6938010715E+00    0.1751709567E+00    0.2317403784E-02
    0.3500000000E+06    0.6322784212E-01    0.2474506978E-01    0.6937962355E+00    0.1773181560E+00    0.2324976156E-02
    0.3700000000E+06    0.6270946628E-01    0.2457230941E-01    0.6937915295E+00    0.1793396064E+00    0.2332150101E-02
    0.3900000000E+06    0.6220232291E-01    0.2440216245E-01    0.6937869525E+00    0.1812487881E+00    0.2338966507E-02
    0.4100000000E+06    0.6170681175E-01    0.2423494418E-01    0.6937825019E+00    0.1830571216E+00    0.2345460226E-02
    0.4300000000E+06    0.6122308856E-01    0.2407085586E-01    0.6937781741E+00    0.1847743671E+00    0.2351661208E-02
    0.4500000000E+06    0.6075113870E-01    0.2391001602E-01    0.6937739649E+00    0.1864089328E+00    0.2357595386E-02
    0.4700000000E+06    0.6029082914E-01    0.2375248308E-01    0.6937698698E+00    0.1879681132E+00    0.2363285365E-02
    0.4900000000E+06    0.5984194557E-01    0.2359827170E-01    0.6937658842E+00    0.1894582787E+00    0.2368750972E-02
    0.1000000000E+06    0.6809855908E-01    0.2601382970E-01    0.6938500288E+00    0.1300574304E+00    0.2168893536E-02
    0.3000000000E+06    0.6456672881E-01    0.2518473179E-01    0.6938085651E+00    0.1716783518E+00    0.2305189742E-02
    0.5000000000E+06    0.5962170608E-01    0.2352240725E-01    0.6937639311E+00    0.1901792563E+00    0.2371405181E-02
    0.7000000000E+06    0.5574001875E-01    0.2216662986E-01    0.6937295767E+00    0.2020364390E+00    0.2416047075E-02
    0.9000000000E+06    0.5264457252E-01    0.2106457246E-01    0.6937019717E+00    0.2106814292E+00    0.2449934340E-02
    0.1100000000E+07    0.5010078708E-01    0.2014741496E-01    0.6936789309E+00    0.2174309422E+00    0.2477331819E-02
    0.1300000000E+07    0.4795701930E-01    0.1936720085E-01    0.6936591549E+00    0.2229321553E+00    0.2500371979E-02
    0.1500000000E+07    0.4611394465E-01    0.1869141240E-01    0.6936418246E+00    0.2275512606E+00    0.2520277997E-02
    0.1700000000E+07    0.4450397146E-01    0.1809744738E-01    0.6936263934E+00    0.2315154805E+00    0.2537818076E-02
    0.1900000000E+07    0.4307936053E-01    0.1756910342E-01    0.6936124796E+00    0.2349753578E+00    0.2553506941E-02
    0.2100000000E+07    0.4180528748E-01    0.1709442740E-01    0.6935998061E+00    0.2380356592E+00    0.2567706680E-02
    0.2300000000E+07    0.4065564188E-01    0.1666437602E-01    0.6935881656E+00    0.2407721443E+00    0.2580681870E-02
    0.2500000000E+07    0.3961038468E-01    0.1627195672E-01    0.6935773989E+00    0.2432413100E+00    0.2592631825E-02
    0.2700000000E+07    0.3865382641E-01    0.1591165973E-01    0.6935673813E+00    0.2454863674E+00    0.2603710509E-02
    0.2900000000E+07    0.3777346972E-01    0.1557907198E-01    0.6935580129E+00    0.2475410733E+00    0.2614039369E-02
    0.3100000000E+07    0.3695920974E-01    0.1527060776E-01    0.6935492129E+00    0.2494322776E+00    0.2623715923E-02
    0.3300000000E+07    0.3620276800E-01    0.1498331661E-01    0.6935409147E+00    0.2511816699E+00    0.2632819685E-02
    0.3500000000E+07    0.3549728315E-01    0.1471474351E-01    0.6935330627E+00    0.2528070088E+00    0.2641416351E-02
    0.3700000000E+07    0.3483700937E-01    0.1446282519E-01    0.6935256103E+00    0.2543230076E+00    0.2649560842E-02
    0.3900000000E+07    0.3421709029E-01    0.1422581202E-01    0.6935185177E+00    0.2557419852E+00    0.2657299544E-02
    0.4100000000E+07    0.3363338702E-01    0.1400220833E-01    0.6935117511E+00    0.2570743526E+00    0.2664672000E-02
    0.4300000000E+07    0.3308234552E-01    0.1379072617E-01    0.6935052809E+00    0.2583289824E+00    0.2671712192E-02
    0.4500000000E+07    0.3256089291E-01    0.1359024902E-01    0.6934990816E+00    0.2595134941E+00    0.2678449546E-02
    0.4700000000E+07    0.3206635576E-01    0.1339980311E-01    0.6934931310E+00    0.2606344759E+00    0.2684909713E-02
    0.4900000000E+07    0.3159639472E-01    0.1321853439E-01    0.6934874093E+00    0.2616976604E+00    0.2691115192E-02
    0.1000000000E+07    0.5131474756E-01    0.2058632003E-01    0.6936899767E+00    0.2142434650E+00    0.2464281372E-02
    0.3000000000E+07    0.3735863244E-01    0.1542202187E-01    0.6935535464E+00    0.2485056530E+00    0.2618953849E-02
    0.5000000000E+07    0.3136997741E-01    0.1313110266E-01    0.6934846288E+00    0.2622091711E+00    0.2694128716E-02
    0.7000000000E+07    0.2774159748E-01    0.1172093326E-01    0.6934376953E+00    0.2703486147E+00    0.2744815514E-02
    0.9000000000E+07    0.2521628330E-01    0.1072906109E-01    0.6934018975E+00    0.2759573593E+00    0.2783292759E-02
    0.1100000000E+08    0.2331807659E-01    0.9977571250E-02    0.6933728735E+00    0.2801476272E+00    0.2814401706E-02
    0.1300000000E+08    0.2181900026E-01    0.9380321878E-02    0.6933484196E+00    0.2834431173E+00    0.2840563285E-02
    0.1500000000E+08    0.2059353462E-01    0.8889497306E-02    0.6933272639E+00    0.2861290218E+00    0.2863166220E-02
    0.1700000000E+08    0.1956580539E-01    0.8476004009E-02    0.6933086039E+00    0.2883764051E+00    0.2883082716E-02
    0.1900000000E+08    0.1868675042E-01    0.8120926106E-02    0.6932919003E+00    0.2902952424E+00    0.2900897203E-02
    0.2100000000E+08    0.1792298173E-01    0.7811330195E-02    0.6932767725E+00    0.2919600369E+00    0.2917020807E-02
    0.2300000000E+08    0.1725084711E-01    0.7538016342E-02    0.6932629422E+00    0.2934233750E+00    0.2931753943E-02
    0.2500000000E+08    0.1665303895E-01    0.7294227723E-02    0.6932501992E+00    0.2947236221E+00    0.2945322929E-02
    0.2700000000E+08    0.1611654884E-01    0.7074869114E-02    0.6932383809E+00    0.2958895412E+00    0.2957902585E-02
