  Pressure (Pa) 22mC5-500 (mol/kg) 23mC5-500 (mol/kg) 24mC5-500 (mol/kg) 2mC6-500 (mol/kg) C7-500 (mol/kg)
    0.1000000000E+01    0.1000645771E-04    0.5750146890E-05    0.6964964780E-01    0.3265687591E-05    0.4206814576E-02
    0.3000000000E+01    0.2399645346E-04    0.1376381435E-04    0.1740777638E+00    0.7569945687E-05    0.4277953749E-02
    0.5000000000E+01    0.3321594299E-04    0.1902430374E-04    0.2486358511E+00    0.1022440877E-04    0.4327362410E-02
    0.7000000000E+01    0.3962974656E-04    0.2267036091E-04    0.3045366108E+00    0.1196859444E-04    0.4364571885E-02
    0.9000000000E+01    0.4427971578E-04    0.2530457019E-04    0.3480047257E+00    0.1317764483E-04    0.4393746718E-02
    0.1100000000E+02    0.4776596161E-04    0.2727332492E-04    0.3827729530E+00    0.1405830070E-04    0.4417300740E-02
    0.1300000000E+02    0.5045537587E-04    0.2878796085E-04    0.4112156744E+00    0.1473119755E-04    0.4436755977E-02
    0.1500000000E+02    0.5258291238E-04    0.2998352308E-04    0.4349152772E+00    0.1526985719E-04    0.4453124868E-02
    0.1700000000E+02    0.5430475154E-04    0.3094957830E-04    0.4549669603E+00    0.1572064574E-04    0.4467108671E-02
    0.1900000000E+02    0.5572794552E-04    0.3174737560E-04    0.4721528318E+00    0.1611361103E-04    0.4479209166E-02
    0.2100000000E+02    0.5692777967E-04    0.3241988416E-04    0.4870463291E+00    0.1646865426E-04    0.4489795227E-02
    0.2300000000E+02    0.5795836346E-04    0.3299790871E-04    0.5000774614E+00    0.1679918548E-04    0.4499144296E-02
    0.2500000000E+02    0.5885931830E-04    0.3350394615E-04    0.5115750141E+00    0.1711436180E-04    0.4507469196E-02
    0.2700000000E+02    0.5966012771E-04    0.3395469076E-04    0.5217946790E+00    0.1742049695E-04    0.4514935997E-02
    0.2900000000E+02    0.6038304073E-04    0.3436270385E-04    0.5309382971E+00    0.1772197083E-04    0.4521676251E-02
    0.3100000000E+02    0.6104505398E-04    0.3473755200E-04    0.5391673267E+00    0.1802182903E-04    0.4527795563E-02
    0.3300000000E+02    0.6165929193E-04    0.3508659850E-04    0.5466124619E+00    0.1832218522E-04    0.4533379729E-02
    0.3500000000E+02    0.6223598530E-04    0.3541556350E-04    0.5533806266E+00    0.1862449573E-04    0.4538499192E-02
    0.3700000000E+02    0.6278317577E-04    0.3572892692E-04    0.5595601436E+00    0.1892974948E-04    0.4543212355E-02
    0.3900000000E+02    0.6330723082E-04    0.3603022220E-04    0.5652246115E+00    0.1923860109E-04    0.4547568065E-02
    0.4100000000E+02    0.6381322472E-04    0.3632225345E-04    0.5704358496E+00    0.1955146512E-04    0.4551607501E-02
    0.4300000000E+02    0.6430522385E-04    0.3660725776E-04    0.5752461645E+00    0.1986858341E-04    0.4555365634E-02
    0.4500000000E+02    0.6478650270E-04    0.3688702780E-04    0.5797001117E+00    0.2019007371E-04    0.4558872365E-02
    0.4700000000E+02    0.6525970896E-04    0.3716300544E-04    0.5838358803E+00    0.2051596484E-04    0.4562153414E-02
    0.4900000000E+02    0.6572699078E-04    0.3743635375E-04    0.5876863909E+00    0.2084622244E-04    0.4565231038E-02
    0.1000000000E+02    0.4614141847E-04    0.2635663261E-04    0.3663044749E+00    0.1365005038E-04    0.4406116045E-02
    0.3000000000E+02    0.6072076185E-04    0.3455376918E-04    0.5351583385E+00    0.1787195166E-04    0.4524807757E-02
    0.5000000000E+02    0.6595896959E-04    0.3757234317E-04    0.5895137412E+00    0.2101296540E-04    0.4566699715E-02
    0.7000000000E+02    0.7057155678E-04    0.4030480293E-04    0.6163450461E+00    0.2454715664E-04    0.4588987932E-02
    0.9000000000E+02    0.7540718054E-04    0.4319858909E-04    0.6323349530E+00    0.2836561297E-04    0.4603115854E-02
    0.1100000000E+03    0.8054294470E-04    0.4628181807E-04    0.6429499580E+00    0.3236232100E-04    0.4612982256E-02
    0.1300000000E+03    0.8594221836E-04    0.4952592157E-04    0.6505102078E+00    0.3647396894E-04    0.4620304006E-02
    0.1500000000E+03    0.9155773973E-04    0.5289987910E-04    0.6561684445E+00    0.4066340514E-04    0.4625964711E-02
    0.1700000000E+03    0.9734954937E-04    0.5637859682E-04    0.6605622101E+00    0.4490820493E-04    0.4630469905E-02
    0.1900000000E+03    0.1032865696E-03    0.5994297691E-04    0.6640727477E+00    0.4919439724E-04    0.4634131939E-02
    0.2100000000E+03    0.1093450928E-03    0.6357864793E-04    0.6669420340E+00    0.5351303887E-04    0.4637155423E-02
    0.2300000000E+03    0.1155070304E-03    0.6727475187E-04    0.6693310502E+00    0.5785828481E-04    0.4639680706E-02
    0.2500000000E+03    0.1217584851E-03    0.7102301096E-04    0.6713510542E+00    0.6222626075E-04    0.4641807698E-02
    0.2700000000E+03    0.1280886826E-03    0.7481704904E-04    0.6730814027E+00    0.6661438100E-04    0.4643609739E-02
    0.2900000000E+03    0.1344891912E-03    0.7865190466E-04    0.6745802200E+00    0.7102092254E-04    0.4645142062E-02
    0.3100000000E+03    0.1409533537E-03    0.8252368096E-04    0.6758910544E+00    0.7544475169E-04    0.4646447181E-02
    0.3300000000E+03    0.1474758723E-03    0.8642929188E-04    0.6770471771E+00    0.7988514414E-04    0.4647558443E-02
    0.3500000000E+03    0.1540525014E-03    0.9036627602E-04    0.6780744456E+00    0.8434166417E-04    0.4648502430E-02
    0.3700000000E+03    0.1606798185E-03    0.9433265870E-04    0.6789932593E+00    0.8881408179E-04    0.4649300643E-02
    0.3900000000E+03    0.1673550520E-03    0.9832684834E-04    0.6798199276E+00    0.9330231517E-04    0.4649970689E-02
    0.4100000000E+03    0.1740759492E-03    0.1023475580E-03    0.6805676460E+00    0.9780638989E-04    0.4650527149E-02
    0.4300000000E+03    0.1808406754E-03    0.1063937449E-03    0.6812472052E+00    0.1023264098E-03    0.4650982224E-02
    0.4500000000E+03    0.1876477344E-03    0.1104645641E-03    0.6818675155E+00    0.1068625362E-03    0.4651346213E-02
    0.4700000000E+03    0.1944959076E-03    0.1145593317E-03    0.6824359988E+00    0.1114149721E-03    0.4651627882E-02
    0.4900000000E+03    0.2013842045E-03    0.1186774960E-03    0.6829588872E+00    0.1159839513E-03    0.4651834747E-02
    0.1000000000E+03    0.7793912636E-04    0.4471802289E-04    0.6381293962E+00    0.3034643714E-04    0.4608446232E-02
    0.3000000000E+03    0.1377136746E-03    0.8058338715E-04    0.6752568537E+00    0.7323072939E-04    0.4645820756E-02
    0.5000000000E+03    0.2048431424E-03    0.1207452100E-03    0.6832049131E+00    0.1182747239E-03    0.4651912191E-02
    0.7000000000E+03    0.2760057907E-03    0.1632618506E-03    0.6866671576E+00    0.1650274774E-03    0.4650726934E-02
    0.9000000000E+03    0.3509002270E-03    0.2079769222E-03    0.6886047255E+00    0.2137698131E-03    0.4646077305E-02
    0.1100000000E+04    0.4296973037E-03    0.2550029423E-03    0.6898426421E+00    0.2647951535E-03    0.4639225549E-02
    0.1300000000E+04    0.5127058893E-03    0.3045296534E-03    0.6907016888E+00    0.3183897405E-03    0.4630716783E-02
    0.1500000000E+04    0.6003018332E-03    0.3567844120E-03    0.6913325673E+00    0.3748431762E-03    0.4620815320E-02
    0.1700000000E+04    0.6929112249E-03    0.4120233372E-03    0.6918154240E+00    0.4344583402E-03    0.4609651175E-02
    0.1900000000E+04    0.7910089787E-03    0.4705309934E-03    0.6921968118E+00    0.4975594336E-03    0.4597280053E-02
    0.2100000000E+04    0.8951229971E-03    0.5326231449E-03    0.6925056200E+00    0.5644990185E-03    0.4583711207E-02
    0.2300000000E+04    0.1005841070E-02    0.5986510196E-03    0.6927607256E+00    0.6356647804E-03    0.4568921412E-02
    0.2500000000E+04    0.1123819668E-02    0.6690066448E-03    0.6929749845E+00    0.7114865260E-03    0.4552862220E-02
    0.2700000000E+04    0.1249794500E-02    0.7441291946E-03    0.6931574541E+00    0.7924437966E-03    0.4535463606E-02
    0.2900000000E+04    0.1384592951E-02    0.8245124500E-03    0.6933146998E+00    0.8790744230E-03    0.4516635502E-02
    0.3100000000E+04    0.1529148720E-02    0.9107135528E-03    0.6934515968E+00    0.9719843344E-03    0.4496267943E-02
    0.3300000000E+04    0.1684519049E-02    0.1003363299E-02    0.6935718406E+00    0.1071858951E-02    0.4474230219E-02
    0.3500000000E+04    0.1851905044E-02    0.1103178278E-02    0.6936782838E+00    0.1179476529E-02    0.4450369206E-02
    0.3700000000E+04    0.2032675711E-02    0.1210975217E-02    0.6937731632E+00    0.1295723882E-02    0.4424506950E-02
    0.3900000000E+04    0.2228396439E-02    0.1327687988E-02    0.6938582574E+00    0.1421614975E-02    0.4396437525E-02
    0.4100000000E+04    0.2440862796E-02    0.1454387776E-02    0.6939349984E+00    0.1558312970E-02    0.4365923105E-02
    0.4300000000E+04    0.2672140667E-02    0.1592307031E-02    0.6940045522E+00    0.1707156402E-02    0.4332689195E-02
    0.4500000000E+04    0.2924613877E-02    0.1742867900E-02    0.6940678774E+00    0.1869690255E-02    0.4296418917E-02
    0.4700000000E+04    0.3201040619E-02    0.1907715893E-02    0.6941257698E+00    0.2047702789E-02    0.4256746254E-02
    0.4900000000E+04    0.3504620028E-02    0.2088759633E-02    0.6941788954E+00    0.2243269054E-02    0.4213248137E-02
    0.1000000000E+04    0.3897935915E-03    0.2311902991E-03    0.6892851297E+00    0.2389791646E-03    0.4642883254E-02
    0.3000000000E+04    0.1455588210E-02    0.8668482044E-03    0.6933854379E+00    0.9247036382E-03    0.4506651822E-02
    0.5000000000E+04    0.3667731232E-02    0.2186034606E-02    0.6942038497E+00    0.2348374104E-02    0.4189914503E-02
    0.7000000000E+04    0.9738794219E-02    0.5807266010E-02    0.6945518330E+00    0.6272193753E-02    0.3346322029E-02
    0.9000000000E+04    0.2554451548E-01    0.1524079751E-01    0.6947433792E+00    0.1659247810E-01    0.1403695637E-02
    0.1100000000E+05    0.3535010176E-01    0.2110671166E-01    0.6948640684E+00    0.2323691841E-01    0.6680336892E-03
    0.1300000000E+05    0.3967445034E-01    0.2370626669E-01    0.6949467579E+00    0.2639574084E-01    0.6319108916E-03
    0.1500000000E+05    0.4321303743E-01    0.2583910789E-01    0.6950067469E+00    0.2908527799E-01    0.6351184598E-03
    0.1700000000E+05    0.4634964488E-01    0.2773371946E-01    0.6950521142E+00    0.3154614187E-01    0.6394799153E-03
    0.1900000000E+05    0.4915684287E-01    0.2943297142E-01    0.6950875247E+00    0.3381791888E-01    0.6434558291E-03
    0.2100000000E+05    0.5168207002E-01    0.3096482983E-01    0.6951158575E+00    0.3592539881E-01    0.6470570832E-03
    0.2300000000E+05    0.5396366600E-01    0.3235190660E-01    0.6951389853E+00    0.3788873285E-01    0.6503468277E-03
    0.2500000000E+05    0.5603336726E-01    0.3361293141E-01    0.6951581771E+00    0.3972476871E-01    0.6533757287E-03
    0.2700000000E+05    0.5791768972E-01    0.3476356340E-01    0.6951743235E+00    0.4144772761E-01    0.6561830823E-03
    0.2900000000E+05    0.5963895657E-01    0.3581699459E-01    0.6951880673E+00    0.4306970523E-01    0.6587998712E-03
    0.3100000000E+05    0.6121609157E-01    0.3678441562E-01    0.6951998838E+00    0.4460106042E-01    0.6612509551E-03
    0.3300000000E+05    0.6266523916E-01    0.3767538006E-01    0.6952101320E+00    0.4605072089E-01    0.6635565899E-03
    0.3500000000E+05    0.6400025387E-01    0.3849809199E-01    0.6952190878E+00    0.4742642612E-01    0.6657335020E-03
    0.3700000000E+05    0.6523309025E-01    0.3925963526E-01    0.6952269668E+00    0.4873492199E-01    0.6677956671E-03
    0.3900000000E+05    0.6637411583E-01    0.3996615752E-01    0.6952339398E+00    0.4998211811E-01    0.6697548836E-03
    0.4100000000E+05    0.6743236447E-01    0.4062301927E-01    0.6952401437E+00    0.5117321584E-01    0.6716212049E-03
    0.4300000000E+05    0.6841574277E-01    0.4123491537E-01    0.6952456897E+00    0.5231281339E-01    0.6734032684E-03
    0.4500000000E+05    0.6933119946E-01    0.4180597479E-01    0.6952506688E+00    0.5340499246E-01    0.6751085504E-03
    0.4700000000E+05    0.7018486520E-01    0.4233984289E-01    0.6952551562E+00    0.5445339031E-01    0.6767435665E-03
    0.4900000000E+05    0.7098216868E-01    0.4283974994E-01    0.6952592148E+00    0.5546125993E-01    0.6783140297E-03
    0.1000000000E+05    0.3193147329E-01    0.1905835580E-01    0.6948099098E+00    0.2086191058E-01    0.8266749332E-03
    0.3000000000E+05    0.6044447267E-01    0.3631082461E-01    0.6951941918E+00    0.4384612222E-01    0.6600447667E-03
    0.5000000000E+05    0.7136121330E-01    0.4307787827E-01    0.6952611001E+00    0.5595092074E-01    0.6790766517E-03
    0.7000000000E+05    0.7690986978E-01    0.4661011354E-01    0.6952855370E+00    0.6418846266E-01    0.6919012511E-03
    0.9000000000E+05    0.8006345506E-01    0.4868214360E-01    0.6952967270E+00    0.7042146445E-01    0.7016342970E-03
    0.1100000000E+06    0.8196525211E-01    0.4998161443E-01    0.6953023094E+00    0.7544355095E-01    0.7095025655E-03
    0.1300000000E+06    0.8314320093E-01    0.5082853245E-01    0.6953050965E+00    0.7965925992E-01    0.7161191000E-03
    0.1500000000E+06    0.8387227082E-01    0.5139089889E-01    0.6953063423E+00    0.8330057683E-01    0.7218354195E-03
    0.1700000000E+06    0.8430846861E-01    0.5176481760E-01    0.6953066792E+00    0.8651213521E-01    0.7268722417E-03
    0.1900000000E+06    0.8454615850E-01    0.5200891692E-01    0.6953064554E+00    0.8938991882E-01    0.7313774324E-03
    0.2100000000E+06    0.8464532525E-01    0.5216079794E-01    0.6953058749E+00    0.9200078449E-01    0.7354549972E-03
    0.2300000000E+06    0.8464563909E-01    0.5224555974E-01    0.6953050635E+00    0.9439313251E-01    0.7391809261E-03
    0.2500000000E+06    0.8457419382E-01    0.5228051233E-01    0.6953041015E+00    0.9660312068E-01    0.7426124617E-03
    0.2700000000E+06    0.8444999275E-01    0.5227792199E-01    0.6953030419E+00    0.9865847483E-01    0.7457938189E-03
    0.2900000000E+06    0.8428666445E-01    0.5224668163E-01    0.6953019206E+00    0.1005809273E+00    0.7487598736E-03
    0.3100000000E+06    0.8409416819E-01    0.5219336504E-01    0.6953007620E+00    0.1023878349E+00    0.7515386291E-03
    0.3300000000E+06    0.8387989882E-01    0.5212291345E-01    0.6952995833E+00    0.1040932855E+00    0.7541529176E-03
    0.3500000000E+06    0.8364942227E-01    0.5203909494E-01    0.6952983966E+00    0.1057088758E+00    0.7566216038E-03
    0.3700000000E+06    0.8340697672E-01    0.5194481930E-01    0.6952972105E+00    0.1072442704E+00    0.7589604576E-03
    0.3900000000E+06    0.8315582132E-01    0.5184235825E-01    0.6952960309E+00    0.1087076122E+00    0.7611827981E-03
    0.4100000000E+06    0.8289848333E-01    0.5173350244E-01    0.6952948622E+00    0.1101058291E+00    0.7632999789E-03
    0.4300000000E+06    0.8263693613E-01    0.5161967521E-01    0.6952937075E+00    0.1114448665E+00    0.7653217578E-03
    0.4500000000E+06    0.8237272936E-01    0.5150201629E-01    0.6952925689E+00    0.1127298673E+00    0.7672565836E-03
    0.4700000000E+06    0.8210708529E-01    0.5138144410E-01    0.6952914477E+00    0.1139653113E+00    0.7691118214E-03
    0.4900000000E+06    0.8184097112E-01    0.5125870287E-01    0.6952903449E+00    0.1151551266E+00    0.7708939309E-03
    0.1000000000E+06    0.8112941571E-01    0.4940340253E-01    0.6952999880E+00    0.7305300362E-01    0.7057546833E-03
    0.3000000000E+06    0.8419355005E-01    0.5222244203E-01    0.6953013447E+00    0.1014978775E+00    0.7501711316E-03
    0.5000000000E+06    0.8170798399E-01    0.5119671282E-01    0.6952898006E+00    0.1157340220E+00    0.7717593694E-03
    0.7000000000E+06    0.7914214168E-01    0.4994235710E-01    0.6952798979E+00    0.1255781685E+00    0.7863163643E-03
    0.9000000000E+06    0.7684725402E-01    0.4876143011E-01    0.6952716225E+00    0.1331810555E+00    0.7973675428E-03
    0.1100000000E+07    0.7482124511E-01    0.4768978313E-01    0.6952645734E+00    0.1394007089E+00    0.8063029298E-03
    0.1300000000E+07    0.7302203276E-01    0.4672064118E-01    0.6952584473E+00    0.1446734825E+00    0.8138176384E-03
    0.1500000000E+07    0.7140964302E-01    0.4584044447E-01    0.6952530334E+00    0.1492539573E+00    0.8203104174E-03
    0.1700000000E+07    0.6995172884E-01    0.4503619004E-01    0.6952481834E+00    0.1533045637E+00    0.8260317128E-03
    0.1900000000E+07    0.6862289653E-01    0.4429682931E-01    0.6952437902E+00    0.1569357042E+00    0.8311493417E-03
    0.2100000000E+07    0.6740320233E-01    0.4361326655E-01    0.6952397743E+00    0.1602260474E+00    0.8357813611E-03
    0.2300000000E+07    0.6627683183E-01    0.4297805575E-01    0.6952360751E+00    0.1632337433E+00    0.8400140384E-03
    0.2500000000E+07    0.6523109146E-01    0.4238507899E-01    0.6952326454E+00    0.1660030543E+00    0.8439123641E-03
    0.2700000000E+07    0.6425566519E-01    0.4182927342E-01    0.6952294480E+00    0.1685684914E+00    0.8475265418E-03
    0.2900000000E+07    0.6334206934E-01    0.4130641429E-01    0.6952264529E+00    0.1709575070E+00    0.8508961739E-03
    0.3100000000E+07    0.6248325016E-01    0.4081294619E-01    0.6952236354E+00    0.1731923128E+00    0.8540530605E-03
    0.3300000000E+07    0.6167328359E-01    0.4034585230E-01    0.6952209752E+00    0.1752911443E+00    0.8570231306E-03
    0.3500000000E+07    0.6090714864E-01    0.3990255285E-01    0.6952184553E+00    0.1772691633E+00    0.8598278087E-03
    0.3700000000E+07    0.6018055408E-01    0.3948082580E-01    0.6952160613E+00    0.1791391166E+00    0.8624850049E-03
    0.3900000000E+07    0.5948980448E-01    0.3907874430E-01    0.6952137809E+00    0.1809118267E+00    0.8650098468E-03
    0.4100000000E+07    0.5883169531E-01    0.3869462707E-01    0.6952116037E+00    0.1825965627E+00    0.8674152295E-03
    0.4300000000E+07    0.5820343010E-01    0.3832699862E-01    0.6952095204E+00    0.1842013256E+00    0.8697122361E-03
    0.4500000000E+07    0.5760255421E-01    0.3797455716E-01    0.6952075230E+00    0.1857330709E+00    0.8719104633E-03
    0.4700000000E+07    0.5702690148E-01    0.3763614849E-01    0.6952056047E+00    0.1871978842E+00    0.8740182769E-03
    0.4900000000E+07    0.5647455088E-01    0.3731074452E-01    0.6952037592E+00    0.1886011208E+00    0.8760430142E-03
    0.1000000000E+07    0.7580315483E-01    0.4821203882E-01    0.6952679662E+00    0.1364306143E+00    0.8020466017E-03
    0.3000000000E+07    0.6290620644E-01    0.4105620622E-01    0.6952250233E+00    0.1720929652E+00    0.8524994704E-03
    0.5000000000E+07    0.5620657169E-01    0.3715262811E-01    0.6952028620E+00    0.1892811499E+00    0.8770262817E-03
    0.7000000000E+07    0.5173839777E-01    0.3449344251E-01    0.6951876901E+00    0.2005578053E+00    0.8935654189E-03
    0.9000000000E+07    0.4842082020E-01    0.3249199056E-01    0.6951760892E+00    0.2088732667E+00    0.9061215703E-03
    0.1100000000E+08    0.4580336071E-01    0.3089708996E-01    0.6951666697E+00    0.2154105170E+00    0.9162738755E-03
    0.1300000000E+08    0.4365528196E-01    0.2957789090E-01    0.6951587257E+00    0.2207644268E+00    0.9248120542E-03
    0.1500000000E+08    0.4184277223E-01    0.2845757185E-01    0.6951518484E+00    0.2252762907E+00    0.9321891382E-03
    0.1700000000E+08    0.4028143982E-01    0.2748721543E-01    0.6951457792E+00    0.2291598555E+00    0.9386896725E-03
    0.1900000000E+08    0.3891472539E-01    0.2663377798E-01    0.6951403441E+00    0.2325576800E+00    0.9445043249E-03
    0.2100000000E+08    0.3770292996E-01    0.2587391135E-01    0.6951354202E+00    0.2355694728E+00    0.9497672293E-03
    0.2300000000E+08    0.3661715604E-01    0.2519052208E-01    0.6951309174E+00    0.2382676199E+00    0.9545764009E-03
    0.2500000000E+08    0.3563574030E-01    0.2457073090E-01    0.6951267676E+00    0.2407062747E+00    0.9590056815E-03
    0.2700000000E+08    0.3474204262E-01    0.2400460031E-01    0.6951229182E+00    0.2429269663E+00    0.9631121118E-03
