  Pressure (Pa) 22mC5-500 (mol/kg) 23mC5-500 (mol/kg) 24mC5-500 (mol/kg) 2mC6-500 (mol/kg) C7-500 (mol/kg)
    0.1000000000E+01    0.8341365802E-05    0.1197871465E-05    0.1741083123E+00    0.1911935245E-04    0.4146299277E-02
    0.3000000000E+01    0.1551029389E-04    0.2220176637E-05    0.3481271159E+00    0.3393328108E-04    0.4171622900E-02
    0.5000000000E+01    0.1862256449E-04    0.2661264413E-05    0.4351067011E+00    0.4027706071E-04    0.4178464453E-02
    0.7000000000E+01    0.2038604589E-04    0.2911114318E-05    0.4872865852E+00    0.4441342806E-04    0.4181731836E-02
    0.9000000000E+01    0.2159379101E-04    0.3083129690E-05    0.5220705671E+00    0.4789745807E-04    0.4183565723E-02
    0.1100000000E+02    0.2254432762E-04    0.3219668812E-05    0.5469153000E+00    0.5121092959E-04    0.4184663166E-02
    0.1300000000E+02    0.2336811486E-04    0.3339082036E-05    0.5655484782E+00    0.5451828816E-04    0.4185328419E-02
    0.1500000000E+02    0.2412802499E-04    0.3450124439E-05    0.5800408180E+00    0.5787536173E-04    0.4185717460E-02
    0.1700000000E+02    0.2485644787E-04    0.3557252580E-05    0.5916346590E+00    0.6129766498E-04    0.4185919055E-02
    0.1900000000E+02    0.2557083877E-04    0.3662832719E-05    0.6011205414E+00    0.6478535584E-04    0.4185987611E-02
    0.2100000000E+02    0.2628087000E-04    0.3768150983E-05    0.6090254736E+00    0.6833301407E-04    0.4185958395E-02
    0.2300000000E+02    0.2699196389E-04    0.3873909440E-05    0.6157142986E+00    0.7193361277E-04    0.4185855291E-02
    0.2500000000E+02    0.2770713903E-04    0.3980483630E-05    0.6214476138E+00    0.7558012722E-04    0.4185695056E-02
    0.2700000000E+02    0.2842801917E-04    0.4088062289E-05    0.6264165219E+00    0.7926614474E-04    0.4185489793E-02
    0.2900000000E+02    0.2915540494E-04    0.4196725853E-05    0.6307643485E+00    0.8298604590E-04    0.4185248461E-02
    0.3100000000E+02    0.2988960720E-04    0.4306491815E-05    0.6346006952E+00    0.8673500508E-04    0.4184977834E-02
    0.3300000000E+02    0.3063064601E-04    0.4417341493E-05    0.6380108072E+00    0.9050892044E-04    0.4184683122E-02
    0.3500000000E+02    0.3137837144E-04    0.4529236068E-05    0.6410619833E+00    0.9430432227E-04    0.4184368398E-02
    0.3700000000E+02    0.3213253786E-04    0.4642126288E-05    0.6438080625E+00    0.9811828114E-04    0.4184036893E-02
    0.3900000000E+02    0.3289284990E-04    0.4755958348E-05    0.6462926290E+00    0.1019483241E-03    0.4183691194E-02
    0.4100000000E+02    0.3365899096E-04    0.4870677438E-05    0.6485513423E+00    0.1057923620E-03    0.4183333404E-02
    0.4300000000E+02    0.3443064071E-04    0.4986229849E-05    0.6506136606E+00    0.1096486273E-03    0.4182965242E-02
    0.4500000000E+02    0.3520748570E-04    0.5102564166E-05    0.6525041323E+00    0.1135156224E-03    0.4182588130E-02
    0.4700000000E+02    0.3598922553E-04    0.5219631911E-05    0.6542433783E+00    0.1173920763E-03    0.4182203249E-02
    0.4900000000E+02    0.3677557621E-04    0.5337387825E-05    0.6558488469E+00    0.1212769083E-03    0.4181811593E-02
    0.1000000000E+02    0.2209078063E-04    0.3154363013E-05    0.5354485835E+00    0.4956134875E-04    0.4184182459E-02
    0.3000000000E+02    0.2952164764E-04    0.4251471581E-05    0.6327406447E+00    0.8485716553E-04    0.4185116453E-02
    0.5000000000E+02    0.3717039676E-04    0.5396510603E-05    0.6566061471E+00    0.1232221730E-03    0.4181613492E-02
    0.7000000000E+02    0.4525406799E-04    0.6606571071E-05    0.6673953881E+00    0.1624058493E-03    0.4177443440E-02
    0.9000000000E+02    0.5359720932E-04    0.7854465589E-05    0.6735444148E+00    0.2019259382E-03    0.4173069353E-02
    0.1100000000E+03    0.6212081779E-04    0.9128456060E-05    0.6775169579E+00    0.2416976537E-03    0.4168609859E-02
    0.1300000000E+03    0.7078923377E-04    0.1042337511E-04    0.6802948439E+00    0.2817306417E-03    0.4164104017E-02
    0.1500000000E+03    0.7958609985E-04    0.1173691650E-04    0.6823465421E+00    0.3220588394E-03    0.4159565598E-02
    0.1700000000E+03    0.8850435335E-04    0.1306813026E-04    0.6839238961E+00    0.3627211025E-03    0.4154998806E-02
    0.1900000000E+03    0.9754173523E-04    0.1441675783E-04    0.6851743623E+00    0.4037554923E-03    0.4150403843E-02
    0.2100000000E+03    0.1066986165E-03    0.1578291416E-04    0.6861900166E+00    0.4451977473E-03    0.4145779149E-02
    0.2300000000E+03    0.1159768787E-03    0.1716692575E-04    0.6870313221E+00    0.4870811152E-03    0.4141122374E-02
    0.2500000000E+03    0.1253793085E-03    0.1856924401E-04    0.6877396239E+00    0.5294366133E-03    0.4136430839E-02
    0.2700000000E+03    0.1349092570E-03    0.1999039702E-04    0.6883441520E+00    0.5722933961E-03    0.4131701747E-02
    0.2900000000E+03    0.1445704430E-03    0.2143096207E-04    0.6888661557E+00    0.6156791164E-03    0.4126932287E-02
    0.3100000000E+03    0.1543668374E-03    0.2289154971E-04    0.6893214535E+00    0.6596202478E-03    0.4122119683E-02
    0.3300000000E+03    0.1643025943E-03    0.2437279447E-04    0.6897220637E+00    0.7041423593E-03    0.4117261211E-02
    0.3500000000E+03    0.1743820106E-03    0.2587534957E-04    0.6900772811E+00    0.7492703476E-03    0.4112354202E-02
    0.3700000000E+03    0.1846095029E-03    0.2739988398E-04    0.6903944072E+00    0.7950286323E-03    0.4107396038E-02
    0.3900000000E+03    0.1949895952E-03    0.2894708103E-04    0.6906792571E+00    0.8414413208E-03    0.4102384148E-02
    0.4100000000E+03    0.2055269135E-03    0.3051763786E-04    0.6909365195E+00    0.8885323485E-03    0.4097315998E-02
    0.4300000000E+03    0.2162261846E-03    0.3211226559E-04    0.6911700170E+00    0.9363255991E-03    0.4092189080E-02
    0.4500000000E+03    0.2270922381E-03    0.3373168971E-04    0.6913828970E+00    0.9848450091E-03    0.4087000908E-02
    0.4700000000E+03    0.2381300104E-03    0.3537665088E-04    0.6915777748E+00    0.1034114660E-02    0.4081749002E-02
    0.4900000000E+03    0.2493445496E-03    0.3704790578E-04    0.6917568412E+00    0.1084158860E-02    0.4076430890E-02
    0.1000000000E+03    0.5783931651E-04    0.8488616167E-05    0.6757235103E+00    0.2217807162E-03    0.4170846931E-02
    0.3000000000E+03    0.1494514832E-03    0.2215871389E-04    0.6891013173E+00    0.6375786394E-03    0.4124531550E-02
    0.5000000000E+03    0.2550197163E-03    0.3789363446E-04    0.6918410345E+00    0.1109479092E-02    0.4073746232E-02
    0.7000000000E+03    0.3791510684E-03    0.5639020576E-04    0.6930218901E+00    0.1662855550E-02    0.4015956052E-02
    0.9000000000E+03    0.5279771874E-03    0.7856454503E-04    0.6936796421E+00    0.2326040365E-02    0.3948449695E-02
    0.1100000000E+04    0.7098243415E-03    0.1056584071E-03    0.6940988372E+00    0.3136643971E-02    0.3867832726E-02
    0.1300000000E+04    0.9364672991E-03    0.1394271278E-03    0.6943893239E+00    0.4147621425E-02    0.3769493664E-02
    0.1500000000E+04    0.1225035433E-02    0.1824240937E-03    0.6946024830E+00    0.5435979675E-02    0.3646912827E-02
    0.1700000000E+04    0.1600963961E-02    0.2384409385E-03    0.6947655589E+00    0.7116171556E-02    0.3490673287E-02
    0.1900000000E+04    0.2102370401E-02    0.3131603973E-03    0.6948943433E+00    0.9360012339E-02    0.3287122782E-02
    0.2100000000E+04    0.2785473058E-02    0.4149651148E-03    0.6949986202E+00    0.1242159406E-01    0.3017052500E-02
    0.2300000000E+04    0.3726880673E-02    0.5552814705E-03    0.6950847752E+00    0.1664882862E-01    0.2656378444E-02
    0.2500000000E+04    0.5006346593E-02    0.7460137681E-03    0.6951571526E+00    0.2240831369E-01    0.2185328981E-02
    0.2700000000E+04    0.6634544357E-02    0.9887837106E-03    0.6952188113E+00    0.2976322755E-01    0.1617682883E-02
    0.2900000000E+04    0.8432475833E-02    0.1256948349E-02    0.6952719669E+00    0.3792791915E-01    0.1039764216E-02
    0.3100000000E+04    0.1006073895E-01    0.1499932947E-02    0.6953182639E+00    0.4538478931E-01    0.5806762379E-03
    0.3300000000E+04    0.1130641683E-01    0.1685977623E-02    0.6953589483E+00    0.5116562723E-01    0.2987912399E-03
    0.3500000000E+04    0.1220745098E-01    0.1820703700E-02    0.6953949819E+00    0.5542419496E-01    0.1558898074E-03
    0.3700000000E+04    0.1289339725E-01    0.1923401697E-02    0.6954271183E+00    0.5873260163E-01    0.9087737675E-04
    0.3900000000E+04    0.1346350018E-01    0.2008856563E-02    0.6954559568E+00    0.6153290299E-01    0.6274961689E-04
    0.4100000000E+04    0.1397190172E-01    0.2085135830E-02    0.6954819798E+00    0.6406713327E-01    0.5083126950E-04
    0.4300000000E+04    0.1444464474E-01    0.2156120231E-02    0.6955055801E+00    0.6645180512E-01    0.4583308239E-04
    0.4500000000E+04    0.1489378936E-01    0.2223606502E-02    0.6955270806E+00    0.6874070101E-01    0.4376407260E-04
    0.4700000000E+04    0.1532498044E-01    0.2288435075E-02    0.6955467492E+00    0.7095873521E-01    0.4293473905E-04
    0.4900000000E+04    0.1574100095E-01    0.2351019726E-02    0.6955648103E+00    0.7311791971E-01    0.4263138061E-04
    0.1000000000E+04    0.6141363375E-03    0.9140159739E-04    0.6939101403E+00    0.2710049042E-02    0.3910032788E-02
    0.3000000000E+04    0.9287603057E-02    0.1384538278E-02    0.6952958870E+00    0.4183410695E-01    0.7889190324E-03
    0.5000000000E+04    0.1594382163E-01    0.2381544680E-02    0.6955732983E+00    0.7417752756E-01    0.4257406791E-04
    0.7000000000E+04    0.1940566019E-01    0.2904085088E-02    0.6956920571E+00    0.9307008836E-01    0.4317088810E-04
    0.9000000000E+04    0.2199326758E-01    0.3297078544E-02    0.6957579327E+00    0.1084959442E+00    0.4378011506E-04
    0.1100000000E+05    0.2396452874E-01    0.3598479320E-02    0.6957997806E+00    0.1213719451E+00    0.4427242899E-04
    0.1300000000E+05    0.2548768803E-01    0.3833092259E-02    0.6958286984E+00    0.1323123729E+00    0.4468628496E-04
    0.1500000000E+05    0.2667699488E-01    0.4017792859E-02    0.6958498634E+00    0.1417461467E+00    0.4504375198E-04
    0.1700000000E+05    0.2761245312E-01    0.4164420932E-02    0.6958660159E+00    0.1499822011E+00    0.4535867490E-04
    0.1900000000E+05    0.2835155346E-01    0.4281501333E-02    0.6958787414E+00    0.1572489515E+00    0.4564032297E-04
    0.2100000000E+05    0.2893653001E-01    0.4375309316E-02    0.6958890214E+00    0.1637191018E+00    0.4589521282E-04
    0.2300000000E+05    0.2939900491E-01    0.4450553156E-02    0.6958974952E+00    0.1695257826E+00    0.4612810394E-04
    0.2500000000E+05    0.2976305027E-01    0.4510824645E-02    0.6959045977E+00    0.1747733676E+00    0.4634258055E-04
    0.2700000000E+05    0.3004725933E-01    0.4558904157E-02    0.6959106345E+00    0.1795449114E+00    0.4654141044E-04
    0.2900000000E+05    0.3026617937E-01    0.4596971944E-02    0.6959158270E+00    0.1839073826E+00    0.4672677637E-04
    0.3100000000E+05    0.3043132321E-01    0.4626757463E-02    0.6959203393E+00    0.1879154198E+00    0.4690043067E-04
    0.3300000000E+05    0.3055189590E-01    0.4649646784E-02    0.6959242955E+00    0.1916140769E+00    0.4706380186E-04
    0.3500000000E+05    0.3063532541E-01    0.4666761127E-02    0.6959277914E+00    0.1950408615E+00    0.4721807007E-04
    0.3700000000E+05    0.3068765571E-01    0.4679015095E-02    0.6959309021E+00    0.1982272719E+00    0.4736422175E-04
    0.3900000000E+05    0.3071384177E-01    0.4687160443E-02    0.6959336871E+00    0.2011999701E+00    0.4750308995E-04
    0.4100000000E+05    0.3071797363E-01    0.4691819363E-02    0.6959361945E+00    0.2039816889E+00    0.4763538471E-04
    0.4300000000E+05    0.3070344851E-01    0.4693510076E-02    0.6959384632E+00    0.2065919404E+00    0.4776171624E-04
    0.4500000000E+05    0.3067310422E-01    0.4692666705E-02    0.6959405252E+00    0.2090475757E+00    0.4788261286E-04
    0.4700000000E+05    0.3062932366E-01    0.4689654858E-02    0.6959424071E+00    0.2113632305E+00    0.4799853508E-04
    0.4900000000E+05    0.3057411728E-01    0.4684783938E-02    0.6959441311E+00    0.2135516838E+00    0.4810988680E-04
    0.1000000000E+05    0.2304385063E-01    0.3457446467E-02    0.6957809584E+00    0.1152089210E+00    0.4403795035E-04
    0.3000000000E+05    0.3035485092E-01    0.4612806346E-02    0.6959181596E+00    0.1859526917E+00    0.4681497161E-04
    0.5000000000E+05    0.3054277227E-01    0.4681735105E-02    0.6959449399E+00    0.2146017683E+00    0.4816396169E-04
    0.7000000000E+05    0.2961600364E-01    0.4569765605E-02    0.6959561297E+00    0.2310390021E+00    0.4907349111E-04
    0.9000000000E+05    0.2849854749E-01    0.4420952324E-02    0.6959621830E+00    0.2420327617E+00    0.4976395016E-04
    0.1100000000E+06    0.2740638083E-01    0.4270737179E-02    0.6959659292E+00    0.2500518446E+00    0.5032221072E-04
    0.1300000000E+06    0.2639404475E-01    0.4129041853E-02    0.6959684485E+00    0.2562367854E+00    0.5079170909E-04
    0.1500000000E+06    0.2547051975E-01    0.3998266874E-02    0.6959702407E+00    0.2611964087E+00    0.5119736043E-04
    0.1700000000E+06    0.2463100599E-01    0.3878363996E-02    0.6959715685E+00    0.2652892551E+00    0.5155481266E-04
    0.1900000000E+06    0.2386695472E-01    0.3768498303E-02    0.6959725827E+00    0.2687420821E+00    0.5187455070E-04
    0.2100000000E+06    0.2316943748E-01    0.3667639443E-02    0.6959733761E+00    0.2717062925E+00    0.5216395039E-04
    0.2300000000E+06    0.2253024923E-01    0.3574776473E-02    0.6959740083E+00    0.2742873795E+00    0.5242840136E-04
    0.2500000000E+06    0.2194219635E-01    0.3488990774E-02    0.6959745199E+00    0.2765614228E+00    0.5267196389E-04
    0.2700000000E+06    0.2139909025E-01    0.3409473693E-02    0.6959749389E+00    0.2785848693E+00    0.5289777444E-04
    0.2900000000E+06    0.2089564317E-01    0.3335522967E-02    0.6959752856E+00    0.2804006087E+00    0.5310830714E-04
    0.3100000000E+06    0.2042734171E-01    0.3266531769E-02    0.6959755749E+00    0.2820418974E+00    0.5330554868E-04
    0.3300000000E+06    0.1999032600E-01    0.3201976090E-02    0.6959758179E+00    0.2835349756E+00    0.5349111893E-04
    0.3500000000E+06    0.1958128372E-01    0.3141402678E-02    0.6959760231E+00    0.2849008652E+00    0.5366635635E-04
    0.3700000000E+06    0.1919736057E-01    0.3084418348E-02    0.6959761972E+00    0.2861566338E+00    0.5383237988E-04
    0.3900000000E+06    0.1883608582E-01    0.3030680807E-02    0.6959763454E+00    0.2873163032E+00    0.5399013456E-04
    0.4100000000E+06    0.1849531090E-01    0.2979890912E-02    0.6959764719E+00    0.2883915151E+00    0.5414042602E-04
    0.4300000000E+06    0.1817315888E-01    0.2931786193E-02    0.6959765800E+00    0.2893920270E+00    0.5428394665E-04
    0.4500000000E+06    0.1786798289E-01    0.2886135442E-02    0.6959766724E+00    0.2903260875E+00    0.5442129598E-04
    0.4700000000E+06    0.1757833171E-01    0.2842734197E-02    0.6959767513E+00    0.2912007236E+00    0.5455299667E-04
    0.4900000000E+06    0.1730292130E-01    0.2801400968E-02    0.6959768187E+00    0.2920219641E+00    0.5467950710E-04
    0.1000000000E+06    0.2794416492E-01    0.4345119251E-02    0.6959642565E+00    0.2463251127E+00    0.5005628651E-04
    0.3000000000E+06    0.2065735448E-01    0.3300441972E-02    0.6959754366E+00    0.2812412792E+00    0.5320848060E-04
    0.5000000000E+06    0.1717019495E-01    0.2781458637E-02    0.6959768485E+00    0.2924142160E+00    0.5474094420E-04
    0.7000000000E+06    0.1504387910E-01    0.2459922624E-02    0.6959771063E+00    0.2984129565E+00    0.5577437124E-04
    0.9000000000E+06    0.1357077537E-01    0.2234835901E-02    0.6959770545E+00    0.3022907641E+00    0.5655895131E-04
    0.1100000000E+07    0.1247075823E-01    0.2065449131E-02    0.6959768962E+00    0.3050581034E+00    0.5719334158E-04
    0.1300000000E+07    0.1160781610E-01    0.1931745140E-02    0.6959766988E+00    0.3071591959E+00    0.5772688088E-04
    0.1500000000E+07    0.1090678439E-01    0.1822567943E-02    0.6959764891E+00    0.3088238554E+00    0.5818787348E-04
    0.1700000000E+07    0.1032224079E-01    0.1731131026E-02    0.6959762787E+00    0.3101844346E+00    0.5859409725E-04
    0.1900000000E+07    0.9824876194E-02    0.1653031308E-02    0.6959760727E+00    0.3113232186E+00    0.5895746498E-04
    0.2100000000E+07    0.9394804238E-02    0.1585267334E-02    0.6959758736E+00    0.3122943947E+00    0.5928635731E-04
    0.2300000000E+07    0.9017984525E-02    0.1525711377E-02    0.6959756821E+00    0.3131352874E+00    0.5958689833E-04
    0.2500000000E+07    0.8684178824E-02    0.1472806331E-02    0.6959754985E+00    0.3138725504E+00    0.5986370174E-04
    0.2700000000E+07    0.8385719049E-02    0.1425382212E-02    0.6959753227E+00    0.3145257911E+00    0.6012033157E-04
    0.2900000000E+07    0.8116731186E-02    0.1382540160E-02    0.6959751542E+00    0.3151097954E+00    0.6035959926E-04
    0.3100000000E+07    0.7872628104E-02    0.1343576359E-02    0.6959749927E+00    0.3156359512E+00    0.6058376243E-04
    0.3300000000E+07    0.7649767538E-02    0.1307930595E-02    0.6959748377E+00    0.3161131896E+00    0.6079466187E-04
    0.3500000000E+07    0.7445215165E-02    0.1275150511E-02    0.6959746889E+00    0.3165486266E+00    0.6099381858E-04
    0.3700000000E+07    0.7256576570E-02    0.1244866199E-02    0.6959745458E+00    0.3169480106E+00    0.6118250410E-04
    0.3900000000E+07    0.7081875596E-02    0.1216771760E-02    0.6959744081E+00    0.3173160427E+00    0.6136179243E-04
    0.4100000000E+07    0.6919464659E-02    0.1190611679E-02    0.6959742754E+00    0.3176566096E+00    0.6153259905E-04
    0.4300000000E+07    0.6767957525E-02    0.1166170596E-02    0.6959741473E+00    0.3179729562E+00    0.6169571084E-04
    0.4500000000E+07    0.6626178201E-02    0.1143265505E-02    0.6959740236E+00    0.3182678158E+00    0.6185180913E-04
    0.4700000000E+07    0.6493121546E-02    0.1121739744E-02    0.6959739040E+00    0.3185435092E+00    0.6200148785E-04
    0.4900000000E+07    0.6367922561E-02    0.1101458287E-02    0.6959737882E+00    0.3188020211E+00    0.6214526797E-04
    0.1000000000E+07    0.1298463036E-01    0.2144721100E-02    0.6959769830E+00    0.3037782179E+00    0.5689115060E-04
    0.3000000000E+07    0.7991815651E-02    0.1362611377E-02    0.6959750726E+00    0.3153794973E+00    0.6047344539E-04
    0.5000000000E+07    0.6308031636E-02    0.1091746966E-02    0.6959737317E+00    0.3189253774E+00    0.6221509177E-04
    0.7000000000E+07    0.5384390809E-02    0.9411659098E-03    0.6959727555E+00    0.3208031243E+00    0.6338959457E-04
    0.9000000000E+07    0.4779008634E-02    0.8415652122E-03    0.6959719886E+00    0.3220094261E+00    0.6428128329E-04
    0.1100000000E+08    0.4342559999E-02    0.7692562308E-03    0.6959713563E+00    0.3228675202E+00    0.6500228021E-04
    0.1300000000E+08    0.4008511188E-02    0.7135992434E-03    0.6959708177E+00    0.3235178933E+00    0.6560865875E-04
    0.1500000000E+08    0.3742094014E-02    0.6689995050E-03    0.6959703482E+00    0.3240326948E+00    0.6613258682E-04
    0.1700000000E+08    0.3523122488E-02    0.6321920706E-03    0.6959699318E+00    0.3244532693E+00    0.6659426915E-04
    0.1900000000E+08    0.3338961337E-02    0.6011243349E-03    0.6959695574E+00    0.3248052295E+00    0.6700724476E-04
    0.2100000000E+08    0.3181241008E-02    0.5744314834E-03    0.6959692172E+00    0.3251053985E+00    0.6738103838E-04
    0.2300000000E+08    0.3044166879E-02    0.5511654046E-03    0.6959689052E+00    0.3253653410E+00    0.6772261013E-04
    0.2500000000E+08    0.2923581907E-02    0.5306438655E-03    0.6959686172E+00    0.3255933037E+00    0.6803720358E-04
    0.2700000000E+08    0.2816415442E-02    0.5123615402E-03    0.6959683495E+00    0.3257953462E+00    0.6832886930E-04
