  Pressure (Pa) 22mC5-500 (mol/kg) 23mC5-500 (mol/kg) 24mC5-500 (mol/kg) 2mC6-500 (mol/kg) C7-500 (mol/kg)
    0.1000000000E+01    0.7852415367E-05    0.3380381150E-05    0.1949994631E+00    0.2530386515E-05    0.4167966057E-02
    0.3000000000E+01    0.1395392459E-04    0.5985899796E-05    0.3749039143E+00    0.4281680948E-05    0.4190726236E-02
    0.5000000000E+01    0.1640129069E-04    0.7023932702E-05    0.4597341520E+00    0.4991186477E-05    0.4199061987E-02
    0.7000000000E+01    0.1775622443E-04    0.7599394997E-05    0.5091045654E+00    0.5473436648E-05    0.4203692769E-02
    0.9000000000E+01    0.1869644914E-04    0.8002056423E-05    0.5414055597E+00    0.5903385450E-05    0.4206675439E-02
    0.1100000000E+02    0.1945969403E-04    0.8332568686E-05    0.5641848957E+00    0.6328207533E-05    0.4208762892E-02
    0.1300000000E+02    0.2014383903E-04    0.8631899522E-05    0.5811119866E+00    0.6761189179E-05    0.4210304773E-02
    0.1500000000E+02    0.2079341349E-04    0.8918426109E-05    0.5941853972E+00    0.7205271288E-05    0.4211487504E-02
    0.1700000000E+02    0.2142997555E-04    0.9200884754E-05    0.6045866670E+00    0.7660094283E-05    0.4212420211E-02
    0.1900000000E+02    0.2206431742E-04    0.9483539706E-05    0.6130591049E+00    0.8124332798E-05    0.4213171283E-02
    0.2100000000E+02    0.2270187031E-04    0.9768455643E-05    0.6200937229E+00    0.8596503588E-05    0.4213785892E-02
    0.2300000000E+02    0.2334527968E-04    0.1005657164E-04    0.6260279084E+00    0.9075236993E-05    0.4214295141E-02
    0.2500000000E+02    0.2399570288E-04    0.1034823733E-04    0.6311011472E+00    0.9559351952E-05    0.4214721189E-02
    0.2700000000E+02    0.2465349196E-04    0.1064349199E-04    0.6354881327E+00    0.1004785935E-04    0.4215080276E-02
    0.2900000000E+02    0.2531856491E-04    0.1094221425E-04    0.6393192896E+00    0.1053994139E-04    0.4215384595E-02
    0.3100000000E+02    0.2599061236E-04    0.1124420411E-04    0.6426939612E+00    0.1103492527E-04    0.4215643485E-02
    0.3300000000E+02    0.2666921429E-04    0.1154922834E-04    0.6456891474E+00    0.1153225804E-04    0.4215864234E-02
    0.3500000000E+02    0.2735390651E-04    0.1185704555E-04    0.6483654521E+00    0.1203148476E-04    0.4216052615E-02
    0.3700000000E+02    0.2804421805E-04    0.1216741977E-04    0.6507712267E+00    0.1253223028E-04    0.4216213265E-02
    0.3900000000E+02    0.2873969192E-04    0.1248012748E-04    0.6529455176E+00    0.1303418445E-04    0.4216349954E-02
    0.4100000000E+02    0.2943989595E-04    0.1279496089E-04    0.6549202017E+00    0.1353709013E-04    0.4216465782E-02
    0.4300000000E+02    0.3014442778E-04    0.1311172905E-04    0.6567215600E+00    0.1404073353E-04    0.4216563324E-02
    0.4500000000E+02    0.3085291656E-04    0.1343025774E-04    0.6583714536E+00    0.1454493645E-04    0.4216644735E-02
    0.4700000000E+02    0.3156502266E-04    0.1375038872E-04    0.6598882156E+00    0.1504955002E-04    0.4216711837E-02
    0.4900000000E+02    0.3228043628E-04    0.1407197867E-04    0.6612873351E+00    0.1555444962E-04    0.4216766179E-02
    0.1000000000E+02    0.1909224903E-04    0.8172994615E-05    0.5537013579E+00    0.6115221191E-05    0.4207803786E-02
    0.3000000000E+02    0.2565374144E-04    0.1109281489E-04    0.6410584303E+00    0.1078710769E-04    0.4215519222E-02
    0.5000000000E+02    0.3263929429E-04    0.1423327974E-04    0.6619469747E+00    0.1580697333E-04    0.4216788987E-02
    0.7000000000E+02    0.3993435315E-04    0.1751049346E-04    0.6713222104E+00    0.2085464986E-04    0.4216815969E-02
    0.9000000000E+02    0.4736184178E-04    0.2084398635E-04    0.6766464697E+00    0.2587755868E-04    0.4216365398E-02
    0.1100000000E+03    0.5485069879E-04    0.2420251917E-04    0.6800788847E+00    0.3086930237E-04    0.4215674962E-02
    0.1300000000E+03    0.6237024732E-04    0.2757293289E-04    0.6824756672E+00    0.3583300806E-04    0.4214844759E-02
    0.1500000000E+03    0.6990655703E-04    0.3094942123E-04    0.6842440820E+00    0.4077363471E-04    0.4213924906E-02
    0.1700000000E+03    0.7745333289E-04    0.3432947687E-04    0.6856025977E+00    0.4569606875E-04    0.4212943495E-02
    0.1900000000E+03    0.8500801126E-04    0.3771217850E-04    0.6866789254E+00    0.5060466674E-04    0.4211917572E-02
    0.2100000000E+03    0.9256993725E-04    0.4109740081E-04    0.6875527136E+00    0.5550320133E-04    0.4210858112E-02
    0.2300000000E+03    0.1001394561E-03    0.4448542522E-04    0.6882762138E+00    0.6039491807E-04    0.4209772508E-02
    0.2500000000E+03    0.1077174369E-03    0.4787673853E-04    0.6888851273E+00    0.6528261498E-04    0.4208665923E-02
    0.2700000000E+03    0.1153050144E-03    0.5127192519E-04    0.6894046773E+00    0.7016871789E-04    0.4207542067E-02
    0.2900000000E+03    0.1229034450E-03    0.5467160839E-04    0.6898531901E+00    0.7505534484E-04    0.4206403670E-02
    0.3100000000E+03    0.1305140254E-03    0.5807641762E-04    0.6902443016E+00    0.7994435894E-04    0.4205252782E-02
    0.3300000000E+03    0.1381380475E-03    0.6148697108E-04    0.6905883677E+00    0.8483741135E-04    0.4204090965E-02
    0.3500000000E+03    0.1457767726E-03    0.6490386640E-04    0.6908933944E+00    0.8973597590E-04    0.4202919428E-02
    0.3700000000E+03    0.1534314191E-03    0.6832767628E-04    0.6911656688E+00    0.9464137719E-04    0.4201739115E-02
    0.3900000000E+03    0.1611031557E-03    0.7175894685E-04    0.6914101968E+00    0.9955481350E-04    0.4200550772E-02
    0.4100000000E+03    0.1687930995E-03    0.7519819772E-04    0.6916310134E+00    0.1044773754E-03    0.4199354990E-02
    0.4300000000E+03    0.1765023171E-03    0.7864592286E-04    0.6918314076E+00    0.1094100612E-03    0.4198152244E-02
    0.4500000000E+03    0.1842318261E-03    0.8210259200E-04    0.6920140869E+00    0.1143537897E-03    0.4196942912E-02
    0.4700000000E+03    0.1919825978E-03    0.8556865221E-04    0.6921813006E+00    0.1193094109E-03    0.4195727301E-02
    0.4900000000E+03    0.1997555604E-03    0.8904452962E-04    0.6923349326E+00    0.1242777148E-03    0.4194505656E-02
    0.1000000000E+03    0.5110107701E-04    0.2252119276E-04    0.6785299931E+00    0.2837721566E-04    0.4216042194E-02
    0.3000000000E+03    0.1267071353E-03    0.5637333321E-04    0.6900552096E+00    0.7749944577E-04    0.4205829680E-02
    0.5000000000E+03    0.2036506423E-03    0.9078627760E-04    0.6924071622E+00    0.1267668551E-03    0.4193892635E-02
    0.7000000000E+03    0.2829155257E-03    0.1262270995E-03    0.6934198629E+00    0.1773734273E-03    0.4181345953E-02
    0.9000000000E+03    0.3652345677E-03    0.1630292966E-03    0.6939836238E+00    0.2298867186E-03    0.4168271094E-02
    0.1100000000E+04    0.4511758862E-03    0.2014489973E-03    0.6943427650E+00    0.2847021390E-03    0.4154643101E-02
    0.1300000000E+04    0.5412449468E-03    0.2417131790E-03    0.6945915496E+00    0.3421567920E-03    0.4140412080E-02
    0.1500000000E+04    0.6359323487E-03    0.2840417246E-03    0.6947740512E+00    0.4025717297E-03    0.4125518448E-02
    0.1700000000E+04    0.7357398194E-03    0.3286592884E-03    0.6949136333E+00    0.4662724248E-03    0.4109896307E-02
    0.1900000000E+04    0.8411970979E-03    0.3758029476E-03    0.6950238345E+00    0.5336011063E-03    0.4093473808E-02
    0.2100000000E+04    0.9528749131E-03    0.4257280548E-03    0.6951130415E+00    0.6049257732E-03    0.4076172562E-02
    0.2300000000E+04    0.1071396475E-02    0.4787134021E-03    0.6951867271E+00    0.6806479226E-03    0.4057906656E-02
    0.2500000000E+04    0.1197448766E-02    0.5350662859E-03    0.6952486140E+00    0.7612100032E-03    0.4038581452E-02
    0.2700000000E+04    0.1331794430E-02    0.5951278330E-03    0.6953013230E+00    0.8471031863E-03    0.4018092178E-02
    0.2900000000E+04    0.1475284842E-02    0.6592788517E-03    0.6953467523E+00    0.9388758669E-03    0.3996322331E-02
    0.3100000000E+04    0.1628874857E-02    0.7279464347E-03    0.6953863105E+00    0.1037143237E-02    0.3973141828E-02
    0.3300000000E+04    0.1793639736E-02    0.8016115318E-03    0.6954210650E+00    0.1142598258E-02    0.3948404891E-02
    0.3500000000E+04    0.1970794751E-02    0.8808177253E-03    0.6954518392E+00    0.1256024376E-02    0.3921947599E-02
    0.3700000000E+04    0.2161718065E-02    0.9661814645E-03    0.6954792787E+00    0.1378310351E-02    0.3893585043E-02
    0.3900000000E+04    0.2367977506E-02    0.1058404049E-02    0.6955038966E+00    0.1510467631E-02    0.3863108030E-02
    0.4100000000E+04    0.2591361994E-02    0.1158285693E-02    0.6955261059E+00    0.1653650752E-02    0.3830279253E-02
    0.4300000000E+04    0.2833918447E-02    0.1266742036E-02    0.6955462428E+00    0.1809181308E-02    0.3794828843E-02
    0.4500000000E+04    0.3097995063E-02    0.1384823515E-02    0.6955645838E+00    0.1978576099E-02    0.3756449227E-02
    0.4700000000E+04    0.3386291958E-02    0.1513738030E-02    0.6955813582E+00    0.2163580088E-02    0.3714789206E-02
    0.4900000000E+04    0.3701920103E-02    0.1654877318E-02    0.6955967581E+00    0.2366204809E-02    0.3669447198E-02
    0.1000000000E+04    0.4077200970E-03    0.1820224209E-03    0.6941811175E+00    0.2569848843E-03    0.4161529051E-02
    0.3000000000E+04    0.1550753233E-02    0.6930193720E-03    0.6953671919E+00    0.9871563679E-03    0.3984917127E-02
    0.5000000000E+04    0.3871084459E-02    0.1730523845E-02    0.6956039942E+00    0.2474837238E-02    0.3645254324E-02
    0.7000000000E+04    0.9987773321E-02    0.4466280993E-02    0.6957051260E+00    0.6414998673E-02    0.2808294867E-02
    0.9000000000E+04    0.2544952475E-01    0.1138579195E-01    0.6957610901E+00    0.1647142127E-01    0.9519972509E-03
    0.1100000000E+05    0.3607772438E-01    0.1615171428E-01    0.6957965560E+00    0.2361114779E-01    0.1373323612E-03
    0.1300000000E+05    0.4075433290E-01    0.1825819482E-01    0.6958210037E+00    0.2697831253E-01    0.8041745840E-04
    0.1500000000E+05    0.4451338637E-01    0.1995581064E-01    0.6958388528E+00    0.2979367516E-01    0.7806095323E-04
    0.1700000000E+05    0.4785382789E-01    0.2146742572E-01    0.6958524404E+00    0.3237193352E-01    0.7843607034E-04
    0.1900000000E+05    0.5085629637E-01    0.2282880180E-01    0.6958631180E+00    0.3475793359E-01    0.7891208115E-04
    0.2100000000E+05    0.5356822277E-01    0.2406090472E-01    0.6958717213E+00    0.3697638469E-01    0.7935190352E-04
    0.2300000000E+05    0.5602772052E-01    0.2518058510E-01    0.6958787945E+00    0.3904716771E-01    0.7975442039E-04
    0.2500000000E+05    0.5826652763E-01    0.2620188312E-01    0.6958847073E+00    0.4098698678E-01    0.8012516755E-04
    0.2700000000E+05    0.6031133457E-01    0.2713661338E-01    0.6958897196E+00    0.4281002448E-01    0.8046887642E-04
    0.2900000000E+05    0.6218474866E-01    0.2799478933E-01    0.6958940191E+00    0.4452840943E-01    0.8078931455E-04
    0.3100000000E+05    0.6390604256E-01    0.2878495280E-01    0.6958977451E+00    0.4615258056E-01    0.8108950981E-04
    0.3300000000E+05    0.6549174405E-01    0.2951443368E-01    0.6959010029E+00    0.4769157581E-01    0.8137193092E-04
    0.3500000000E+05    0.6695610527E-01    0.3018955668E-01    0.6959038736E+00    0.4915326313E-01    0.8163861749E-04
    0.3700000000E+05    0.6831147911E-01    0.3081580714E-01    0.6959064208E+00    0.5054452694E-01    0.8189127435E-04
    0.3900000000E+05    0.6956862351E-01    0.3139796523E-01    0.6959086947E+00    0.5187141969E-01    0.8213134132E-04
    0.4100000000E+05    0.7073694926E-01    0.3194021520E-01    0.6959107360E+00    0.5313928609E-01    0.8236004561E-04
    0.4300000000E+05    0.7182472312E-01    0.3244623501E-01    0.6959125775E+00    0.5435286545E-01    0.8257844190E-04
    0.4500000000E+05    0.7283923537E-01    0.3291927029E-01    0.6959142464E+00    0.5551637672E-01    0.8278744337E-04
    0.4700000000E+05    0.7378693891E-01    0.3336219571E-01    0.6959157649E+00    0.5663358932E-01    0.8298784598E-04
    0.4900000000E+05    0.7467356521E-01    0.3377756623E-01    0.6959171519E+00    0.5770788272E-01    0.8318034784E-04
    0.1000000000E+05    0.3226006134E-01    0.1443749553E-01    0.6957806149E+00    0.2099181173E-01    0.3339528366E-03
    0.3000000000E+05    0.6306331933E-01    0.2839788875E-01    0.6958959466E+00    0.4535167696E-01    0.8094177687E-04
    0.5000000000E+05    0.7509559252E-01    0.3397564014E-01    0.6959178010E+00    0.5822989669E-01    0.8327383126E-04
    0.7000000000E+05    0.8131583232E-01    0.3693099630E-01    0.6959266503E+00    0.6701491688E-01    0.8484622158E-04
    0.9000000000E+05    0.8489514946E-01    0.3868176938E-01    0.6959312753E+00    0.7365751618E-01    0.8603990030E-04
    0.1100000000E+06    0.8707790544E-01    0.3978826646E-01    0.6959340306E+00    0.7900057980E-01    0.8700503883E-04
    0.1300000000E+06    0.8844622037E-01    0.4051449770E-01    0.6959358064E+00    0.8347692474E-01    0.8781672609E-04
    0.1500000000E+06    0.8930609277E-01    0.4100027364E-01    0.6959370111E+00    0.8733575238E-01    0.8851803413E-04
    0.1700000000E+06    0.8983235874E-01    0.4132608917E-01    0.6959378570E+00    0.9073276491E-01    0.8913601464E-04
    0.1900000000E+06    0.9013136935E-01    0.4154129772E-01    0.6959384649E+00    0.9377139965E-01    0.8968879384E-04
    0.2100000000E+06    0.9027104810E-01    0.4167768073E-01    0.6959389082E+00    0.9652373071E-01    0.9018912309E-04
    0.2300000000E+06    0.9029649860E-01    0.4175652450E-01    0.6959392338E+00    0.9904193085E-01    0.9064632002E-04
    0.2500000000E+06    0.9023863739E-01    0.4179255189E-01    0.6959394730E+00    0.1013649618E+00    0.9106740416E-04
    0.2700000000E+06    0.9011922102E-01    0.4179622224E-01    0.6959396473E+00    0.1035226828E+00    0.9145779788E-04
    0.2900000000E+06    0.8995390111E-01    0.4177513550E-01    0.6959397722E+00    0.1055384832E+00    0.9182177852E-04
    0.3100000000E+06    0.8975414937E-01    0.4173492115E-01    0.6959398586E+00    0.1074310288E+00    0.9216278073E-04
    0.3300000000E+06    0.8952850842E-01    0.4167981858E-01    0.6959399150E+00    0.1092154586E+00    0.9248360503E-04
    0.3500000000E+06    0.8928342663E-01    0.4161306641E-01    0.6959399474E+00    0.1109042244E+00    0.9278656541E-04
    0.3700000000E+06    0.8902382851E-01    0.4153716974E-01    0.6959399607E+00    0.1125076953E+00    0.9307359628E-04
    0.3900000000E+06    0.8875351237E-01    0.4145408753E-01    0.6959399585E+00    0.1140346005E+00    0.9334633154E-04
    0.4100000000E+06    0.8847543280E-01    0.4136536637E-01    0.6959399438E+00    0.1154923609E+00    0.9360616395E-04
    0.4300000000E+06    0.8819190449E-01    0.4127223756E-01    0.6959399188E+00    0.1168873405E+00    0.9385429057E-04
    0.4500000000E+06    0.8790475159E-01    0.4117568858E-01    0.6959398854E+00    0.1182250395E+00    0.9409174791E-04
    0.4700000000E+06    0.8761541848E-01    0.4107651649E-01    0.6959398452E+00    0.1195102461E+00    0.9431943954E-04
    0.4900000000E+06    0.8732505294E-01    0.4097536823E-01    0.6959397993E+00    0.1207471551E+00    0.9453815795E-04
    0.1000000000E+06    0.8611556814E-01    0.3929494549E-01    0.6959328140E+00    0.7645851199E-01    0.8654529997E-04
    0.3000000000E+06    0.8985773802E-01    0.4175712702E-01    0.6959398196E+00    0.1064991452E+00    0.9199496400E-04
    0.5000000000E+06    0.8717977647E-01    0.4092422190E-01    0.6959397745E+00    0.1213486707E+00    0.9464437389E-04
    0.7000000000E+06    0.8436293363E-01    0.3988432536E-01    0.6959391481E+00    0.1315487475E+00    0.9643102055E-04
    0.9000000000E+06    0.8183221658E-01    0.3890158710E-01    0.6959384602E+00    0.1393904211E+00    0.9778744552E-04
    0.1100000000E+07    0.7959473777E-01    0.3800898593E-01    0.6959378039E+00    0.1457826181E+00    0.9888421321E-04
    0.1300000000E+07    0.7760701701E-01    0.3720181701E-01    0.6959371968E+00    0.1511857636E+00    0.9980662365E-04
    0.1500000000E+07    0.7582594870E-01    0.3646907484E-01    0.6959366386E+00    0.1558676739E+00    0.1006036110E-03
    0.1700000000E+07    0.7421615634E-01    0.3579999655E-01    0.6959361246E+00    0.1599988069E+00    0.1013059107E-03
    0.1900000000E+07    0.7274967503E-01    0.3518536790E-01    0.6959356497E+00    0.1636947820E+00    0.1019341184E-03
    0.2100000000E+07    0.7140445329E-01    0.3461757430E-01    0.6959352089E+00    0.1670378367E+00    0.1025027231E-03
    0.2300000000E+07    0.7016296080E-01    0.3409036857E-01    0.6959347979E+00    0.1700886616E+00    0.1030223124E-03
    0.2500000000E+07    0.6901110288E-01    0.3359861093E-01    0.6959344131E+00    0.1728933863E+00    0.1035008628E-03
    0.2700000000E+07    0.6793741151E-01    0.3313804448E-01    0.6959340516E+00    0.1754879291E+00    0.1039445359E-03
    0.2900000000E+07    0.6693244807E-01    0.3270511525E-01    0.6959337105E+00    0.1779008271E+00    0.1043581925E-03
    0.3100000000E+07    0.6598836049E-01    0.3229683148E-01    0.6959333879E+00    0.1801551427E+00    0.1047457355E-03
    0.3300000000E+07    0.6509855183E-01    0.3191065430E-01    0.6959330818E+00    0.1822697892E+00    0.1051103475E-03
    0.3500000000E+07    0.6425742943E-01    0.3154441260E-01    0.6959327906E+00    0.1842604760E+00    0.1054546580E-03
    0.3700000000E+07    0.6346021291E-01    0.3119623648E-01    0.6959325129E+00    0.1861403975E+00    0.1057808653E-03
    0.3900000000E+07    0.6270278533E-01    0.3086450464E-01    0.6959322475E+00    0.1879207455E+00    0.1060908263E-03
    0.4100000000E+07    0.6198157672E-01    0.3054780264E-01    0.6959319933E+00    0.1896110969E+00    0.1063861237E-03
    0.4300000000E+07    0.6129347184E-01    0.3024488946E-01    0.6959317494E+00    0.1912197117E+00    0.1066681179E-03
    0.4500000000E+07    0.6063573656E-01    0.2995467043E-01    0.6959315151E+00    0.1927537643E+00    0.1069379868E-03
    0.4700000000E+07    0.6000595837E-01    0.2967617521E-01    0.6959312895E+00    0.1942195269E+00    0.1071967572E-03
    0.4900000000E+07    0.5940199810E-01    0.2940853977E-01    0.6959310721E+00    0.1956225148E+00    0.1074453298E-03
    0.1000000000E+07    0.8067934134E-01    0.3844401352E-01    0.6959381263E+00    0.1427326684E+00    0.9836176946E-04
    0.3000000000E+07    0.6645323326E-01    0.3249806088E-01    0.6959335471E+00    0.1790465409E+00    0.1045550146E-03
    0.5000000000E+07    0.5910909604E-01    0.2927854979E-01    0.6959309663E+00    0.1963020142E+00    0.1075660438E-03
    0.7000000000E+07    0.5423707363E-01    0.2709807789E-01    0.6959291639E+00    0.2075303792E+00    0.1095965667E-03
    0.9000000000E+07    0.5063483290E-01    0.2546431283E-01    0.6959277734E+00    0.2157614380E+00    0.1111381474E-03
    0.1100000000E+08    0.4780256436E-01    0.2416716235E-01    0.6959266384E+00    0.2222024250E+00    0.1123846287E-03
    0.1300000000E+08    0.4548494561E-01    0.2309752577E-01    0.6959256781E+00    0.2274574570E+00    0.1134329530E-03
    0.1500000000E+08    0.4353427646E-01    0.2219153207E-01    0.6959248447E+00    0.2318717369E+00    0.1143387336E-03
    0.1700000000E+08    0.4185761942E-01    0.2140861424E-01    0.6959241080E+00    0.2356607116E+00    0.1151369015E-03
    0.1900000000E+08    0.4039281868E-01    0.2072143281E-01    0.6959234473E+00    0.2389676373E+00    0.1158508633E-03
    0.2100000000E+08    0.3909633136E-01    0.2011071087E-01    0.6959228482E+00    0.2418924388E+00    0.1164970860E-03
    0.2300000000E+08    0.3793651853E-01    0.1956236294E-01    0.6959222998E+00    0.2445074820E+00    0.1170876024E-03
    0.2500000000E+08    0.3688970096E-01    0.1906579511E-01    0.6959217941E+00    0.2468667843E+00    0.1176314778E-03
    0.2700000000E+08    0.3593771807E-01    0.1861284679E-01    0.6959213247E+00    0.2490116861E+00    0.1181357150E-03
