  Pressure (Pa) 22mC5-500 (mol/kg) 23mC5-500 (mol/kg) 24mC5-500 (mol/kg) 2mC6-500 (mol/kg) C7-500 (mol/kg)
    0.1000000000E+01    0.1000640484E-04    0.7187652620E-06    0.6964730008E-01    0.2612604951E-04    0.4206393755E-02
    0.3000000000E+01    0.2399657554E-04    0.1720490839E-05    0.1740641248E+00    0.6056495462E-04    0.4277012483E-02
    0.5000000000E+01    0.3321755576E-04    0.2378167594E-05    0.2486098882E+00    0.8181250460E-04    0.4325975009E-02
    0.7000000000E+01    0.3963442707E-04    0.2834157122E-05    0.3045001465E+00    0.9578513093E-04    0.4362774028E-02
    0.9000000000E+01    0.4428898673E-04    0.3163778221E-05    0.3479600075E+00    0.1054835372E-03    0.4391561416E-02
    0.1100000000E+02    0.4778123104E-04    0.3410321580E-05    0.3827219969E+00    0.1125611545E-03    0.4414744575E-02
    0.1300000000E+02    0.5047794308E-04    0.3600196197E-05    0.4111601308E+00    0.1179826541E-03    0.4433841636E-02
    0.1500000000E+02    0.5261398776E-04    0.3750276214E-05    0.4348564503E+00    0.1223358931E-03    0.4449862444E-02
    0.1700000000E+02    0.5434547607E-04    0.3871752407E-05    0.4549058655E+00    0.1259915605E-03    0.4463506420E-02
    0.1900000000E+02    0.5577940661E-04    0.3972277014E-05    0.4720902549E+00    0.1291898581E-03    0.4475273987E-02
    0.2100000000E+02    0.5699102344E-04    0.4057218178E-05    0.4869828767E+00    0.1320898565E-03    0.4485532984E-02
    0.2300000000E+02    0.5803440392E-04    0.4130424156E-05    0.5000136010E+00    0.1347987289E-03    0.4494560044E-02
    0.2500000000E+02    0.5894914426E-04    0.4194705231E-05    0.5115111059E+00    0.1373896472E-03    0.4502567342E-02
    0.2700000000E+02    0.5976470794E-04    0.4252146728E-05    0.5217309997E+00    0.1399130530E-03    0.4509720420E-02
    0.2900000000E+02    0.6050332793E-04    0.4304317645E-05    0.5308750590E+00    0.1424039300E-03    0.4516150395E-02
    0.3100000000E+02    0.6118198777E-04    0.4352412849E-05    0.5391046916E+00    0.1448865968E-03    0.4521962510E-02
    0.3300000000E+02    0.6181380113E-04    0.4397351967E-05    0.5465505521E+00    0.1473779240E-03    0.4527242250E-02
    0.3500000000E+02    0.6240898983E-04    0.4439849370E-05    0.5533195336E+00    0.1498895295E-03    0.4532059795E-02
    0.3700000000E+02    0.6297558802E-04    0.4480464495E-05    0.5594999347E+00    0.1524292963E-03    0.4536473319E-02
    0.3900000000E+02    0.6351995682E-04    0.4519638560E-05    0.5651653345E+00    0.1550024369E-03    0.4540531471E-02
    0.4100000000E+02    0.6404716505E-04    0.4557721681E-05    0.5703775374E+00    0.1576122461E-03    0.4544275254E-02
    0.4300000000E+02    0.6456127443E-04    0.4594993151E-05    0.5751888381E+00    0.1602606402E-03    0.4547739487E-02
    0.4500000000E+02    0.6506555541E-04    0.4631676759E-05    0.5796437824E+00    0.1629485442E-03    0.4550953932E-02
    0.4700000000E+02    0.6556265215E-04    0.4667952479E-05    0.5837805522E+00    0.1656761740E-03    0.4553944189E-02
    0.4900000000E+02    0.6605470973E-04    0.4703965469E-05    0.5876320620E+00    0.1684432416E-03    0.4556732402E-02
    0.1000000000E+02    0.4615351987E-04    0.3295498053E-05    0.3662564083E+00    0.1092781990E-03    0.4403743522E-02
    0.3000000000E+02    0.6084925561E-04    0.4328811718E-05    0.5350953844E+00    0.1436450904E-03    0.4519127938E-02
    0.5000000000E+02    0.6629940754E-04    0.4721911035E-05    0.5894599098E+00    0.1698413747E-03    0.4558056861E-02
    0.7000000000E+02    0.7121235298E-04    0.5085831228E-05    0.6163003811E+00    0.1996330313E-03    0.4577513450E-02
    0.9000000000E+02    0.7643525645E-04    0.5476392495E-05    0.6322975875E+00    0.2321421081E-03    0.4588874997E-02
    0.1100000000E+03    0.8204505931E-04    0.5897097485E-05    0.6429182814E+00    0.2665197814E-03    0.4596008345E-02
    0.1300000000E+03    0.8800561473E-04    0.6344411292E-05    0.6504830143E+00    0.3022620815E-03    0.4600611558E-02
    0.1500000000E+03    0.9427056111E-04    0.6814523476E-05    0.6561448445E+00    0.3390764676E-03    0.4603555786E-02
    0.1700000000E+03    0.1008011429E-03    0.7304387081E-05    0.6605415404E+00    0.3767897876E-03    0.4605337637E-02
    0.1900000000E+03    0.1075677255E-03    0.7811722470E-05    0.6640545044E+00    0.4152977520E-03    0.4606262672E-02
    0.2100000000E+03    0.1145482425E-03    0.8334855591E-05    0.6669258277E+00    0.4545373148E-03    0.4606530102E-02
    0.2300000000E+03    0.1217264186E-03    0.8872564376E-05    0.6693165746E+00    0.4944710962E-03    0.4606275812E-02
    0.2500000000E+03    0.1290903232E-03    0.9423960733E-05    0.6713380647E+00    0.5350782684E-03    0.4605595914E-02
    0.2700000000E+03    0.1366312898E-03    0.9988404794E-05    0.6730697010E+00    0.5763490348E-03    0.4604560425E-02
    0.2900000000E+03    0.1443431275E-03    0.1056544342E-04    0.6745696436E+00    0.6182811791E-03    0.4603221607E-02
    0.3100000000E+03    0.1522215468E-03    0.1115476601E-04    0.6758814684E+00    0.6608778487E-03    0.4601619267E-02
    0.3300000000E+03    0.1602637407E-03    0.1175617249E-04    0.6770384688E+00    0.7041460970E-03    0.4599784241E-02
    0.3500000000E+03    0.1684680758E-03    0.1236954991E-04    0.6780665194E+00    0.7480959057E-03    0.4597740752E-02
    0.3700000000E+03    0.1768338618E-03    0.1299485510E-04    0.6789860338E+00    0.7927395184E-03    0.4595508051E-02
    0.3900000000E+03    0.1853611796E-03    0.1363210175E-04    0.6798133330E+00    0.8380909793E-03    0.4593101583E-02
    0.4100000000E+03    0.1940507498E-03    0.1428135062E-04    0.6805616218E+00    0.8841658122E-03    0.4590533828E-02
    0.4300000000E+03    0.2029038334E-03    0.1494270214E-04    0.6812416990E+00    0.9309807953E-03    0.4587814930E-02
    0.4500000000E+03    0.2119221545E-03    0.1561629072E-04    0.6818624812E+00    0.9785538036E-03    0.4584953159E-02
    0.4700000000E+03    0.2211078414E-03    0.1630228035E-04    0.6824313961E+00    0.1026903699E-02    0.4581955266E-02
    0.4900000000E+03    0.2304633804E-03    0.1700086124E-04    0.6829546804E+00    0.1076050254E-02    0.4578826763E-02
    0.1000000000E+03    0.7919335807E-04    0.5683163086E-05    0.6380950497E+00    0.2491352848E-03    0.4592836057E-02
    0.3000000000E+03    0.1482617205E-03    0.1085858400E-04    0.6752467879E+00    0.6394960857E-03    0.4602451272E-02
    0.5000000000E+03    0.2352057104E-03    0.1735493936E-04    0.6832008920E+00    0.1100928696E-02    0.4577214967E-02
    0.7000000000E+03    0.3398178314E-03    0.2516166616E-04    0.6866656983E+00    0.1645871235E-02    0.4538809478E-02
    0.9000000000E+03    0.4663677389E-03    0.3459993940E-04    0.6886046193E+00    0.2300106187E-02    0.4488814545E-02
    0.1100000000E+04    0.6216345446E-03    0.4617640989E-04    0.6898433422E+00    0.3100017482E-02    0.4425624862E-02
    0.1300000000E+04    0.8156034429E-03    0.6063610966E-04    0.6907029069E+00    0.4097769392E-02    0.4345798168E-02
    0.1500000000E+04    0.1063100332E-02    0.7908468914E-04    0.6913341356E+00    0.5370229622E-02    0.4243835325E-02
    0.1700000000E+04    0.1386588105E-02    0.1031970992E-03    0.6918172377E+00    0.7033653378E-02    0.4111315845E-02
    0.1900000000E+04    0.1820725506E-02    0.1355577092E-03    0.6921988016E+00    0.9267496685E-02    0.3935409429E-02
    0.2100000000E+04    0.2419186242E-02    0.1801691714E-03    0.6925077386E+00    0.1235017170E-01    0.3696802060E-02
    0.2300000000E+04    0.3261977275E-02    0.2429991446E-03    0.6927629395E+00    0.1669811011E-01    0.3368141866E-02
    0.2500000000E+04    0.4450653437E-02    0.3316260104E-03    0.6929772692E+00    0.2284386578E-01    0.2918520437E-02
    0.2700000000E+04    0.6048859539E-02    0.4508099888E-03    0.6931597915E+00    0.3113347601E-01    0.2339926444E-02
    0.2900000000E+04    0.7923618450E-02    0.5906602493E-03    0.6933170763E+00    0.4090638747E-01    0.1705726268E-02
    0.3100000000E+04    0.9678033770E-02    0.7216010118E-03    0.6934540018E+00    0.5012904318E-01    0.1176388917E-02
    0.3300000000E+04    0.1099555515E-01    0.8200208009E-03    0.6935742660E+00    0.5715366609E-01    0.8524433325E-03
    0.3500000000E+04    0.1190141217E-01    0.8877787884E-03    0.6936807233E+00    0.6208600149E-01    0.6966406978E-03
    0.3700000000E+04    0.1256113979E-01    0.9372032101E-03    0.6937756116E+00    0.6576635342E-01    0.6314733533E-03
    0.3900000000E+04    0.1309738646E-01    0.9774334163E-03    0.6938607107E+00    0.6882308823E-01    0.6062879375E-03
    0.4100000000E+04    0.1357209449E-01    0.1013086185E-02    0.6939374533E+00    0.7157475806E-01    0.5973190553E-03
    0.4300000000E+04    0.1401268352E-01    0.1046205264E-02    0.6940070060E+00    0.7416246422E-01    0.5947194122E-03
    0.4500000000E+04    0.1443090841E-01    0.1077666568E-02    0.6940703281E+00    0.7664643983E-01    0.5945842205E-03
    0.4700000000E+04    0.1483193187E-01    0.1107854470E-02    0.6941282158E+00    0.7905278218E-01    0.5953847371E-03
    0.4900000000E+04    0.1521820131E-01    0.1136950861E-02    0.6941813351E+00    0.8139350527E-01    0.5965234953E-03
    0.1000000000E+04    0.5398771939E-03    0.4008101651E-04    0.6892854740E+00    0.2679044985E-02    0.4459042173E-02
    0.3000000000E+04    0.8843405556E-02    0.6592974018E-03    0.6933878298E+00    0.4572886332E-01    0.1418123266E-02
    0.5000000000E+04    0.1540624016E-01    0.1151122126E-02    0.6942062858E+00    0.8254131453E-01    0.5971397907E-03
    0.7000000000E+04    0.1857932076E-01    0.1391045827E-02    0.6945541675E+00    0.1028731546E+00    0.6084691685E-03
    0.9000000000E+04    0.2089746280E-01    0.1567564969E-02    0.6947456000E+00    0.1192763240E+00    0.6171233640E-03
    0.1100000000E+05    0.2262474223E-01    0.1700123659E-02    0.6948661843E+00    0.1328327269E+00    0.6241034150E-03
    0.1300000000E+05    0.2392999203E-01    0.1801177942E-02    0.6949487807E+00    0.1442551748E+00    0.6299642822E-03
    0.1500000000E+05    0.2492576946E-01    0.1879049389E-02    0.6950086874E+00    0.1540338813E+00    0.6350224695E-03
    0.1700000000E+05    0.2568963861E-01    0.1939484887E-02    0.6950539818E+00    0.1625174774E+00    0.6394759702E-03
    0.1900000000E+05    0.2627654841E-01    0.1986564835E-02    0.6950893272E+00    0.1699609683E+00    0.6434570676E-03
    0.2100000000E+05    0.2672634989E-01    0.2023255323E-02    0.6951176017E+00    0.1765553843E+00    0.6470586151E-03
    0.2300000000E+05    0.2706853154E-01    0.2051756385E-02    0.6951406767E+00    0.1824468014E+00    0.6503483446E-03
    0.2500000000E+05    0.2732529742E-01    0.2073728654E-02    0.6951598205E+00    0.1877489333E+00    0.6533772115E-03
    0.2700000000E+05    0.2751362297E-01    0.2090444927E-02    0.6951759231E+00    0.1925516999E+00    0.6561845320E-03
    0.2900000000E+05    0.2764666132E-01    0.2102893982E-02    0.6951896266E+00    0.1969271986E+00    0.6588012901E-03
    0.3100000000E+05    0.2773472558E-01    0.2111853189E-02    0.6952014059E+00    0.2009339553E+00    0.6612523455E-03
    0.3300000000E+05    0.2778598791E-01    0.2117940253E-02    0.6952116195E+00    0.2046200078E+00    0.6635579535E-03
    0.3500000000E+05    0.2780698546E-01    0.2121650718E-02    0.6952205432E+00    0.2080251806E+00    0.6657348407E-03
    0.3700000000E+05    0.2780299202E-01    0.2123385553E-02    0.6952283923E+00    0.2111827893E+00    0.6677969823E-03
    0.3900000000E+05    0.2777829481E-01    0.2123471727E-02    0.6952353372E+00    0.2141209342E+00    0.6697561768E-03
    0.4100000000E+05    0.2773640318E-01    0.2122177741E-02    0.6952415148E+00    0.2168634959E+00    0.6716224773E-03
    0.4300000000E+05    0.2768020771E-01    0.2119725495E-02    0.6952470360E+00    0.2194309091E+00    0.6734045211E-03
    0.4500000000E+05    0.2761210282E-01    0.2116299442E-02    0.6952519916E+00    0.2218407711E+00    0.6751097845E-03
    0.4700000000E+05    0.2753408210E-01    0.2112053713E-02    0.6952564569E+00    0.2241083254E+00    0.6767447829E-03
    0.4900000000E+05    0.2744781316E-01    0.2107117731E-02    0.6952604945E+00    0.2262468476E+00    0.6783152293E-03
    0.1000000000E+05    0.2182275149E-01    0.1638439219E-02    0.6948120767E+00    0.1263593281E+00    0.6207801737E-03
    0.3000000000E+05    0.2769576098E-01    0.2107767964E-02    0.6951957321E+00    0.1989734515E+00    0.6600461711E-03
    0.5000000000E+05    0.2740203243E-01    0.2104425693E-02    0.6952623697E+00    0.2272714105E+00    0.6790778432E-03
    0.7000000000E+05    0.2629593246E-01    0.2033398114E-02    0.6952866464E+00    0.2431701515E+00    0.6919023122E-03
    0.9000000000E+05    0.2511924479E-01    0.1953197378E-02    0.6952977270E+00    0.2536452912E+00    0.7016352671E-03
    0.1100000000E+06    0.2402290700E-01    0.1876649638E-02    0.6953032283E+00    0.2611962238E+00    0.7095034670E-03
    0.1300000000E+06    0.2303371332E-01    0.1806595030E-02    0.6953059521E+00    0.2669634088E+00    0.7161199473E-03
    0.1500000000E+06    0.2214734442E-01    0.1743199955E-02    0.6953071466E+00    0.2715496947E+00    0.7218362225E-03
    0.1700000000E+06    0.2135210218E-01    0.1685893709E-02    0.6953074409E+00    0.2753071787E+00    0.7268730074E-03
    0.1900000000E+06    0.2063566124E-01    0.1633952860E-02    0.6953071808E+00    0.2784569387E+00    0.7313781663E-03
    0.2100000000E+06    0.1998695041E-01    0.1586683908E-02    0.6953065690E+00    0.2811456342E+00    0.7354557033E-03
    0.2300000000E+06    0.1939652415E-01    0.1543474605E-02    0.6953057301E+00    0.2834748566E+00    0.7391816078E-03
    0.2500000000E+06    0.1885646733E-01    0.1503800711E-02    0.6953047439E+00    0.2855174794E+00    0.7426131217E-03
    0.2700000000E+06    0.1836017785E-01    0.1467218280E-02    0.6953036626E+00    0.2873273040E+00    0.7457944593E-03
    0.2900000000E+06    0.1790214140E-01    0.1433352268E-02    0.6953025217E+00    0.2889450228E+00    0.7487604963E-03
    0.3100000000E+06    0.1747773326E-01    0.1401885298E-02    0.6953013454E+00    0.2904020533E+00    0.7515392357E-03
    0.3300000000E+06    0.1708305386E-01    0.1372547781E-02    0.6953001505E+00    0.2917230860E+00    0.7541535094E-03
    0.3500000000E+06    0.1671479565E-01    0.1345109642E-02    0.6952989490E+00    0.2929278265E+00    0.7566221820E-03
    0.3700000000E+06    0.1637013638E-01    0.1319373517E-02    0.6952977491E+00    0.2940322173E+00    0.7589610232E-03
    0.3900000000E+06    0.1604665368E-01    0.1295169222E-02    0.6952965568E+00    0.2950493120E+00    0.7611833520E-03
    0.4100000000E+06    0.1574225651E-01    0.1272349249E-02    0.6952953763E+00    0.2959899140E+00    0.7633005219E-03
    0.4300000000E+06    0.1545513012E-01    0.1250785104E-02    0.6952942106E+00    0.2968630512E+00    0.7653222905E-03
    0.4500000000E+06    0.1518369137E-01    0.1230364323E-02    0.6952930616E+00    0.2976763334E+00    0.7672571067E-03
    0.4700000000E+06    0.1492655247E-01    0.1210988020E-02    0.6952919308E+00    0.2984362256E+00    0.7691123354E-03
    0.4900000000E+06    0.1468249135E-01    0.1192568873E-02    0.6952908188E+00    0.2991482603E+00    0.7708944364E-03
    0.1000000000E+06    0.2455811916E-01    0.1914185840E-02    0.6953009447E+00    0.2576970013E+00    0.7057556169E-03
    0.3000000000E+06    0.1768599281E-01    0.1417336768E-02    0.6953019368E+00    0.2896919468E+00    0.7501717461E-03
    0.5000000000E+06    0.1456502225E-01    0.1183693689E-02    0.6952902701E+00    0.2994878465E+00    0.7717598708E-03
    0.7000000000E+06    0.1269573268E-01    0.1041584235E-02    0.6952803001E+00    0.3046393007E+00    0.7863168020E-03
    0.9000000000E+06    0.1141370051E-01    0.9431275916E-03    0.6952719805E+00    0.3079258700E+00    0.7973679378E-03
    0.1100000000E+07    0.1046278733E-01    0.8695442419E-03    0.6952648994E+00    0.3102493359E+00    0.8063032936E-03
    0.1300000000E+07    0.9720467581E-02    0.8117528522E-03    0.6952587488E+00    0.3120007854E+00    0.8138179780E-03
    0.1500000000E+07    0.9119704805E-02    0.7647450425E-03    0.6952533153E+00    0.3133804808E+00    0.8203107374E-03
    0.1700000000E+07    0.8620286416E-02    0.7254974324E-03    0.6952484492E+00    0.3145028203E+00    0.8260320167E-03
    0.1900000000E+07    0.8196413463E-02    0.6920601400E-03    0.6952440424E+00    0.3154384510E+00    0.8311496318E-03
    0.2100000000E+07    0.7830662238E-02    0.6631103749E-03    0.6952400148E+00    0.3162336340E+00    0.8357816394E-03
    0.2300000000E+07    0.7510778344E-02    0.6377141521E-03    0.6952363054E+00    0.3169200785E+00    0.8400143063E-03
    0.2500000000E+07    0.7227855029E-02    0.6151902729E-03    0.6952328669E+00    0.3175203328E+00    0.8439126228E-03
    0.2700000000E+07    0.6975240190E-02    0.5950283877E-03    0.6952296616E+00    0.3180509214E+00    0.8475267924E-03
    0.2900000000E+07    0.6747850609E-02    0.5768374063E-03    0.6952266593E+00    0.3185242637E+00    0.8508964170E-03
    0.3100000000E+07    0.6541725321E-02    0.5603117903E-03    0.6952238353E+00    0.3189498960E+00    0.8540532969E-03
    0.3300000000E+07    0.6353725342E-02    0.5452088269E-03    0.6952211693E+00    0.3193352766E+00    0.8570233609E-03
    0.3500000000E+07    0.6181326210E-02    0.5313328857E-03    0.6952186440E+00    0.3196863332E+00    0.8598280334E-03
    0.3700000000E+07    0.6022471208E-02    0.5185242533E-03    0.6952162451E+00    0.3200078431E+00    0.8624852244E-03
    0.3900000000E+07    0.5875465329E-02    0.5066510493E-03    0.6952139602E+00    0.3203037050E+00    0.8650100615E-03
    0.4100000000E+07    0.5738897251E-02    0.4956032649E-03    0.6952117787E+00    0.3205771358E+00    0.8674154397E-03
    0.4300000000E+07    0.5611580965E-02    0.4852882945E-03    0.6952096915E+00    0.3208308164E+00    0.8697124421E-03
    0.4500000000E+07    0.5492511463E-02    0.4756275373E-03    0.6952076905E+00    0.3210670008E+00    0.8719106654E-03
    0.4700000000E+07    0.5380830643E-02    0.4665537778E-03    0.6952057687E+00    0.3212876001E+00    0.8740184753E-03
    0.4900000000E+07    0.5275800756E-02    0.4580091426E-03    0.6952039200E+00    0.3214942459E+00    0.8760432091E-03
    0.1000000000E+07    0.1090634319E-01    0.9039283070E-03    0.6952683070E+00    0.3091770603E+00    0.8020469800E-03
    0.3000000000E+07    0.6642342590E-02    0.5683828582E-03    0.6952252264E+00    0.3187425362E+00    0.8524997101E-03
    0.5000000000E+07    0.5225577039E-02    0.4539193122E-03    0.6952030212E+00    0.3215927826E+00    0.8770264750E-03
    0.7000000000E+07    0.4452562147E-02    0.3906320618E-03    0.6951878256E+00    0.3230870332E+00    0.8935655866E-03
    0.9000000000E+07    0.3947444306E-02    0.3489007284E-03    0.6951762093E+00    0.3240412205E+00    0.9061217210E-03
    0.1100000000E+08    0.3584021030E-02    0.3186669526E-03    0.6951667787E+00    0.3247171605E+00    0.9162740138E-03
    0.1300000000E+08    0.3306277004E-02    0.2954308542E-03    0.6951588263E+00    0.3252278813E+00    0.9248121830E-03
    0.1500000000E+08    0.3085018769E-02    0.2768327295E-03    0.6951519423E+00    0.3256311501E+00    0.9321892594E-03
    0.1700000000E+08    0.2903330973E-02    0.2614983573E-03    0.6951458676E+00    0.3259599461E+00    0.9386897874E-03
    0.1900000000E+08    0.2750642333E-02    0.2485651970E-03    0.6951404279E+00    0.3262346385E+00    0.9445044345E-03
    0.2100000000E+08    0.2619959521E-02    0.2374604905E-03    0.6951355000E+00    0.3264685726E+00    0.9497673342E-03
    0.2300000000E+08    0.2506445966E-02    0.2277867947E-03    0.6951309937E+00    0.3266709032E+00    0.9545765019E-03
    0.2500000000E+08    0.2406635132E-02    0.2192583924E-03    0.6951268409E+00    0.3268481463E+00    0.9590057789E-03
    0.2700000000E+08    0.2317968462E-02    0.2116638279E-03    0.6951229888E+00    0.3270050818E+00    0.9631122061E-03
