  Pressure (Pa) 22mC5-500 (mol/kg) 23mC5-500 (mol/kg) 24mC5-500 (mol/kg) 2mC6-500 (mol/kg) C7-500 (mol/kg)
    0.1000000000E+01    0.1058219828E-04    0.1520674688E-05    0.3665712178E-01    0.2079720892E-04    0.4229278966E-02
    0.3000000000E+01    0.2796579476E-04    0.4014110118E-05    0.9946500022E-01    0.5375124853E-04    0.4344650496E-02
    0.5000000000E+01    0.4170233117E-04    0.5980324653E-05    0.1513191066E+00    0.7882438592E-04    0.4438774034E-02
    0.7000000000E+01    0.5276529896E-04    0.7560645808E-05    0.1948557368E+00    0.9830851557E-04    0.4518022777E-02
    0.9000000000E+01    0.6181199160E-04    0.8850367785E-05    0.2319279697E+00    0.1137065050E-03    0.4585806618E-02
    0.1100000000E+02    0.6930645691E-04    0.9916699420E-05    0.2638764214E+00    0.1260565285E-03    0.4644508145E-02
    0.1300000000E+02    0.7558553355E-04    0.1080837828E-04    0.2916949443E+00    0.1360966388E-03    0.4695878379E-02
    0.1500000000E+02    0.8089917482E-04    0.1156153532E-04    0.3161359384E+00    0.1443631120E-03    0.4741239843E-02
    0.1700000000E+02    0.8543634058E-04    0.1220345794E-04    0.3377794810E+00    0.1512527034E-03    0.4781612020E-02
    0.1900000000E+02    0.8934219418E-04    0.1275508792E-04    0.3570799911E+00    0.1570634996E-03    0.4817794190E-02
    0.2100000000E+02    0.9272983500E-04    0.1323272465E-04    0.3743985087E+00    0.1620224680E-03    0.4850422193E-02
    0.2300000000E+02    0.9568848646E-04    0.1364921315E-04    0.3900255105E+00    0.1663044623E-03    0.4880008374E-02
    0.2500000000E+02    0.9828932401E-04    0.1401478922E-04    0.4041973463E+00    0.1700455905E-03    0.4906970300E-02
    0.2700000000E+02    0.1005896963E-03    0.1433769118E-04    0.4171082867E+00    0.1733527800E-03    0.4931651797E-02
    0.2900000000E+02    0.1026362300E-03    0.1462460967E-04    0.4289194890E+00    0.1763107253E-03    0.4954338602E-02
    0.3100000000E+02    0.1044671468E-03    0.1488102295E-04    0.4397657647E+00    0.1789870044E-03    0.4975270180E-02
    0.3300000000E+02    0.1061140126E-03    0.1511145013E-04    0.4497607523E+00    0.1814358928E-03    0.4994648766E-02
    0.3500000000E+02    0.1076030759E-03    0.1531964455E-04    0.4590009175E+00    0.1837012389E-03    0.5012646358E-02
    0.3700000000E+02    0.1089563003E-03    0.1550874304E-04    0.4675686787E+00    0.1858186528E-03    0.5029410186E-02
    0.3900000000E+02    0.1101921709E-03    0.1568138233E-04    0.4755348753E+00    0.1878171898E-03    0.5045067039E-02
    0.4100000000E+02    0.1113263277E-03    0.1583979057E-04    0.4829607315E+00    0.1897206553E-03    0.5059726704E-02
    0.4300000000E+02    0.1123720695E-03    0.1598585986E-04    0.4898994345E+00    0.1915486239E-03    0.5073484743E-02
    0.4500000000E+02    0.1133407560E-03    0.1612120429E-04    0.4963974120E+00    0.1933172427E-03    0.5086424730E-02
    0.4700000000E+02    0.1142421317E-03    0.1624720657E-04    0.5024953724E+00    0.1950398672E-03    0.5098620086E-02
    0.4900000000E+02    0.1150845891E-03    0.1636505591E-04    0.5082291596E+00    0.1967275689E-03    0.5110135583E-02
    0.1000000000E+02    0.6572978083E-04    0.9408060140E-05    0.2484738802E+00    0.1202107281E-03    0.4616171317E-02
    0.3000000000E+02    0.1035765290E-03    0.1475632705E-04    0.4344556958E+00    0.1776804066E-03    0.4965010372E-02
    0.5000000000E+02    0.1154860299E-03    0.1642124964E-04    0.5109695356E+00    0.1975612608E-03    0.5115656572E-02
    0.7000000000E+02    0.1217442656E-03    0.1730371472E-04    0.5526957997E+00    0.2139456308E-03    0.5201356862E-02
    0.9000000000E+02    0.1264659860E-03    0.1798328291E-04    0.5789669536E+00    0.2314128934E-03    0.5257338381E-02
    0.1100000000E+03    0.1308334479E-03    0.1862324687E-04    0.5970286428E+00    0.2505332118E-03    0.5297073038E-02
    0.1300000000E+03    0.1352448277E-03    0.1927703667E-04    0.6102091645E+00    0.2711709571E-03    0.5326870941E-02
    0.1500000000E+03    0.1398409579E-03    0.1996260692E-04    0.6202517437E+00    0.2930935420E-03    0.5350100333E-02
    0.1700000000E+03    0.1446676639E-03    0.2068510245E-04    0.6281577779E+00    0.3160942761E-03    0.5368732264E-02
    0.1900000000E+03    0.1497335647E-03    0.2144481729E-04    0.6345435149E+00    0.3400104048E-03    0.5384001856E-02
    0.2100000000E+03    0.1550326936E-03    0.2224025441E-04    0.6398089845E+00    0.3647181685E-03    0.5396725206E-02
    0.2300000000E+03    0.1605538881E-03    0.2306936498E-04    0.6442251836E+00    0.3901243319E-03    0.5407464836E-02
    0.2500000000E+03    0.1662847928E-03    0.2393005747E-04    0.6479822217E+00    0.4161586947E-03    0.5416622114E-02
    0.2700000000E+03    0.1722135458E-03    0.2482039866E-04    0.6512174052E+00    0.4427683003E-03    0.5424491764E-02
    0.2900000000E+03    0.1783294331E-03    0.2573868123E-04    0.6540323806E+00    0.4699131426E-03    0.5431295524E-02
    0.3100000000E+03    0.1846230793E-03    0.2668343354E-04    0.6565040056E+00    0.4975630210E-03    0.5437203716E-02
    0.3300000000E+03    0.1910864318E-03    0.2765340552E-04    0.6586914713E+00    0.5256952357E-03    0.5442349537E-02
    0.3500000000E+03    0.1977126607E-03    0.2864754597E-04    0.6606411031E+00    0.5542928893E-03    0.5446838793E-02
    0.3700000000E+03    0.2044960299E-03    0.2966497832E-04    0.6623896756E+00    0.5833436252E-03    0.5450756698E-02
    0.3900000000E+03    0.2114317666E-03    0.3070497761E-04    0.6639667539E+00    0.6128386806E-03    0.5454172716E-02
    0.4100000000E+03    0.2185159396E-03    0.3176695000E-04    0.6653963774E+00    0.6427721710E-03    0.5457144092E-02
    0.4300000000E+03    0.2257453508E-03    0.3285041494E-04    0.6666982932E+00    0.6731405425E-03    0.5459718454E-02
    0.4500000000E+03    0.2331174414E-03    0.3395498999E-04    0.6678888734E+00    0.7039421509E-03    0.5461935778E-02
    0.4700000000E+03    0.2406302106E-03    0.3508037787E-04    0.6689818062E+00    0.7351769342E-03    0.5463829877E-02
    0.4900000000E+03    0.2482821468E-03    0.3622635560E-04    0.6699886247E+00    0.7668461566E-03    0.5465429550E-02
    0.1000000000E+03    0.1286598444E-03    0.1830359041E-04    0.5887630668E+00    0.2407696556E-03    0.5278744536E-02
    0.3000000000E+03    0.1814545697E-03    0.2620783174E-04    0.6553070635E+00    0.4836765245E-03    0.5434352503E-02
    0.5000000000E+03    0.2521599492E-03    0.3680701400E-04    0.6704628581E+00    0.7828443896E-03    0.5466126833E-02
    0.7000000000E+03    0.3369496017E-03    0.4949133725E-04    0.6771713926E+00    0.1126677424E-02    0.5469083516E-02
    0.9000000000E+03    0.4362469137E-03    0.6432763317E-04    0.6809539361E+00    0.1521203259E-02    0.5457282944E-02
    0.1100000000E+04    0.5522859974E-03    0.8165229490E-04    0.6833810522E+00    0.1977148576E-02    0.5434629275E-02
    0.1300000000E+04    0.6885794611E-03    0.1019911588E-03    0.6850699799E+00    0.2509200080E-02    0.5402053909E-02
    0.1500000000E+04    0.8500373911E-03    0.1260776948E-03    0.6863126376E+00    0.3136999541E-02    0.5359093877E-02
    0.1700000000E+04    0.1043390289E-02    0.1549163906E-03    0.6872649871E+00    0.3887014350E-02    0.5304296727E-02
    0.1900000000E+04    0.1277901124E-02    0.1898891328E-03    0.6880179221E+00    0.4795416460E-02    0.5235229526E-02
    0.2100000000E+04    0.1566459598E-02    0.2329185405E-03    0.6886279930E+00    0.5912405013E-02    0.5148270923E-02
    0.2300000000E+04    0.1927218042E-02    0.2867120854E-03    0.6891322252E+00    0.7308631074E-02    0.5038217083E-02
    0.2500000000E+04    0.2385954305E-02    0.3551147208E-03    0.6895558744E+00    0.9084482329E-02    0.4897697689E-02
    0.2700000000E+04    0.2979200684E-02    0.4435759829E-03    0.6899167586E+00    0.1138244014E-01    0.4716455231E-02
    0.2900000000E+04    0.3757398521E-02    0.5596214145E-03    0.6902278071E+00    0.1439974691E-01    0.4480818195E-02
    0.3100000000E+04    0.4784666297E-02    0.7128198956E-03    0.6904986295E+00    0.1838832163E-01    0.4174555004E-02
    0.3300000000E+04    0.6124999684E-02    0.9127288855E-03    0.6907365163E+00    0.2360254742E-01    0.3784247036E-02
    0.3500000000E+04    0.7795891513E-02    0.1161981123E-02    0.6909470985E+00    0.3012059781E-01    0.3314219633E-02
    0.3700000000E+04    0.9687755543E-02    0.1444265656E-02    0.6911347941E+00    0.3753042462E-01    0.2808845381E-02
    0.3900000000E+04    0.1153884255E-01    0.1720570293E-02    0.6913031182E+00    0.4482521188E-01    0.2352522264E-02
    0.4100000000E+04    0.1308662623E-01    0.1951738443E-02    0.6914549018E+00    0.5098300947E-01    0.2017261586E-02
    0.4300000000E+04    0.1424972996E-01    0.2125606339E-02    0.6915924509E+00    0.5567593459E-01    0.1812930895E-02
    0.4500000000E+04    0.1510572649E-01    0.2253715569E-02    0.6917176626E+00    0.5919385391E-01    0.1704268043E-02
    0.4700000000E+04    0.1576715698E-01    0.2352834236E-02    0.6918321117E+00    0.6196737471E-01    0.1651546258E-02
    0.4900000000E+04    0.1631715527E-01    0.2435353764E-02    0.6919371165E+00    0.6431666189E-01    0.1627871432E-02
    0.1000000000E+04    0.4919838115E-03    0.7265044720E-04    0.6822869754E+00    0.1740680505E-02    0.5447212648E-02
    0.3000000000E+04    0.4235564910E-02    0.6309295771E-03    0.6903677456E+00    0.1625551839E-01    0.4337535501E-02
    0.5000000000E+04    0.1656658246E-01    0.2472806241E-02    0.6919864316E+00    0.6539486339E-01    0.1621954031E-02
    0.7000000000E+04    0.2046022895E-01    0.3059308480E-02    0.6926733134E+00    0.8305030446E-01    0.1635854675E-02
    0.9000000000E+04    0.2339639629E-01    0.3503982198E-02    0.6930502431E+00    0.9745923648E-01    0.1659399045E-02
    0.1100000000E+05    0.2568817853E-01    0.3853025488E-02    0.6932868912E+00    0.1096285046E+00    0.1678346139E-02
    0.1300000000E+05    0.2750125548E-01    0.4130845455E-02    0.6934483994E+00    0.1200703673E+00    0.1694225649E-02
    0.1500000000E+05    0.2895078561E-01    0.4354433497E-02    0.6935650847E+00    0.1291495167E+00    0.1707912334E-02
    0.1700000000E+05    0.3011907395E-01    0.4535953456E-02    0.6936529456E+00    0.1371330477E+00    0.1719951037E-02
    0.1900000000E+05    0.3106633688E-01    0.4684319697E-02    0.6937212112E+00    0.1442212611E+00    0.1730704606E-02
    0.2100000000E+05    0.3183752622E-01    0.4806198336E-02    0.6937755733E+00    0.1505674611E+00    0.1740427102E-02
    0.2300000000E+05    0.3246679118E-01    0.4906662492E-02    0.6938197292E+00    0.1562910834E+00    0.1749303491E-02
    0.2500000000E+05    0.3298047568E-01    0.4989632837E-02    0.6938561827E+00    0.1614866389E+00    0.1757472698E-02
    0.2700000000E+05    0.3339917979E-01    0.5058180892E-02    0.6938866882E+00    0.1662299546E+00    0.1765041779E-02
    0.2900000000E+05    0.3373920752E-01    0.5114742242E-02    0.6939125107E+00    0.1705826202E+00    0.1772095004E-02
    0.3100000000E+05    0.3401360277E-01    0.5161269233E-02    0.6939345846E+00    0.1745952162E+00    0.1778699924E-02
    0.3300000000E+05    0.3423290297E-01    0.5199342187E-02    0.6939536146E+00    0.1783096975E+00    0.1784911533E-02
    0.3500000000E+05    0.3440569564E-01    0.5230251617E-02    0.6939701417E+00    0.1817611795E+00    0.1790775214E-02
    0.3700000000E+05    0.3453903516E-01    0.5255059836E-02    0.6939845882E+00    0.1849792954E+00    0.1796328859E-02
    0.3900000000E+05    0.3463875856E-01    0.5274647718E-02    0.6939972880E+00    0.1879892409E+00    0.1801604440E-02
    0.4100000000E+05    0.3470972770E-01    0.5289750568E-02    0.6940085087E+00    0.1908125867E+00    0.1806629189E-02
    0.4300000000E+05    0.3475601677E-01    0.5300985949E-02    0.6940184668E+00    0.1934679177E+00    0.1811426489E-02
    0.4500000000E+05    0.3478105899E-01    0.5308875462E-02    0.6940273398E+00    0.1959713402E+00    0.1816016573E-02
    0.4700000000E+05    0.3478776230E-01    0.5313861947E-02    0.6940352741E+00    0.1983368888E+00    0.1820417069E-02
    0.4900000000E+05    0.3477860145E-01    0.5316323183E-02    0.6940423914E+00    0.2005768549E+00    0.1824643427E-02
    0.1000000000E+05    0.2461102187E-01    0.3688718182E-02    0.6931808062E+00    0.1037875802E+00    0.1669330562E-02
    0.3000000000E+05    0.3388389919E-01    0.5139153624E-02    0.6939239677E+00    0.1726286260E+00    0.1775449810E-02
    0.5000000000E+05    0.3476874531E-01    0.5316709849E-02    0.6940456763E+00    0.2016531755E+00    0.1826695623E-02
    0.7000000000E+05    0.3411728913E-01    0.5250084930E-02    0.6940863750E+00    0.2186349374E+00    0.1861194668E-02
    0.9000000000E+05    0.3310318623E-01    0.5120291412E-02    0.6941025385E+00    0.2301442332E+00    0.1887365325E-02
    0.1100000000E+06    0.3203369772E-01    0.4976459448E-02    0.6941086704E+00    0.2386251200E+00    0.1908516160E-02
    0.1300000000E+06    0.3100294697E-01    0.4834527183E-02    0.6941100077E+00    0.2452207842E+00    0.1926298960E-02
    0.1500000000E+06    0.3003916311E-01    0.4699864388E-02    0.6941088354E+00    0.2505470849E+00    0.1941660297E-02
    0.1700000000E+06    0.2914767979E-01    0.4574011905E-02    0.6941062787E+00    0.2549693980E+00    0.1955194281E-02
    0.1900000000E+06    0.2832559008E-01    0.4457036341E-02    0.6941029397E+00    0.2587202623E+00    0.1967298806E-02
    0.2100000000E+06    0.2756723171E-01    0.4348440919E-02    0.6940991606E+00    0.2619558006E+00    0.1978253676E-02
    0.2300000000E+06    0.2686633941E-01    0.4247540187E-02    0.6940951444E+00    0.2647853359E+00    0.1988263291E-02
    0.2500000000E+06    0.2621688683E-01    0.4153618113E-02    0.6940910155E+00    0.2672880661E+00    0.1997481600E-02
    0.2700000000E+06    0.2561338784E-01    0.4065993498E-02    0.6940868515E+00    0.2695229963E+00    0.2006027499E-02
    0.2900000000E+06    0.2505097029E-01    0.3984044314E-02    0.6940827019E+00    0.2715351333E+00    0.2013994764E-02
    0.3100000000E+06    0.2452535596E-01    0.3907213653E-02    0.6940785977E+00    0.2733594998E+00    0.2021458682E-02
    0.3300000000E+06    0.2403280529E-01    0.3835007627E-02    0.6940745588E+00    0.2750238234E+00    0.2028480635E-02
    0.3500000000E+06    0.2357005263E-01    0.3766990026E-02    0.6940705972E+00    0.2765503877E+00    0.2035111335E-02
    0.3700000000E+06    0.2313424314E-01    0.3702776000E-02    0.6940667199E+00    0.2779573388E+00    0.2041393171E-02
    0.3900000000E+06    0.2272287554E-01    0.3642025776E-02    0.6940629306E+00    0.2792596266E+00    0.2047361943E-02
    0.4100000000E+06    0.2233375209E-01    0.3584438870E-02    0.6940592306E+00    0.2804696969E+00    0.2053048167E-02
    0.4300000000E+06    0.2196493556E-01    0.3529748923E-02    0.6940556197E+00    0.2815980077E+00    0.2058478067E-02
    0.4500000000E+06    0.2161471268E-01    0.3477719198E-02    0.6940520968E+00    0.2826534211E+00    0.2063674351E-02
    0.4700000000E+06    0.2128156308E-01    0.3428138693E-02    0.6940486599E+00    0.2836435043E+00    0.2068656811E-02
    0.4900000000E+06    0.2096413306E-01    0.3380818794E-02    0.6940453067E+00    0.2845747640E+00    0.2073442807E-02
    0.1000000000E+06    0.3256706540E-01    0.5048750762E-02    0.6941064257E+00    0.2346742481E+00    0.1898441975E-02
    0.3000000000E+06    0.2478380832E-01    0.3945021459E-02    0.6940806427E+00    0.2724689088E+00    0.2017785522E-02
    0.5000000000E+06    0.2081092991E-01    0.3357953037E-02    0.6940436607E+00    0.2850201246E+00    0.2075766987E-02
    0.7000000000E+06    0.1833734813E-01    0.2986294650E-02    0.6940144777E+00    0.2918779133E+00    0.2114858329E-02
    0.9000000000E+06    0.1660365891E-01    0.2722995406E-02    0.6939908041E+00    0.2963604382E+00    0.2144532608E-02
    0.1100000000E+07    0.1529906562E-01    0.2523283044E-02    0.6939709452E+00    0.2995846339E+00    0.2168524178E-02
    0.1300000000E+07    0.1426991183E-01    0.2364737912E-02    0.6939538473E+00    0.3020473070E+00    0.2188700276E-02
    0.1500000000E+07    0.1343026079E-01    0.2234706751E-02    0.6939388321E+00    0.3040077560E+00    0.2206131953E-02
    0.1700000000E+07    0.1272772640E-01    0.2125421633E-02    0.6939254421E+00    0.3056163659E+00    0.2221491875E-02
    0.1900000000E+07    0.1212827805E-01    0.2031807192E-02    0.6939133547E+00    0.3069671738E+00    0.2235230756E-02
    0.2100000000E+07    0.1160870069E-01    0.1950384150E-02    0.6939023349E+00    0.3081224081E+00    0.2247665657E-02
    0.2300000000E+07    0.1115253039E-01    0.1878674556E-02    0.6938922060E+00    0.3091251109E+00    0.2259028255E-02
    0.2500000000E+07    0.1074771625E-01    0.1814857868E-02    0.6938828319E+00    0.3100061314E+00    0.2269493080E-02
    0.2700000000E+07    0.1038520322E-01    0.1757561549E-02    0.6938741056E+00    0.3107882359E+00    0.2279194951E-02
    0.2900000000E+07    0.1005803517E-01    0.1705728018E-02    0.6938659415E+00    0.3114886418E+00    0.2288240214E-02
    0.3100000000E+07    0.9760766322E-02    0.1658527038E-02    0.6938582699E+00    0.3121206437E+00    0.2296714264E-02
    0.3300000000E+07    0.9489063044E-02    0.1615296240E-02    0.6938510334E+00    0.3126946926E+00    0.2304686726E-02
    0.3500000000E+07    0.9239427030E-02    0.1575499679E-02    0.6938441842E+00    0.3132191327E+00    0.2312215130E-02
    0.3700000000E+07    0.9008998503E-02    0.1538698270E-02    0.6938376820E+00    0.3137007181E+00    0.2319347568E-02
    0.3900000000E+07    0.8795413358E-02    0.1504528294E-02    0.6938314924E+00    0.3141449821E+00    0.2326124659E-02
    0.4100000000E+07    0.8596697596E-02    0.1472685467E-02    0.6938255861E+00    0.3145565069E+00    0.2332581029E-02
    0.4300000000E+07    0.8411188056E-02    0.1442912952E-02    0.6938199376E+00    0.3149391241E+00    0.2338746436E-02
    0.4500000000E+07    0.8237472012E-02    0.1414992217E-02    0.6938145248E+00    0.3152960658E+00    0.2344646648E-02
    0.4700000000E+07    0.8074340557E-02    0.1388735953E-02    0.6938093283E+00    0.3156300797E+00    0.2350304127E-02
    0.4900000000E+07    0.7920752189E-02    0.1363982541E-02    0.6938043310E+00    0.3159435190E+00    0.2355738574E-02
    0.1000000000E+07    0.1590954031E-01    0.2616909735E-02    0.6939804750E+00    0.2980907616E+00    0.2157096066E-02
    0.3000000000E+07    0.9905956547E-02    0.1681593236E-02    0.6938620480E+00    0.3118124833E+00    0.2292543968E-02
    0.5000000000E+07    0.7847249765E-02    0.1352124826E-02    0.6938019024E+00    0.3160931681E+00    0.2358377671E-02
    0.7000000000E+07    0.6711179057E-02    0.1167846127E-02    0.6937608890E+00    0.3183777995E+00    0.2402767080E-02
    0.9000000000E+07    0.5964042059E-02    0.1045535782E-02    0.6937295877E+00    0.3198521690E+00    0.2436464354E-02
    0.1100000000E+08    0.5424179982E-02    0.9565356992E-03    0.6937042003E+00    0.3209041830E+00    0.2463708990E-02
    0.1300000000E+08    0.5010301593E-02    0.8879167262E-03    0.6936828056E+00    0.3217033427E+00    0.2486621026E-02
    0.1500000000E+08    0.4679799330E-02    0.8328592463E-03    0.6936642934E+00    0.3223370312E+00    0.2506416594E-02
    0.1700000000E+08    0.4407880092E-02    0.7873743022E-03    0.6936479631E+00    0.3228554680E+00    0.2523859510E-02
    0.1900000000E+08    0.4178997334E-02    0.7489495509E-03    0.6936333435E+00    0.3232898359E+00    0.2539461575E-02
    0.2100000000E+08    0.3982838237E-02    0.7159120138E-03    0.6936201021E+00    0.3236606555E+00    0.2553582829E-02
    0.2300000000E+08    0.3812254165E-02    0.6870980642E-03    0.6936079957E+00    0.3239820563E+00    0.2566486359E-02
    0.2500000000E+08    0.3662111447E-02    0.6616695083E-03    0.6935968405E+00    0.3242641274E+00    0.2578370360E-02
    0.2700000000E+08    0.3528614666E-02    0.6390049341E-03    0.6935864943E+00    0.3245142913E+00    0.2589387932E-02
