  Pressure (Pa) 22mC5-500 (mol/kg) 23mC5-500 (mol/kg) 24mC5-500 (mol/kg) 2mC6-500 (mol/kg) C7-500 (mol/kg)
    0.1000000000E+01    0.1059837526E-04    0.1523077913E-05    0.3665736686E-01    0.2433220086E-04    0.4219116576E-02
    0.3000000000E+01    0.2800278775E-04    0.4019604230E-05    0.9946686819E-01    0.6286642503E-04    0.4318654756E-02
    0.5000000000E+01    0.4175782377E-04    0.5988564250E-05    0.1513235691E+00    0.9219585197E-04    0.4399342735E-02
    0.7000000000E+01    0.5283833074E-04    0.7571487432E-05    0.1948633544E+00    0.1150003595E-03    0.4467199256E-02
    0.9000000000E+01    0.6190199259E-04    0.8863726308E-05    0.2319390533E+00    0.1330350987E-03    0.4525205480E-02
    0.1100000000E+02    0.6941303554E-04    0.9932516420E-05    0.2638911263E+00    0.1475121253E-03    0.4575418389E-02
    0.1300000000E+02    0.7570840060E-04    0.1082661068E-04    0.2917133265E+00    0.1592929986E-03    0.4619344016E-02
    0.1500000000E+02    0.8103810879E-04    0.1158215020E-04    0.3161579904E+00    0.1690037041E-03    0.4658118081E-02
    0.1700000000E+02    0.8559116918E-04    0.1222642976E-04    0.3378051545E+00    0.1771073614E-03    0.4692615394E-02
    0.1900000000E+02    0.8951278316E-04    0.1278039683E-04    0.3571092116E+00    0.1839519194E-03    0.4723521515E-02
    0.2100000000E+02    0.9291608077E-04    0.1326035540E-04    0.3744311859E+00    0.1898023172E-03    0.4751381672E-02
    0.2300000000E+02    0.9589031084E-04    0.1367915428E-04    0.3900615443E+00    0.1948626678E-03    0.4776635118E-02
    0.2500000000E+02    0.9850667040E-04    0.1404703249E-04    0.4042366319E+00    0.1992918614E-03    0.4799639805E-02
    0.2700000000E+02    0.1008225265E-03    0.1437223112E-04    0.4171507171E+00    0.2032147285E-03    0.4820690445E-02
    0.2900000000E+02    0.1028845222E-03    0.1466144319E-04    0.4289649576E+00    0.2067301496E-03    0.4840031942E-02
    0.3100000000E+02    0.1047308929E-03    0.1492014907E-04    0.4398141663E+00    0.2099170264E-03    0.4857869528E-02
    0.3300000000E+02    0.1063932172E-03    0.1515286974E-04    0.4498119844E+00    0.2128387331E-03    0.4874376519E-02
    0.3500000000E+02    0.1078977547E-03    0.1536336015E-04    0.4590548803E+00    0.2155464721E-03    0.4889700314E-02
    0.3700000000E+02    0.1092664790E-03    0.1555475865E-04    0.4676252763E+00    0.2180818295E-03    0.4903967080E-02
    0.3900000000E+02    0.1105178839E-03    0.1572970326E-04    0.4755940152E+00    0.2204787393E-03    0.4917285465E-02
    0.4100000000E+02    0.1116676175E-03    0.1589042334E-04    0.4830223248E+00    0.2227650065E-03    0.4929749545E-02
    0.4300000000E+02    0.1127289860E-03    0.1603881205E-04    0.4899633965E+00    0.2249634973E-03    0.4941441205E-02
    0.4500000000E+02    0.1137133556E-03    0.1617648447E-04    0.4964636612E+00    0.2270930760E-03    0.4952432055E-02
    0.4700000000E+02    0.1146304769E-03    0.1630482421E-04    0.5025638311E+00    0.2291693473E-03    0.4962785006E-02
    0.4900000000E+02    0.1154887479E-03    0.1642502128E-04    0.5082997536E+00    0.2312052493E-03    0.4972555554E-02
    0.1000000000E+02    0.6582811210E-04    0.9422654081E-05    0.2484867623E+00    0.1406578745E-03    0.4551181651E-02
    0.3000000000E+02    0.1038325483E-03    0.1479430687E-04    0.4345026439E+00    0.2083603751E-03    0.4849127221E-02
    0.5000000000E+02    0.1158981225E-03    0.1648239297E-04    0.5110411704E+00    0.2322114946E-03    0.4977238010E-02
    0.7000000000E+02    0.1223196417E-03    0.1738910998E-04    0.5527850922E+00    0.2520222406E-03    0.5049712374E-02
    0.9000000000E+02    0.1272153599E-03    0.1809453603E-04    0.5790694213E+00    0.2731483976E-03    0.5096730852E-02
    0.1100000000E+03    0.1317694014E-03    0.1876223898E-04    0.5971413275E+00    0.2962619978E-03    0.5129832829E-02
    0.1300000000E+03    0.1363811523E-03    0.1944582724E-04    0.6103300239E+00    0.3212093138E-03    0.5154421914E-02
    0.1500000000E+03    0.1411923540E-03    0.2016338958E-04    0.6203793106E+00    0.3477224979E-03    0.5173381657E-02
    0.1700000000E+03    0.1462495916E-03    0.2092018320E-04    0.6282909623E+00    0.3755634519E-03    0.5188398915E-02
    0.1900000000E+03    0.1515621678E-03    0.2171660342E-04    0.6346814846E+00    0.4045451192E-03    0.5200530318E-02
    0.2100000000E+03    0.1571247622E-03    0.2255124915E-04    0.6399510887E+00    0.4345258469E-03    0.5210473714E-02
    0.2300000000E+03    0.1629268428E-03    0.2342216521E-04    0.6443709034E+00    0.4653995726E-03    0.5218709865E-02
    0.2500000000E+03    0.1689566819E-03    0.2432735336E-04    0.6481311362E+00    0.4970871288E-03    0.5225581588E-02
    0.2700000000E+03    0.1752030504E-03    0.2526497457E-04    0.6513691679E+00    0.5295295134E-03    0.5231340437E-02
    0.2900000000E+03    0.1816558783E-03    0.2623341734E-04    0.6541867026E+00    0.5626828985E-03    0.5236175509E-02
    0.3100000000E+03    0.1883064490E-03    0.2723130816E-04    0.6566606432E+00    0.5965149746E-03    0.5240231910E-02
    0.3300000000E+03    0.1951473868E-03    0.2825749774E-04    0.6588502170E+00    0.6310022723E-03    0.5243622985E-02
    0.3500000000E+03    0.2021725588E-03    0.2931103873E-04    0.6608017784E+00    0.6661281894E-03    0.5246438650E-02
    0.3700000000E+03    0.2093769482E-03    0.3039116169E-04    0.6625521260E+00    0.7018815256E-03    0.5248751203E-02
    0.3900000000E+03    0.2167565254E-03    0.3149725242E-04    0.6641308443E+00    0.7382553851E-03    0.5250619472E-02
    0.4100000000E+03    0.2243081280E-03    0.3262883163E-04    0.6655619892E+00    0.7752463472E-03    0.5252091829E-02
    0.4300000000E+03    0.2320293536E-03    0.3378553736E-04    0.6668653217E+00    0.8128538345E-03    0.5253208422E-02
    0.4500000000E+03    0.2399184674E-03    0.3496710995E-04    0.6680572254E+00    0.8510796264E-03    0.5254002845E-02
    0.4700000000E+03    0.2479743225E-03    0.3617337939E-04    0.6691513985E+00    0.8899274838E-03    0.5254503416E-02
    0.4900000000E+03    0.2561962922E-03    0.3740425459E-04    0.6701593826E+00    0.9294028563E-03    0.5254734161E-02
    0.1000000000E+03    0.1295008500E-03    0.1842846531E-04    0.5888709452E+00    0.2844602266E-03    0.5114600025E-02
    0.3000000000E+03    0.1849569373E-03    0.2672875859E-04    0.6554625713E+00    0.5795157481E-03    0.5238293328E-02
    0.5000000000E+03    0.2603695021E-03    0.3802891024E-04    0.6706341732E+00    0.9493779680E-03    0.5254754875E-02
    0.7000000000E+03    0.3527287461E-03    0.5184078367E-04    0.6773512816E+00    0.1384170745E-02    0.5244667522E-02
    0.9000000000E+03    0.4636249567E-03    0.6840514933E-04    0.6811394696E+00    0.1896175026E-02    0.5219354484E-02
    0.1100000000E+04    0.5970025644E-03    0.8831336572E-04    0.6835707091E+00    0.2505608003E-02    0.5181237611E-02
    0.1300000000E+04    0.7589202895E-03    0.1124708563E-03    0.6852628498E+00    0.3241083059E-02    0.5129845066E-02
    0.1500000000E+04    0.9581407222E-03    0.1421854812E-03    0.6865081229E+00    0.4142903566E-02    0.5062969422E-02
    0.1700000000E+04    0.1207319377E-02    0.1793451877E-03    0.6874626692E+00    0.5268723684E-02    0.4976721473E-02
    0.1900000000E+04    0.1524962535E-02    0.2267102267E-03    0.6882174932E+00    0.6702576562E-02    0.4865086407E-02
    0.2100000000E+04    0.1938494608E-02    0.2883708783E-03    0.6888292184E+00    0.8568927972E-02    0.4719071729E-02
    0.2300000000E+04    0.2488744483E-02    0.3704170381E-03    0.6893349203E+00    0.1105327392E-01    0.4525482186E-02
    0.2500000000E+04    0.3235259934E-02    0.4817319580E-03    0.6897598910E+00    0.1442681738E-01    0.4265732146E-02
    0.2700000000E+04    0.4257706197E-02    0.6342035113E-03    0.6901219749E+00    0.1905414380E-01    0.3916667680E-02
    0.2900000000E+04    0.5635876066E-02    0.8397482616E-03    0.6904341216E+00    0.2530522472E-01    0.3459630522E-02
    0.3100000000E+04    0.7372754495E-02    0.1098843733E-02    0.6907059562E+00    0.3320967479E-01    0.2908431130E-02
    0.3300000000E+04    0.9272271157E-02    0.1382291018E-02    0.6909447815E+00    0.4189964101E-01    0.2345955643E-02
    0.3500000000E+04    0.1097637598E-01    0.1636712805E-02    0.6911562385E+00    0.4976237025E-01    0.1896266129E-02
    0.3700000000E+04    0.1226306249E-01    0.1828978424E-02    0.6913447533E+00    0.5578085055E-01    0.1617759030E-02
    0.3900000000E+04    0.1317446497E-01    0.1965334419E-02    0.6915138474E+00    0.6012773011E-01    0.1476047263E-02
    0.4100000000E+04    0.1385091555E-01    0.2066684820E-02    0.6916663576E+00    0.6342707233E-01    0.1412447865E-02
    0.4300000000E+04    0.1440107394E-01    0.2149224183E-02    0.6918045944E+00    0.6616630097E-01    0.1386444565E-02
    0.4500000000E+04    0.1488485249E-01    0.2221883878E-02    0.6919304590E+00    0.6861521027E-01    0.1377164258E-02
    0.4700000000E+04    0.1533130689E-01    0.2288995691E-02    0.6920455294E+00    0.7090482492E-01    0.1375060919E-02
    0.4900000000E+04    0.1575395265E-01    0.2352574348E-02    0.6921511268E+00    0.7309597964E-01    0.1375970658E-02
    0.1000000000E+04    0.5271785383E-03    0.7789266055E-04    0.6824747125E+00    0.2187149701E-02    0.5201880084E-02
    0.3000000000E+04    0.6465927220E-02    0.9635615007E-03    0.6905745760E+00    0.2907869916E-01    0.3192480803E-02
    0.5000000000E+04    0.1595847482E-01    0.2383355758E-02    0.6922007284E+00    0.7416414933E-01    0.1376948362E-02
    0.7000000000E+04    0.1942150277E-01    0.2906112761E-02    0.6928923078E+00    0.9307334713E-01    0.1402567246E-02
    0.9000000000E+04    0.2200737649E-01    0.3298874382E-02    0.6932726807E+00    0.1084985457E+00    0.1422771956E-02
    0.1100000000E+05    0.2397738639E-01    0.3600108663E-02    0.6935120542E+00    0.1213741129E+00    0.1439022382E-02
    0.1300000000E+05    0.2549958759E-01    0.3834594639E-02    0.6936758219E+00    0.1323142352E+00    0.1452641874E-02
    0.1500000000E+05    0.2668812982E-01    0.4019194268E-02    0.6937944393E+00    0.1417477815E+00    0.1464380681E-02
    0.1700000000E+05    0.2762295913E-01    0.4165739536E-02    0.6938839895E+00    0.1499836597E+00    0.1474706085E-02
    0.1900000000E+05    0.2836153010E-01    0.4282750423E-02    0.6939537571E+00    0.1572502696E+00    0.1483929281E-02
    0.2100000000E+05    0.2894605290E-01    0.4376498963E-02    0.6940094721E+00    0.1637203050E+00    0.1492268168E-02
    0.2300000000E+05    0.2940813312E-01    0.4451691208E-02    0.6940548593E+00    0.1695268900E+00    0.1499881379E-02
    0.2500000000E+05    0.2977183098E-01    0.4511917358E-02    0.6940924430E+00    0.1747743939E+00    0.1506888065E-02
    0.2700000000E+05    0.3005573095E-01    0.4559956614E-02    0.6941239934E+00    0.1795458681E+00    0.1513380043E-02
    0.2900000000E+05    0.3027437369E-01    0.4597988344E-02    0.6941507878E+00    0.1839082789E+00    0.1519429587E-02
    0.3100000000E+05    0.3043926684E-01    0.4627741318E-02    0.6941737702E+00    0.1879162633E+00    0.1525094633E-02
    0.3300000000E+05    0.3055961146E-01    0.4650601072E-02    0.6941936534E+00    0.1916148736E+00    0.1530422349E-02
    0.3500000000E+05    0.3064283227E-01    0.4667688395E-02    0.6942109850E+00    0.1950416165E+00    0.1535451654E-02
    0.3700000000E+05    0.3069497062E-01    0.4679917544E-02    0.6942261925E+00    0.1982279896E+00    0.1540215050E-02
    0.3900000000E+05    0.3072097934E-01    0.4688039989E-02    0.6942396145E+00    0.2012006541E+00    0.1544739958E-02
    0.4100000000E+05    0.3072494670E-01    0.4692677689E-02    0.6942515223E+00    0.2039823424E+00    0.1549049731E-02
    0.4300000000E+05    0.3071026842E-01    0.4694348665E-02    0.6942621360E+00    0.2065925661E+00    0.1553164427E-02
    0.4500000000E+05    0.3067978106E-01    0.4693486878E-02    0.6942716357E+00    0.2090481759E+00    0.1557101399E-02
    0.4700000000E+05    0.3063586645E-01    0.4690457791E-02    0.6942801704E+00    0.2113638074E+00    0.1560875763E-02
    0.4900000000E+05    0.3058053412E-01    0.4685570690E-02    0.6942878640E+00    0.2135522392E+00    0.1564500772E-02
    0.1000000000E+05    0.2305728842E-01    0.3459152910E-02    0.6934046768E+00    0.1152112851E+00    0.1431289955E-02
    0.3000000000E+05    0.3036291684E-01    0.4613806071E-02    0.6941627064E+00    0.1859535608E+00    0.1522307006E-02
    0.5000000000E+05    0.3054912891E-01    0.4682514129E-02    0.6942914287E+00    0.2146023135E+00    0.1566260974E-02
    0.7000000000E+05    0.2962143665E-01    0.4570426500E-02    0.6943368186E+00    0.2310394031E+00    0.1595851535E-02
    0.9000000000E+05    0.2850337906E-01    0.4421536801E-02    0.6943565300E+00    0.2420330804E+00    0.1618298901E-02
    0.1100000000E+06    0.2741078022E-01    0.4271267019E-02    0.6943655238E+00    0.2500521099E+00    0.1636440767E-02
    0.1300000000E+06    0.2639811395E-01    0.4129530119E-02    0.6943692644E+00    0.2562370131E+00    0.1651693848E-02
    0.1500000000E+06    0.2547432585E-01    0.3998722128E-02    0.6943701663E+00    0.2611966086E+00    0.1664870014E-02
    0.1700000000E+06    0.2463459593E-01    0.3878792209E-02    0.6943694358E+00    0.2652894333E+00    0.1676478831E-02
    0.1900000000E+06    0.2387036288E-01    0.3768903833E-02    0.6943677293E+00    0.2687422431E+00    0.1686861572E-02
    0.2100000000E+06    0.2317268994E-01    0.3668025592E-02    0.6943654270E+00    0.2717064394E+00    0.1696258228E-02
    0.2300000000E+06    0.2253336635E-01    0.3575145810E-02    0.6943627598E+00    0.2742875147E+00    0.1704844114E-02
    0.2500000000E+06    0.2194519437E-01    0.3489345344E-02    0.6943598727E+00    0.2765615481E+00    0.1712751274E-02
    0.2700000000E+06    0.2140198237E-01    0.3409815157E-02    0.6943568598E+00    0.2785849861E+00    0.1720081686E-02
    0.2900000000E+06    0.2089844031E-01    0.3335852696E-02    0.6943537831E+00    0.2804007181E+00    0.1726915784E-02
    0.3100000000E+06    0.2043005303E-01    0.3266850910E-02    0.6943506838E+00    0.2820420003E+00    0.1733318144E-02
    0.3300000000E+06    0.1999295924E-01    0.3202285613E-02    0.6943475902E+00    0.2835350728E+00    0.1739341412E-02
    0.3500000000E+06    0.1958384555E-01    0.3141703415E-02    0.6943445210E+00    0.2849009574E+00    0.1745029087E-02
    0.3700000000E+06    0.1919985673E-01    0.3084711016E-02    0.6943414891E+00    0.2861567214E+00    0.1750417526E-02
    0.3900000000E+06    0.1883852132E-01    0.3030966030E-02    0.6943385030E+00    0.2873163866E+00    0.1755537437E-02
    0.4100000000E+06    0.1849769013E-01    0.2980169239E-02    0.6943355681E+00    0.2883915948E+00    0.1760414992E-02
    0.4300000000E+06    0.1817548575E-01    0.2932058107E-02    0.6943326877E+00    0.2893921033E+00    0.1765072687E-02
    0.4500000000E+06    0.1787026084E-01    0.2886401372E-02    0.6943298638E+00    0.2903261607E+00    0.1769529998E-02
    0.4700000000E+06    0.1758056383E-01    0.2842994526E-02    0.6943270971E+00    0.2912007939E+00    0.1773803901E-02
    0.4900000000E+06    0.1730511037E-01    0.2801656042E-02    0.6943243877E+00    0.2920220318E+00    0.1777909286E-02
    0.1000000000E+06    0.2794876455E-01    0.4345674375E-02    0.6943619165E+00    0.2463254022E+00    0.1627799743E-02
    0.3000000000E+06    0.2066010766E-01    0.3300766275E-02    0.6943522342E+00    0.2812413852E+00    0.1730167398E-02
    0.5000000000E+06    0.1717236345E-01    0.2781711201E-02    0.6943230543E+00    0.2924142825E+00    0.1779902949E-02
    0.7000000000E+06    0.1504573204E-01    0.2460136836E-02    0.6942991274E+00    0.2984130054E+00    0.1813435454E-02
    0.9000000000E+06    0.1357242296E-01    0.2235025317E-02    0.6942794423E+00    0.3022908030E+00    0.1838890333E-02
    0.1100000000E+07    0.1247225831E-01    0.2065620824E-02    0.6942628073E+00    0.3050581357E+00    0.1859470731E-02
    0.1300000000E+07    0.1160920350E-01    0.1931903351E-02    0.6942484201E+00    0.3071592237E+00    0.1876778288E-02
    0.1500000000E+07    0.1090808202E-01    0.1822715450E-02    0.6942357466E+00    0.3088238798E+00    0.1891731716E-02
    0.1700000000E+07    0.1032346468E-01    0.1731269766E-02    0.6942244197E+00    0.3101844564E+00    0.1904908007E-02
    0.1900000000E+07    0.9826038081E-02    0.1653162695E-02    0.6942141777E+00    0.3113232382E+00    0.1916693774E-02
    0.2100000000E+07    0.9395913020E-02    0.1585392439E-02    0.6942048279E+00    0.3122944126E+00    0.1927360985E-02
    0.2300000000E+07    0.9019047144E-02    0.1525831033E-02    0.6941962250E+00    0.3131353039E+00    0.1937108368E-02
    0.2500000000E+07    0.8685200823E-02    0.1472921200E-02    0.6941882561E+00    0.3138725657E+00    0.1946085636E-02
    0.2700000000E+07    0.8386704934E-02    0.1425492834E-02    0.6941808326E+00    0.3145258053E+00    0.1954408432E-02
    0.2900000000E+07    0.8117684682E-02    0.1382646979E-02    0.6941738831E+00    0.3151098087E+00    0.1962167981E-02
    0.3100000000E+07    0.7873552333E-02    0.1343679747E-02    0.6941673493E+00    0.3156359637E+00    0.1969437533E-02
    0.3300000000E+07    0.7650665146E-02    0.1308030866E-02    0.6941611833E+00    0.3161132015E+00    0.1976276813E-02
    0.3500000000E+07    0.7446088421E-02    0.1275247935E-02    0.6941553449E+00    0.3165486379E+00    0.1982735171E-02
    0.3700000000E+07    0.7257427433E-02    0.1244961008E-02    0.6941498002E+00    0.3169480213E+00    0.1988853859E-02
    0.3900000000E+07    0.7082705776E-02    0.1216864156E-02    0.6941445205E+00    0.3173160529E+00    0.1994667722E-02
    0.4100000000E+07    0.6920275656E-02    0.1190701841E-02    0.6941394810E+00    0.3176566193E+00    0.2000206461E-02
    0.4300000000E+07    0.6768750665E-02    0.1166258679E-02    0.6941346602E+00    0.3179729655E+00    0.2005495603E-02
    0.4500000000E+07    0.6626954662E-02    0.1143351650E-02    0.6941300394E+00    0.3182678247E+00    0.2010557252E-02
    0.4700000000E+07    0.6493882383E-02    0.1121824074E-02    0.6941256024E+00    0.3185435177E+00    0.2015410677E-02
    0.4900000000E+07    0.6368668719E-02    0.1101540914E-02    0.6941213347E+00    0.3188020293E+00    0.2020072777E-02
    0.1000000000E+07    0.1298619878E-01    0.2144900993E-02    0.6942708015E+00    0.3037782532E+00    0.1849667469E-02
    0.3000000000E+07    0.7992754156E-02    0.1362716438E-02    0.6941705674E+00    0.3153795102E+00    0.1965859999E-02
    0.5000000000E+07    0.6308770780E-02    0.1091828779E-02    0.6941192603E+00    0.3189253855E+00    0.2022336808E-02
    0.7000000000E+07    0.5385022374E-02    0.9412352976E-03    0.6940842053E+00    0.3208031302E+00    0.2060417951E-02
    0.9000000000E+07    0.4779570193E-02    0.8416265667E-03    0.6940574267E+00    0.3220094308E+00    0.2089326852E-02
    0.1100000000E+08    0.4343071272E-02    0.7693118439E-03    0.6940356956E+00    0.3228675242E+00    0.2112700292E-02
    0.1300000000E+08    0.4008984053E-02    0.7136504890E-03    0.6940173755E+00    0.3235178967E+00    0.2132356933E-02
    0.1500000000E+08    0.3742536279E-02    0.6690472830E-03    0.6940015196E+00    0.3240326978E+00    0.2149340033E-02
    0.1700000000E+08    0.3523539617E-02    0.6322370086E-03    0.6939875298E+00    0.3244532719E+00    0.2164304837E-02
    0.1900000000E+08    0.3339357330E-02    0.6011668911E-03    0.6939750035E+00    0.3248052319E+00    0.2177690401E-02
    0.2100000000E+08    0.3181618901E-02    0.5744720046E-03    0.6939636568E+00    0.3251054006E+00    0.2189805590E-02
    0.2300000000E+08    0.3044529037E-02    0.5512041605E-03    0.6939532816E+00    0.3253653430E+00    0.2200876099E-02
    0.2500000000E+08    0.2923930219E-02    0.5306810710E-03    0.6939437207E+00    0.3255933056E+00    0.2211071956E-02
    0.2700000000E+08    0.2816751445E-02    0.5123973699E-03    0.6939348526E+00    0.3257953479E+00    0.2220524501E-02
