  Pressure (Pa) 22mC5-500 (mol/kg) 23mC5-500 (mol/kg) 24mC5-500 (mol/kg) 2mC6-500 (mol/kg) C7-500 (mol/kg)
    0.1000000000E+01    0.8224802407E-05    0.1770830334E-05    0.1741079630E+00    0.1330215875E-04    0.4168218375E-02
    0.3000000000E+01    0.1526340199E-04    0.3275242361E-05    0.3481246612E+00    0.2348688654E-04    0.4192278368E-02
    0.5000000000E+01    0.1826621460E-04    0.3912479349E-05    0.4351016603E+00    0.2768495578E-04    0.4201528422E-02
    0.7000000000E+01    0.1992937386E-04    0.4264895199E-05    0.4872791156E+00    0.3033400965E-04    0.4206737521E-02
    0.9000000000E+01    0.2104227729E-04    0.4501780227E-05    0.5220609601E+00    0.3253368818E-04    0.4210084449E-02
    0.1100000000E+02    0.2190170117E-04    0.4686281523E-05    0.5469038428E+00    0.3462279413E-04    0.4212397932E-02
    0.1300000000E+02    0.2263709453E-04    0.4845699521E-05    0.5655354207E+00    0.3671572129E-04    0.4214072884E-02
    0.1500000000E+02    0.2331068075E-04    0.4993022246E-05    0.5800263699E+00    0.3885037821E-04    0.4215323676E-02
    0.1700000000E+02    0.2395440194E-04    0.5134834774E-05    0.5916189944E+00    0.4103648936E-04    0.4216277425E-02
    0.1900000000E+02    0.2458538822E-04    0.5274614042E-05    0.6011038051E+00    0.4327318205E-04    0.4217014555E-02
    0.2100000000E+02    0.2521306638E-04    0.5414234544E-05    0.6090077864E+00    0.4555584085E-04    0.4217588560E-02
    0.2300000000E+02    0.2584266775E-04    0.5554706823E-05    0.6156957622E+00    0.4787886784E-04    0.4218036473E-02
    0.2500000000E+02    0.2647705860E-04    0.5696560257E-05    0.6214283143E+00    0.5023678395E-04    0.4218384782E-02
    0.2700000000E+02    0.2711773879E-04    0.5840050343E-05    0.6263965327E+00    0.5262463329E-04    0.4218652955E-02
    0.2900000000E+02    0.2776540643E-04    0.5985274896E-05    0.6307437329E+00    0.5503809137E-04    0.4218855639E-02
    0.3100000000E+02    0.2842028635E-04    0.6132240986E-05    0.6345795077E+00    0.5747345057E-04    0.4219004072E-02
    0.3300000000E+02    0.2908232549E-04    0.6280904299E-05    0.6379890954E+00    0.5992755938E-04    0.4219107027E-02
    0.3500000000E+02    0.2975131110E-04    0.6431192614E-05    0.6410397889E+00    0.6239774905E-04    0.4219171459E-02
    0.3700000000E+02    0.3042694309E-04    0.6583019914E-05    0.6437854223E+00    0.6488176193E-04    0.4219202954E-02
    0.3900000000E+02    0.3110887843E-04    0.6736294876E-05    0.6462695753E+00    0.6737768716E-04    0.4219206053E-02
    0.4100000000E+02    0.3179675854E-04    0.6890925932E-05    0.6485279042E+00    0.6988390508E-04    0.4219184487E-02
    0.4300000000E+02    0.3249022583E-04    0.7046824214E-05    0.6505898638E+00    0.7239904017E-04    0.4219141353E-02
    0.4500000000E+02    0.3318893360E-04    0.7203905190E-05    0.6524800001E+00    0.7492192176E-04    0.4219079241E-02
    0.4700000000E+02    0.3389255156E-04    0.7362089486E-05    0.6542189314E+00    0.7745155123E-04    0.4219000336E-02
    0.4900000000E+02    0.3460076876E-04    0.7521303207E-05    0.6558241043E+00    0.7998707491E-04    0.4218906496E-02
    0.1000000000E+02    0.2149331883E-04    0.4598389268E-05    0.5354380175E+00    0.3358217094E-04    0.4211339735E-02
    0.3000000000E+02    0.2809194333E-04    0.6058542147E-05    0.6327197367E+00    0.5625324249E-04    0.4218936040E-02
    0.5000000000E+02    0.3495651050E-04    0.7601274516E-05    0.6565812632E+00    0.8125681427E-04    0.4218854481E-02
    0.7000000000E+02    0.4225307569E-04    0.9240863087E-05    0.6673683404E+00    0.1068307565E-03    0.4217317131E-02
    0.9000000000E+02    0.4978962075E-04    0.1093283514E-04    0.6735159711E+00    0.1325802220E-03    0.4215234196E-02
    0.1100000000E+03    0.5747868277E-04    0.1265769786E-04    0.6774875200E+00    0.1584188234E-03    0.4212881455E-02
    0.1300000000E+03    0.6527922974E-04    0.1440650235E-04    0.6802646507E+00    0.1843369724E-03    0.4210371511E-02
    0.1500000000E+03    0.7317098485E-04    0.1617491513E-04    0.6823157485E+00    0.2103468260E-03    0.4207758774E-02
    0.1700000000E+03    0.8114373601E-04    0.1796080860E-04    0.6838926091E+00    0.2364663777E-03    0.4205072529E-02
    0.1900000000E+03    0.8919251219E-04    0.1976318970E-04    0.6851426594E+00    0.2627143686E-03    0.4202329737E-02
    0.2100000000E+03    0.9731522976E-04    0.2158168290E-04    0.6861579561E+00    0.2891086503E-03    0.4199540735E-02
    0.2300000000E+03    0.1055114675E-03    0.2341626382E-04    0.6869989490E+00    0.3156657436E-03    0.4196712046E-02
    0.2500000000E+03    0.1137817946E-03    0.2526711440E-04    0.6877069740E+00    0.3424008250E-03    0.4193847875E-02
    0.2700000000E+03    0.1221273873E-03    0.2713454097E-04    0.6883112542E+00    0.3693278559E-03    0.4190950955E-02
    0.2900000000E+03    0.1305498011E-03    0.2901892628E-04    0.6888330338E+00    0.3964597502E-03    0.4188023052E-02
    0.3100000000E+03    0.1390508341E-03    0.3092070072E-04    0.6892881274E+00    0.4238085369E-03    0.4185065272E-02
    0.3300000000E+03    0.1476324411E-03    0.3284032479E-04    0.6896885502E+00    0.4513855075E-03    0.4182078267E-02
    0.3500000000E+03    0.1562966813E-03    0.3477827827E-04    0.6900435947E+00    0.4792013421E-03    0.4179062361E-02
    0.3700000000E+03    0.1650456839E-03    0.3673505357E-04    0.6903605603E+00    0.5072662172E-03    0.4176017645E-02
    0.3900000000E+03    0.1738816275E-03    0.3871115160E-04    0.6906452605E+00    0.5355898962E-03    0.4172944030E-02
    0.4100000000E+03    0.1828067273E-03    0.4070707935E-04    0.6909023827E+00    0.5641818065E-03    0.4169841299E-02
    0.4300000000E+03    0.1918232268E-03    0.4272334854E-04    0.6911357485E+00    0.5930511039E-03    0.4166709131E-02
    0.4500000000E+03    0.2009333937E-03    0.4476047491E-04    0.6913485045E+00    0.6222067283E-03    0.4163547127E-02
    0.4700000000E+03    0.2101395179E-03    0.4681897802E-04    0.6915432648E+00    0.6516574500E-03    0.4160354825E-02
    0.4900000000E+03    0.2194439110E-03    0.4889938128E-04    0.6917222199E+00    0.6814119110E-03    0.4157131712E-02
    0.1000000000E+03    0.5361833032E-04    0.1179186629E-04    0.6756945322E+00    0.1454898168E-03    0.4214082505E-02
    0.3000000000E+03    0.1347903709E-03    0.2996761163E-04    0.6890680910E+00    0.4101063106E-03    0.4186547847E-02
    0.5000000000E+03    0.2241336867E-03    0.4994796016E-04    0.6918063596E+00    0.6964057179E-03    0.4155508430E-02
    0.7000000000E+03    0.3236758624E-03    0.7220175677E-04    0.6929863552E+00    0.1014308951E-02    0.4121272047E-02
    0.9000000000E+03    0.4359458628E-03    0.9729794564E-04    0.6936434968E+00    0.1372552400E-02    0.4083148806E-02
    0.1100000000E+04    0.5639436937E-03    0.1259085711E-03    0.6940622185E+00    0.1780969218E-02    0.4040244899E-02
    0.1300000000E+04    0.7113963603E-03    0.1588675520E-03    0.6943523179E+00    0.2251614198E-02    0.3991448718E-02
    0.1500000000E+04    0.8830685865E-03    0.1972405872E-03    0.6945651490E+00    0.2799839397E-02    0.3935354239E-02
    0.1700000000E+04    0.1085175376E-02    0.2424175788E-03    0.6947279404E+00    0.3445650685E-02    0.3870150696E-02
    0.1900000000E+04    0.1325956372E-02    0.2962411695E-03    0.6948564731E+00    0.4215574527E-02    0.3793469944E-02
    0.2100000000E+04    0.1616488749E-02    0.3611886189E-03    0.6949605243E+00    0.5145294902E-02    0.3702175566E-02
    0.2300000000E+04    0.1971834006E-02    0.4406283987E-03    0.6950464747E+00    0.6283377538E-02    0.3592075682E-02
    0.2500000000E+04    0.2412611612E-02    0.5391723529E-03    0.6951186649E+00    0.7696395355E-02    0.3457549820E-02
    0.2700000000E+04    0.2966997088E-02    0.6631229958E-03    0.6951801508E+00    0.9475473644E-02    0.3291121655E-02
    0.2900000000E+04    0.3672750861E-02    0.8209281179E-03    0.6952331461E+00    0.1174303468E-01    0.3083143829E-02
    0.3100000000E+04    0.4577701393E-02    0.1023290466E-02    0.6952792934E+00    0.1465474039E-01    0.2822122419E-02
    0.3300000000E+04    0.5734257155E-02    0.1281943171E-02    0.6953198377E+00    0.1838245752E-01    0.2496994299E-02
    0.3500000000E+04    0.7178955871E-02    0.1605079747E-02    0.6953557391E+00    0.2304919668E-01    0.2103714892E-02
    0.3700000000E+04    0.8888657935E-02    0.1987558674E-02    0.6953877507E+00    0.2858827434E-01    0.1657550441E-02
    0.3900000000E+04    0.1073243591E-01    0.2400136148E-02    0.6954164709E+00    0.3458641391E-01    0.1203761799E-02
    0.4100000000E+04    0.1249065924E-01    0.2793714048E-02    0.6954423814E+00    0.4034051056E-01    0.8064059094E-03
    0.4300000000E+04    0.1397633336E-01    0.3126461222E-02    0.6954658745E+00    0.4524517072E-01    0.5111011019E-03
    0.4500000000E+04    0.1513665418E-01    0.3386535788E-02    0.6954872725E+00    0.4912252631E-01    0.3210225236E-03
    0.4700000000E+04    0.1602791570E-01    0.3586495904E-02    0.6955068430E+00    0.5214664441E-01    0.2106833862E-03
    0.4900000000E+04    0.1673613886E-01    0.3745559698E-02    0.6955248100E+00    0.5459018075E-01    0.1505760555E-03
    0.1000000000E+04    0.4977661745E-03    0.1111163669E-03    0.6938737452E+00    0.1569799590E-02    0.4062358069E-02
    0.3000000000E+04    0.4097020112E-02    0.9157995939E-03    0.6952569902E+00    0.1310757173E-01    0.2960014406E-02
    0.5000000000E+04    0.1704442034E-01    0.3814853308E-02    0.6955332523E+00    0.5566699042E-01    0.1322049723E-03
    0.7000000000E+04    0.2142131742E-01    0.4801843890E-02    0.6956512468E+00    0.7172929980E-01    0.8641086020E-04
    0.9000000000E+04    0.2471192688E-01    0.5547475362E-02    0.6957165456E+00    0.8470597774E-01    0.8755551022E-04
    0.1100000000E+05    0.2733769313E-01    0.6145291454E-02    0.6957579286E+00    0.9579116746E-01    0.8853984532E-04
    0.1300000000E+05    0.2946001483E-01    0.6630930372E-02    0.6957864561E+00    0.1053964665E+00    0.8936746284E-04
    0.1500000000E+05    0.3119324410E-01    0.7029676159E-02    0.6958072844E+00    0.1138195500E+00    0.9008231521E-04
    0.1700000000E+05    0.3262063266E-01    0.7359962450E-02    0.6958231403E+00    0.1212818209E+00    0.9071208859E-04
    0.1900000000E+05    0.3380409929E-01    0.7635519217E-02    0.6958356009E+00    0.1279515350E+00    0.9127531948E-04
    0.2100000000E+05    0.3479055658E-01    0.7866764342E-02    0.6958456410E+00    0.1339589658E+00    0.9178503978E-04
    0.2300000000E+05    0.3561612779E-01    0.8061731832E-02    0.6958538958E+00    0.1394066400E+00    0.9225076747E-04
    0.2500000000E+05    0.3630902815E-01    0.8226706575E-02    0.6958607966E+00    0.1443764191E+00    0.9267967019E-04
    0.2700000000E+05    0.3689157727E-01    0.8366668025E-02    0.6958666465E+00    0.1489345088E+00    0.9307728296E-04
    0.2900000000E+05    0.3738163224E-01    0.8485606432E-02    0.6958716647E+00    0.1531350712E+00    0.9344797081E-04
    0.3100000000E+05    0.3779362614E-01    0.8586752184E-02    0.6958760137E+00    0.1570228763E+00    0.9379523801E-04
    0.3300000000E+05    0.3813933239E-01    0.8672744766E-02    0.6958798163E+00    0.1606352784E+00    0.9412194129E-04
    0.3500000000E+05    0.3842843537E-01    0.8745758995E-02    0.6958831672E+00    0.1640037107E+00    0.9443044069E-04
    0.3700000000E+05    0.3866896194E-01    0.8807600564E-02    0.6958861405E+00    0.1671548304E+00    0.9472270885E-04
    0.3900000000E+05    0.3886761158E-01    0.8859779207E-02    0.6958887950E+00    0.1701114058E+00    0.9500041169E-04
    0.4100000000E+05    0.3903001167E-01    0.8903565336E-02    0.6958911780E+00    0.1728930113E+00    0.9526496916E-04
    0.4300000000E+05    0.3916091690E-01    0.8940034309E-02    0.6958933279E+00    0.1755165775E+00    0.9551760152E-04
    0.4500000000E+05    0.3926436647E-01    0.8970101358E-02    0.6958952762E+00    0.1779968310E+00    0.9575936532E-04
    0.4700000000E+05    0.3934380897E-01    0.8994549381E-02    0.6958970492E+00    0.1803466472E+00    0.9599118146E-04
    0.4900000000E+05    0.3940220245E-01    0.9014051217E-02    0.6958986685E+00    0.1825773383E+00    0.9621385764E-04
    0.1000000000E+05    0.2609647362E-01    0.5862334940E-02    0.6957393277E+00    0.9045601454E-01    0.8807095086E-04
    0.3000000000E+05    0.3759659613E-01    0.8538226226E-02    0.6958739144E+00    0.1551155795E+00    0.9362434028E-04
    0.5000000000E+05    0.3942431627E-01    0.9022131985E-02    0.6958994265E+00    0.1836511781E+00    0.9632199415E-04
    0.7000000000E+05    0.3922424315E-01    0.9029947084E-02    0.6959097611E+00    0.2007745417E+00    0.9814082769E-04
    0.9000000000E+05    0.3844027100E-01    0.8892818915E-02    0.6959151651E+00    0.2125943485E+00    0.9952157191E-04
    0.1100000000E+06    0.3748705310E-01    0.8708384506E-02    0.6959183862E+00    0.2214325325E+00    0.1006379506E-03
    0.1300000000E+06    0.3650856797E-01    0.8511781737E-02    0.6959204637E+00    0.2283910312E+00    0.1015768264E-03
    0.1500000000E+06    0.3555887677E-01    0.8316947137E-02    0.6959218741E+00    0.2340702131E+00    0.1023880236E-03
    0.1700000000E+06    0.3465780083E-01    0.8129528030E-02    0.6959228655E+00    0.2388296533E+00    0.1031028344E-03
    0.1900000000E+06    0.3381105177E-01    0.7951632610E-02    0.6959235788E+00    0.2429001098E+00    0.1037422262E-03
    0.2100000000E+06    0.3301833013E-01    0.7783781342E-02    0.6959240997E+00    0.2464376760E+00    0.1043209488E-03
    0.2300000000E+06    0.3227682597E-01    0.7625772802E-02    0.6959244830E+00    0.2495524079E+00    0.1048497802E-03
    0.2500000000E+06    0.3158280069E-01    0.7477088636E-02    0.6959247652E+00    0.2523245444E+00    0.1053368399E-03
    0.2700000000E+06    0.3093231511E-01    0.7337089156E-02    0.6959249716E+00    0.2548142229E+00    0.1057884003E-03
    0.2900000000E+06    0.3032156004E-01    0.7205108885E-02    0.6959251200E+00    0.2570675706E+00    0.1062094087E-03
    0.3100000000E+06    0.2974699610E-01    0.7080502511E-02    0.6959252235E+00    0.2591206722E+00    0.1066038383E-03
    0.3300000000E+06    0.2920540099E-01    0.6962665662E-02    0.6959252917E+00    0.2610022388E+00    0.1069749282E-03
    0.3500000000E+06    0.2869387222E-01    0.6851042756E-02    0.6959253319E+00    0.2627354538E+00    0.1073253552E-03
    0.3700000000E+06    0.2820980933E-01    0.6745128280E-02    0.6959253496E+00    0.2643392811E+00    0.1076573567E-03
    0.3900000000E+06    0.2775088780E-01    0.6644464796E-02    0.6959253492E+00    0.2658294119E+00    0.1079728227E-03
    0.4100000000E+06    0.2731503062E-01    0.6548639478E-02    0.6959253341E+00    0.2672189624E+00    0.1082733641E-03
    0.4300000000E+06    0.2690038061E-01    0.6457280099E-02    0.6959253070E+00    0.2685189972E+00    0.1085603657E-03
    0.4500000000E+06    0.2650527479E-01    0.6370050974E-02    0.6959252699E+00    0.2697389279E+00    0.1088350263E-03
    0.4700000000E+06    0.2612822128E-01    0.6286649092E-02    0.6959252248E+00    0.2708868196E+00    0.1090983910E-03
    0.4900000000E+06    0.2576787888E-01    0.6206800566E-02    0.6959251730E+00    0.2719696313E+00    0.1093513766E-03
    0.1000000000E+06    0.3797260514E-01    0.8803566936E-02    0.6959169637E+00    0.2173006692E+00    0.1001061702E-03
    0.3000000000E+06    0.3002996318E-01    0.7141922829E-02    0.6959251767E+00    0.2581172097E+00    0.1064097285E-03
    0.5000000000E+06    0.2559359195E-01    0.6168130385E-02    0.6959251450E+00    0.2724885518E+00    0.1094742337E-03
    0.7000000000E+06    0.2274725126E-01    0.5532074462E-02    0.6959244288E+00    0.2805714552E+00    0.1115407964E-03
    0.9000000000E+06    0.2071766277E-01    0.5073379393E-02    0.6959236375E+00    0.2859546591E+00    0.1131097316E-03
    0.1100000000E+07    0.1917248048E-01    0.4721255105E-02    0.6959228810E+00    0.2898794187E+00    0.1143783280E-03
    0.1300000000E+07    0.1794297530E-01    0.4439227644E-02    0.6959221805E+00    0.2929085399E+00    0.1154452501E-03
    0.1500000000E+07    0.1693309456E-01    0.4206320645E-02    0.6959215361E+00    0.2953401283E+00    0.1163670989E-03
    0.1700000000E+07    0.1608351699E-01    0.4009478073E-02    0.6959209426E+00    0.2973491373E+00    0.1171794254E-03
    0.1900000000E+07    0.1535531257E-01    0.3840077714E-02    0.6959203940E+00    0.2990460483E+00    0.1179060518E-03
    0.2100000000E+07    0.1472170374E-01    0.3692157498E-02    0.6959198847E+00    0.3005045849E+00    0.1185637372E-03
    0.2300000000E+07    0.1416356879E-01    0.3561440546E-02    0.6959194097E+00    0.3017761100E+00    0.1191647281E-03
    0.2500000000E+07    0.1366682908E-01    0.3444765361E-02    0.6959189651E+00    0.3028976700E+00    0.1197182505E-03
    0.2700000000E+07    0.1322085201E-01    0.3339735789E-02    0.6959185471E+00    0.3038967585E+00    0.1202314315E-03
    0.2900000000E+07    0.1281743307E-01    0.3244496937E-02    0.6959181529E+00    0.3047942730E+00    0.1207098934E-03
    0.3100000000E+07    0.1245012373E-01    0.3157586653E-02    0.6959177800E+00    0.3056064228E+00    0.1211581505E-03
    0.3300000000E+07    0.1211377413E-01    0.3077834127E-02    0.6959174261E+00    0.3063460027E+00    0.1215798840E-03
    0.3500000000E+07    0.1180421378E-01    0.3004288863E-02    0.6959170894E+00    0.3070232671E+00    0.1219781355E-03
    0.3700000000E+07    0.1151802350E-01    0.2936169806E-02    0.6959167683E+00    0.3076465446E+00    0.1223554477E-03
    0.3900000000E+07    0.1125236923E-01    0.2872828173E-02    0.6959164614E+00    0.3082226807E+00    0.1227139683E-03
    0.4100000000E+07    0.1100487876E-01    0.2813719830E-02    0.6959161675E+00    0.3087573608E+00    0.1230555279E-03
    0.4300000000E+07    0.1077354895E-01    0.2758384420E-02    0.6959158855E+00    0.3092553524E+00    0.1233817002E-03
    0.4500000000E+07    0.1055667471E-01    0.2706429392E-02    0.6959156146E+00    0.3097206872E+00    0.1236938475E-03
    0.4700000000E+07    0.1035279413E-01    0.2657517609E-02    0.6959153537E+00    0.3101568010E+00    0.1239931577E-03
    0.4900000000E+07    0.1016064545E-01    0.2611357626E-02    0.6959151023E+00    0.3105666432E+00    0.1242806723E-03
    0.1000000000E+07    0.1989741931E-01    0.4886774833E-02    0.6959232527E+00    0.2880552869E+00    0.1137740340E-03
    0.3000000000E+07    0.1262961273E-01    0.3200079778E-02    0.6959179639E+00    0.3052101506E+00    0.1209375505E-03
    0.5000000000E+07    0.1006862247E-01    0.2589229047E-02    0.6959149799E+00    0.3107625222E+00    0.1244202978E-03
    0.7000000000E+07    0.8640812532E-02    0.2243978225E-02    0.6959128955E+00    0.3137694965E+00    0.1267689267E-03
    0.9000000000E+07    0.7696230391E-02    0.2013437847E-02    0.6959112872E+00    0.3157269391E+00    0.1285520135E-03
    0.1100000000E+08    0.7010959850E-02    0.1844997042E-02    0.6959099745E+00    0.3171320077E+00    0.1299937694E-03
    0.1300000000E+08    0.6484055962E-02    0.1714738914E-02    0.6959088637E+00    0.3182041274E+00    0.1312063242E-03
    0.1500000000E+08    0.6062334200E-02    0.1609980575E-02    0.6959078997E+00    0.3190572339E+00    0.1322540042E-03
    0.1700000000E+08    0.5714724772E-02    0.1523273411E-02    0.6959070476E+00    0.3197571694E+00    0.1331772124E-03
    0.1900000000E+08    0.5421684422E-02    0.1449911020E-02    0.6959062834E+00    0.3203449990E+00    0.1340030227E-03
    0.2100000000E+08    0.5170215896E-02    0.1386751134E-02    0.6959055904E+00    0.3208478461E+00    0.1347504817E-03
    0.2300000000E+08    0.4951290376E-02    0.1331603343E-02    0.6959049561E+00    0.3212844448E+00    0.1354335074E-03
    0.2500000000E+08    0.4758412038E-02    0.1282886843E-02    0.6959043711E+00    0.3216682083E+00    0.1360625852E-03
    0.2700000000E+08    0.4586770714E-02    0.1239427750E-02    0.6959038281E+00    0.3220090273E+00    0.1366458151E-03
