  Pressure (Pa) 22mC5-500 (mol/kg) 23mC5-500 (mol/kg) 24mC5-500 (mol/kg) 2mC6-500 (mol/kg) C7-500 (mol/kg)
    0.1000000000E+01    0.7852553056E-05    0.5634074550E-06    0.1949960307E+00    0.1518308795E-04    0.4167567941E-02
    0.3000000000E+01    0.1395545326E-04    0.9977647927E-06    0.3748937866E+00    0.2569656851E-04    0.4189872103E-02
    0.5000000000E+01    0.1640554756E-04    0.1170973578E-05    0.4597215761E+00    0.2996401901E-04    0.4197825086E-02
    0.7000000000E+01    0.1776431037E-04    0.1267168981E-05    0.5090914983E+00    0.3287193768E-04    0.4202106333E-02
    0.9000000000E+01    0.1870935322E-04    0.1334637768E-05    0.5413927899E+00    0.3546972523E-04    0.4204760075E-02
    0.1100000000E+02    0.1947834616E-04    0.1390150884E-05    0.5641727283E+00    0.3804024818E-04    0.4206533125E-02
    0.1300000000E+02    0.2016913221E-04    0.1440533564E-05    0.5811005208E+00    0.4066310286E-04    0.4207771610E-02
    0.1500000000E+02    0.2082621466E-04    0.1488846743E-05    0.5941746427E+00    0.4335584436E-04    0.4208659688E-02
    0.1700000000E+02    0.2147113170E-04    0.1536544995E-05    0.6045765948E+00    0.4611624361E-04    0.4209304912E-02
    0.1900000000E+02    0.2211465946E-04    0.1584337833E-05    0.6130496708E+00    0.4893628945E-04    0.4209774529E-02
    0.2100000000E+02    0.2276221577E-04    0.1632568376E-05    0.6200848782E+00    0.5180703259E-04    0.4210112842E-02
    0.2300000000E+02    0.2341643461E-04    0.1681392284E-05    0.6260196049E+00    0.5472021225E-04    0.4210350276E-02
    0.2500000000E+02    0.2407846343E-04    0.1730867093E-05    0.6310933394E+00    0.5766870476E-04    0.4210508451E-02
    0.2700000000E+02    0.2474864554E-04    0.1780998697E-05    0.6354807789E+00    0.6064654266E-04    0.4210603165E-02
    0.2900000000E+02    0.2542689124E-04    0.1831766295E-05    0.6393123520E+00    0.6364879004E-04    0.4210646241E-02
    0.3100000000E+02    0.2611288421E-04    0.1883136041E-05    0.6426874054E+00    0.6667138416E-04    0.4210646713E-02
    0.3300000000E+02    0.2680619827E-04    0.1935068601E-05    0.6456829429E+00    0.6971098404E-04    0.4210611605E-02
    0.3500000000E+02    0.2750636362E-04    0.1987523326E-05    0.6483595712E+00    0.7276483897E-04    0.4210546462E-02
    0.3700000000E+02    0.2821290424E-04    0.2040460511E-05    0.6507656447E+00    0.7583067912E-04    0.4210455727E-02
    0.3900000000E+02    0.2892535852E-04    0.2093842561E-05    0.6529402123E+00    0.7890662635E-04    0.4210342996E-02
    0.4100000000E+02    0.2964329007E-04    0.2147634532E-05    0.6549151530E+00    0.8199112208E-04    0.4210211219E-02
    0.4300000000E+02    0.3036629272E-04    0.2201804312E-05    0.6567167498E+00    0.8508286924E-04    0.4210062834E-02
    0.4500000000E+02    0.3109399209E-04    0.2256322604E-05    0.6583668655E+00    0.8818078553E-04    0.4209899877E-02
    0.4700000000E+02    0.3182604533E-04    0.2311162793E-05    0.6598838347E+00    0.9128396570E-04    0.4209724061E-02
    0.4900000000E+02    0.3256213966E-04    0.2366300771E-05    0.6612831480E+00    0.9439165103E-04    0.4209536838E-02
    0.1000000000E+02    0.1910791354E-04    0.1363332883E-05    0.5536888680E+00    0.3675110646E-04    0.4205729663E-02
    0.3000000000E+02    0.2576894433E-04    0.1857378290E-05    0.6410516876E+00    0.6515776783E-04    0.4210651324E-02
    0.5000000000E+02    0.3293161226E-04    0.2393974532E-05    0.6619428798E+00    0.9594697990E-04    0.4209439343E-02
    0.7000000000E+02    0.4047692218E-04    0.2958808674E-05    0.6713194815E+00    0.1271811495E-03    0.4207113528E-02
    0.9000000000E+02    0.4822600209E-04    0.3538335628E-05    0.6766445554E+00    0.1585382121E-03    0.4204379760E-02
    0.1100000000E+03    0.5610709169E-04    0.4127297031E-05    0.6800775043E+00    0.1899773203E-03    0.4201446645E-02
    0.1300000000E+03    0.6408941959E-04    0.4723492865E-05    0.6824746598E+00    0.2215170420E-03    0.4198397163E-02
    0.1500000000E+03    0.7215934614E-04    0.5325977234E-05    0.6842433475E+00    0.2531883798E-03    0.4195270196E-02
    0.1700000000E+03    0.8031113724E-04    0.5934374170E-05    0.6856020699E+00    0.2850229141E-03    0.4192085882E-02
    0.1900000000E+03    0.8854299336E-04    0.6548587170E-05    0.6866785587E+00    0.3170498092E-03    0.4188855326E-02
    0.2100000000E+03    0.9685518512E-04    0.7168664402E-05    0.6875524751E+00    0.3492953322E-03    0.4185584862E-02
    0.2300000000E+03    0.1052491170E-03    0.7794731780E-05    0.6882760791E+00    0.3817830918E-03    0.4182278134E-02
    0.2500000000E+03    0.1137268324E-03    0.8426958007E-05    0.6888850781E+00    0.4145344450E-03    0.4178937184E-02
    0.2700000000E+03    0.1222907421E-03    0.9065535631E-05    0.6894046992E+00    0.4475689002E-03    0.4175563060E-02
    0.2900000000E+03    0.1309434706E-03    0.9710670529E-05    0.6898532719E+00    0.4809044688E-03    0.4172156172E-02
    0.3100000000E+03    0.1396877684E-03    0.1036257599E-04    0.6902444343E+00    0.5145579567E-03    0.4168716510E-02
    0.3300000000E+03    0.1485264615E-03    0.1102146943E-04    0.6905885439E+00    0.5485452040E-03    0.4165243774E-02
    0.3500000000E+03    0.1574624226E-03    0.1168757053E-04    0.6908936082E+00    0.5828812797E-03    0.4161737468E-02
    0.3700000000E+03    0.1664985555E-03    0.1236110040E-04    0.6911659152E+00    0.6175806413E-03    0.4158196955E-02
    0.3900000000E+03    0.1756377871E-03    0.1304228112E-04    0.6914104716E+00    0.6526572654E-03    0.4154621493E-02
    0.4100000000E+03    0.1848830646E-03    0.1373133568E-04    0.6916313131E+00    0.6881247565E-03    0.4151010266E-02
    0.4300000000E+03    0.1942373556E-03    0.1442848810E-04    0.6918317292E+00    0.7239964372E-03    0.4147362399E-02
    0.4500000000E+03    0.2037036494E-03    0.1513396363E-04    0.6920144280E+00    0.7602854248E-03    0.4143676972E-02
    0.4700000000E+03    0.2132849605E-03    0.1584798908E-04    0.6921816589E+00    0.7970046959E-03    0.4139953025E-02
    0.4900000000E+03    0.2229843319E-03    0.1657079307E-04    0.6923353061E+00    0.8341671423E-03    0.4136189572E-02
    0.1000000000E+03    0.5215254024E-04    0.3831816593E-05    0.6785283714E+00    0.1742469004E-03    0.4202931404E-02
    0.3000000000E+03    0.1353039980E-03    0.1003576342E-04    0.6900553178E+00    0.4976904627E-03    0.4170440451E-02
    0.5000000000E+03    0.2278792498E-03    0.1693555905E-04    0.6924075427E+00    0.8529185739E-03    0.4134292713E-02
    0.7000000000E+03    0.3327552318E-03    0.2475014808E-04    0.6934203264E+00    0.1254401070E-02    0.4094018847E-02
    0.9000000000E+03    0.4533387019E-03    0.3373440192E-04    0.6939841165E+00    0.1715845233E-02    0.4048469272E-02
    0.1100000000E+04    0.5938353703E-03    0.4420211367E-04    0.6943432662E+00    0.2253637437E-02    0.3996221332E-02
    0.1300000000E+04    0.7597013216E-03    0.5656008567E-04    0.6945920502E+00    0.2888880792E-02    0.3935462362E-02
    0.1500000000E+04    0.9582265581E-03    0.7135174896E-04    0.6947745471E+00    0.3649724629E-02    0.3863812221E-02
    0.1700000000E+04    0.1199364749E-02    0.8931906825E-04    0.6949141224E+00    0.4574604575E-02    0.3778074801E-02
    0.1900000000E+04    0.1496951041E-02    0.1114933660E-03    0.6950243157E+00    0.5716981682E-02    0.3673884525E-02
    0.2100000000E+04    0.1870487315E-02    0.1393284703E-03    0.6951135146E+00    0.7152297678E-02    0.3545209295E-02
    0.2300000000E+04    0.2347663680E-02    0.1748888099E-03    0.6951871920E+00    0.8987833167E-02    0.3383693441E-02
    0.2500000000E+04    0.2967525332E-02    0.2210857634E-03    0.6952490708E+00    0.1137518461E-01    0.3177942837E-02
    0.2700000000E+04    0.3783066161E-02    0.2818715721E-03    0.6953017720E+00    0.1452077783E-01    0.2913269264E-02
    0.2900000000E+04    0.4858504866E-02    0.3620373924E-03    0.6953471937E+00    0.1867627484E-01    0.2573561860E-02
    0.3100000000E+04    0.6248708071E-02    0.4656811190E-03    0.6953867446E+00    0.2406048599E-01    0.2149168209E-02
    0.3300000000E+04    0.7942834115E-02    0.5920075735E-03    0.6954214921E+00    0.3064256027E-01    0.1655117128E-02
    0.3500000000E+04    0.9789749784E-02    0.7297657494E-03    0.6954522596E+00    0.3785113776E-01    0.1150611861E-02
    0.3700000000E+04    0.1151934744E-01    0.8588282553E-03    0.6954796927E+00    0.4464859046E-01    0.7228857065E-03
    0.3900000000E+04    0.1292262557E-01    0.9636086215E-03    0.6955043044E+00    0.5022147462E-01    0.4262950551E-03
    0.4100000000E+04    0.1397608533E-01    0.1042341156E-02    0.6955265078E+00    0.5446715562E-01    0.2521427083E-03
    0.4300000000E+04    0.1477157874E-01    0.1101861690E-02    0.6955466391E+00    0.5773123556E-01    0.1604634918E-03
    0.4500000000E+04    0.1540885697E-01    0.1149600287E-02    0.6955649747E+00    0.6039441801E-01    0.1150275480E-03
    0.4700000000E+04    0.1595564024E-01    0.1190602744E-02    0.6955817440E+00    0.6271650918E-01    0.9317392433E-04
    0.4900000000E+04    0.1645025723E-01    0.1227725357E-02    0.6955971389E+00    0.6484494438E-01    0.8281892778E-04
    0.1000000000E+04    0.5207921193E-03    0.3876002452E-04    0.6941816160E+00    0.1974013591E-02    0.4023284947E-02
    0.3000000000E+04    0.5512450953E-02    0.4107889009E-03    0.6953676296E+00    0.2120720384E-01    0.2371874397E-02
    0.5000000000E+04    0.1668473858E-01    0.1245333657E-02    0.6956043725E+00    0.6586246794E-01    0.7993367199E-04
    0.7000000000E+04    0.2059076496E-01    0.1539461339E-02    0.6957054644E+00    0.8353118018E-01    0.7464895705E-04
    0.9000000000E+04    0.2357595385E-01    0.1765426940E-02    0.6957613995E+00    0.9810985761E-01    0.7569614118E-04
    0.1100000000E+05    0.2591123533E-01    0.1943179316E-02    0.6957968432E+00    0.1104374054E+00    0.7654695021E-04
    0.1300000000E+05    0.2776227129E-01    0.2084917715E-02    0.6958212731E+00    0.1210241848E+00    0.7726223027E-04
    0.1500000000E+05    0.2924464250E-01    0.2199166865E-02    0.6958391075E+00    0.1302348983E+00    0.7788008380E-04
    0.1700000000E+05    0.3044120863E-01    0.2292048055E-02    0.6958526827E+00    0.1383374130E+00    0.7842442408E-04
    0.1900000000E+05    0.3141275235E-01    0.2368059113E-02    0.6958633496E+00    0.1455330921E+00    0.7891126340E-04
    0.2100000000E+05    0.3220475273E-01    0.2430571162E-02    0.6958719436E+00    0.1519763672E+00    0.7935186023E-04
    0.2300000000E+05    0.3285182923E-01    0.2482154847E-02    0.6958790087E+00    0.1577877610E+00    0.7975443800E-04
    0.2500000000E+05    0.3338073597E-01    0.2524800331E-02    0.6958849142E+00    0.1630627871E+00    0.8012518987E-04
    0.2700000000E+05    0.3381242682E-01    0.2560069159E-02    0.6958899199E+00    0.1678781753E+00    0.8046889863E-04
    0.2900000000E+05    0.3416350912E-01    0.2589201277E-02    0.6958942135E+00    0.1722963177E+00    0.8078933624E-04
    0.3100000000E+05    0.3444728624E-01    0.2613191848E-02    0.6958979341E+00    0.1763685037E+00    0.8108953098E-04
    0.3300000000E+05    0.3467451742E-01    0.2632847295E-02    0.6959011870E+00    0.1801373114E+00    0.8137195161E-04
    0.3500000000E+05    0.3485398004E-01    0.2648826815E-02    0.6959040531E+00    0.1836384041E+00    0.8163863774E-04
    0.3700000000E+05    0.3499289118E-01    0.2661673535E-02    0.6959065960E+00    0.1869018968E+00    0.8189129419E-04
    0.3900000000E+05    0.3509722764E-01    0.2671838187E-02    0.6959088660E+00    0.1899534087E+00    0.8213136076E-04
    0.4100000000E+05    0.3517197159E-01    0.2679697303E-02    0.6959109037E+00    0.1928148841E+00    0.8236006469E-04
    0.4300000000E+05    0.3522130108E-01    0.2685567342E-02    0.6959127418E+00    0.1955052374E+00    0.8257846065E-04
    0.4500000000E+05    0.3524873923E-01    0.2689715755E-02    0.6959144074E+00    0.1980408668E+00    0.8278746179E-04
    0.4700000000E+05    0.3525727196E-01    0.2692369744E-02    0.6959159229E+00    0.2004360657E+00    0.8298786410E-04
    0.4900000000E+05    0.3524944184E-01    0.2693723236E-02    0.6959173070E+00    0.2027033553E+00    0.8318036568E-04
    0.1000000000E+05    0.2481303700E-01    0.1859461564E-02    0.6957809125E+00    0.1045189607E+00    0.7614171477E-04
    0.3000000000E+05    0.3431308614E-01    0.2601784976E-02    0.6958961382E+00    0.1743728134E+00    0.8094179830E-04
    0.5000000000E+05    0.3524008284E-01    0.2693965201E-02    0.6959179548E+00    0.2037925302E+00    0.8327384896E-04
    0.7000000000E+05    0.3458331156E-01    0.2660451790E-02    0.6959267829E+00    0.2209487118E+00    0.8484623712E-04
    0.9000000000E+05    0.3355035950E-01    0.2594286842E-02    0.6959313938E+00    0.2325377447E+00    0.8603991439E-04
    0.1100000000E+06    0.3245864712E-01    0.2520809454E-02    0.6959341388E+00    0.2410517115E+00    0.8700505184E-04
    0.1300000000E+06    0.3140573659E-01    0.2448257738E-02    0.6959359067E+00    0.2476553453E+00    0.8781673827E-04
    0.1500000000E+06    0.3042104512E-01    0.2379413795E-02    0.6959371050E+00    0.2529753297E+00    0.8851804562E-04
    0.1700000000E+06    0.2951025946E-01    0.2315080209E-02    0.6959379457E+00    0.2573829341E+00    0.8913602557E-04
    0.1900000000E+06    0.2867050101E-01    0.2255296387E-02    0.6959385492E+00    0.2611141002E+00    0.8968880429E-04
    0.2100000000E+06    0.2789601147E-01    0.2199809562E-02    0.6959389887E+00    0.2643270040E+00    0.9018913312E-04
    0.2300000000E+06    0.2718038795E-01    0.2148268723E-02    0.6959393109E+00    0.2671322483E+00    0.9064632969E-04
    0.2500000000E+06    0.2651745994E-01    0.2100306529E-02    0.6959395472E+00    0.2696098479E+00    0.9106741351E-04
    0.2700000000E+06    0.2590160474E-01    0.2055573247E-02    0.6959397189E+00    0.2718193383E+00    0.9145780693E-04
    0.2900000000E+06    0.2532782654E-01    0.2013749420E-02    0.6959398414E+00    0.2738060732E+00    0.9182178731E-04
    0.3100000000E+06    0.2479173745E-01    0.1974549006E-02    0.6959399258E+00    0.2756053032E+00    0.9216278929E-04
    0.3300000000E+06    0.2428950168E-01    0.1937718330E-02    0.6959399802E+00    0.2772449041E+00    0.9248361337E-04
    0.3500000000E+06    0.2381776951E-01    0.1903033365E-02    0.6959400108E+00    0.2787472541E+00    0.9278657354E-04
    0.3700000000E+06    0.2337361276E-01    0.1870296482E-02    0.6959400224E+00    0.2801305572E+00    0.9307360423E-04
    0.3900000000E+06    0.2295446613E-01    0.1839333232E-02    0.6959400188E+00    0.2814097962E+00    0.9334633932E-04
    0.4100000000E+06    0.2255807588E-01    0.1809989360E-02    0.6959400026E+00    0.2825974322E+00    0.9360617157E-04
    0.4300000000E+06    0.2218245574E-01    0.1782128157E-02    0.6959399764E+00    0.2837039264E+00    0.9385429804E-04
    0.4500000000E+06    0.2182584929E-01    0.1755628144E-02    0.6959399418E+00    0.2847381361E+00    0.9409175524E-04
    0.4700000000E+06    0.2148669813E-01    0.1730381064E-02    0.6959399004E+00    0.2857076178E+00    0.9431944674E-04
    0.4900000000E+06    0.2116361496E-01    0.1706290170E-02    0.6959398534E+00    0.2866188638E+00    0.9453816503E-04
    0.1000000000E+06    0.3300325285E-01    0.2557749520E-02    0.6959329270E+00    0.2370884258E+00    0.8654531348E-04
    0.3000000000E+06    0.2505532277E-01    0.1993837872E-02    0.6959398878E+00    0.2747272365E+00    0.9199497267E-04
    0.5000000000E+06    0.2100770643E-01    0.1694650837E-02    0.6959398281E+00    0.2870544328E+00    0.9464438091E-04
    0.7000000000E+06    0.1849260164E-01    0.1505634038E-02    0.6959391939E+00    0.2937427406E+00    0.9643102665E-04
    0.9000000000E+06    0.1673235478E-01    0.1371925327E-02    0.6959385008E+00    0.2980944119E+00    0.9778745101E-04
    0.1100000000E+07    0.1540923666E-01    0.1270622045E-02    0.6959378408E+00    0.3012139600E+00    0.9888421826E-04
    0.1300000000E+07    0.1436638475E-01    0.1190272932E-02    0.6959372309E+00    0.3035904554E+00    0.9980662835E-04
    0.1500000000E+07    0.1351617092E-01    0.1124422992E-02    0.6959366704E+00    0.3054782733E+00    0.1006036154E-03
    0.1700000000E+07    0.1280522998E-01    0.1069113485E-02    0.6959361546E+00    0.3070245294E+00    0.1013059149E-03
    0.1900000000E+07    0.1219892396E-01    0.1021760106E-02    0.6959356781E+00    0.3083210010E+00    0.1019341225E-03
    0.2100000000E+07    0.1167364048E-01    0.9805925771E-03    0.6959352360E+00    0.3094282996E+00    0.1025027270E-03
    0.2300000000E+07    0.1121264437E-01    0.9443509264E-03    0.6959348238E+00    0.3103882756E+00    0.1030223161E-03
    0.2500000000E+07    0.1080369306E-01    0.9121099934E-03    0.6959344381E+00    0.3112308783E+00    0.1035008663E-03
    0.2700000000E+07    0.1043759206E-01    0.8831726457E-03    0.6959340756E+00    0.3119781793E+00    0.1039445394E-03
    0.2900000000E+07    0.1010728133E-01    0.8570019727E-03    0.6959337337E+00    0.3126468502E+00    0.1043581958E-03
    0.3100000000E+07    0.9807236032E-02    0.8331766606E-03    0.6959334104E+00    0.3132497497E+00    0.1047457388E-03
    0.3300000000E+07    0.9533061244E-02    0.8113607135E-03    0.6959331036E+00    0.3137969757E+00    0.1051103506E-03
    0.3500000000E+07    0.9281210434E-02    0.7912823613E-03    0.6959328118E+00    0.3142965830E+00    0.1054546611E-03
    0.3700000000E+07    0.9048785322E-02    0.7727190257E-03    0.6959325335E+00    0.3147550856E+00    0.1057808684E-03
    0.3900000000E+07    0.8833390684E-02    0.7554863870E-03    0.6959322676E+00    0.3151778159E+00    0.1060908293E-03
    0.4100000000E+07    0.8633027092E-02    0.7394302892E-03    0.6959320129E+00    0.3155691865E+00    0.1063861266E-03
    0.4300000000E+07    0.8446010391E-02    0.7244206502E-03    0.6959317686E+00    0.3159328845E+00    0.1066681207E-03
    0.4500000000E+07    0.8270910372E-02    0.7103468139E-03    0.6959315339E+00    0.3162720179E+00    0.1069379895E-03
    0.4700000000E+07    0.8106503447E-02    0.6971139578E-03    0.6959313079E+00    0.3165892276E+00    0.1071967599E-03
    0.4900000000E+07    0.7951735686E-02    0.6846402820E-03    0.6959310901E+00    0.3168867737E+00    0.1074453324E-03
    0.1000000000E+07    0.1602822052E-01    0.1318101287E-02    0.6959381649E+00    0.2997697037E+00    0.9836177471E-04
    0.3000000000E+07    0.9953772889E-02    0.8448188631E-03    0.6959335699E+00    0.3129558353E+00    0.1045550179E-03
    0.5000000000E+07    0.7877676226E-02    0.6786655786E-03    0.6959309841E+00    0.3170287920E+00    0.1075660465E-03
    0.7000000000E+07    0.6733608586E-02    0.5858643827E-03    0.6959291791E+00    0.3191934139E+00    0.1095965690E-03
    0.9000000000E+07    0.5981847236E-02    0.5243227350E-03    0.6959277868E+00    0.3205866947E+00    0.1111381495E-03
    0.1100000000E+08    0.5438961874E-02    0.4795681152E-03    0.6959266506E+00    0.3215790079E+00    0.1123846306E-03
    0.1300000000E+08    0.5022948413E-02    0.4450777312E-03    0.6959256893E+00    0.3223317479E+00    0.1134329548E-03
    0.1500000000E+08    0.4690856004E-02    0.4174135565E-03    0.6959248552E+00    0.3229279495E+00    0.1143387353E-03
    0.1700000000E+08    0.4417705450E-02    0.3945657325E-03    0.6959241178E+00    0.3234152573E+00    0.1151369030E-03
    0.1900000000E+08    0.4187840422E-02    0.3752689730E-03    0.6959234567E+00    0.3238232171E+00    0.1158508648E-03
    0.2100000000E+08    0.3990879088E-02    0.3586810352E-03    0.6959228571E+00    0.3241712506E+00    0.1164970874E-03
    0.2300000000E+08    0.3819627211E-02    0.3442162913E-03    0.6959223083E+00    0.3244727181E+00    0.1170876038E-03
    0.2500000000E+08    0.3668919770E-02    0.3314530125E-03    0.6959218022E+00    0.3247371518E+00    0.1176314791E-03
    0.2700000000E+08    0.3534939068E-02    0.3200786175E-03    0.6959213325E+00    0.3249715591E+00    0.1181357162E-03
