  Pressure (Pa) 22mC5-500 (mol/kg) 23mC5-500 (mol/kg) 24mC5-500 (mol/kg) 2mC6-500 (mol/kg) C7-500 (mol/kg)
    0.1000000000E+01    0.1024191453E-04    0.5153814075E-05    0.6965111346E-01    0.2045332333E-04    0.4147795480E-02
    0.3000000000E+01    0.2450462417E-04    0.1230757466E-04    0.1740878020E+00    0.4727320635E-04    0.4179014645E-02
    0.5000000000E+01    0.3395560834E-04    0.1703086295E-04    0.2486579370E+00    0.6404310303E-04    0.4191693797E-02
    0.7000000000E+01    0.4058262485E-04    0.2033201406E-04    0.3045719022E+00    0.7528441200E-04    0.4199945709E-02
    0.9000000000E+01    0.4543468150E-04    0.2274201305E-04    0.3480533426E+00    0.8327438827E-04    0.4205949030E-02
    0.1100000000E+02    0.4911534302E-04    0.2456575145E-04    0.3828345338E+00    0.8926622796E-04    0.4210548092E-02
    0.1300000000E+02    0.5199351530E-04    0.2598919610E-04    0.4112896392E+00    0.9399116938E-04    0.4214183774E-02
    0.1500000000E+02    0.5430546192E-04    0.2713119294E-04    0.4350009591E+00    0.9789515927E-04    0.4217120855E-02
    0.1700000000E+02    0.5620827775E-04    0.2807058855E-04    0.4550636728E+00    0.1012597454E-03    0.4219531737E-02
    0.1900000000E+02    0.5780968621E-04    0.2886132501E-04    0.4722599033E+00    0.1042676654E-03    0.4221534858E-02
    0.2100000000E+02    0.5918548396E-04    0.2954126624E-04    0.4871631201E+00    0.1070401866E-03    0.4223214833E-02
    0.2300000000E+02    0.6039018137E-04    0.3013757480E-04    0.5002033718E+00    0.1096592223E-03    0.4224633968E-02
    0.2500000000E+02    0.6146372140E-04    0.3067010264E-04    0.5117094861E+00    0.1121808772E-03    0.4225839283E-02
    0.2700000000E+02    0.6243585043E-04    0.3115359384E-04    0.5219371964E+00    0.1146439803E-03    0.4226866991E-02
    0.2900000000E+02    0.6332903577E-04    0.3159915299E-04    0.5310883838E+00    0.1170755950E-03    0.4227745470E-02
    0.3100000000E+02    0.6416045769E-04    0.3201524624E-04    0.5393245439E+00    0.1194946533E-03    0.4228497293E-02
    0.3300000000E+02    0.6494339702E-04    0.3240839769E-04    0.5467764053E+00    0.1219143963E-03    0.4229140656E-02
    0.3500000000E+02    0.6568821895E-04    0.3278368234E-04    0.5535509239E+00    0.1243440421E-03    0.4229690393E-02
    0.3700000000E+02    0.6640308183E-04    0.3314508067E-04    0.5597364514E+00    0.1267899399E-03    0.4230158729E-02
    0.3900000000E+02    0.6709445514E-04    0.3349573745E-04    0.5654066128E+00    0.1292563809E-03    0.4230555827E-02
    0.4100000000E+02    0.6776750302E-04    0.3383815294E-04    0.5706232516E+00    0.1317461718E-03    0.4230890214E-02
    0.4300000000E+02    0.6842637154E-04    0.3417432594E-04    0.5754386960E+00    0.1342610470E-03    0.4231169093E-02
    0.4500000000E+02    0.6907440622E-04    0.3450586193E-04    0.5798975217E+00    0.1368019651E-03    0.4231398596E-02
    0.4700000000E+02    0.6971431844E-04    0.3483405561E-04    0.5840379356E+00    0.1393693253E-03    0.4231583976E-02
    0.4900000000E+02    0.7034831373E-04    0.3515995446E-04    0.5878928749E+00    0.1419631250E-03    0.4231729758E-02
    0.1000000000E+02    0.4739440321E-04    0.2371352825E-04    0.3663596368E+00    0.8646569972E-04    0.4208390888E-02
    0.3000000000E+02    0.6375155884E-04    0.3181043616E-04    0.5353120430E+00    0.1182857553E-03    0.4228135987E-02
    0.5000000000E+02    0.7066366851E-04    0.3532231545E-04    0.5897223631E+00    0.1432698582E-03    0.4231789045E-02
    0.7000000000E+02    0.7695456994E-04    0.3858632761E-04    0.6165880620E+00    0.1706500603E-03    0.4231618725E-02
    0.9000000000E+02    0.8350771735E-04    0.4201204714E-04    0.6326016793E+00    0.1998965363E-03    0.4229919283E-02
    0.1100000000E+03    0.9041741471E-04    0.4563300633E-04    0.6432341517E+00    0.2304346674E-03    0.4227443483E-02
    0.1300000000E+03    0.9765754588E-04    0.4942966971E-04    0.6508078973E+00    0.2619224869E-03    0.4224511257E-02
    0.1500000000E+03    0.1051882210E-03    0.5337872571E-04    0.6564769387E+00    0.2941639066E-03    0.4221281263E-02
    0.1700000000E+03    0.1129751782E-03    0.5746117991E-04    0.6608795959E+00    0.3270452891E-03    0.4217840689E-02
    0.1900000000E+03    0.1209920710E-03    0.6166278331E-04    0.6643976123E+00    0.3605003080E-03    0.4214241055E-02
    0.2100000000E+03    0.1292193376E-03    0.6597311867E-04    0.6672733016E+00    0.3944907386E-03    0.4210514454E-02
    0.2300000000E+03    0.1376426698E-03    0.7038465364E-04    0.6696678808E+00    0.4289956630E-03    0.4206681664E-02
    0.2500000000E+03    0.1462517218E-03    0.7489199500E-04    0.6716927781E+00    0.4640051902E-03    0.4202756518E-02
    0.2700000000E+03    0.1550391306E-03    0.7949134081E-04    0.6734274761E+00    0.4995166797E-03    0.4198748388E-02
    0.2900000000E+03    0.1639997955E-03    0.8418008559E-04    0.6749301947E+00    0.5355324014E-03    0.4194663685E-02
    0.3100000000E+03    0.1731303529E-03    0.8895653598E-04    0.6762445558E+00    0.5720580467E-03    0.4190506780E-02
    0.3300000000E+03    0.1824287913E-03    0.9381970469E-04    0.6774038888E+00    0.6091017616E-03    0.4186280613E-02
    0.3500000000E+03    0.1918941680E-03    0.9876915979E-04    0.6784340971E+00    0.6466735047E-03    0.4181987084E-02
    0.3700000000E+03    0.2015263981E-03    0.1038049134E-03    0.6793556177E+00    0.6847846168E-03    0.4177627327E-02
    0.3900000000E+03    0.2113260966E-03    0.1089273386E-03    0.6801847903E+00    0.7234475281E-03    0.4173201898E-02
    0.4100000000E+03    0.2212944587E-03    0.1141371069E-03    0.6809348357E+00    0.7626755575E-03    0.4168710909E-02
    0.4300000000E+03    0.2314331682E-03    0.1194351409E-03    0.6816165657E+00    0.8024827756E-03    0.4164154121E-02
    0.4500000000E+03    0.2417443286E-03    0.1248225779E-03    0.6822389082E+00    0.8428839111E-03    0.4159531020E-02
    0.4700000000E+03    0.2522304080E-03    0.1303007423E-03    0.6828093001E+00    0.8838942883E-03    0.4154840861E-02
    0.4900000000E+03    0.2628941986E-03    0.1358711238E-03    0.6833339865E+00    0.9255297859E-03    0.4150082715E-02
    0.1000000000E+03    0.8691882185E-04    0.4379904097E-04    0.6384054627E+00    0.2150299348E-03    0.4228752927E-02
    0.3000000000E+03    0.1685439913E-03    0.8655742385E-04    0.6756086347E+00    0.5537310232E-03    0.4192594046E-02
    0.5000000000E+03    0.2682936884E-03    0.1386914027E-03    0.6835808733E+00    0.9465870622E-03    0.4147677812E-02
    0.7000000000E+03    0.3865135565E-03    0.2004140935E-03    0.6870565361E+00    0.1404883092E-02    0.4095673978E-02
    0.9000000000E+03    0.5276082080E-03    0.2740430614E-03    0.6890031739E+00    0.1948348485E-02    0.4034924742E-02
    0.1100000000E+04    0.6982389190E-03    0.3630621555E-03    0.6902478753E+00    0.2603668714E-02    0.3962891819E-02
    0.1300000000E+04    0.9078806152E-03    0.4724187363E-03    0.6911123181E+00    0.3407800824E-02    0.3876044916E-02
    0.1500000000E+04    0.1170092858E-02    0.6091893056E-03    0.6917476667E+00    0.4413225905E-02    0.3769442815E-02
    0.1700000000E+04    0.1504563419E-02    0.7836470407E-03    0.6922343348E+00    0.5695995807E-02    0.3636075922E-02
    0.1900000000E+04    0.1940189126E-02    0.1010870507E-02    0.6926190430E+00    0.7367773147E-02    0.3465935213E-02
    0.2100000000E+04    0.2519255490E-02    0.1312926631E-02    0.6929307923E+00    0.9592228503E-02    0.3244902881E-02
    0.2300000000E+04    0.3301368765E-02    0.1720927131E-02    0.6931885373E+00    0.1260080038E-01    0.2954179712E-02
    0.2500000000E+04    0.4360604862E-02    0.2273551235E-02    0.6934051900E+00    0.1668293726E-01    0.2572929356E-02
    0.2700000000E+04    0.5756686420E-02    0.3002024619E-02    0.6935898501E+00    0.2207698452E-01    0.2090909903E-02
    0.2900000000E+04    0.7453924105E-02    0.3887838745E-02    0.6937491149E+00    0.2865885543E-01    0.1537757480E-02
    0.3100000000E+04    0.9234207778E-02    0.4817316001E-02    0.6938878848E+00    0.3560173593E-01    0.1005569659E-02
    0.3300000000E+04    0.1079056170E-01    0.5630324723E-02    0.6940098752E+00    0.4172527102E-01    0.6003662808E-03
    0.3500000000E+04    0.1197583805E-01    0.6250007760E-02    0.6941179550E+00    0.4645178741E-01    0.3542020344E-03
    0.3700000000E+04    0.1284753640E-01    0.6706258449E-02    0.6942143740E+00    0.4999025417E-01    0.2270280421E-03
    0.3900000000E+04    0.1352299087E-01    0.7060229999E-02    0.6943009221E+00    0.5278546448E-01    0.1671068033E-03
    0.4100000000E+04    0.1408971195E-01    0.7357552662E-02    0.6943790402E+00    0.5517166777E-01    0.1401296771E-03
    0.4300000000E+04    0.1459666679E-01    0.7623764338E-02    0.6944499023E+00    0.5733652817E-01    0.1282675783E-03
    0.4500000000E+04    0.1506835706E-01    0.7871644015E-02    0.6945144737E+00    0.5937402787E-01    0.1231577059E-03
    0.4700000000E+04    0.1551660773E-01    0.8107358015E-02    0.6945735560E+00    0.6132940790E-01    0.1210371156E-03
    0.4900000000E+04    0.1594716136E-01    0.8333899310E-02    0.6946278200E+00    0.6322445330E-01    0.1202372891E-03
    0.1000000000E+04    0.6087169847E-03    0.3163600598E-03    0.6896871854E+00    0.2260008341E-02    0.4000512307E-02
    0.3000000000E+04    0.8353810114E-02    0.4357614431E-02    0.6938208063E+00    0.3216218146E-01    0.1261536428E-02
    0.5000000000E+04    0.1615677195E-01    0.8444235337E-02    0.6946533255E+00    0.6415297309E-01    0.1200825062E-03
    0.7000000000E+04    0.1974681064E-01    0.1033916935E-01    0.6950104513E+00    0.8072428747E-01    0.1217694413E-03
    0.9000000000E+04    0.2246345110E-01    0.1178125613E-01    0.6952088057E+00    0.9433834873E-01    0.1235021448E-03
    0.1100000000E+05    0.2456091431E-01    0.1290146193E-01    0.6953349375E+00    0.1057721392E+00    0.1248999509E-03
    0.1300000000E+05    0.2620501741E-01    0.1378534161E-01    0.6954221701E+00    0.1155442409E+00    0.1260736471E-03
    0.1500000000E+05    0.2750896966E-01    0.1449140710E-01    0.6954860636E+00    0.1240180114E+00    0.1270866095E-03
    0.1700000000E+05    0.2855245692E-01    0.1506091672E-01    0.6955348581E+00    0.1314559934E+00    0.1279784844E-03
    0.1900000000E+05    0.2939302954E-01    0.1552372195E-01    0.6955733248E+00    0.1380528695E+00    0.1287757605E-03
    0.2100000000E+05    0.3007317437E-01    0.1590190176E-01    0.6956044173E+00    0.1439562402E+00    0.1294970311E-03
    0.2300000000E+05    0.3062485847E-01    0.1621209995E-01    0.6956300618E+00    0.1492801783E+00    0.1301558593E-03
    0.2500000000E+05    0.3107253519E-01    0.1646707302E-01    0.6956515679E+00    0.1541143354E+00    0.1307624487E-03
    0.2700000000E+05    0.3143518447E-01    0.1667674188E-01    0.6956698570E+00    0.1585302190E+00    0.1313246723E-03
    0.2900000000E+05    0.3172772911E-01    0.1684892262E-01    0.6956855962E+00    0.1625856174E+00    0.1318487346E-03
    0.3100000000E+05    0.3196203760E-01    0.1698984451E-01    0.6956992802E+00    0.1663277826E+00    0.1323396137E-03
    0.3300000000E+05    0.3214764703E-01    0.1710452383E-01    0.6957112839E+00    0.1697957606E+00    0.1328013659E-03
    0.3500000000E+05    0.3229229247E-01    0.1719703791E-01    0.6957218962E+00    0.1730221251E+00    0.1332373406E-03
    0.3700000000E+05    0.3240230037E-01    0.1727072899E-01    0.6957313436E+00    0.1760342865E+00    0.1336503363E-03
    0.3900000000E+05    0.3248288472E-01    0.1732835791E-01    0.6957398059E+00    0.1788554930E+00    0.1340427159E-03
    0.4100000000E+05    0.3253837258E-01    0.1737222124E-01    0.6957474280E+00    0.1815056053E+00    0.1344164923E-03
    0.4300000000E+05    0.3257237789E-01    0.1740424169E-01    0.6957543276E+00    0.1840017033E+00    0.1347733954E-03
    0.4500000000E+05    0.3258793664E-01    0.1742603845E-01    0.6957606015E+00    0.1863585655E+00    0.1351149223E-03
    0.4700000000E+05    0.3258761294E-01    0.1743898253E-01    0.6957663301E+00    0.1885890518E+00    0.1354423777E-03
    0.4900000000E+05    0.3257358313E-01    0.1744424062E-01    0.6957715804E+00    0.1907044113E+00    0.1357569057E-03
    0.1000000000E+05    0.2357768438E-01    0.1237545989E-01    0.6952781924E+00    0.1002908822E+00    0.1242344451E-03
    0.3000000000E+05    0.3185151915E-01    0.1692295259E-01    0.6956926693E+00    0.1644932442E+00    0.1320980498E-03
    0.5000000000E+05    0.3256201927E-01    0.1744430492E-01    0.6957740443E+00    0.1917220559E+00    0.1359096418E-03
    0.7000000000E+05    0.3194192387E-01    0.1722081133E-01    0.6958082017E+00    0.2079012807E+00    0.1384781578E-03
    0.9000000000E+05    0.3101655690E-01    0.1680817385E-01    0.6958267594E+00    0.2190332747E+00    0.1404275406E-03
    0.1100000000E+06    0.3004942691E-01    0.1635491036E-01    0.6958382936E+00    0.2273475166E+00    0.1420034647E-03
    0.1300000000E+06    0.2912002593E-01    0.1590873538E-01    0.6958460834E+00    0.2338909766E+00    0.1433287004E-03
    0.1500000000E+06    0.2825161289E-01    0.1548555995E-01    0.6958516499E+00    0.2392310240E+00    0.1444736450E-03
    0.1700000000E+06    0.2744810700E-01    0.1508984523E-01    0.6958557931E+00    0.2437064931E+00    0.1454825015E-03
    0.1900000000E+06    0.2670655685E-01    0.1472166920E-01    0.6958589732E+00    0.2475344881E+00    0.1463848829E-03
    0.2100000000E+06    0.2602177226E-01    0.1437944768E-01    0.6958614732E+00    0.2508617404E+00    0.1472016189E-03
    0.2300000000E+06    0.2538812583E-01    0.1406104931E-01    0.6958634763E+00    0.2537916586E+00    0.1479479281E-03
    0.2500000000E+06    0.2480024859E-01    0.1376426384E-01    0.6958651062E+00    0.2563996193E+00    0.1486352750E-03
    0.2700000000E+06    0.2425327216E-01    0.1348699477E-01    0.6958664495E+00    0.2587421120E+00    0.1492725147E-03
    0.2900000000E+06    0.2374288181E-01    0.1322733000E-01    0.6958675682E+00    0.2608624666E+00    0.1498666320E-03
    0.3100000000E+06    0.2326529258E-01    0.1298355817E-01    0.6958685082E+00    0.2627945815E+00    0.1504232356E-03
    0.3300000000E+06    0.2281719732E-01    0.1275416134E-01    0.6958693037E+00    0.2645654304E+00    0.1509468982E-03
    0.3500000000E+06    0.2239570797E-01    0.1253779825E-01    0.6958699812E+00    0.2661967964E+00    0.1514413981E-03
    0.3700000000E+06    0.2199829905E-01    0.1233328479E-01    0.6958705612E+00    0.2677064995E+00    0.1519098938E-03
    0.3900000000E+06    0.2162275689E-01    0.1213957476E-01    0.6958710598E+00    0.2691092859E+00    0.1523550527E-03
    0.4100000000E+06    0.2126713533E-01    0.1195574213E-01    0.6958714898E+00    0.2704174832E+00    0.1527791489E-03
    0.4300000000E+06    0.2092971778E-01    0.1178096535E-01    0.6958718617E+00    0.2716414917E+00    0.1531841366E-03
    0.4500000000E+06    0.2060898502E-01    0.1161451352E-01    0.6958721840E+00    0.2727901585E+00    0.1535717082E-03
    0.4700000000E+06    0.2030358784E-01    0.1145573461E-01    0.6958724636E+00    0.2738710659E+00    0.1539433386E-03
    0.4900000000E+06    0.2001232402E-01    0.1130404522E-01    0.6958727064E+00    0.2748907565E+00    0.1543003218E-03
    0.1000000000E+06    0.3053117469E-01    0.1658248198E-01    0.6958331376E+00    0.2234612487E+00    0.1412528037E-03
    0.3000000000E+06    0.2350020427E-01    0.1310355670E-01    0.6958680582E+00    0.2618502291E+00    0.1501493162E-03
    0.5000000000E+06    0.1987165174E-01    0.1123069337E-01    0.6958728155E+00    0.2753794504E+00    0.1544736825E-03
    0.7000000000E+06    0.1759117834E-01    0.1003341738E-01    0.6958739035E+00    0.2829937467E+00    0.1573897199E-03
    0.9000000000E+06    0.1598187829E-01    0.9179216893E-02    0.6958739716E+00    0.2880677635E+00    0.1596035349E-03
    0.1100000000E+07    0.1476453327E-01    0.8527812665E-02    0.6958736685E+00    0.2917691213E+00    0.1613935431E-03
    0.1300000000E+07    0.1380018628E-01    0.8008463783E-02    0.6958732158E+00    0.2946273205E+00    0.1628989749E-03
    0.1500000000E+07    0.1301069709E-01    0.7581015126E-02    0.6958727038E+00    0.2969228574E+00    0.1641997009E-03
    0.1700000000E+07    0.1234821366E-01    0.7220696540E-02    0.6958721732E+00    0.2988203704E+00    0.1653458866E-03
    0.1900000000E+07    0.1178152872E-01    0.6911257505E-02    0.6958716438E+00    0.3004238405E+00    0.1663711471E-03
    0.2100000000E+07    0.1128928070E-01    0.6641518391E-02    0.6958711249E+00    0.3018026642E+00    0.1672991304E-03
    0.2300000000E+07    0.1085627472E-01    0.6403492232E-02    0.6958706213E+00    0.3030051973E+00    0.1681471168E-03
    0.2500000000E+07    0.1047135915E-01    0.6191294812E-02    0.6958701348E+00    0.3040663233E+00    0.1689281247E-03
    0.2700000000E+07    0.1012613459E-01    0.6000478928E-02    0.6958696661E+00    0.3050119354E+00    0.1696522108E-03
    0.2900000000E+07    0.9814134649E-02    0.5827610205E-02    0.6958692150E+00    0.3058617179E+00    0.1703273079E-03
    0.3100000000E+07    0.9530286984E-02    0.5669987055E-02    0.6958687810E+00    0.3066309422E+00    0.1709597863E-03
    0.3300000000E+07    0.9270547842E-02    0.5525450120E-02    0.6958683632E+00    0.3073316651E+00    0.1715548399E-03
    0.3500000000E+07    0.9031647517E-02    0.5392249183E-02    0.6958679608E+00    0.3079735510E+00    0.1721167605E-03
    0.3700000000E+07    0.8810908997E-02    0.5268948083E-02    0.6958675731E+00    0.3085644512E+00    0.1726491360E-03
    0.3900000000E+07    0.8606116110E-02    0.5154355403E-02    0.6958671990E+00    0.3091108197E+00    0.1731549967E-03
    0.4100000000E+07    0.8415415919E-02    0.5047473052E-02    0.6958668378E+00    0.3096180181E+00    0.1736369257E-03
    0.4300000000E+07    0.8237245322E-02    0.4947457499E-02    0.6958664888E+00    0.3100905430E+00    0.1740971433E-03
    0.4500000000E+07    0.8070275035E-02    0.4853590146E-02    0.6958661512E+00    0.3105321977E+00    0.1745375720E-03
    0.4700000000E+07    0.7913366310E-02    0.4765254373E-02    0.6958658243E+00    0.3109462242E+00    0.1749598875E-03
    0.4900000000E+07    0.7765537068E-02    0.4681917565E-02    0.6958655075E+00    0.3113354055E+00    0.1753655599E-03
    0.1000000000E+07    0.1533487818E-01    0.8833579100E-02    0.6958738479E+00    0.2900485758E+00    0.1605408773E-03
    0.3000000000E+07    0.9668965210E-02    0.5747038819E-02    0.6958689959E+00    0.3062555820E+00    0.1706485259E-03
    0.5000000000E+07    0.7694756491E-02    0.4641976732E-02    0.6958653527E+00    0.3115214436E+00    0.1755625660E-03
    0.7000000000E+07    0.6597898925E-02    0.4019609932E-02    0.6958626683E+00    0.3143803300E+00    0.1788763846E-03
    0.9000000000E+07    0.5873574936E-02    0.3604795803E-02    0.6958605478E+00    0.3162447866E+00    0.1813922381E-03
    0.1100000000E+08    0.5348695516E-02    0.3302072088E-02    0.6958587938E+00    0.3175850554E+00    0.1834264845E-03
    0.1300000000E+08    0.4945437029E-02    0.3068161241E-02    0.6958572967E+00    0.3186089603E+00    0.1851373365E-03
    0.1500000000E+08    0.4622868787E-02    0.2880155345E-02    0.6958559895E+00    0.3194245358E+00    0.1866155563E-03
    0.1700000000E+08    0.4357109790E-02    0.2724618282E-02    0.6958548287E+00    0.3200942748E+00    0.1879181515E-03
    0.1900000000E+08    0.4133153082E-02    0.2593068914E-02    0.6958537841E+00    0.3206571875E+00    0.1890833226E-03
    0.2100000000E+08    0.3941025886E-02    0.2479849214E-02    0.6958528340E+00    0.3211390594E+00    0.1901379434E-03
    0.2300000000E+08    0.3773804705E-02    0.2381017620E-02    0.6958519624E+00    0.3215577133E+00    0.1911016517E-03
    0.2500000000E+08    0.3626510975E-02    0.2293731061E-02    0.6958511571E+00    0.3219259179E+00    0.1919892421E-03
    0.2700000000E+08    0.3495459681E-02    0.2215879265E-02    0.6958504083E+00    0.3222530943E+00    0.1928121433E-03
