  Pressure (Pa) 22mC5-500 (mol/kg) 23mC5-500 (mol/kg) 24mC5-500 (mol/kg) 2mC6-500 (mol/kg) C7-500 (mol/kg)
    0.1000000000E+01    0.1197021860E-04    0.4127389185E-05    0.9949807067E-01    0.1256002348E-04    0.4170313049E-02
    0.3000000000E+01    0.2647304337E-04    0.9106172140E-05    0.2321039703E+00    0.2664717447E-04    0.4202066980E-02
    0.5000000000E+01    0.3476555066E-04    0.1193819613E-04    0.3164569760E+00    0.3410447442E-04    0.4218296824E-02
    0.7000000000E+01    0.4000150260E-04    0.1371849723E-04    0.3748416926E+00    0.3861145911E-04    0.4229093192E-02
    0.9000000000E+01    0.4356028327E-04    0.1492451850E-04    0.4176508438E+00    0.4167023001E-04    0.4236894295E-02
    0.1100000000E+02    0.4612889354E-04    0.1579328431E-04    0.4503840728E+00    0.4397624660E-04    0.4242812984E-02
    0.1300000000E+02    0.4808142127E-04    0.1645342249E-04    0.4762244065E+00    0.4587933182E-04    0.4247458616E-02
    0.1500000000E+02    0.4963545480E-04    0.1697948155E-04    0.4971418459E+00    0.4756603380E-04    0.4251198752E-02
    0.1700000000E+02    0.5092414657E-04    0.1741690808E-04    0.5144209553E+00    0.4914004251E-04    0.4254269942E-02
    0.1900000000E+02    0.5203231911E-04    0.1779453609E-04    0.5289351234E+00    0.5066063999E-04    0.4256831927E-02
    0.2100000000E+02    0.5301578745E-04    0.1813125700E-04    0.5412988939E+00    0.5216227898E-04    0.4258996734E-02
    0.2300000000E+02    0.5391226583E-04    0.1843977628E-04    0.5519572446E+00    0.5366506573E-04    0.4260845388E-02
    0.2500000000E+02    0.5474780120E-04    0.1872882455E-04    0.5612402988E+00    0.5518060607E-04    0.4262438014E-02
    0.2700000000E+02    0.5554071134E-04    0.1900450778E-04    0.5693981365E+00    0.5671537631E-04    0.4263820211E-02
    0.2900000000E+02    0.5630407257E-04    0.1927115820E-04    0.5766236685E+00    0.5827272073E-04    0.4265027219E-02
    0.3100000000E+02    0.5704733462E-04    0.1953188527E-04    0.5830680896E+00    0.5985406195E-04    0.4266086718E-02
    0.3300000000E+02    0.5777739398E-04    0.1978894092E-04    0.5888515770E+00    0.6145964754E-04    0.4267020769E-02
    0.3500000000E+02    0.5849932212E-04    0.2004396669E-04    0.5940708564E+00    0.6308901690E-04    0.4267847178E-02
    0.3700000000E+02    0.5921686885E-04    0.2029816403E-04    0.5988046566E+00    0.6474129596E-04    0.4268580481E-02
    0.3900000000E+02    0.5993281576E-04    0.2055241357E-04    0.6031177090E+00    0.6641538422E-04    0.4269232668E-02
    0.4100000000E+02    0.6064922808E-04    0.2080735978E-04    0.6070637265E+00    0.6811007351E-04    0.4269813723E-02
    0.4300000000E+02    0.6136763650E-04    0.2106347198E-04    0.6106876519E+00    0.6982412292E-04    0.4270332025E-02
    0.4500000000E+02    0.6208916987E-04    0.2132108861E-04    0.6140273778E+00    0.7155630532E-04    0.4270794665E-02
    0.4700000000E+02    0.6281465319E-04    0.2158044984E-04    0.6171150772E+00    0.7330543558E-04    0.4271207684E-02
    0.4900000000E+02    0.6354468045E-04    0.2184172175E-04    0.6199782431E+00    0.7507038670E-04    0.4271576261E-02
    0.1000000000E+02    0.4494007672E-04    0.1539132335E-04    0.4350406901E+00    0.4289023625E-04    0.4240043253E-02
    0.3000000000E+02    0.5667773499E-04    0.1940210466E-04    0.5799353808E+00    0.5906035524E-04    0.4265573915E-02
    0.5000000000E+02    0.6391153431E-04    0.2197311039E-04    0.6213331435E+00    0.7595846097E-04    0.4271745304E-02
    0.7000000000E+02    0.7153335253E-04    0.2471073345E-04    0.6409443987E+00    0.9433082403E-04    0.4273611698E-02
    0.9000000000E+02    0.7965844613E-04    0.2763455035E-04    0.6523852876E+00    0.1134739266E-03    0.4273773139E-02
    0.1100000000E+03    0.8817622948E-04    0.3069959357E-04    0.6598815993E+00    0.1330664962E-03    0.4273066931E-02
    0.1300000000E+03    0.9699580407E-04    0.3387175016E-04    0.6651734479E+00    0.1529608335E-03    0.4271849480E-02
    0.1500000000E+03    0.1060557764E-03    0.3712860679E-04    0.6691086250E+00    0.1730855436E-03    0.4270299608E-02
    0.1700000000E+03    0.1153154877E-03    0.4045555503E-04    0.6721495852E+00    0.1934052946E-03    0.4268517410E-02
    0.1900000000E+03    0.1247477466E-03    0.4384293873E-04    0.6745700390E+00    0.2139029977E-03    0.4266563472E-02
    0.2100000000E+03    0.1343341201E-03    0.4728427697E-04    0.6765423300E+00    0.2345713092E-03    0.4264476670E-02
    0.2300000000E+03    0.1440619852E-03    0.5077517374E-04    0.6781803848E+00    0.2554083133E-03    0.4262283101E-02
    0.2500000000E+03    0.1539226656E-03    0.5431263801E-04    0.6795625308E+00    0.2764152130E-03    0.4260000918E-02
    0.2700000000E+03    0.1639102298E-03    0.5789464939E-04    0.6807443937E+00    0.2975950429E-03    0.4257643112E-02
    0.2900000000E+03    0.1740206982E-03    0.6151987373E-04    0.6817665667E+00    0.3189519286E-03    0.4255219195E-02
    0.3100000000E+03    0.1842515080E-03    0.6518747250E-04    0.6826593670E+00    0.3404906490E-03    0.4252736258E-02
    0.3300000000E+03    0.1946011450E-03    0.6889697209E-04    0.6834458939E+00    0.3622163736E-03    0.4250199668E-02
    0.3500000000E+03    0.2050688847E-03    0.7264817267E-04    0.6841440568E+00    0.3841345033E-03    0.4247613529E-02
    0.3700000000E+03    0.2156546079E-03    0.7644108336E-04    0.6847679544E+00    0.4062505734E-03    0.4244981006E-02
    0.3900000000E+03    0.2263586668E-03    0.8027587543E-04    0.6853288378E+00    0.4285701953E-03    0.4242304548E-02
    0.4100000000E+03    0.2371817866E-03    0.8415284811E-04    0.6858357945E+00    0.4510990226E-03    0.4239586056E-02
    0.4300000000E+03    0.2481249928E-03    0.8807240326E-04    0.6862962447E+00    0.4738427317E-03    0.4236827001E-02
    0.4500000000E+03    0.2591895563E-03    0.9203502643E-04    0.6867163071E+00    0.4968070131E-03    0.4234028509E-02
    0.4700000000E+03    0.2703769514E-03    0.9604127253E-04    0.6871010719E+00    0.5199975687E-03    0.4231191436E-02
    0.4900000000E+03    0.2816888248E-03    0.1000917550E-03    0.6874548085E+00    0.5434201119E-03    0.4228316411E-02
    0.1000000000E+03    0.8387471242E-04    0.2915187197E-04    0.6564869801E+00    0.1232257760E-03    0.4273500148E-02
    0.3000000000E+03    0.1791211761E-03    0.6334841324E-04    0.6822275532E+00    0.3296982433E-03    0.4253984734E-02
    0.5000000000E+03    0.2873919961E-03    0.1021337904E-03    0.6876211908E+00    0.5552201686E-03    0.4226864813E-02
    0.7000000000E+03    0.4084957455E-03    0.1454818769E-03    0.6899590205E+00    0.8048232226E-03    0.4195878740E-02
    0.9000000000E+03    0.5447680798E-03    0.1942419204E-03    0.6912646269E+00    0.1084536606E-02    0.4160978837E-02
    0.1100000000E+04    0.6993567700E-03    0.2495456105E-03    0.6920979566E+00    0.1401273379E-02    0.4121586098E-02
    0.1300000000E+04    0.8762531740E-03    0.3128236185E-03    0.6926759750E+00    0.1763441380E-02    0.4076845841E-02
    0.1500000000E+04    0.1080543538E-02    0.3858971394E-03    0.6931003994E+00    0.2181607866E-02    0.4025631682E-02
    0.1700000000E+04    0.1318789879E-02    0.4711148144E-03    0.6934252503E+00    0.2669338024E-02    0.3966483499E-02
    0.1900000000E+04    0.1599568246E-02    0.5715456442E-03    0.6936818749E+00    0.3244330160E-02    0.3897503229E-02
    0.2100000000E+04    0.1934225056E-02    0.6912498320E-03    0.6938897130E+00    0.3929992928E-02    0.3816205210E-02
    0.2300000000E+04    0.2337934801E-02    0.8356574766E-03    0.6940614602E+00    0.4757646153E-02    0.3719310391E-02
    0.2500000000E+04    0.2831152328E-02    0.1012088559E-02    0.6942057591E+00    0.5769546382E-02    0.3602474579E-02
    0.2700000000E+04    0.3441511620E-02    0.1230432950E-02    0.6943286973E+00    0.7022857530E-02    0.3459957666E-02
    0.2900000000E+04    0.4206016478E-02    0.1503935365E-02    0.6944346864E+00    0.8594270737E-02    0.3284299613E-02
    0.3100000000E+04    0.5172707423E-02    0.1849793806E-02    0.6945270014E+00    0.1058363010E-01    0.3066233016E-02
    0.3300000000E+04    0.6399269888E-02    0.2288665027E-02    0.6946081252E+00    0.1311139081E-01    0.2795449257E-02
    0.3500000000E+04    0.7942548651E-02    0.2840917890E-02    0.6946799736E+00    0.1629749455E-01    0.2463539859E-02
    0.3700000000E+04    0.9829061666E-02    0.3516088155E-02    0.6947440490E+00    0.2020108087E-01    0.2070975368E-02
    0.3900000000E+04    0.1200302741E-01    0.4294280469E-02    0.6948015462E+00    0.2471319451E-01    0.1637862209E-02
    0.4100000000E+04    0.1428557862E-01    0.5111554796E-02    0.6948534268E+00    0.2947083867E-01    0.1209706635E-02
    0.4300000000E+04    0.1642127274E-01    0.5876533180E-02    0.6949004741E+00    0.3394954031E-01    0.8425015840E-03
    0.4500000000E+04    0.1821629040E-01    0.6519832347E-02    0.6949433320E+00    0.3774670311E-01    0.5712462094E-03
    0.4700000000E+04    0.1962790091E-01    0.7026100892E-02    0.6949825351E+00    0.4076843351E-01    0.3949484569E-03
    0.4900000000E+04    0.2072496507E-01    0.7419923103E-02    0.6950185308E+00    0.4315154146E-01    0.2904297398E-03
    0.1000000000E+04    0.6195455071E-03    0.2209942550E-03    0.6917227224E+00    0.1237793842E-02    0.4141891529E-02
    0.3000000000E+04    0.4660652121E-02    0.1666589656E-02    0.6944823825E+00    0.9529548694E-02    0.3181206692E-02
    0.5000000000E+04    0.2118647869E-01    0.7585724969E-02    0.6950354460E+00    0.4416633266E-01    0.2568155533E-03
    0.7000000000E+04    0.2697745111E-01    0.9673413051E-02    0.6952719861E+00    0.5760064237E-01    0.1662857316E-03
    0.9000000000E+04    0.3119461131E-01    0.1120106563E-01    0.6954030136E+00    0.6811388935E-01    0.1684456929E-03
    0.1100000000E+05    0.3458956516E-01    0.1243628528E-01    0.6954861176E+00    0.7713221187E-01    0.1703450073E-03
    0.1300000000E+05    0.3736103811E-01    0.1344929900E-01    0.6955434457E+00    0.8498185964E-01    0.1719412489E-03
    0.1500000000E+05    0.3964925698E-01    0.1428972129E-01    0.6955853287E+00    0.9189729156E-01    0.1733194583E-03
    0.1700000000E+05    0.4155634105E-01    0.1499373160E-01    0.6956172323E+00    0.9805272277E-01    0.1745332870E-03
    0.1900000000E+05    0.4315830237E-01    0.1558829635E-01    0.6956423186E+00    0.1035804748E+00    0.1756186204E-03
    0.2100000000E+05    0.4451280019E-01    0.1609389916E-01    0.6956625434E+00    0.1085829738E+00    0.1766006677E-03
    0.2300000000E+05    0.4566430106E-01    0.1652635896E-01    0.6956791809E+00    0.1131408307E+00    0.1774978298E-03
    0.2500000000E+05    0.4664760056E-01    0.1689807184E-01    0.6956930969E+00    0.1173184220E+00    0.1783239568E-03
    0.2700000000E+05    0.4749028112E-01    0.1721887827E-01    0.6957048999E+00    0.1211678327E+00    0.1790897397E-03
    0.2900000000E+05    0.4821446153E-01    0.1749668105E-01    0.6957150301E+00    0.1247316948E+00    0.1798036070E-03
    0.3100000000E+05    0.4883806447E-01    0.1773789323E-01    0.6957238139E+00    0.1280452709E+00    0.1804723230E-03
    0.3300000000E+05    0.4937574952E-01    0.1794776817E-01    0.6957314980E+00    0.1311380046E+00    0.1811014008E-03
    0.3500000000E+05    0.4983960990E-01    0.1813064616E-01    0.6957382729E+00    0.1340346933E+00    0.1816953940E-03
    0.3700000000E+05    0.5023969958E-01    0.1829014119E-01    0.6957442873E+00    0.1367563857E+00    0.1822581079E-03
    0.3900000000E+05    0.5058443677E-01    0.1842928403E-01    0.6957496596E+00    0.1393210775E+00    0.1827927559E-03
    0.4100000000E+05    0.5088091623E-01    0.1855063302E-01    0.6957544848E+00    0.1417442563E+00    0.1833020760E-03
    0.4300000000E+05    0.5113515343E-01    0.1865636084E-01    0.6957588402E+00    0.1440393324E+00    0.1837884215E-03
    0.4500000000E+05    0.5135227713E-01    0.1874832296E-01    0.6957627893E+00    0.1462179834E+00    0.1842538292E-03
    0.4700000000E+05    0.5153668267E-01    0.1882811215E-01    0.6957663847E+00    0.1482904313E+00    0.1847000744E-03
    0.4900000000E+05    0.5169215491E-01    0.1889710231E-01    0.6957696702E+00    0.1502656679E+00    0.1851287142E-03
    0.1000000000E+05    0.3298073348E-01    0.1185023776E-01    0.6954487564E+00    0.7278683615E-01    0.1694403108E-03
    0.3000000000E+05    0.4853785161E-01    0.1762150868E-01    0.6957195733E+00    0.1264178073E+00    0.1801432389E-03
    0.5000000000E+05    0.5176008172E-01    0.1892792607E-01    0.6957712087E+00    0.1512193513E+00    0.1853368674E-03
    0.7000000000E+05    0.5219894836E-01    0.1919611820E-01    0.6957922352E+00    0.1667059247E+00    0.1888376435E-03
    0.9000000000E+05    0.5173463086E-01    0.1911347492E-01    0.6958032898E+00    0.1777613761E+00    0.1914948945E-03
    0.1100000000E+06    0.5093844927E-01    0.1889341294E-01    0.6958099183E+00    0.1862696003E+00    0.1936432244E-03
    0.1300000000E+06    0.5002477713E-01    0.1861814570E-01    0.6958142216E+00    0.1931382000E+00    0.1954498914E-03
    0.1500000000E+06    0.4908392313E-01    0.1832351450E-01    0.6958171653E+00    0.1988690468E+00    0.1970108192E-03
    0.1700000000E+06    0.4815616473E-01    0.1802629290E-01    0.6958192523E+00    0.2037670785E+00    0.1983862457E-03
    0.1900000000E+06    0.4725954060E-01    0.1773457799E-01    0.6958207692E+00    0.2080307198E+00    0.1996165302E-03
    0.2100000000E+06    0.4640155220E-01    0.1745223357E-01    0.6958218906E+00    0.2117959886E+00    0.2007300623E-03
    0.2300000000E+06    0.4558451465E-01    0.1718095840E-01    0.6958227281E+00    0.2151600143E+00    0.2017475860E-03
    0.2500000000E+06    0.4480815616E-01    0.1692131228E-01    0.6958233566E+00    0.2181944780E+00    0.2026847279E-03
    0.2700000000E+06    0.4407093702E-01    0.1667325006E-01    0.6958238276E+00    0.2209537316E+00    0.2035535589E-03
    0.2900000000E+06    0.4337073865E-01    0.1643640976E-01    0.6958241778E+00    0.2234799308E+00    0.2043636005E-03
    0.3100000000E+06    0.4270522934E-01    0.1621027178E-01    0.6958244341E+00    0.2258064061E+00    0.2051224984E-03
    0.3300000000E+06    0.4207205812E-01    0.1599424827E-01    0.6958246161E+00    0.2279599481E+00    0.2058364861E-03
    0.3500000000E+06    0.4146895534E-01    0.1578773350E-01    0.6958247390E+00    0.2299624018E+00    0.2065107145E-03
    0.3700000000E+06    0.4089378160E-01    0.1559013174E-01    0.6958248143E+00    0.2318318037E+00    0.2071494893E-03
    0.3900000000E+06    0.4034454804E-01    0.1540087237E-01    0.6958248509E+00    0.2335832122E+00    0.2077564473E-03
    0.4100000000E+06    0.3981942085E-01    0.1521941731E-01    0.6958248559E+00    0.2352293234E+00    0.2083346884E-03
    0.4300000000E+06    0.3931671714E-01    0.1504526404E-01    0.6958248349E+00    0.2367809366E+00    0.2088868771E-03
    0.4500000000E+06    0.3883489655E-01    0.1487794604E-01    0.6958247925E+00    0.2382473108E+00    0.2094153204E-03
    0.4700000000E+06    0.3837255079E-01    0.1471703179E-01    0.6958247323E+00    0.2396364419E+00    0.2099220293E-03
    0.4900000000E+06    0.3792839267E-01    0.1456212296E-01    0.6958246572E+00    0.2409552801E+00    0.2104087678E-03
    0.1000000000E+06    0.5136026517E-01    0.1901386337E-01    0.6958069860E+00    0.1822637893E+00    0.1926198945E-03
    0.3000000000E+06    0.4303379585E-01    0.1632203885E-01    0.6958243163E+00    0.2246663276E+00    0.2047490241E-03
    0.5000000000E+06    0.3771276215E-01    0.1448680463E-01    0.6958246150E+00    0.2415902687E+00    0.2106451415E-03
    0.7000000000E+06    0.3411772314E-01    0.1322069134E-01    0.6958234074E+00    0.2517418389E+00    0.2146211189E-03
    0.9000000000E+06    0.3147004443E-01    0.1227628742E-01    0.6958219871E+00    0.2587963367E+00    0.2176396455E-03
    0.1100000000E+07    0.2940695896E-01    0.1153363136E-01    0.6958206009E+00    0.2641023280E+00    0.2200803211E-03
    0.1300000000E+07    0.2773573308E-01    0.1092771438E-01    0.6958193037E+00    0.2682979894E+00    0.2221329804E-03
    0.1500000000E+07    0.2634311909E-01    0.1041983951E-01    0.6958181027E+00    0.2717328106E+00    0.2239065244E-03
    0.1700000000E+07    0.2515746133E-01    0.9985285948E-02    0.6958169918E+00    0.2746175479E+00    0.2254693530E-03
    0.1900000000E+07    0.2413080784E-01    0.9607384591E-02    0.6958159616E+00    0.2770883572E+00    0.2268673000E-03
    0.2100000000E+07    0.2322963390E-01    0.9274408329E-02    0.6958150030E+00    0.2792378842E+00    0.2281326091E-03
    0.2300000000E+07    0.2242966430E-01    0.8977820241E-02    0.6958141073E+00    0.2811317798E+00    0.2292888420E-03
    0.2500000000E+07    0.2171280854E-01    0.8711228879E-02    0.6958132675E+00    0.2828181113E+00    0.2303537494E-03
    0.2700000000E+07    0.2106525761E-01    0.8469735476E-02    0.6958124771E+00    0.2843330311E+00    0.2313410435E-03
    0.2900000000E+07    0.2047625411E-01    0.8249509824E-02    0.6958117309E+00    0.2857043503E+00    0.2322615407E-03
    0.3100000000E+07    0.1993727028E-01    0.8047505519E-02    0.6958110242E+00    0.2869538774E+00    0.2331239270E-03
    0.3300000000E+07    0.1944144267E-01    0.7861263283E-02    0.6958103530E+00    0.2880989990E+00    0.2339352843E-03
    0.3500000000E+07    0.1898317352E-01    0.7688771769E-02    0.6958097141E+00    0.2891537774E+00    0.2347014645E-03
    0.3700000000E+07    0.1855784347E-01    0.7528366917E-02    0.6958091044E+00    0.2901297308E+00    0.2354273595E-03
    0.3900000000E+07    0.1816160056E-01    0.7378657791E-02    0.6958085213E+00    0.2910364001E+00    0.2361171014E-03
    0.4100000000E+07    0.1779120260E-01    0.7238471012E-02    0.6958079627E+00    0.2918817676E+00    0.2367742123E-03
    0.4300000000E+07    0.1744389747E-01    0.7106808492E-02    0.6958074265E+00    0.2926725718E+00    0.2374017195E-03
    0.4500000000E+07    0.1711733124E-01    0.6982814847E-02    0.6958069109E+00    0.2934145478E+00    0.2380022443E-03
    0.4700000000E+07    0.1680947643E-01    0.6865751962E-02    0.6958064145E+00    0.2941126126E+00    0.2385780718E-03
    0.4900000000E+07    0.1651857570E-01    0.6754978921E-02    0.6958059358E+00    0.2947710101E+00    0.2391312060E-03
    0.1000000000E+07    0.3038000809E-01    0.1188463731E-01    0.6958212844E+00    0.2616184456E+00    0.2189177109E-03
    0.3000000000E+07    0.2020097238E-01    0.8146395613E-02    0.6958113728E+00    0.2863431623E+00    0.2326995225E-03
    0.5000000000E+07    0.1637899654E-01    0.6701773378E-02    0.6958057027E+00    0.2950865046E+00    0.2393998239E-03
    0.7000000000E+07    0.1419129856E-01    0.5863020792E-02    0.6958017284E+00    0.2999979805E+00    0.2439182094E-03
    0.9000000000E+07    0.1272088511E-01    0.5293813375E-02    0.6957986567E+00    0.3032664532E+00    0.2473485639E-03
    0.1100000000E+08    0.1164236709E-01    0.4873249235E-02    0.6957961469E+00    0.3056487518E+00    0.2501222444E-03
    0.1300000000E+08    0.1080626060E-01    0.4545286141E-02    0.6957940215E+00    0.3074874985E+00    0.2524549755E-03
    0.1500000000E+08    0.1013272793E-01    0.4279785400E-02    0.6957921763E+00    0.3089639025E+00    0.2544705120E-03
    0.1700000000E+08    0.9574636394E-02    0.4058854114E-02    0.6957905443E+00    0.3101841844E+00    0.2562465843E-03
    0.1900000000E+08    0.9102087321E-02    0.3871087825E-02    0.6957890804E+00    0.3112153592E+00    0.2578352787E-03
    0.2100000000E+08    0.8695056662E-02    0.3708817109E-02    0.6957877524E+00    0.3121021147E+00    0.2592732380E-03
    0.2300000000E+08    0.8339551323E-02    0.3566662952E-02    0.6957865366E+00    0.3128755688E+00    0.2605872384E-03
    0.2500000000E+08    0.8025452099E-02    0.3440722810E-02    0.6957854151E+00    0.3135581580E+00    0.2617974523E-03
    0.2700000000E+08    0.7745231973E-02    0.3328085284E-02    0.6957843740E+00    0.3141665294E+00    0.2629194627E-03
