  Pressure (Pa) 22mC5-500 (mol/kg) 23mC5-500 (mol/kg) 24mC5-500 (mol/kg) 2mC6-500 (mol/kg) C7-500 (mol/kg)
    0.1000000000E+01    0.1149702872E-04    0.1982333159E-05    0.1266300617E+00    0.2123721091E-04    0.4146898320E-02
    0.3000000000E+01    0.2377056655E-04    0.4087245667E-05    0.2785146675E+00    0.4197747107E-04    0.4174422547E-02
    0.5000000000E+01    0.3005904537E-04    0.5159448162E-05    0.3664157642E+00    0.5192065138E-04    0.4183127108E-02
    0.7000000000E+01    0.3380931933E-04    0.5796472750E-05    0.4237318565E+00    0.5789021596E-04    0.4187810235E-02
    0.9000000000E+01    0.3631077338E-04    0.6220870447E-05    0.4640612848E+00    0.6220192235E-04    0.4190728568E-02
    0.1100000000E+02    0.3813783348E-04    0.6531336790E-05    0.4939814211E+00    0.6578344383E-04    0.4192675621E-02
    0.1300000000E+02    0.3957726909E-04    0.6776903358E-05    0.5170619646E+00    0.6904586645E-04    0.4194021608E-02
    0.1500000000E+02    0.4078427029E-04    0.6983965113E-05    0.5354077705E+00    0.7218320733E-04    0.4194966924E-02
    0.1700000000E+02    0.4184800241E-04    0.7167600826E-05    0.5503403362E+00    0.7529023649E-04    0.4195630780E-02
    0.1900000000E+02    0.4282209320E-04    0.7336822509E-05    0.5627312139E+00    0.7841353851E-04    0.4196088972E-02
    0.2100000000E+02    0.4373996216E-04    0.7497206901E-05    0.5731784907E+00    0.8157530470E-04    0.4196392165E-02
    0.2300000000E+02    0.4462302005E-04    0.7652298525E-05    0.5821062456E+00    0.8478504938E-04    0.4196575583E-02
    0.2500000000E+02    0.4548528030E-04    0.7804396157E-05    0.5898235429E+00    0.8804562834E-04    0.4196664509E-02
    0.2700000000E+02    0.4633606262E-04    0.7955012275E-05    0.5965609489E+00    0.9135642932E-04    0.4196677576E-02
    0.2900000000E+02    0.4718163416E-04    0.8105150933E-05    0.6024939661E+00    0.9471510076E-04    0.4196628828E-02
    0.3100000000E+02    0.4802623563E-04    0.8255480824E-05    0.6077585457E+00    0.9811849988E-04    0.4196529049E-02
    0.3300000000E+02    0.4887273951E-04    0.8406445793E-05    0.6124616350E+00    0.1015632133E-03    0.4196386666E-02
    0.3500000000E+02    0.4972308131E-04    0.8558336957E-05    0.6166885208E+00    0.1050458388E-03    0.4196208353E-02
    0.3700000000E+02    0.5057854779E-04    0.8711340636E-05    0.6205080489E+00    0.1085631325E-03    0.4195999471E-02
    0.3900000000E+02    0.5143997251E-04    0.8865570732E-05    0.6239764038E+00    0.1121120788E-03    0.4195764369E-02
    0.4100000000E+02    0.5230787064E-04    0.9021090892E-05    0.6271398913E+00    0.1156899176E-03    0.4195506616E-02
    0.4300000000E+02    0.5318253283E-04    0.9177929864E-05    0.6300370187E+00    0.1192941467E-03    0.4195229167E-02
    0.4500000000E+02    0.5406409141E-04    0.9336092238E-05    0.6327000699E+00    0.1229225118E-03    0.4194934488E-02
    0.4700000000E+02    0.5495256736E-04    0.9495566021E-05    0.6351563140E+00    0.1265729894E-03    0.4194624654E-02
    0.4900000000E+02    0.5584790405E-04    0.9656328006E-05    0.6374289424E+00    0.1302437673E-03    0.4194301421E-02
    0.1000000000E+02    0.3728643099E-04    0.6386548644E-05    0.4800532329E+00    0.6405102063E-04    0.4191794728E-02
    0.3000000000E+02    0.4760385047E-04    0.8180259955E-05    0.6052025451E+00    0.9641142050E-04    0.4196584743E-02
    0.5000000000E+02    0.5629811235E-04    0.9737182723E-05    0.6385027174E+00    0.1320862555E-03    0.4194135258E-02
    0.7000000000E+02    0.6562340572E-04    0.1141305407E-04    0.6539255612E+00    0.1696910345E-03    0.4190377275E-02
    0.9000000000E+02    0.7544136280E-04    0.1317740663E-04    0.6628211215E+00    0.2082579188E-03    0.4186157937E-02
    0.1100000000E+03    0.8562268476E-04    0.1500602382E-04    0.6686095411E+00    0.2474560629E-03    0.4181719614E-02
    0.1300000000E+03    0.9609179874E-04    0.1688522017E-04    0.6726767790E+00    0.2871696354E-03    0.4177153930E-02
    0.1500000000E+03    0.1068055834E-03    0.1880733519E-04    0.6756911889E+00    0.3273636251E-03    0.4172500946E-02
    0.1700000000E+03    0.1177392901E-03    0.2076804245E-04    0.6780147364E+00    0.3680364952E-03    0.4167779515E-02
    0.1900000000E+03    0.1288788640E-03    0.2276492884E-04    0.6798605178E+00    0.4092014881E-03    0.4162998643E-02
    0.2100000000E+03    0.1402167360E-03    0.2479672933E-04    0.6813621587E+00    0.4508785961E-03    0.4158162355E-02
    0.2300000000E+03    0.1517494333E-03    0.2686289794E-04    0.6826077019E+00    0.4930909093E-03    0.4153271990E-02
    0.2500000000E+03    0.1634761726E-03    0.2896335719E-04    0.6836575170E+00    0.5358628986E-03    0.4148327370E-02
    0.2700000000E+03    0.1753980007E-03    0.3109834644E-04    0.6845543808E+00    0.5792196056E-03    0.4143327424E-02
    0.2900000000E+03    0.1875172554E-03    0.3326832725E-04    0.6853294512E+00    0.6231862750E-03    0.4138270541E-02
    0.3100000000E+03    0.1998372169E-03    0.3547392276E-04    0.6860059609E+00    0.6677882078E-03    0.4133154769E-02
    0.3300000000E+03    0.2123618790E-03    0.3771587796E-04    0.6866015867E+00    0.7130507280E-03    0.4127977940E-02
    0.3500000000E+03    0.2250957957E-03    0.3999503338E-04    0.6871300168E+00    0.7589992056E-03    0.4122737739E-02
    0.3700000000E+03    0.2380439771E-03    0.4231230733E-04    0.6876020154E+00    0.8056591089E-03    0.4117431749E-02
    0.3900000000E+03    0.2512118193E-03    0.4466868396E-04    0.6880261642E+00    0.8530560680E-03    0.4112057475E-02
    0.4100000000E+03    0.2646050559E-03    0.4706520518E-04    0.6884093887E+00    0.9012159447E-03    0.4106612363E-02
    0.4300000000E+03    0.2782297256E-03    0.4950296537E-04    0.6887573394E+00    0.9501649022E-03    0.4101093806E-02
    0.4500000000E+03    0.2920921518E-03    0.5198310786E-04    0.6890746723E+00    0.9999294743E-03    0.4095499147E-02
    0.4700000000E+03    0.3061989285E-03    0.5450682295E-04    0.6893652585E+00    0.1050536632E-02    0.4089825681E-02
    0.4900000000E+03    0.3205569139E-03    0.5707534683E-04    0.6896323429E+00    0.1102013848E-02    0.4084070653E-02
    0.1000000000E+03    0.8049231226E-04    0.1408472273E-04    0.6659922358E+00    0.2277881203E-03    0.4183958614E-02
    0.3000000000E+03    0.1936519128E-03    0.3436662910E-04    0.6856788125E+00    0.6454062514E-03    0.4135720148E-02
    0.5000000000E+03    0.3278323244E-03    0.5837681083E-04    0.6897579452E+00    0.1128087467E-02    0.4081161679E-02
    0.7000000000E+03    0.4884353645E-03    0.8710112536E-04    0.6915212772E+00    0.1702541123E-02    0.4017975708E-02
    0.9000000000E+03    0.6843621092E-03    0.1221367169E-03    0.6925048724E+00    0.2402177071E-02    0.3942903217E-02
    0.1100000000E+04    0.9283520340E-03    0.1657640148E-03    0.6931322718E+00    0.3273214027E-02    0.3851591099E-02
    0.1300000000E+04    0.1239069429E-02    0.2213221805E-03    0.6935672919E+00    0.4382898076E-02    0.3737891370E-02
    0.1500000000E+04    0.1644549037E-02    0.2938262492E-03    0.6938866478E+00    0.5832135053E-02    0.3592834414E-02
    0.1700000000E+04    0.2187637750E-02    0.3909412318E-03    0.6941310514E+00    0.7775289494E-02    0.3403134267E-02
    0.1900000000E+04    0.2933733235E-02    0.5243677477E-03    0.6943241142E+00    0.1044847389E-01    0.3149336719E-02
    0.2100000000E+04    0.3977840593E-02    0.7111075619E-03    0.6944804730E+00    0.1419601199E-01    0.2805024765E-02
    0.2300000000E+04    0.5434323275E-02    0.9716374926E-03    0.6946096836E+00    0.1943594128E-01    0.2343050270E-02
    0.2500000000E+04    0.7360683868E-02    0.1316286572E-02    0.6947182497E+00    0.2638939299E-01    0.1763469107E-02
    0.2700000000E+04    0.9582694213E-02    0.1713954179E-02    0.6948107513E+00    0.3445083247E-01    0.1145510257E-02
    0.2900000000E+04    0.1165424158E-01    0.2084882110E-02    0.6948905070E+00    0.4202866838E-01    0.6387889871E-03
    0.3100000000E+04    0.1324057404E-01    0.2369163850E-02    0.6949599802E+00    0.4790959095E-01    0.3276296816E-03
    0.3300000000E+04    0.1436968078E-01    0.2571749133E-02    0.6950210380E+00    0.5217569019E-01    0.1743351238E-03
    0.3500000000E+04    0.1521778825E-01    0.2724123943E-02    0.6950751214E+00    0.5544900708E-01    0.1075651946E-03
    0.3700000000E+04    0.1591950928E-01    0.2850352719E-02    0.6951233599E+00    0.5820912353E-01    0.8005487040E-04
    0.3900000000E+04    0.1654545428E-01    0.2963061093E-02    0.6951666519E+00    0.6070852585E-01    0.6898229978E-04
    0.4100000000E+04    0.1712807860E-01    0.3068052416E-02    0.6952057205E+00    0.6306331854E-01    0.6459350907E-04
    0.4300000000E+04    0.1768179571E-01    0.3167903236E-02    0.6952411546E+00    0.6532483837E-01    0.6290154502E-04
    0.4500000000E+04    0.1821314138E-01    0.3263780913E-02    0.6952734383E+00    0.6751605727E-01    0.6229805082E-04
    0.4700000000E+04    0.1872529531E-01    0.3356252420E-02    0.6953029736E+00    0.6964784488E-01    0.6213454861E-04
    0.4900000000E+04    0.1922000638E-01    0.3445628781E-02    0.6953300966E+00    0.7172591692E-01    0.6214842910E-04
    0.1000000000E+04    0.7993539158E-03    0.1426983256E-03    0.6928498005E+00    0.2812680335E-02    0.3899609247E-02
    0.3000000000E+04    0.1251343662E-01    0.2238819263E-02    0.6949264006E+00    0.4520180079E-01    0.4590787875E-03
    0.5000000000E+04    0.1946118628E-01    0.3489221095E-02    0.6953428440E+00    0.7274594715E-01    0.6218539617E-04
    0.7000000000E+04    0.2355705427E-01    0.4231822073E-02    0.6955212446E+00    0.9087979639E-01    0.6330425838E-04
    0.9000000000E+04    0.2658685496E-01    0.4784740239E-02    0.6956202505E+00    0.1055998057E+00    0.6419948428E-04
    0.1100000000E+05    0.2887529425E-01    0.5205352292E-02    0.6956831690E+00    0.1178374631E+00    0.6492252253E-04
    0.1300000000E+05    0.3063091135E-01    0.5530577475E-02    0.6957266615E+00    0.1282084159E+00    0.6553016596E-04
    0.1500000000E+05    0.3199328423E-01    0.5785174860E-02    0.6957585035E+00    0.1371369576E+00    0.6605491542E-04
    0.1700000000E+05    0.3305898967E-01    0.5986310391E-02    0.6957828112E+00    0.1449254698E+00    0.6651714610E-04
    0.1900000000E+05    0.3389673319E-01    0.6146221468E-02    0.6958019669E+00    0.1517955866E+00    0.6693049247E-04
    0.2100000000E+05    0.3455655786E-01    0.6273840485E-02    0.6958174451E+00    0.1579136796E+00    0.6730453647E-04
    0.2300000000E+05    0.3507565840E-01    0.6375821037E-02    0.6958302070E+00    0.1634072280E+00    0.6764627426E-04
    0.2500000000E+05    0.3548216923E-01    0.6457207291E-02    0.6958409062E+00    0.1683756698E+00    0.6796097315E-04
    0.2700000000E+05    0.3579770070E-01    0.6521882672E-02    0.6958500021E+00    0.1728977949E+00    0.6825269987E-04
    0.2900000000E+05    0.3603907805E-01    0.6572877889E-02    0.6958578276E+00    0.1770369036E+00    0.6852466098E-04
    0.3100000000E+05    0.3621955925E-01    0.6612586894E-02    0.6958646294E+00    0.1808444835E+00    0.6877943039E-04
    0.3300000000E+05    0.3634970384E-01    0.6642921171E-02    0.6958705942E+00    0.1843628800E+00    0.6901910611E-04
    0.3500000000E+05    0.3643800335E-01    0.6665421818E-02    0.6958758662E+00    0.1876272683E+00    0.6924542122E-04
    0.3700000000E+05    0.3649134570E-01    0.6681342210E-02    0.6958805582E+00    0.1906671330E+00    0.6945982414E-04
    0.3900000000E+05    0.3651536191E-01    0.6691709809E-02    0.6958847600E+00    0.1935073924E+00    0.6966353805E-04
    0.4100000000E+05    0.3651468825E-01    0.6697372959E-02    0.6958885435E+00    0.1961692647E+00    0.6985760539E-04
    0.4300000000E+05    0.3649316671E-01    0.6699036709E-02    0.6958919675E+00    0.1986709422E+00    0.7004292198E-04
    0.4500000000E+05    0.3645399982E-01    0.6697290535E-02    0.6958950802E+00    0.2010281220E+00    0.7022026338E-04
    0.4700000000E+05    0.3639987154E-01    0.6692629993E-02    0.6958979216E+00    0.2032544278E+00    0.7039030559E-04
    0.4900000000E+05    0.3633304224E-01    0.6685473784E-02    0.6959005252E+00    0.2053617481E+00    0.7055364144E-04
    0.1000000000E+05    0.2780868312E-01    0.5008919683E-02    0.6956548670E+00    0.1119848732E+00    0.6457818460E-04
    0.3000000000E+05    0.3613621580E-01    0.6594013875E-02    0.6958613436E+00    0.1789792997E+00    0.6865405385E-04
    0.5000000000E+05    0.3629547416E-01    0.6681073027E-02    0.6959017467E+00    0.2063740977E+00    0.7063296029E-04
    0.7000000000E+05    0.3521317724E-01    0.6524876978E-02    0.6959186624E+00    0.2223391181E+00    0.7196703017E-04
    0.9000000000E+05    0.3392409795E-01    0.6319723432E-02    0.6959278304E+00    0.2331707449E+00    0.7297971623E-04
    0.1100000000E+06    0.3266722006E-01    0.6112997632E-02    0.6959335150E+00    0.2411701881E+00    0.7379848190E-04
    0.1300000000E+06    0.3150220293E-01    0.5917910144E-02    0.6959373448E+00    0.2474066169E+00    0.7448705111E-04
    0.1500000000E+06    0.3043844564E-01    0.5737642748E-02    0.6959400746E+00    0.2524546294E+00    0.7508197313E-04
    0.1700000000E+06    0.2947024595E-01    0.5572117694E-02    0.6959421012E+00    0.2566549694E+00    0.7560620141E-04
    0.1900000000E+06    0.2858784709E-01    0.5420210550E-02    0.6959436525E+00    0.2602246090E+00    0.7607511537E-04
    0.2100000000E+06    0.2778113172E-01    0.5280536744E-02    0.6959448685E+00    0.2633093630E+00    0.7649953363E-04
    0.2300000000E+06    0.2704082320E-01    0.5151737489E-02    0.6959458399E+00    0.2660114601E+00    0.7688736137E-04
    0.2500000000E+06    0.2635879321E-01    0.5032577016E-02    0.6959466278E+00    0.2684050562E+00    0.7724455384E-04
    0.2700000000E+06    0.2572804794E-01    0.4921966254E-02    0.6959472749E+00    0.2705454739E+00    0.7757571124E-04
    0.2900000000E+06    0.2514260830E-01    0.4818958234E-02    0.6959478119E+00    0.2724749666E+00    0.7788446228E-04
    0.3100000000E+06    0.2459736685E-01    0.4722733618E-02    0.6959482613E+00    0.2742264573E+00    0.7817372074E-04
    0.3300000000E+06    0.2408795176E-01    0.4632583959E-02    0.6959486401E+00    0.2758260434E+00    0.7844586241E-04
    0.3500000000E+06    0.2361060779E-01    0.4547895680E-02    0.6959489612E+00    0.2772947233E+00    0.7870285030E-04
    0.3700000000E+06    0.2316209572E-01    0.4468135835E-02    0.6959492347E+00    0.2786496161E+00    0.7894632544E-04
    0.3900000000E+06    0.2273960872E-01    0.4392839877E-02    0.6959494685E+00    0.2799048409E+00    0.7917767387E-04
    0.4100000000E+06    0.2234070352E-01    0.4321601331E-02    0.6959496690E+00    0.2810721640E+00    0.7939807710E-04
    0.4300000000E+06    0.2196324358E-01    0.4254063123E-02    0.6959498413E+00    0.2821614820E+00    0.7960855060E-04
    0.4500000000E+06    0.2160535234E-01    0.4189910352E-02    0.6959499894E+00    0.2831811894E+00    0.7980997363E-04
    0.4700000000E+06    0.2126537457E-01    0.4128864232E-02    0.6959501170E+00    0.2841384605E+00    0.8000311270E-04
    0.4900000000E+06    0.2094184435E-01    0.4070677031E-02    0.6959502266E+00    0.2850394693E+00    0.8018864007E-04
    0.1000000000E+06    0.3328599402E-01    0.6215356918E-02    0.6959309756E+00    0.2374411878E+00    0.7340847016E-04
    0.3000000000E+06    0.2486525180E-01    0.4770044682E-02    0.6959480464E+00    0.2733711944E+00    0.7803136866E-04
    0.5000000000E+06    0.2078583407E-01    0.4042585541E-02    0.6959502756E+00    0.2854705747E+00    0.8027873743E-04
    0.7000000000E+06    0.1827793414E-01    0.3588051426E-02    0.6959507286E+00    0.2921268232E+00    0.8179425026E-04
    0.9000000000E+06    0.1653064274E-01    0.3268008988E-02    0.6959506977E+00    0.2964969300E+00    0.8294482532E-04
    0.1100000000E+07    0.1522040113E-01    0.3026126261E-02    0.6959504959E+00    0.2996504684E+00    0.8387514651E-04
    0.1300000000E+07    0.1418916717E-01    0.2834555904E-02    0.6959502286E+00    0.3020652841E+00    0.8465757009E-04
    0.1500000000E+07    0.1334918896E-01    0.2677701117E-02    0.6959499382E+00    0.3039916136E+00    0.8533360452E-04
    0.1700000000E+07    0.1264723340E-01    0.2546035753E-02    0.6959496432E+00    0.3055749751E+00    0.8592932109E-04
    0.1900000000E+07    0.1204884064E-01    0.2433358506E-02    0.6959493524E+00    0.3069065655E+00    0.8646218988E-04
    0.2100000000E+07    0.1153056509E-01    0.2335430023E-02    0.6959490697E+00    0.3080468485E+00    0.8694450107E-04
    0.2300000000E+07    0.1107581379E-01    0.2249237576E-02    0.6959487969E+00    0.3090377152E+00    0.8738523556E-04
    0.2500000000E+07    0.1067246176E-01    0.2172571588E-02    0.6959485345E+00    0.3099092336E+00    0.8779115931E-04
    0.2700000000E+07    0.1031141078E-01    0.2103768610E-02    0.6959482826E+00    0.3106836229E+00    0.8816749891E-04
    0.2900000000E+07    0.9985679613E-02    0.2041548445E-02    0.6959480409E+00    0.3113777064E+00    0.8851837734E-04
    0.3100000000E+07    0.9689808192E-02    0.1984907116E-02    0.6959478088E+00    0.3120044885E+00    0.8884710531E-04
    0.3300000000E+07    0.9419455140E-02    0.1933044350E-02    0.6959475859E+00    0.3125742023E+00    0.8915638233E-04
    0.3500000000E+07    0.9171118473E-02    0.1885313103E-02    0.6959473715E+00    0.3130950254E+00    0.8944843893E-04
    0.3700000000E+07    0.8941937237E-02    0.1841183632E-02    0.6959471652E+00    0.3135735825E+00    0.8972513979E-04
    0.3900000000E+07    0.8729547692E-02    0.1800217371E-02    0.6959469665E+00    0.3140153054E+00    0.8998805990E-04
    0.4100000000E+07    0.8531977138E-02    0.1762047615E-02    0.6959467748E+00    0.3144246954E+00    0.9023854182E-04
    0.4300000000E+07    0.8347564255E-02    0.1726364988E-02    0.6959465897E+00    0.3148055193E+00    0.9047773947E-04
    0.4500000000E+07    0.8174898454E-02    0.1692906358E-02    0.6959464108E+00    0.3151609561E+00    0.9070665201E-04
    0.4700000000E+07    0.8012773099E-02    0.1661446281E-02    0.6959462378E+00    0.3154937107E+00    0.9092615045E-04
    0.4900000000E+07    0.7860148990E-02    0.1631790297E-02    0.6959460702E+00    0.3158061003E+00    0.9113699873E-04
    0.1000000000E+07    0.1583307286E-01    0.3139438246E-02    0.6959506093E+00    0.2981882337E+00    0.8343198949E-04
    0.3000000000E+07    0.9834305240E-02    0.2012584540E-02    0.6959479237E+00    0.3116988153E+00    0.8868532898E-04
    0.5000000000E+07    0.7787113718E-02    0.1617585218E-02    0.6959459884E+00    0.3159552938E+00    0.9123939277E-04
    0.7000000000E+07    0.6658689051E-02    0.1396911952E-02    0.6959445726E+00    0.3182367329E+00    0.9296175633E-04
    0.9000000000E+07    0.5916954795E-02    0.1250521301E-02    0.6959434578E+00    0.3197129630E+00    0.9426938192E-04
    0.1100000000E+08    0.5381144607E-02    0.1144029158E-02    0.6959425374E+00    0.3207682952E+00    0.9532669369E-04
    0.1300000000E+08    0.4970442239E-02    0.1061938124E-02    0.6959417528E+00    0.3215711309E+00    0.9621592163E-04
    0.1500000000E+08    0.4642512932E-02    0.9960787116E-03    0.6959410683E+00    0.3222084672E+00    0.9698423895E-04
    0.1700000000E+08    0.4372731552E-02    0.9416742551E-03    0.6959404609E+00    0.3227303835E+00    0.9766127522E-04
    0.1900000000E+08    0.4145660978E-02    0.8957171237E-03    0.6959399146E+00    0.3231680179E+00    0.9826688495E-04
    0.2100000000E+08    0.3951062992E-02    0.8562049351E-03    0.6959394179E+00    0.3235418845E+00    0.9881503583E-04
    0.2300000000E+08    0.3781841736E-02    0.8217451674E-03    0.6959389625E+00    0.3238661220E+00    0.9931593461E-04
    0.2500000000E+08    0.3632902045E-02    0.7913348704E-03    0.6959385418E+00    0.3241508350E+00    0.9977727079E-04
    0.2700000000E+08    0.3500477328E-02    0.7642305602E-03    0.6959381508E+00    0.3244034626E+00    0.1002049844E-03
