  Pressure (Pa) 22mC5-500 (mol/kg) 23mC5-500 (mol/kg) 24mC5-500 (mol/kg) 2mC6-500 (mol/kg) C7-500 (mol/kg)
    0.1000000000E+01    0.1321089592E-04    0.1518671830E-05    0.3665695107E-01    0.1383203227E-04    0.4239299203E-02
    0.3000000000E+01    0.3491835696E-04    0.4009489456E-05    0.9946364275E-01    0.3575880735E-04    0.4370652082E-02
    0.5000000000E+01    0.5206918859E-04    0.5973348150E-05    0.1513157451E+00    0.5243617434E-04    0.4478264903E-02
    0.7000000000E+01    0.6587885013E-04    0.7551408145E-05    0.1948498191E+00    0.6538924673E-04    0.4568944355E-02
    0.9000000000E+01    0.7716856074E-04    0.8838916165E-05    0.2319191269E+00    0.7561910299E-04    0.4646538385E-02
    0.1100000000E+02    0.8651820623E-04    0.9903060202E-05    0.2638644139E+00    0.8381747684E-04    0.4713757919E-02
    0.1300000000E+02    0.9434874038E-04    0.1079256647E-04    0.2916796245E+00    0.9047618666E-04    0.4772600131E-02
    0.1500000000E+02    0.1009725454E-03    0.1154355875E-04    0.3161172257E+00    0.9595260930E-04    0.4824574948E-02
    0.1700000000E+02    0.1066257794E-03    0.1218331942E-04    0.3377573427E+00    0.1005111487E-03    0.4870846884E-02
    0.1900000000E+02    0.1114898652E-03    0.1273278648E-04    0.3570544298E+00    0.1043504537E-03    0.4912329178E-02
    0.2100000000E+02    0.1157061519E-03    0.1320825627E-04    0.3743695526E+00    0.1076217761E-03    0.4949748447E-02
    0.2300000000E+02    0.1193861477E-03    0.1362257129E-04    0.3899932059E+00    0.1104416362E-03    0.4983690247E-02
    0.2500000000E+02    0.1226188041E-03    0.1398596519E-04    0.4041617528E+00    0.1129007320E-03    0.5014631851E-02
    0.2700000000E+02    0.1254757912E-03    0.1430667441E-04    0.4170694729E+00    0.1150703134E-03    0.5042966272E-02
    0.2900000000E+02    0.1280153789E-03    0.1459138794E-04    0.4288775296E+00    0.1170068136E-03    0.5069020134E-02
    0.3100000000E+02    0.1302853317E-03    0.1484558257E-04    0.4397207385E+00    0.1187552584E-03    0.5093067184E-02
    0.3300000000E+02    0.1323250961E-03    0.1507377610E-04    0.4497127402E+00    0.1203518088E-03    0.5115338609E-02
    0.3500000000E+02    0.1341674728E-03    0.1527972065E-04    0.4589500012E+00    0.1218256765E-03    0.5136031039E-02
    0.3700000000E+02    0.1358399072E-03    0.1546655201E-04    0.4675149403E+00    0.1232005838E-03    0.5155312792E-02
    0.3900000000E+02    0.1373654972E-03    0.1563690590E-04    0.4754783959E+00    0.1244958848E-03    0.5173328819E-02
    0.4100000000E+02    0.1387637857E-03    0.1579300958E-04    0.4829015910E+00    0.1257274353E-03    0.5190204637E-02
    0.4300000000E+02    0.1400513890E-03    0.1593675434E-04    0.4898377113E+00    0.1269082721E-03    0.5206049500E-02
    0.4500000000E+02    0.1412425005E-03    0.1606975349E-04    0.4963331825E+00    0.1280491483E-03    0.5220958959E-02
    0.4700000000E+02    0.1423492949E-03    0.1619338907E-04    0.5024287110E+00    0.1291589568E-03    0.5235016959E-02
    0.4900000000E+02    0.1433822575E-03    0.1630884965E-04    0.5081601385E+00    0.1302450689E-03    0.5248297555E-02
    0.1000000000E+02    0.8205655887E-04    0.9395512272E-05    0.2484634786E+00    0.7993771825E-04    0.4681306613E-02
    0.3000000000E+02    0.1291814210E-03    0.1472199779E-04    0.4344121930E+00    0.1179021001E-03    0.5081279167E-02
    0.5000000000E+02    0.1438739333E-03    0.1636384053E-04    0.5108993609E+00    0.1307811941E-03    0.5254667121E-02
    0.7000000000E+02    0.1514835277E-03    0.1722096709E-04    0.5526057914E+00    0.1412871589E-03    0.5353791203E-02
    0.9000000000E+02    0.1571500950E-03    0.1787251885E-04    0.5788619270E+00    0.1524668444E-03    0.5418930224E-02
    0.1100000000E+03    0.1623494694E-03    0.1848155446E-04    0.5969119221E+00    0.1646971316E-03    0.5465490337E-02
    0.1300000000E+03    0.1675780396E-03    0.1910134720E-04    0.6100830987E+00    0.1778854089E-03    0.5500688929E-02
    0.1500000000E+03    0.1730108144E-03    0.1974972998E-04    0.6201180415E+00    0.1918748424E-03    0.5528379373E-02
    0.1700000000E+03    0.1787041856E-03    0.2043174245E-04    0.6280177165E+00    0.2065260337E-03    0.5550817198E-02
    0.1900000000E+03    0.1846681036E-03    0.2114758106E-04    0.6343980725E+00    0.2217289362E-03    0.5569416222E-02
    0.2100000000E+03    0.1908943138E-03    0.2189565432E-04    0.6396589259E+00    0.2373995085E-03    0.5585110948E-02
    0.2300000000E+03    0.1973680727E-03    0.2267381946E-04    0.6440711179E+00    0.2534740386E-03    0.5598545780E-02
    0.2500000000E+03    0.2040731388E-03    0.2347989012E-04    0.6478246418E+00    0.2699041367E-03    0.5610180730E-02
    0.2700000000E+03    0.2109938727E-03    0.2431183644E-04    0.6510567156E+00    0.2866528646E-03    0.5620353775E-02
    0.2900000000E+03    0.2181160509E-03    0.2516785211E-04    0.6538689175E+00    0.3036918678E-03    0.5629319356E-02
    0.3100000000E+03    0.2254271000E-03    0.2604636377E-04    0.6563380511E+00    0.3209992749E-03    0.5637273062E-02
    0.3300000000E+03    0.2329160752E-03    0.2694601656E-04    0.6585232649E+00    0.3385581583E-03    0.5644367981E-02
    0.3500000000E+03    0.2405735329E-03    0.2786565131E-04    0.6604708496E+00    0.3563553995E-03    0.5650725841E-02
    0.3700000000E+03    0.2483913683E-03    0.2880428002E-04    0.6622175518E+00    0.3743808455E-03    0.5656444791E-02
    0.3900000000E+03    0.2563626512E-03    0.2976106278E-04    0.6637929132E+00    0.3926266761E-03    0.5661604947E-02
    0.4100000000E+03    0.2644814722E-03    0.3073528708E-04    0.6652209541E+00    0.4110869246E-03    0.5666272429E-02
    0.4300000000E+03    0.2727428065E-03    0.3172634989E-04    0.6665214055E+00    0.4297571107E-03    0.5670502351E-02
    0.4500000000E+03    0.2811423952E-03    0.3273374234E-04    0.6677106257E+00    0.4486339584E-03    0.5674341061E-02
    0.4700000000E+03    0.2896766427E-03    0.3375703661E-04    0.6688022915E+00    0.4677151753E-03    0.5677827850E-02
    0.4900000000E+03    0.2983425296E-03    0.3479587501E-04    0.6698079259E+00    0.4869992796E-03    0.5680996276E-02
    0.1000000000E+03    0.1597655807E-03    0.1817773711E-04    0.5886518484E+00    0.1584529707E-03    0.5443969900E-02
    0.3000000000E+03    0.2217486876E-03    0.2560438549E-04    0.6551423223E+00    0.3123131797E-03    0.5633412280E-02
    0.5000000000E+03    0.3027240333E-03    0.3532102832E-04    0.6702815957E+00    0.4967171391E-03    0.5682470279E-02
    0.7000000000E+03    0.3968649602E-03    0.4659345264E-04    0.6769816583E+00    0.7017958674E-03    0.5700498971E-02
    0.9000000000E+03    0.5032730914E-03    0.5931823442E-04    0.6807588441E+00    0.9286277318E-03    0.5704232433E-02
    0.1100000000E+04    0.6227767047E-03    0.7359748133E-04    0.6831821594E+00    0.1180315009E-02    0.5698913483E-02
    0.1300000000E+04    0.7570440248E-03    0.8963230305E-04    0.6848681893E+00    0.1461033361E-02    0.5686606956E-02
    0.1500000000E+04    0.9084004156E-03    0.1077014476E-03    0.6861085265E+00    0.1776008190E-02    0.5668114062E-02
    0.1700000000E+04    0.1079857641E-02    0.1281650975E-03    0.6870589510E+00    0.2131725597E-02    0.5643584363E-02
    0.1900000000E+04    0.1275246551E-02    0.1514808767E-03    0.6878102464E+00    0.2536278329E-02    0.5612741067E-02
    0.2100000000E+04    0.1499433726E-02    0.1782298025E-03    0.6884188920E+00    0.2999852003E-02    0.5574957668E-02
    0.2300000000E+04    0.1758632672E-02    0.2091534813E-03    0.6889218648E+00    0.3535392083E-02    0.5529261579E-02
    0.2500000000E+04    0.2060836800E-02    0.2452058185E-03    0.6893443868E+00    0.4159516767E-02    0.5474290281E-02
    0.2700000000E+04    0.2416415371E-02    0.2876241683E-03    0.6897042510E+00    0.4893766257E-02    0.5408206729E-02
    0.2900000000E+04    0.2838925868E-02    0.3380263173E-03    0.6900143682E+00    0.5766303581E-02    0.5328572877E-02
    0.3100000000E+04    0.3346200460E-02    0.3985402003E-03    0.6902843338E+00    0.6814191879E-02    0.5232178521E-02
    0.3300000000E+04    0.3961738820E-02    0.4719702242E-03    0.6905214272E+00    0.8086323308E-02    0.5114829841E-02
    0.3500000000E+04    0.4716327486E-02    0.5619907296E-03    0.6907312705E+00    0.9646848050E-02    0.4971128593E-02
    0.3700000000E+04    0.5649472057E-02    0.6733173076E-03    0.6909182747E+00    0.1157826835E-01    0.4794344480E-02
    0.3900000000E+04    0.6809394082E-02    0.8117071679E-03    0.6910859488E+00    0.1398164246E-01    0.4576648667E-02
    0.4100000000E+04    0.8248597540E-02    0.9834313159E-03    0.6912371193E+00    0.1696771908E-01    0.4310296050E-02
    0.4300000000E+04    0.1000937810E-01    0.1193547090E-02    0.6913740881E+00    0.2062730748E-01    0.3990760203E-02
    0.4500000000E+04    0.1209299103E-01    0.1442220455E-02    0.6914987487E+00    0.2496761885E-01    0.3622703892E-02
    0.4700000000E+04    0.1441709380E-01    0.1719646676E-02    0.6916126731E+00    0.2982354225E-01    0.3227222964E-02
    0.4900000000E+04    0.1679665873E-01    0.2003766307E-02    0.6917171771E+00    0.3481618318E-01    0.2843134339E-02
    0.1000000000E+04    0.5612997141E-03    0.6625286848E-04    0.6820898407E+00    0.1051126677E-02    0.5702533898E-02
    0.3000000000E+04    0.3080650100E-02    0.3668620625E-03    0.6901538697E+00    0.6265589023E-02    0.5282707141E-02
    0.5000000000E+04    0.1793335795E-01    0.2139523175E-02    0.6917662501E+00    0.3721116242E-01    0.2669349520E-02
    0.7000000000E+04    0.2779703629E-01    0.3321005862E-02    0.6924491454E+00    0.5898520015E-01    0.1872527460E-02
    0.9000000000E+04    0.3232565357E-01    0.3867207171E-02    0.6928231265E+00    0.7008273186E-01    0.1895885063E-02
    0.1100000000E+05    0.3599053513E-01    0.4311051730E-02    0.6930574202E+00    0.7961914426E-01    0.1917511847E-02
    0.1300000000E+05    0.3900793717E-01    0.4678037652E-02    0.6932169612E+00    0.8795688468E-01    0.1935649138E-02
    0.1500000000E+05    0.4151772097E-01    0.4984649811E-02    0.6933319526E+00    0.9532742899E-01    0.1951281806E-02
    0.1700000000E+05    0.4362315857E-01    0.5243075183E-02    0.6934183233E+00    0.1019048737E+00    0.1965032108E-02
    0.1900000000E+05    0.4540208921E-01    0.5462510923E-02    0.6934852570E+00    0.1078229274E+00    0.1977314502E-02
    0.2100000000E+05    0.4691420563E-01    0.5650019039E-02    0.6935384139E+00    0.1131860816E+00    0.1988419190E-02
    0.2300000000E+05    0.4820598556E-01    0.5811105244E-02    0.6935814681E+00    0.1180772526E+00    0.1998557444E-02
    0.2500000000E+05    0.4931410803E-01    0.5950120222E-02    0.6936169065E+00    0.1225631345E+00    0.2007887950E-02
    0.2700000000E+05    0.5026786911E-01    0.6070543574E-02    0.6936464703E+00    0.1266980259E+00    0.2016532987E-02
    0.2900000000E+05    0.5109092167E-01    0.6175188448E-02    0.6936714142E+00    0.1305266165E+00    0.2024588814E-02
    0.3100000000E+05    0.5180254908E-01    0.6266351468E-02    0.6936926644E+00    0.1340860505E+00    0.2032132588E-02
    0.3300000000E+05    0.5241861165E-01    0.6345924220E-02    0.6937109188E+00    0.1374074763E+00    0.2039227125E-02
    0.3500000000E+05    0.5295225947E-01    0.6415477278E-02    0.6937267129E+00    0.1405172273E+00    0.2045924261E-02
    0.3700000000E+05    0.5341447580E-01    0.6476324313E-02    0.6937404644E+00    0.1434377322E+00    0.2052267276E-02
    0.3900000000E+05    0.5381449614E-01    0.6529571566E-02    0.6937525032E+00    0.1461882247E+00    0.2058292691E-02
    0.4100000000E+05    0.5416013458E-01    0.6576156409E-02    0.6937630937E+00    0.1487853026E+00    0.2064031609E-02
    0.4300000000E+05    0.5445804055E-01    0.6616877702E-02    0.6937724496E+00    0.1512433726E+00    0.2069510740E-02
    0.4500000000E+05    0.5471390238E-01    0.6652419887E-02    0.6937807458E+00    0.1535750069E+00    0.2074753193E-02
    0.4700000000E+05    0.5493261027E-01    0.6683372281E-02    0.6937881266E+00    0.1557912323E+00    0.2079779102E-02
    0.4900000000E+05    0.5511838749E-01    0.6710244633E-02    0.6937947119E+00    0.1579017652E+00    0.2084606115E-02
    0.1000000000E+05    0.3424963633E-01    0.4099986166E-02    0.6929524542E+00    0.7501815255E-01    0.1907215309E-02
    0.3000000000E+05    0.5145960133E-01    0.6222328570E-02    0.6936824530E+00    0.1323379062E+00    0.2028420491E-02
    0.5000000000E+05    0.5520009115E-01    0.6722291493E-02    0.6937977383E+00    0.1589201231E+00    0.2086949969E-02
    0.7000000000E+05    0.5577889357E-01    0.6830716885E-02    0.6938340748E+00    0.1753836167E+00    0.2126351696E-02
    0.9000000000E+05    0.5531098222E-01    0.6804605955E-02    0.6938469091E+00    0.1870282740E+00    0.2156241093E-02
    0.1100000000E+06    0.5445152407E-01    0.6725172648E-02    0.6938503380E+00    0.1959124851E+00    0.2180397130E-02
    0.1300000000E+06    0.5344944656E-01    0.6624030539E-02    0.6938493949E+00    0.2030286111E+00    0.2200706420E-02
    0.1500000000E+06    0.5241070682E-01    0.6515064456E-02    0.6938462471E+00    0.2089243955E+00    0.2218250097E-02
    0.1700000000E+06    0.5138308158E-01    0.6404813968E-02    0.6938419458E+00    0.2139316650E+00    0.2233706721E-02
    0.1900000000E+06    0.5038829052E-01    0.6296457427E-02    0.6938370434E+00    0.2182655909E+00    0.2247530742E-02
    0.2100000000E+06    0.4943561767E-01    0.6191525592E-02    0.6938318470E+00    0.2220731277E+00    0.2260041737E-02
    0.2300000000E+06    0.4852817797E-01    0.6090703017E-02    0.6938265338E+00    0.2254588229E+00    0.2271473156E-02
    0.2500000000E+06    0.4766597841E-01    0.5994227115E-02    0.6938212089E+00    0.2284995472E+00    0.2282000827E-02
    0.2700000000E+06    0.4684747992E-01    0.5902096566E-02    0.6938159349E+00    0.2312533771E+00    0.2291760544E-02
    0.2900000000E+06    0.4607041859E-01    0.5814184078E-02    0.6938107492E+00    0.2337652000E+00    0.2300859410E-02
    0.3100000000E+06    0.4533224455E-01    0.5730298940E-02    0.6938056736E+00    0.2360703859E+00    0.2309383412E-02
    0.3300000000E+06    0.4463035716E-01    0.5650222245E-02    0.6938007200E+00    0.2381972728E+00    0.2317402654E-02
    0.3500000000E+06    0.4396222866E-01    0.5573726808E-02    0.6937958939E+00    0.2401688948E+00    0.2324975054E-02
    0.3700000000E+06    0.4332546605E-01    0.5500588307E-02    0.6937911971E+00    0.2420042136E+00    0.2332149026E-02
    0.3900000000E+06    0.4271783818E-01    0.5430591334E-02    0.6937866285E+00    0.2437190139E+00    0.2338965456E-02
    0.4100000000E+06    0.4213728366E-01    0.5363532444E-02    0.6937821857E+00    0.2453265674E+00    0.2345459197E-02
    0.4300000000E+06    0.4158190803E-01    0.5299221443E-02    0.6937778651E+00    0.2468381327E+00    0.2351660200E-02
    0.4500000000E+06    0.4104997551E-01    0.5237481655E-02    0.6937736626E+00    0.2482633383E+00    0.2357594397E-02
    0.4700000000E+06    0.4053989806E-01    0.5178149595E-02    0.6937695737E+00    0.2496104779E+00    0.2363284395E-02
    0.4900000000E+06    0.4005022348E-01    0.5121074324E-02    0.6937655940E+00    0.2508867440E+00    0.2368750018E-02
    0.1000000000E+06    0.5490963180E-01    0.6768961413E-02    0.6938493821E+00    0.1917387617E+00    0.2168891589E-02
    0.3000000000E+06    0.4569663385E-01    0.5771751399E-02    0.6938081967E+00    0.2349417098E+00    0.2305188564E-02
    0.5000000000E+06    0.3981261766E-01    0.5093339051E-02    0.6937636437E+00    0.2515002918E+00    0.2371404236E-02
    0.7000000000E+06    0.3586386073E-01    0.4628694854E-02    0.6937293318E+00    0.2612247779E+00    0.2416046254E-02
    0.9000000000E+06    0.3297234345E-01    0.4284203328E-02    0.6937017541E+00    0.2678873340E+00    0.2449933601E-02
    0.1100000000E+07    0.3072993702E-01    0.4014642066E-02    0.6936787326E+00    0.2728459608E+00    0.2477331138E-02
    0.1300000000E+07    0.2892066798E-01    0.3795619183E-02    0.6936589713E+00    0.2767344641E+00    0.2500371342E-02
    0.1500000000E+07    0.2741813394E-01    0.3612679159E-02    0.6936416527E+00    0.2798961888E+00    0.2520277396E-02
    0.1700000000E+07    0.2614264763E-01    0.3456624089E-02    0.6936262310E+00    0.2825363479E+00    0.2537817504E-02
    0.1900000000E+07    0.2504105932E-01    0.3321274013E-02    0.6936123252E+00    0.2847865214E+00    0.2553506394E-02
    0.2100000000E+07    0.2407632231E-01    0.3202295162E-02    0.6935996586E+00    0.2867356613E+00    0.2567706155E-02
    0.2300000000E+07    0.2322168468E-01    0.3096541882E-02    0.6935880240E+00    0.2884464432E+00    0.2580681363E-02
    0.2500000000E+07    0.2245726024E-01    0.3001665314E-02    0.6935772626E+00    0.2899645238E+00    0.2592631335E-02
    0.2700000000E+07    0.2176790419E-01    0.2915869518E-02    0.6935672496E+00    0.2913240870E+00    0.2603710034E-02
    0.2900000000E+07    0.2114184354E-01    0.2837753433E-02    0.6935578854E+00    0.2925513214E+00    0.2614038907E-02
    0.3100000000E+07    0.2056976381E-01    0.2766204999E-02    0.6935490892E+00    0.2936666866E+00    0.2623715473E-02
    0.3300000000E+07    0.2004418204E-01    0.2700328197E-02    0.6935407944E+00    0.2946864378E+00    0.2632819245E-02
    0.3500000000E+07    0.1955900561E-01    0.2639391512E-02    0.6935329455E+00    0.2956236801E+00    0.2641415921E-02
    0.3700000000E+07    0.1910921479E-01    0.2582790741E-02    0.6935254960E+00    0.2964891165E+00    0.2649560422E-02
    0.3900000000E+07    0.1869063006E-01    0.2530021640E-02    0.6935184061E+00    0.2972915883E+00    0.2657299133E-02
    0.4100000000E+07    0.1829973841E-01    0.2480659453E-02    0.6935116419E+00    0.2980384733E+00    0.2664671596E-02
    0.4300000000E+07    0.1793356189E-01    0.2434343382E-02    0.6935051740E+00    0.2987359852E+00    0.2671711796E-02
    0.4500000000E+07    0.1758955651E-01    0.2390764617E-02    0.6934989769E+00    0.2993894003E+00    0.2678449157E-02
    0.4700000000E+07    0.1726553380E-01    0.2349657013E-02    0.6934930283E+00    0.3000032324E+00    0.2684909331E-02
    0.4900000000E+07    0.1695959894E-01    0.2310789745E-02    0.6934873085E+00    0.3005813699E+00    0.2691114816E-02
    0.1000000000E+07    0.3178635956E-01    0.4141896088E-02    0.6936897695E+00    0.2705303629E+00    0.2464280664E-02
    0.3000000000E+07    0.2084956077E-01    0.2801218636E-02    0.6935534208E+00    0.2931218874E+00    0.2618953393E-02
    0.5000000000E+07    0.1681289034E-01    0.2292132298E-02    0.6934845288E+00    0.3008581242E+00    0.2694128343E-02
    0.7000000000E+07    0.1452064820E-01    0.1998951344E-02    0.6934376092E+00    0.3051427999E+00    0.2744815186E-02
    0.9000000000E+07    0.1298767355E-01    0.1801003444E-02    0.6934018205E+00    0.3079690433E+00    0.2783292462E-02
    0.1100000000E+08    0.1186726959E-01    0.1655278461E-02    0.6933728029E+00    0.3100160727E+00    0.2814401431E-02
    0.1300000000E+08    0.1100104794E-01    0.1541953814E-02    0.6933483541E+00    0.3115884403E+00    0.2840563027E-02
    0.1500000000E+08    0.1030476531E-01    0.1450414661E-02    0.6933272024E+00    0.3128460811E+00    0.2863165975E-02
    0.1700000000E+08    0.9728850622E-02    0.1374380314E-02    0.6933085457E+00    0.3138822228E+00    0.2883082483E-02
    0.1900000000E+08    0.9241942530E-02    0.1309858646E-02    0.6932918448E+00    0.3147554147E+00    0.2900896979E-02
    0.2100000000E+08    0.8823084653E-02    0.1254171186E-02    0.6932767194E+00    0.3155045491E+00    0.2917020592E-02
    0.2300000000E+08    0.8457660633E-02    0.1205443095E-02    0.6932628912E+00    0.3161566190E+00    0.2931753736E-02
    0.2500000000E+08    0.8135118329E-02    0.1162316504E-02    0.6932501500E+00    0.3167310305E+00    0.2945322728E-02
    0.2700000000E+08    0.7847620335E-02    0.1123779950E-02    0.6932383333E+00    0.3172421454E+00    0.2957902390E-02
