  Pressure (Pa) 22mC5-500 (mol/kg) 23mC5-500 (mol/kg) 24mC5-500 (mol/kg) 2mC6-500 (mol/kg) C7-500 (mol/kg)
    0.1000000000E+01    0.1243153306E-04    0.7142209214E-06    0.6964562881E-01    0.9685750716E-05    0.4245055315E-02
    0.3000000000E+01    0.2982107690E-04    0.1710114953E-05    0.1740528436E+00    0.2245798136E-04    0.4368549473E-02
    0.5000000000E+01    0.4126076164E-04    0.2362652483E-05    0.2485853430E+00    0.3030086727E-04    0.4456651801E-02
    0.7000000000E+01    0.4920040157E-04    0.2813805756E-05    0.3044612694E+00    0.3542320057E-04    0.4523321102E-02
    0.9000000000E+01    0.5494019371E-04    0.3138771369E-05    0.3479068322E+00    0.3894710073E-04    0.4575701848E-02
    0.1100000000E+02    0.5922911335E-04    0.3380779184E-05    0.3826550389E+00    0.4149104056E-04    0.4618043796E-02
    0.1300000000E+02    0.6252502067E-04    0.3566201324E-05    0.4110801066E+00    0.4341583256E-04    0.4653050147E-02
    0.1500000000E+02    0.6512107910E-04    0.3711887053E-05    0.4347641424E+00    0.4494129756E-04    0.4682526296E-02
    0.1700000000E+02    0.6721212615E-04    0.3829009225E-05    0.4548020567E+00    0.4620599965E-04    0.4707725490E-02
    0.1900000000E+02    0.6893168323E-04    0.3925206586E-05    0.4719756965E+00    0.4729968453E-04    0.4729545701E-02
    0.2100000000E+02    0.7037362897E-04    0.4005836799E-05    0.4868582743E+00    0.4828175093E-04    0.4748647647E-02
    0.2300000000E+02    0.7160541964E-04    0.4074739785E-05    0.4998796094E+00    0.4919218996E-04    0.4765528600E-02
    0.2500000000E+02    0.7267643652E-04    0.4134719062E-05    0.5113683286E+00    0.5005828172E-04    0.4780570188E-02
    0.2700000000E+02    0.7362341504E-04    0.4187854388E-05    0.5215799909E+00    0.5089881180E-04    0.4794070318E-02
    0.2900000000E+02    0.7447406794E-04    0.4235710111E-05    0.5307163269E+00    0.5172679150E-04    0.4806265045E-02
    0.3100000000E+02    0.7524955835E-04    0.4279477175E-05    0.5389387020E+00    0.5255125016E-04    0.4817343915E-02
    0.3300000000E+02    0.7596622185E-04    0.4320071857E-05    0.5463777321E+00    0.5337843795E-04    0.4827460945E-02
    0.3500000000E+02    0.7663678698E-04    0.4358205646E-05    0.5531402749E+00    0.5421264614E-04    0.4836742619E-02
    0.3700000000E+02    0.7727125422E-04    0.4394435484E-05    0.5593145972E+00    0.5505677449E-04    0.4845293819E-02
    0.3900000000E+02    0.7787753799E-04    0.4429200401E-05    0.5649742493E+00    0.5591272854E-04    0.4853202274E-02
    0.4100000000E+02    0.7846194182E-04    0.4462848592E-05    0.5701810097E+00    0.5678170083E-04    0.4860541955E-02
    0.4300000000E+02    0.7902951405E-04    0.4495657647E-05    0.5749871492E+00    0.5766437182E-04    0.4867375688E-02
    0.4500000000E+02    0.7958431709E-04    0.4527849839E-05    0.5794371927E+00    0.5856105462E-04    0.4873757194E-02
    0.4700000000E+02    0.8012963314E-04    0.4559603785E-05    0.5835693025E+00    0.5947179991E-04    0.4879732692E-02
    0.4900000000E+02    0.8066812288E-04    0.4591063421E-05    0.5874163757E+00    0.6039647244E-04    0.4885342176E-02
    0.1000000000E+02    0.5723245940E-04    0.3268211110E-05    0.3661962602E+00    0.4031472948E-04    0.4597932121E-02
    0.3000000000E+02    0.7487009062E-04    0.4258041954E-05    0.5349329679E+00    0.5213901629E-04    0.4811933609E-02
    0.5000000000E+02    0.8093550035E-04    0.4606720118E-05    0.5892420840E+00    0.6086395242E-04    0.4888020714E-02
    0.7000000000E+02    0.8627534727E-04    0.4922983325E-05    0.6160483220E+00    0.7084923069E-04    0.4928836851E-02
    0.9000000000E+02    0.9193594865E-04    0.5261905145E-05    0.6320221355E+00    0.8174886655E-04    0.4954952804E-02
    0.1100000000E+03    0.9800693821E-04    0.5626601330E-05    0.6426257065E+00    0.9323564556E-04    0.4973382573E-02
    0.1300000000E+03    0.1044387218E-03    0.6013275669E-05    0.6501772762E+00    0.1051143636E-03    0.4987216955E-02
    0.1500000000E+03    0.1111698366E-03    0.6417909360E-05    0.6558286107E+00    0.1172702252E-03    0.4998047710E-02
    0.1700000000E+03    0.1181487417E-03    0.6837271406E-05    0.6602166984E+00    0.1296337134E-03    0.5006786121E-02
    0.1900000000E+03    0.1253354882E-03    0.7268909312E-05    0.6637224427E+00    0.1421613589E-03    0.5013995596E-02
    0.2100000000E+03    0.1326996641E-03    0.7710980595E-05    0.6665875999E+00    0.1548252359E-03    0.5020045445E-02
    0.2300000000E+03    0.1402181079E-03    0.8162095396E-05    0.6689730007E+00    0.1676070372E-03    0.5025189151E-02
    0.2500000000E+03    0.1478730626E-03    0.8621196190E-05    0.6709897970E+00    0.1804946059E-03    0.5029607279E-02
    0.2700000000E+03    0.1556507995E-03    0.9087470556E-05    0.6727172677E+00    0.1934798316E-03    0.5033432453E-02
    0.2900000000E+03    0.1635406154E-03    0.9560288670E-05    0.6742134794E+00    0.2065573331E-03    0.5036764615E-02
    0.3100000000E+03    0.1715341025E-03    0.1003915837E-04    0.6755219355E+00    0.2197236099E-03    0.5039680739E-02
    0.3300000000E+03    0.1796246150E-03    0.1052369259E-04    0.6766758728E+00    0.2329764822E-03    0.5042241233E-02
    0.3500000000E+03    0.1878068748E-03    0.1101358544E-04    0.6777011211E+00    0.2463147127E-03    0.5044494281E-02
    0.3700000000E+03    0.1960766768E-03    0.1150859450E-04    0.6786180575E+00    0.2597377462E-03    0.5046478869E-02
    0.3900000000E+03    0.2044306672E-03    0.1200852747E-04    0.6794429734E+00    0.2732455282E-03    0.5048226939E-02
    0.4100000000E+03    0.2128661741E-03    0.1251323213E-04    0.6801890491E+00    0.2868383754E-03    0.5049764958E-02
    0.4300000000E+03    0.2213810766E-03    0.1302258847E-04    0.6808670630E+00    0.3005168824E-03    0.5051115078E-02
    0.4500000000E+03    0.2299737038E-03    0.1353650276E-04    0.6814859146E+00    0.3142818546E-03    0.5052296003E-02
    0.4700000000E+03    0.2386427544E-03    0.1405490281E-04    0.6820530171E+00    0.3281342581E-03    0.5053323656E-02
    0.4900000000E+03    0.2473872339E-03    0.1457773423E-04    0.6825745949E+00    0.3420751827E-03    0.5054211692E-02
    0.1000000000E+03    0.9492240368E-04    0.5441235592E-05    0.6378104299E+00    0.8743350701E-04    0.4964884548E-02
    0.3000000000E+03    0.1675248515E-03    0.9798993412E-05    0.6748888979E+00    0.2131295366E-03    0.5038270577E-02
    0.5000000000E+03    0.2517875200E-03    0.1484079883E-04    0.6828199897E+00    0.3490792080E-03    0.5054607103E-02
    0.7000000000E+03    0.3436745448E-03    0.2033094253E-04    0.6862720780E+00    0.4941310214E-03    0.5057352606E-02
    0.9000000000E+03    0.4431620825E-03    0.2627094261E-04    0.6882024094E+00    0.6496814921E-03    0.5053421447E-02
    0.1100000000E+04    0.5509510386E-03    0.3270394037E-04    0.6894347038E+00    0.8173701525E-03    0.5045070843E-02
    0.1300000000E+04    0.6680438310E-03    0.3969042104E-04    0.6902891507E+00    0.9990138410E-03    0.5033228869E-02
    0.1500000000E+04    0.7956718563E-03    0.4730423431E-04    0.6909161349E+00    0.1196664359E-02    0.5018287325E-02
    0.1700000000E+04    0.9353025519E-03    0.5563315853E-04    0.6913956131E+00    0.1412682115E-02    0.5000365710E-02
    0.1900000000E+04    0.1088676253E-02    0.6478116597E-04    0.6917740160E+00    0.1649820584E-02    0.4979415763E-02
    0.2100000000E+04    0.1257862179E-02    0.7487179722E-04    0.6920801498E+00    0.1911326641E-02    0.4955265461E-02
    0.2300000000E+04    0.1445332986E-02    0.8605262795E-04    0.6923328321E+00    0.2201063693E-02    0.4927635383E-02
    0.2500000000E+04    0.1654061168E-02    0.9850103172E-04    0.6925448748E+00    0.2523665927E-02    0.4896139965E-02
    0.2700000000E+04    0.1887643012E-02    0.1124315835E-03    0.6927253023E+00    0.2884734102E-02    0.4860278564E-02
    0.2900000000E+04    0.2150458123E-02    0.1281055824E-03    0.6928806542E+00    0.3291086139E-02    0.4819418046E-02
    0.3100000000E+04    0.2447875007E-02    0.1458433236E-03    0.6930157852E+00    0.3751079458E-02    0.4772766978E-02
    0.3300000000E+04    0.2786516099E-02    0.1660399164E-03    0.6931343743E+00    0.4275026389E-02    0.4719340563E-02
    0.3500000000E+04    0.3174598310E-02    0.1891856113E-03    0.6932392608E+00    0.4875728330E-02    0.4657914954E-02
    0.3700000000E+04    0.3622366702E-02    0.2158916876E-03    0.6933326701E+00    0.5569156967E-02    0.4586969550E-02
    0.3900000000E+04    0.4142636273E-02    0.2469227991E-03    0.6934163716E+00    0.6375307281E-02    0.4504616780E-02
    0.4100000000E+04    0.4751443725E-02    0.2832358942E-03    0.6934917894E+00    0.7319227434E-02    0.4408521738E-02
    0.4300000000E+04    0.5468773827E-02    0.3260236079E-03    0.6935600826E+00    0.8432173853E-02    0.4295821097E-02
    0.4500000000E+04    0.6319236611E-02    0.3767547537E-03    0.6936222043E+00    0.9752703968E-02    0.4163065983E-02
    0.4700000000E+04    0.7332383569E-02    0.4371933283E-03    0.6936789452E+00    0.1132722822E-01    0.4006244094E-02
    0.4900000000E+04    0.8541990596E-02    0.5093559397E-03    0.6937309667E+00    0.1320898280E-01    0.3820991380E-02
    0.1000000000E+04    0.4959618307E-03    0.2942236097E-04    0.6888798469E+00    0.7318997036E-03    0.5049722948E-02
    0.3000000000E+04    0.2294460410E-02    0.1366937580E-03    0.6929504944E+00    0.3513784547E-02    0.4796872869E-02
    0.5000000000E+04    0.9231512165E-02    0.5504934451E-03    0.6937553854E+00    0.1428256917E-01    0.3716377780E-02
    0.7000000000E+04    0.2843340681E-01    0.1697168487E-02    0.6940944258E+00    0.4464024290E-01    0.1276522202E-02
    0.9000000000E+04    0.3491459176E-01    0.2086350536E-02    0.6942792497E+00    0.5581502901E-01    0.1111887138E-02
    0.1100000000E+05    0.3931815448E-01    0.2351995228E-02    0.6943945370E+00    0.6394906696E-01    0.1122688956E-02
    0.1300000000E+05    0.4302779597E-01    0.2576522163E-02    0.6944727031E+00    0.7114161319E-01    0.1133204646E-02
    0.1500000000E+05    0.4619006666E-01    0.2768570377E-02    0.6945287960E+00    0.7757670853E-01    0.1142297387E-02
    0.1700000000E+05    0.4890617659E-01    0.2934103735E-02    0.6945707388E+00    0.8337986904E-01    0.1150303317E-02
    0.1900000000E+05    0.5125430967E-01    0.3077733721E-02    0.6946030919E+00    0.8864948977E-01    0.1157459964E-02
    0.2100000000E+05    0.5329585224E-01    0.3203084701E-02    0.6946286621E+00    0.9346401320E-01    0.1163934261E-02
    0.2300000000E+05    0.5507963060E-01    0.3313042413E-02    0.6946492688E+00    0.9788679344E-01    0.1169847979E-02
    0.2500000000E+05    0.5664493251E-01    0.3409931247E-02    0.6946661414E+00    0.1019695951E+00    0.1175292727E-02
    0.2700000000E+05    0.5802370124E-01    0.3495643051E-02    0.6946801398E+00    0.1057551569E+00    0.1180339188E-02
    0.2900000000E+05    0.5924215416E-01    0.3571732196E-02    0.6946918827E+00    0.1092791006E+00    0.1185043067E-02
    0.3100000000E+05    0.6032199398E-01    0.3639486768E-02    0.6947018261E+00    0.1125713716E+00    0.1189449056E-02
    0.3300000000E+05    0.6128132695E-01    0.3699982561E-02    0.6947103133E+00    0.1156573422E+00    0.1193593570E-02
    0.3500000000E+05    0.6213536731E-01    0.3754124531E-02    0.6947176071E+00    0.1185586645E+00    0.1197506679E-02
    0.3700000000E+05    0.6289698355E-01    0.3802678954E-02    0.6947239125E+00    0.1212939389E+00    0.1201213509E-02
    0.3900000000E+05    0.6357712633E-01    0.3846298634E-02    0.6947293910E+00    0.1238792418E+00    0.1204735270E-02
    0.4100000000E+05    0.6418516678E-01    0.3885542847E-02    0.6947341718E+00    0.1263285468E+00    0.1208090036E-02
    0.4300000000E+05    0.6472916616E-01    0.3920893247E-02    0.6947383594E+00    0.1286540639E+00    0.1211293334E-02
    0.4500000000E+05    0.6521609270E-01    0.3952766660E-02    0.6947420390E+00    0.1308665140E+00    0.1214358605E-02
    0.4700000000E+05    0.6565199699E-01    0.3981525444E-02    0.6947452810E+00    0.1329753537E+00    0.1217297562E-02
    0.4900000000E+05    0.6604215513E-01    0.4007485948E-02    0.6947481435E+00    0.1349889600E+00    0.1220120475E-02
    0.1000000000E+05    0.3721689686E-01    0.2225127074E-02    0.6943429482E+00    0.6001789919E-01    0.1116879210E-02
    0.3000000000E+05    0.5979819392E-01    0.3606579629E-02    0.6946970557E+00    0.1109525133E+00    0.1187280853E-02
    0.5000000000E+05    0.6622154570E-01    0.4019504857E-02    0.6947494481E+00    0.1359624115E+00    0.1221491288E-02
    0.7000000000E+05    0.6827142940E-01    0.4164947351E-02    0.6947641301E+00    0.1518689721E+00    0.1244543181E-02
    0.9000000000E+05    0.6867972961E-01    0.4207554250E-02    0.6947679283E+00    0.1633171110E+00    0.1262037687E-02
    0.1100000000E+06    0.6836865346E-01    0.4203692588E-02    0.6947675412E+00    0.1721688767E+00    0.1276180127E-02
    0.1300000000E+06    0.6771832161E-01    0.4176965653E-02    0.6947653124E+00    0.1793383177E+00    0.1288072525E-02
    0.1500000000E+06    0.6690588582E-01    0.4138576384E-02    0.6947622272E+00    0.1853359979E+00    0.1298346770E-02
    0.1700000000E+06    0.6602078269E-01    0.4094305425E-02    0.6947587497E+00    0.1904739341E+00    0.1307399621E-02
    0.1900000000E+06    0.6511056873E-01    0.4047310556E-02    0.6947551154E+00    0.1949558618E+00    0.1315496874E-02
    0.2100000000E+06    0.6420130374E-01    0.3999383324E-02    0.6947514491E+00    0.1989217425E+00    0.1322825485E-02
    0.2300000000E+06    0.6330740484E-01    0.3951562739E-02    0.6947478188E+00    0.2024716645E+00    0.1329522047E-02
    0.2500000000E+06    0.6243672719E-01    0.3904455220E-02    0.6947442613E+00    0.2056795669E+00    0.1335689456E-02
    0.2700000000E+06    0.6159331996E-01    0.3858410290E-02    0.6947407960E+00    0.2086015564E+00    0.1341407187E-02
    0.2900000000E+06    0.6077898290E-01    0.3813621177E-02    0.6947374321E+00    0.2112811772E+00    0.1346737931E-02
    0.3100000000E+06    0.5999417429E-01    0.3770184422E-02    0.6947341730E+00    0.2137528768E+00    0.1351732022E-02
    0.3300000000E+06    0.5923855433E-01    0.3728136186E-02    0.6947310183E+00    0.2160443590E+00    0.1356430500E-02
    0.3500000000E+06    0.5851131664E-01    0.3687474868E-02    0.6947279660E+00    0.2181782251E+00    0.1360867275E-02
    0.3700000000E+06    0.5781139343E-01    0.3648175462E-02    0.6947250126E+00    0.2201731465E+00    0.1365070692E-02
    0.3900000000E+06    0.5713758357E-01    0.3610198779E-02    0.6947221540E+00    0.2220447202E+00    0.1369064691E-02
    0.4100000000E+06    0.5648863265E-01    0.3573497441E-02    0.6947193859E+00    0.2238061041E+00    0.1372869680E-02
    0.4300000000E+06    0.5586328284E-01    0.3538019791E-02    0.6947167040E+00    0.2254684970E+00    0.1376503198E-02
    0.4500000000E+06    0.5526030339E-01    0.3503712447E-02    0.6947141040E+00    0.2270415066E+00    0.1379980431E-02
    0.4700000000E+06    0.5467850868E-01    0.3470521959E-02    0.6947115817E+00    0.2285334348E+00    0.1383314617E-02
    0.4900000000E+06    0.5411676836E-01    0.3438395871E-02    0.6947091330E+00    0.2299515027E+00    0.1386517367E-02
    0.1000000000E+06    0.6858339244E-01    0.4209533010E-02    0.6947680626E+00    0.1679971927E+00    0.1269443704E-02
    0.3000000000E+06    0.6038289473E-01    0.3791730395E-02    0.6947357894E+00    0.2125411496E+00    0.1349274304E-02
    0.5000000000E+06    0.5384308171E-01    0.3422716026E-02    0.6947079352E+00    0.2306348448E+00    0.1388072701E-02
    0.7000000000E+06    0.4919512756E-01    0.3153881446E-02    0.6946870437E+00    0.2416131152E+00    0.1414233587E-02
    0.9000000000E+06    0.4568165703E-01    0.2947758652E-02    0.6946704299E+00    0.2493057400E+00    0.1434093531E-02
    0.1100000000E+07    0.4289769441E-01    0.2782798145E-02    0.6946566410E+00    0.2551285262E+00    0.1450150886E-02
    0.1300000000E+07    0.4061527147E-01    0.2646514603E-02    0.6946448481E+00    0.2597560821E+00    0.1463654982E-02
    0.1500000000E+07    0.3869581012E-01    0.2531187349E-02    0.6946345389E+00    0.2635600904E+00    0.1475322482E-02
    0.1700000000E+07    0.3704957620E-01    0.2431756733E-02    0.6946253759E+00    0.2667658807E+00    0.1485603502E-02
    0.1900000000E+07    0.3561548295E-01    0.2344746747E-02    0.6946171253E+00    0.2695197032E+00    0.1494799647E-02
    0.2100000000E+07    0.3435024789E-01    0.2267676288E-02    0.6946096183E+00    0.2719214820E+00    0.1503123092E-02
    0.2300000000E+07    0.3322218875E-01    0.2198718012E-02    0.6946027293E+00    0.2740422859E+00    0.1510728876E-02
    0.2500000000E+07    0.3220748096E-01    0.2136490522E-02    0.6945963621E+00    0.2759343194E+00    0.1517733799E-02
    0.2700000000E+07    0.3128779829E-01    0.2079926316E-02    0.6945904415E+00    0.2776369633E+00    0.1524228085E-02
    0.2900000000E+07    0.3044876916E-01    0.2028184824E-02    0.6945849075E+00    0.2791805931E+00    0.1530282906E-02
    0.3100000000E+07    0.2967893417E-01    0.1980593339E-02    0.6945797117E+00    0.2805890868E+00    0.1535955411E-02
    0.3300000000E+07    0.2896902266E-01    0.1936605824E-02    0.6945748140E+00    0.2818815235E+00    0.1541292199E-02
    0.3500000000E+07    0.2831143851E-01    0.1895773509E-02    0.6945701813E+00    0.2830733660E+00    0.1546331772E-02
    0.3700000000E+07    0.2769988716E-01    0.1857723476E-02    0.6945657857E+00    0.2841773039E+00    0.1551106316E-02
    0.3900000000E+07    0.2712909983E-01    0.1822142763E-02    0.6945616035E+00    0.2852038667E+00    0.1555643017E-02
    0.4100000000E+07    0.2659462638E-01    0.1788766400E-02    0.6945576144E+00    0.2861618783E+00    0.1559965049E-02
    0.4300000000E+07    0.2609267741E-01    0.1757368246E-02    0.6945538010E+00    0.2870587992E+00    0.1564092329E-02
    0.4500000000E+07    0.2562000218E-01    0.1727753892E-02    0.6945501481E+00    0.2879009880E+00    0.1568042104E-02
    0.4700000000E+07    0.2517379327E-01    0.1699755107E-02    0.6945466422E+00    0.2886939032E+00    0.1571829407E-02
    0.4900000000E+07    0.2475161105E-01    0.1673225424E-02    0.6945432718E+00    0.2894422625E+00    0.1575467424E-02
    0.1000000000E+07    0.4421552763E-01    0.2861060707E-02    0.6946632440E+00    0.2523986843E+00    0.1442502079E-02
    0.3000000000E+07    0.3005582626E-01    0.2003907036E-02    0.6945822700E+00    0.2799004429E+00    0.1533163821E-02
    0.5000000000E+07    0.2454885310E-01    0.1660470793E-02    0.6945416342E+00    0.2898010366E+00    0.1577234138E-02
    0.7000000000E+07    0.2135528059E-01    0.1458384508E-02    0.6945140080E+00    0.2954001957E+00    0.1606950784E-02
    0.9000000000E+07    0.1919266303E-01    0.1320185345E-02    0.6944929538E+00    0.2991401087E+00    0.1629510343E-02
    0.1100000000E+08    0.1759843100E-01    0.1217548338E-02    0.6944758918E+00    0.3018724330E+00    0.1647750504E-02
    0.1300000000E+08    0.1635796834E-01    0.1137208177E-02    0.6944615211E+00    0.3039847526E+00    0.1663090350E-02
    0.1500000000E+08    0.1535585822E-01    0.1071979728E-02    0.6944490914E+00    0.3056828073E+00    0.1676343937E-02
    0.1700000000E+08    0.1452360955E-01    0.1017574287E-02    0.6944381300E+00    0.3070875242E+00    0.1688022559E-02
    0.1900000000E+08    0.1381759693E-01    0.9712467417E-03    0.6944283190E+00    0.3082753579E+00    0.1698468820E-02
    0.2100000000E+08    0.1320850550E-01    0.9311446283E-03    0.6944194346E+00    0.3092973768E+00    0.1707923736E-02
    0.2300000000E+08    0.1267579238E-01    0.8959649490E-03    0.6944113129E+00    0.3101891908E+00    0.1716563423E-02
    0.2500000000E+08    0.1220456643E-01    0.8647600320E-03    0.6944038303E+00    0.3109765051E+00    0.1724520560E-02
    0.2700000000E+08    0.1178372829E-01    0.8368213801E-03    0.6943968910E+00    0.3116784105E+00    0.1731897638E-02
