  Pressure (Pa) 22mC5-500 (mol/kg) 23mC5-500 (mol/kg) 24mC5-500 (mol/kg) 2mC6-500 (mol/kg) C7-500 (mol/kg)
    0.1000000000E+01    0.1149688834E-04    0.4625382905E-05    0.1266321993E+00    0.9101314732E-05    0.4147302076E-02
    0.3000000000E+01    0.2376907711E-04    0.9536274460E-05    0.2785236727E+00    0.1798752993E-04    0.4175263561E-02
    0.5000000000E+01    0.3005461630E-04    0.1203684899E-04    0.3664295113E+00    0.2224417671E-04    0.4184330465E-02
    0.7000000000E+01    0.3380055346E-04    0.1352142882E-04    0.4237482553E+00    0.2479588491E-04    0.4189342569E-02
    0.9000000000E+01    0.3629643787E-04    0.1450936723E-04    0.4640789996E+00    0.2663531615E-04    0.4192569403E-02
    0.1100000000E+02    0.3811679897E-04    0.1523099620E-04    0.4939996484E+00    0.2816016196E-04    0.4194810645E-02
    0.1300000000E+02    0.3954847181E-04    0.1580074964E-04    0.5170802266E+00    0.2954667687E-04    0.4196440060E-02
    0.1500000000E+02    0.4074669020E-04    0.1628023372E-04    0.5354257847E+00    0.3087806239E-04    0.4197660324E-02
    0.1700000000E+02    0.4180065033E-04    0.1670464493E-04    0.5503579383E+00    0.3219497183E-04    0.4198592222E-02
    0.1900000000E+02    0.4276400285E-04    0.1709502072E-04    0.5627483122E+00    0.3351739902E-04    0.4199312691E-02
    0.2100000000E+02    0.4367018499E-04    0.1746438080E-04    0.5731950382E+00    0.3485487775E-04    0.4199873260E-02
    0.2300000000E+02    0.4454062167E-04    0.1782100157E-04    0.5821222234E+00    0.3621150481E-04    0.4200309825E-02
    0.2500000000E+02    0.4538933801E-04    0.1817025169E-04    0.5898389495E+00    0.3758852027E-04    0.4200648207E-02
    0.2700000000E+02    0.4622566350E-04    0.1851566432E-04    0.5965757936E+00    0.3898567560E-04    0.4200907475E-02
    0.2900000000E+02    0.4705587364E-04    0.1885958573E-04    0.6025082647E+00    0.4040197499E-04    0.4201102033E-02
    0.3100000000E+02    0.4788421637E-04    0.1920357919E-04    0.6077723178E+00    0.4183608201E-04    0.4201242971E-02
    0.3300000000E+02    0.4871357043E-04    0.1954868296E-04    0.6124749022E+00    0.4328654301E-04    0.4201338973E-02
    0.3500000000E+02    0.4954587687E-04    0.1989557860E-04    0.6167013054E+00    0.4475190803E-04    0.4201396936E-02
    0.3700000000E+02    0.5038242728E-04    0.2024470288E-04    0.6205203733E+00    0.4623079402E-04    0.4201422411E-02
    0.3900000000E+02    0.5122405955E-04    0.2059632336E-04    0.6239882900E+00    0.4772191502E-04    0.4201419918E-02
    0.4100000000E+02    0.5207129267E-04    0.2095059015E-04    0.6271513607E+00    0.4922409379E-04    0.4201393173E-02
    0.4300000000E+02    0.5292442067E-04    0.2130757173E-04    0.6300480917E+00    0.5073626306E-04    0.4201345262E-02
    0.4500000000E+02    0.5378357888E-04    0.2166728007E-04    0.6327107660E+00    0.5225746115E-04    0.4201278770E-02
    0.4700000000E+02    0.5464879099E-04    0.2202968830E-04    0.6351666515E+00    0.5378682483E-04    0.4201195876E-02
    0.4900000000E+02    0.5552000272E-04    0.2239474326E-04    0.6374389389E+00    0.5532358101E-04    0.4201098432E-02
    0.1000000000E+02    0.3726888240E-04    0.1489461019E-04    0.4800712802E+00    0.2742294160E-04    0.4193784185E-02
    0.3000000000E+02    0.4747007233E-04    0.1903149857E-04    0.6052165779E+00    0.4111689243E-04    0.4201178614E-02
    0.5000000000E+02    0.5595782628E-04    0.2257824171E-04    0.6385125495E+00    0.5609451225E-04    0.4201044759E-02
    0.7000000000E+02    0.6499059950E-04    0.2636666509E-04    0.6539328049E+00    0.7176862829E-04    0.4199493351E-02
    0.9000000000E+02    0.7443105356E-04    0.3032610622E-04    0.6628266765E+00    0.8772594360E-04    0.4197429149E-02
    0.1100000000E+03    0.8414964392E-04    0.3439995617E-04    0.6686139241E+00    0.1038242219E-03    0.4195122743E-02
    0.1300000000E+03    0.9406982836E-04    0.3855587678E-04    0.6726803080E+00    0.1200122785E-03    0.4192682469E-02
    0.1500000000E+03    0.1041470349E-03    0.4277538764E-04    0.6756940716E+00    0.1362728388E-03    0.4190159509E-02
    0.1700000000E+03    0.1143547089E-03    0.4704763966E-04    0.6780171155E+00    0.1526024374E-03    0.4187580734E-02
    0.1900000000E+03    0.1246767067E-03    0.5136613013E-04    0.6798624948E+00    0.1690035155E-03    0.4184961299E-02
    0.2100000000E+03    0.1351031308E-03    0.5572693549E-04    0.6813638085E+00    0.1854810449E-03    0.4182310173E-02
    0.2300000000E+03    0.1456279686E-03    0.6012772167E-04    0.6826090811E+00    0.2020410042E-03    0.4179632836E-02
    0.2500000000E+03    0.1562477028E-03    0.6456716688E-04    0.6836586692E+00    0.2186896693E-03    0.4176932691E-02
    0.2700000000E+03    0.1669604637E-03    0.6904461243E-04    0.6845553406E+00    0.2354332831E-03    0.4174211851E-02
    0.2900000000E+03    0.1777654965E-03    0.7355984478E-04    0.6853302460E+00    0.2522779071E-03    0.4171471604E-02
    0.3100000000E+03    0.1886628167E-03    0.7811295550E-04    0.6860066130E+00    0.2692293650E-03    0.4168712691E-02
    0.3300000000E+03    0.1996529829E-03    0.8270424937E-04    0.6866021146E+00    0.2862932293E-03    0.4165935486E-02
    0.3500000000E+03    0.2107369425E-03    0.8733418275E-04    0.6871304356E+00    0.3034748313E-03    0.4163140107E-02
    0.3700000000E+03    0.2219159271E-03    0.9200332149E-04    0.6876023380E+00    0.3207792799E-03    0.4160326498E-02
    0.3900000000E+03    0.2331913783E-03    0.9671231190E-04    0.6880264013E+00    0.3382114853E-03    0.4157494473E-02
    0.4100000000E+03    0.2445648963E-03    0.1014618604E-03    0.6884095497E+00    0.3557761826E-03    0.4154643758E-02
    0.4300000000E+03    0.2560382034E-03    0.1062527193E-03    0.6887574321E+00    0.3734779547E-03    0.4151774013E-02
    0.4500000000E+03    0.2676131170E-03    0.1110856762E-03    0.6890747036E+00    0.3913212539E-03    0.4148884848E-02
    0.4700000000E+03    0.2792915313E-03    0.1159615473E-03    0.6893652344E+00    0.4093104211E-03    0.4145975840E-02
    0.4900000000E+03    0.2910754028E-03    0.1208811718E-03    0.6896322685E+00    0.4274497038E-03    0.4143046536E-02
    0.1000000000E+03    0.7926133807E-04    0.3235117790E-04    0.6659971555E+00    0.9576184016E-04    0.4196297468E-02
    0.3000000000E+03    0.1832025964E-03    0.7583165045E-04    0.6856795334E+00    0.2607399277E-03    0.4170094450E-02
    0.5000000000E+03    0.2970075112E-03    0.1233576592E-03    0.6897578475E+00    0.4365769441E-03    0.4141574126E-02
    0.7000000000E+03    0.4217024638E-03    0.1754037469E-03    0.6915208744E+00    0.6279979249E-03    0.4110937845E-02
    0.9000000000E+03    0.5595095333E-03    0.2329095719E-03    0.6925043266E+00    0.8390616129E-03    0.4077667483E-02
    0.1100000000E+04    0.7130389535E-03    0.2969692137E-03    0.6931316512E+00    0.1074004593E-02    0.4041173442E-02
    0.1300000000E+04    0.8853968319E-03    0.3688812088E-03    0.6935666302E+00    0.1337703672E-02    0.4000782810E-02
    0.1500000000E+04    0.1080363182E-02    0.4502243215E-03    0.6938859635E+00    0.1636026805E-02    0.3955700489E-02
    0.1700000000E+04    0.1302617115E-02    0.5429520893E-03    0.6941303552E+00    0.1976207362E-02    0.3904963076E-02
    0.1900000000E+04    0.1558028610E-02    0.6495148606E-03    0.6943234129E+00    0.2367306455E-02    0.3847382477E-02
    0.2100000000E+04    0.1854044576E-02    0.7730210943E-03    0.6944797706E+00    0.2820816224E-02    0.3781474293E-02
    0.2300000000E+04    0.2200203801E-02    0.9174524327E-03    0.6946089830E+00    0.3351461570E-02    0.3705365551E-02
    0.2500000000E+04    0.2608821100E-02    0.1087949430E-02    0.6947175526E+00    0.3978265372E-02    0.3616676576E-02
    0.2700000000E+04    0.3095879007E-02    0.1291183995E-02    0.6948100589E+00    0.4725939556E-02    0.3512374377E-02
    0.2900000000E+04    0.3682137792E-02    0.1535823140E-02    0.6948898201E+00    0.5626623550E-02    0.3388603805E-02
    0.3100000000E+04    0.4394378478E-02    0.1833048533E-02    0.6949592994E+00    0.6721846315E-02    0.3240526937E-02
    0.3300000000E+04    0.5266433932E-02    0.2196988111E-02    0.6950203635E+00    0.8064192204E-02    0.3062259156E-02
    0.3500000000E+04    0.6339059315E-02    0.2644664030E-02    0.6950744533E+00    0.9717223763E-02    0.2847113743E-02
    0.3700000000E+04    0.7656503600E-02    0.3194564692E-02    0.6951226984E+00    0.1175037679E-01    0.2588588285E-02
    0.3900000000E+04    0.9255934656E-02    0.3862234667E-02    0.6951659969E+00    0.1422287548E-01    0.2282792457E-02
    0.4100000000E+04    0.1114537837E-01    0.4651069321E-02    0.6952050721E+00    0.1714985756E-01    0.1932920826E-02
    0.4300000000E+04    0.1327212545E-01    0.5539124750E-02    0.6952405127E+00    0.2045343124E-01    0.1554838500E-02
    0.4500000000E+04    0.1550232558E-01    0.6470585457E-02    0.6952728028E+00    0.2393027889E-01    0.1179179025E-02
    0.4700000000E+04    0.1764784570E-01    0.7366950741E-02    0.6953023443E+00    0.2729164192E-01    0.8434764360E-03
    0.4900000000E+04    0.1954426272E-01    0.8159574065E-02    0.6953294735E+00    0.3028279120E-01    0.5758245573E-03
    0.1000000000E+04    0.6341283266E-03    0.2640446109E-03    0.6928492116E+00    0.9532625944E-03    0.4059863106E-02
    0.3000000000E+04    0.4020568840E-02    0.1677051854E-02    0.6949257167E+00    0.6146903245E-02    0.3317947511E-02
    0.5000000000E+04    0.2037209083E-01    0.8505712157E-02    0.6953422238E+00    0.3159705024E-01    0.4706389721E-03
    0.7000000000E+04    0.2828896968E-01    0.1182635471E-01    0.6955206778E+00    0.4480353273E-01    0.6529008038E-04
    0.9000000000E+04    0.3302497791E-01    0.1382323353E-01    0.6956197255E+00    0.5335769302E-01    0.6421085519E-04
    0.1100000000E+05    0.3691132996E-01    0.1546788373E-01    0.6956826775E+00    0.6076802960E-01    0.6492257140E-04
    0.1300000000E+05    0.4014908486E-01    0.1684322216E-01    0.6957261974E+00    0.6728436245E-01    0.6553012503E-04
    0.1500000000E+05    0.4287502607E-01    0.1800566957E-01    0.6957580626E+00    0.7307647583E-01    0.6605487524E-04
    0.1700000000E+05    0.4519068653E-01    0.1899715323E-01    0.6957823900E+00    0.7827257296E-01    0.6651710743E-04
    0.1900000000E+05    0.4717297214E-01    0.1984946702E-01    0.6958015629E+00    0.8297145356E-01    0.6693045514E-04
    0.2100000000E+05    0.4888114039E-01    0.2058713704E-01    0.6958170562E+00    0.8725057153E-01    0.6730450033E-04
    0.2300000000E+05    0.5036154284E-01    0.2122937015E-01    0.6958298316E+00    0.9117156779E-01    0.6764623919E-04
    0.2500000000E+05    0.5165092327E-01    0.2179141001E-01    0.6958405427E+00    0.9478415824E-01    0.6796093904E-04
    0.2700000000E+05    0.5277875843E-01    0.2228550008E-01    0.6958496496E+00    0.9812892193E-01    0.6825266663E-04
    0.2900000000E+05    0.5376894983E-01    0.2272158008E-01    0.6958574849E+00    0.1012393372E+00    0.6852462855E-04
    0.3100000000E+05    0.5464106657E-01    0.2310779800E-01    0.6958642957E+00    0.1041432929E+00    0.6877939870E-04
    0.3300000000E+05    0.5541127181E-01    0.2345089201E-01    0.6958702689E+00    0.1068642269E+00    0.6901907510E-04
    0.3500000000E+05    0.5609302277E-01    0.2375647923E-01    0.6958755486E+00    0.1094219948E+00    0.6924539084E-04
    0.3700000000E+05    0.5669760604E-01    0.2402927668E-01    0.6958802478E+00    0.1118335413E+00    0.6945979436E-04
    0.3900000000E+05    0.5723455154E-01    0.2427327231E-01    0.6958844561E+00    0.1141134253E+00    0.6966350881E-04
    0.4100000000E+05    0.5771195593E-01    0.2449185865E-01    0.6958882459E+00    0.1162742330E+00    0.6985757667E-04
    0.4300000000E+05    0.5813673767E-01    0.2468793834E-01    0.6958916757E+00    0.1183269088E+00    0.7004289375E-04
    0.4500000000E+05    0.5851483990E-01    0.2486400812E-01    0.6958947939E+00    0.1202810199E+00    0.7022023561E-04
    0.4700000000E+05    0.5885139321E-01    0.2502222624E-01    0.6958976405E+00    0.1221449710E+00    0.7039027825E-04
    0.4900000000E+05    0.5915084711E-01    0.2516446697E-01    0.6959002489E+00    0.1239261803E+00    0.7055361451E-04
    0.1000000000E+05    0.3505956520E-01    0.1468348365E-01    0.6956543596E+00    0.5718732138E-01    0.6457912733E-04
    0.3000000000E+05    0.5421868664E-01    0.2292047139E-01    0.6958610055E+00    0.1027155646E+00    0.6865402179E-04
    0.5000000000E+05    0.5928789277E-01    0.2523011496E-01    0.6959014728E+00    0.1247878412E+00    0.7063293356E-04
    0.7000000000E+05    0.6079964639E-01    0.2600816424E-01    0.6959184251E+00    0.1389388815E+00    0.7196700657E-04
    0.9000000000E+05    0.6102127118E-01    0.2621517480E-01    0.6959276177E+00    0.1492407048E+00    0.7297969477E-04
    0.1100000000E+06    0.6069126097E-01    0.2616909129E-01    0.6959333203E+00    0.1572977622E+00    0.7379846204E-04
    0.1300000000E+06    0.6010721766E-01    0.2600038820E-01    0.6959371640E+00    0.1638932772E+00    0.7448703250E-04
    0.1500000000E+06    0.5940552267E-01    0.2577013717E-01    0.6959399051E+00    0.1694645438E+00    0.7508195553E-04
    0.1700000000E+06    0.5865404510E-01    0.2550951576E-01    0.6959419410E+00    0.1742793586E+00    0.7560618467E-04
    0.1900000000E+06    0.5788836886E-01    0.2523540103E-01    0.6959435001E+00    0.1785131760E+00    0.7607509934E-04
    0.2100000000E+06    0.5712768904E-01    0.2495728580E-01    0.6959447229E+00    0.1822870194E+00    0.7649951824E-04
    0.2300000000E+06    0.5638241401E-01    0.2468062502E-01    0.6959457002E+00    0.1856878150E+00    0.7688734652E-04
    0.2500000000E+06    0.5565804893E-01    0.2440856734E-01    0.6959464933E+00    0.1887800690E+00    0.7724453948E-04
    0.2700000000E+06    0.5495728488E-01    0.2414289993E-01    0.6959471451E+00    0.1916129527E+00    0.7757569732E-04
    0.2900000000E+06    0.5428116964E-01    0.2388458667E-01    0.6959476863E+00    0.1942247988E+00    0.7788444875E-04
    0.3100000000E+06    0.5362978541E-01    0.2363408526E-01    0.6959481395E+00    0.1966460655E+00    0.7817370758E-04
    0.3300000000E+06    0.5300265109E-01    0.2339153967E-01    0.6959485217E+00    0.1989013526E+00    0.7844584957E-04
    0.3500000000E+06    0.5239896567E-01    0.2315689939E-01    0.6959488460E+00    0.2010108125E+00    0.7870283777E-04
    0.3700000000E+06    0.5181775737E-01    0.2292999478E-01    0.6959491224E+00    0.2029911603E+00    0.7894631319E-04
    0.3900000000E+06    0.5125797561E-01    0.2271058526E-01    0.6959493590E+00    0.2048564129E+00    0.7917766188E-04
    0.4100000000E+06    0.5071854777E-01    0.2249839048E-01    0.6959495620E+00    0.2066184397E+00    0.7939806535E-04
    0.4300000000E+06    0.5019841370E-01    0.2229311048E-01    0.6959497365E+00    0.2082873794E+00    0.7960853907E-04
    0.4500000000E+06    0.4969654639E-01    0.2209443880E-01    0.6959498869E+00    0.2098719603E+00    0.7980996232E-04
    0.4700000000E+06    0.4921196364E-01    0.2190207087E-01    0.6959500165E+00    0.2113797505E+00    0.8000310159E-04
    0.4900000000E+06    0.4874373402E-01    0.2171570937E-01    0.6959501281E+00    0.2128173540E+00    0.8018862915E-04
    0.1000000000E+06    0.6090105235E-01    0.2621322889E-01    0.6959307725E+00    0.1534895173E+00    0.7340844955E-04
    0.3000000000E+06    0.5395240644E-01    0.2375834480E-01    0.6959479227E+00    0.1954575986E+00    0.7803135532E-04
    0.5000000000E+06    0.4851547509E-01    0.2162469091E-01    0.6959501779E+00    0.2135116751E+00    0.8027872660E-04
    0.7000000000E+06    0.4462346304E-01    0.2005713890E-01    0.6959506452E+00    0.2248104697E+00    0.8179424083E-04
    0.9000000000E+06    0.4165817080E-01    0.1884493286E-01    0.6959506236E+00    0.2328974495E+00    0.8294481682E-04
    0.1100000000E+07    0.3929186100E-01    0.1786746358E-01    0.6959504285E+00    0.2391177867E+00    0.8387513869E-04
    0.1300000000E+07    0.3733972949E-01    0.1705460646E-01    0.6959501664E+00    0.2441251928E+00    0.8465756280E-04
    0.1500000000E+07    0.3568900545E-01    0.1636278248E-01    0.6959498800E+00    0.2482855527E+00    0.8533359765E-04
    0.1700000000E+07    0.3426634826E-01    0.1576328596E-01    0.6959495884E+00    0.2518236084E+00    0.8592931458E-04
    0.1900000000E+07    0.3302161314E-01    0.1523629816E-01    0.6959493004E+00    0.2548868741E+00    0.8646218366E-04
    0.2100000000E+07    0.3191912087E-01    0.1476760669E-01    0.6959490201E+00    0.2575771297E+00    0.8694449511E-04
    0.2300000000E+07    0.3093265026E-01    0.1434669817E-01    0.6959487494E+00    0.2599673940E+00    0.8738522983E-04
    0.2500000000E+07    0.3004240902E-01    0.1396559236E-01    0.6959484889E+00    0.2621117229E+00    0.8779115377E-04
    0.2700000000E+07    0.2923311858E-01    0.1361809881E-01    0.6959482387E+00    0.2640511813E+00    0.8816749355E-04
    0.2900000000E+07    0.2849275733E-01    0.1329932557E-01    0.6959479984E+00    0.2658176478E+00    0.8851837213E-04
    0.3100000000E+07    0.2781170951E-01    0.1300534446E-01    0.6959477677E+00    0.2674363300E+00    0.8884710025E-04
    0.3300000000E+07    0.2718217284E-01    0.1273295691E-01    0.6959475459E+00    0.2689274790E+00    0.8915637740E-04
    0.3500000000E+07    0.2659773646E-01    0.1247952631E-01    0.6959473327E+00    0.2703075907E+00    0.8944843413E-04
    0.3700000000E+07    0.2605307384E-01    0.1224285550E-01    0.6959471274E+00    0.2715902661E+00    0.8972513510E-04
    0.3900000000E+07    0.2554371529E-01    0.1202109572E-01    0.6959469296E+00    0.2727868408E+00    0.8998805532E-04
    0.4100000000E+07    0.2506587658E-01    0.1181267774E-01    0.6959467388E+00    0.2739068536E+00    0.9023853733E-04
    0.4300000000E+07    0.2461632798E-01    0.1161625906E-01    0.6959465545E+00    0.2749584009E+00    0.9047773507E-04
    0.4500000000E+07    0.2419229290E-01    0.1143068298E-01    0.6959463764E+00    0.2759484083E+00    0.9070664770E-04
    0.4700000000E+07    0.2379136842E-01    0.1125494634E-01    0.6959462041E+00    0.2768828423E+00    0.9092614621E-04
    0.4900000000E+07    0.2341146231E-01    0.1108817396E-01    0.6959460372E+00    0.2777668763E+00    0.9113699457E-04
    0.1000000000E+07    0.4041394287E-01    0.1833205854E-01    0.6959505388E+00    0.2361906311E+00    0.8343198136E-04
    0.3000000000E+07    0.2814534377E-01    0.1314945078E-01    0.6959478819E+00    0.2666440962E+00    0.8868532386E-04
    0.5000000000E+07    0.2322880969E-01    0.1100790574E-01    0.6959459557E+00    0.2781914260E+00    0.9123938864E-04
    0.7000000000E+07    0.2033454449E-01    0.9728242038E-02    0.6959445448E+00    0.2848801653E+00    0.9296175275E-04
    0.9000000000E+07    0.1835544234E-01    0.8844370742E-02    0.6959434332E+00    0.2894165673E+00    0.9426937870E-04
    0.1100000000E+08    0.1688616863E-01    0.8183193775E-02    0.6959425151E+00    0.2927674515E+00    0.9532669074E-04
    0.1300000000E+08    0.1573669294E-01    0.7662764554E-02    0.6959417321E+00    0.2953800514E+00    0.9621591889E-04
    0.1500000000E+08    0.1480400604E-01    0.7238330886E-02    0.6959410491E+00    0.2974946959E+00    0.9698423637E-04
    0.1700000000E+08    0.1402658998E-01    0.6883004751E-02    0.6959404428E+00    0.2992540246E+00    0.9766127278E-04
    0.1900000000E+08    0.1336505395E-01    0.6579481805E-02    0.6959398974E+00    0.3007489466E+00    0.9826688261E-04
    0.2100000000E+08    0.1279280996E-01    0.6316030722E-02    0.6959394016E+00    0.3020405992E+00    0.9881503359E-04
    0.2300000000E+08    0.1229115390E-01    0.6084366891E-02    0.6959389469E+00    0.3031718649E+00    0.9931593246E-04
    0.2500000000E+08    0.1184648149E-01    0.5878443824E-02    0.6959385268E+00    0.3041738577E+00    0.9977726872E-04
    0.2700000000E+08    0.1144862198E-01    0.5693727025E-02    0.6959381363E+00    0.3050697915E+00    0.1002049824E-03
