  Pressure (Pa) 22mC5-500 (mol/kg) 23mC5-500 (mol/kg) 24mC5-500 (mol/kg) 2mC6-500 (mol/kg) C7-500 (mol/kg)
    0.1000000000E+01    0.9534928602E-05    0.1094897519E-05    0.2142799675E+00    0.9932803793E-05    0.4146037209E-02
    0.3000000000E+01    0.1637502129E-04    0.1873934666E-05    0.3978486688E+00    0.1635982336E-04    0.4170143061E-02
    0.5000000000E+01    0.1907070427E-04    0.2179647775E-05    0.4801107763E+00    0.1912969787E-04    0.4176157986E-02
    0.7000000000E+01    0.2063826524E-04    0.2358480235E-05    0.5267935745E+00    0.2121918936E-04    0.4178909743E-02
    0.9000000000E+01    0.2180673536E-04    0.2493304659E-05    0.5568759201E+00    0.2318814695E-04    0.4180420211E-02
    0.1100000000E+02    0.2281676800E-04    0.2611155892E-05    0.5778759798E+00    0.2516886019E-04    0.4181316326E-02
    0.1300000000E+02    0.2376248030E-04    0.2722456747E-05    0.5933674759E+00    0.2719108065E-04    0.4181861512E-02
    0.1500000000E+02    0.2468456126E-04    0.2831630835E-05    0.6052665842E+00    0.2925667626E-04    0.4182186925E-02
    0.1700000000E+02    0.2560160477E-04    0.2940648262E-05    0.6146930810E+00    0.3136013993E-04    0.4182365518E-02
    0.1900000000E+02    0.2652225148E-04    0.3050388652E-05    0.6223451504E+00    0.3349471940E-04    0.4182441204E-02
    0.2100000000E+02    0.2745039068E-04    0.3161219822E-05    0.6286807274E+00    0.3565422782E-04    0.4182442034E-02
    0.2300000000E+02    0.2838755983E-04    0.3273261922E-05    0.6340126512E+00    0.3783347184E-04    0.4182386775E-02
    0.2500000000E+02    0.2933411394E-04    0.3386514539E-05    0.6385619148E+00    0.4002823798E-04    0.4182288462E-02
    0.2700000000E+02    0.3028981881E-04    0.3500920199E-05    0.6424890665E+00    0.4223515455E-04    0.4182156433E-02
    0.2900000000E+02    0.3125416037E-04    0.3616396816E-05    0.6459135532E+00    0.4445153646E-04    0.4181997550E-02
    0.3100000000E+02    0.3222650845E-04    0.3732854420E-05    0.6489260819E+00    0.4667524670E-04    0.4181816966E-02
    0.3300000000E+02    0.3320620348E-04    0.3850203670E-05    0.6515967733E+00    0.4890458218E-04    0.4181618629E-02
    0.3500000000E+02    0.3419260157E-04    0.3968360021E-05    0.6539806883E+00    0.5113818272E-04    0.4181405607E-02
    0.3700000000E+02    0.3518509679E-04    0.4087245548E-05    0.6561216652E+00    0.5337495956E-04    0.4181180324E-02
    0.3900000000E+02    0.3618313077E-04    0.4206789516E-05    0.6580550401E+00    0.5561403945E-04    0.4180944717E-02
    0.4100000000E+02    0.3718619542E-04    0.4326928309E-05    0.6598096131E+00    0.5785472099E-04    0.4180700352E-02
    0.4300000000E+02    0.3819383200E-04    0.4447605021E-05    0.6614090923E+00    0.6009644039E-04    0.4180448509E-02
    0.4500000000E+02    0.3920562828E-04    0.4568768908E-05    0.6628731720E+00    0.6233874457E-04    0.4180190241E-02
    0.4700000000E+02    0.4022121479E-04    0.4690374794E-05    0.6642183472E+00    0.6458126994E-04    0.4179926423E-02
    0.4900000000E+02    0.4124026096E-04    0.4812382490E-05    0.6654585382E+00    0.6682372550E-04    0.4179657790E-02
    0.1000000000E+02    0.2232381728E-04    0.2553491274E-05    0.5682331702E+00    0.2417408978E-04    0.4180924065E-02
    0.3000000000E+02    0.3173937480E-04    0.3674508657E-05    0.6474665221E+00    0.4556259098E-04    0.4181909700E-02
    0.5000000000E+02    0.4175098776E-04    0.4873525684E-05    0.6660430319E+00    0.6794485264E-04    0.4179521864E-02
    0.7000000000E+02    0.5209038498E-04    0.6110675187E-05    0.6743353083E+00    0.9032878181E-04    0.4176659163E-02
    0.9000000000E+02    0.6258001527E-04    0.7364720323E-05    0.6790321827E+00    0.1126215291E-03    0.4173662667E-02
    0.1100000000E+03    0.7315817826E-04    0.8628553750E-05    0.6820554264E+00    0.1348468272E-03    0.4170619224E-02
    0.1300000000E+03    0.8380269994E-04    0.9899730049E-05    0.6841643194E+00    0.1570425563E-03    0.4167557656E-02
    0.1500000000E+03    0.9450651882E-04    0.1117754629E-04    0.6857191844E+00    0.1792437342E-03    0.4164488429E-02
    0.1700000000E+03    0.1052688955E-03    0.1246201160E-04    0.6869129990E+00    0.2014801093E-03    0.4161415087E-02
    0.1900000000E+03    0.1160918667E-03    0.1375343832E-04    0.6878584403E+00    0.2237766267E-03    0.4158338284E-02
    0.2100000000E+03    0.1269786918E-03    0.1505226598E-04    0.6886257168E+00    0.2461543431E-03    0.4155257409E-02
    0.2300000000E+03    0.1379331343E-03    0.1635898142E-04    0.6892608540E+00    0.2686312612E-03    0.4152171294E-02
    0.2500000000E+03    0.1489591189E-03    0.1767408174E-04    0.6897952810E+00    0.2912229976E-03    0.4149078547E-02
    0.2700000000E+03    0.1600605674E-03    0.1899805724E-04    0.6902511920E+00    0.3139432965E-03    0.4145977708E-02
    0.2900000000E+03    0.1712413230E-03    0.2033138417E-04    0.6906447058E+00    0.3368044216E-03    0.4142867327E-02
    0.3100000000E+03    0.1825051202E-03    0.2167452220E-04    0.6909878116E+00    0.3598174577E-03    0.4139745997E-02
    0.3300000000E+03    0.1938555761E-03    0.2302791435E-04    0.6912896122E+00    0.3829925427E-03    0.4136612370E-02
    0.3500000000E+03    0.2052961945E-03    0.2439198807E-04    0.6915571428E+00    0.4063390499E-03    0.4133465163E-02
    0.3700000000E+03    0.2168303750E-03    0.2576715670E-04    0.6917959269E+00    0.4298657312E-03    0.4130303152E-02
    0.3900000000E+03    0.2284614245E-03    0.2715382126E-04    0.6920103615E+00    0.4535808317E-03    0.4127125173E-02
    0.4100000000E+03    0.2401925693E-03    0.2855237211E-04    0.6922039903E+00    0.4774921824E-03    0.4123930112E-02
    0.4300000000E+03    0.2520269668E-03    0.2996319058E-04    0.6923797011E+00    0.5016072751E-03    0.4120716905E-02
    0.4500000000E+03    0.2639677177E-03    0.3138665050E-04    0.6925398711E+00    0.5259333250E-03    0.4117484527E-02
    0.4700000000E+03    0.2760178755E-03    0.3282311954E-04    0.6926864746E+00    0.5504773218E-03    0.4114231992E-02
    0.4900000000E+03    0.2881804568E-03    0.3427296050E-04    0.6928211653E+00    0.5752460731E-03    0.4110958346E-02
    0.1000000000E+03    0.6785993646E-04    0.7995626798E-05    0.6806916305E+00    0.1237402470E-03    0.4172144352E-02
    0.3000000000E+03    0.1768626126E-03    0.2100169872E-04    0.6908219343E+00    0.3482912973E-03    0.4141308116E-02
    0.5000000000E+03    0.2943048410E-03    0.3500300775E-04    0.6928844880E+00    0.5877168184E-03    0.4109313316E-02
    0.7000000000E+03    0.4234214755E-03    0.5039313229E-04    0.6937722155E+00    0.8505185182E-03    0.4075088821E-02
    0.9000000000E+03    0.5672397542E-03    0.6753463025E-04    0.6942663623E+00    0.1143209665E-02    0.4037780364E-02
    0.1100000000E+04    0.7290898992E-03    0.8682513125E-04    0.6945811665E+00    0.1472711046E-02    0.3996556236E-02
    0.1300000000E+04    0.9129395091E-03    0.1087379545E-03    0.6947992581E+00    0.1847196116E-02    0.3950488984E-02
    0.1500000000E+04    0.1123696953E-02    0.1338584841E-03    0.6949592644E+00    0.2276752584E-02    0.3898474283E-02
    0.1700000000E+04    0.1367570131E-02    0.1629270260E-03    0.6950816595E+00    0.2774133860E-02    0.3839150264E-02
    0.1900000000E+04    0.1652535334E-02    0.1968947606E-03    0.6951783071E+00    0.3355731499E-02    0.3770800912E-02
    0.2100000000E+04    0.1988970955E-02    0.2369993528E-03    0.6952565562E+00    0.4042887370E-02    0.3691232062E-02
    0.2300000000E+04    0.2390518862E-02    0.2848677242E-03    0.6953212021E+00    0.4863678886E-02    0.3597609952E-02
    0.2500000000E+04    0.2875237847E-02    0.3426536926E-03    0.6953755071E+00    0.5855315151E-02    0.3486255686E-02
    0.2700000000E+04    0.3467080090E-02    0.4132141979E-03    0.6954217674E+00    0.7067216619E-02    0.3352401864E-02
    0.2900000000E+04    0.4197581376E-02    0.5003111412E-03    0.6954616465E+00    0.8564569080E-02    0.3189956347E-02
    0.3100000000E+04    0.5107239150E-02    0.6087762118E-03    0.6954963787E+00    0.1043129586E-01    0.2991418194E-02
    0.3300000000E+04    0.6245017588E-02    0.7444526906E-03    0.6955268994E+00    0.1276927358E-01    0.2748316533E-02
    0.3500000000E+04    0.7662317245E-02    0.9134775683E-03    0.6955539304E+00    0.1568628500E-01    0.2452955751E-02
    0.3700000000E+04    0.9394961176E-02    0.1120134796E-02    0.6955780372E+00    0.1925938454E-01    0.2102679119E-02
    0.3900000000E+04    0.1142783015E-01    0.1362638412E-02    0.6955996696E+00    0.2346230527E-01    0.1707226363E-02
    0.4100000000E+04    0.1365374008E-01    0.1628225552E-02    0.6956191897E+00    0.2808003899E-01    0.1295733790E-02
    0.4300000000E+04    0.1587238120E-01    0.1893021940E-02    0.6956368921E+00    0.3270439815E-01    0.9134468290E-03
    0.4500000000E+04    0.1787021792E-01    0.2131562098E-02    0.6956530192E+00    0.3689605109E-01    0.6020562915E-03
    0.4700000000E+04    0.1952720751E-01    0.2329516601E-02    0.6956677721E+00    0.4040420404E-01    0.3785924626E-03
    0.4900000000E+04    0.2084552342E-01    0.2487126603E-02    0.6956813189E+00    0.4322826014E-01    0.2338441818E-03
    0.1000000000E+04    0.6456812405E-03    0.7688385962E-04    0.6944394721E+00    0.1302885295E-02    0.4017712474E-02
    0.3000000000E+04    0.4627123133E-02    0.5515275107E-03    0.6954795916E+00    0.9445754495E-02    0.3095716983E-02
    0.5000000000E+04    0.2139924635E-01    0.2553369745E-02    0.6956876853E+00    0.4442679545E-01    0.1844073177E-03
    0.7000000000E+04    0.2779691245E-01    0.3321339535E-02    0.6957767558E+00    0.5902603881E-01    0.3334850112E-04
    0.9000000000E+04    0.3230765714E-01    0.3865377849E-02    0.6958261593E+00    0.7008143531E-01    0.3336795611E-04
    0.1100000000E+05    0.3597404758E-01    0.4309381621E-02    0.6958575414E+00    0.7961789085E-01    0.3374107858E-04
    0.1300000000E+05    0.3899267794E-01    0.4676497645E-02    0.6958792261E+00    0.8795580678E-01    0.3405629441E-04
    0.1500000000E+05    0.4150344248E-01    0.4983213329E-02    0.6958950967E+00    0.9532648275E-01    0.3432859554E-04
    0.1700000000E+05    0.4360968674E-01    0.5241723596E-02    0.6959072082E+00    0.1019040294E+00    0.3456850493E-04
    0.1900000000E+05    0.4538929635E-01    0.5461230604E-02    0.6959167498E+00    0.1078221645E+00    0.3478307651E-04
    0.2100000000E+05    0.4690199472E-01    0.5648799661E-02    0.6959244574E+00    0.1131853852E+00    0.3497727044E-04
    0.2300000000E+05    0.4819428084E-01    0.5809938761E-02    0.6959308107E+00    0.1180766116E+00    0.3515470994E-04
    0.2500000000E+05    0.4930284898E-01    0.5949000220E-02    0.6959361356E+00    0.1225625405E+00    0.3531812387E-04
    0.2700000000E+05    0.5025700646E-01    0.6069464840E-02    0.6959406614E+00    0.1266974721E+00    0.3546961968E-04
    0.2900000000E+05    0.5108041467E-01    0.6174146678E-02    0.6959445542E+00    0.1305260977E+00    0.3561085952E-04
    0.3100000000E+05    0.5179236356E-01    0.6265343061E-02    0.6959479368E+00    0.1340855623E+00    0.3574317785E-04
    0.3300000000E+05    0.5240871863E-01    0.6344946124E-02    0.6959509025E+00    0.1374070152E+00    0.3586766259E-04
    0.3500000000E+05    0.5294263409E-01    0.6414526880E-02    0.6959535231E+00    0.1405167903E+00    0.3598521256E-04
    0.3700000000E+05    0.5340509658E-01    0.6475399357E-02    0.6959558548E+00    0.1434373168E+00    0.3609657909E-04
    0.3900000000E+05    0.5380534434E-01    0.6528670087E-02    0.6959579424E+00    0.1461878288E+00    0.3620239669E-04
    0.4100000000E+05    0.5415119375E-01    0.6575276684E-02    0.6959598218E+00    0.1487849244E+00    0.3630320621E-04
    0.4300000000E+05    0.5444929613E-01    0.6616018209E-02    0.6959615222E+00    0.1512430105E+00    0.3639947247E-04
    0.4500000000E+05    0.5470534143E-01    0.6651579272E-02    0.6959630676E+00    0.1535746595E+00    0.3649159790E-04
    0.4700000000E+05    0.5492422123E-01    0.6682549337E-02    0.6959644780E+00    0.1557908985E+00    0.3657993333E-04
    0.4900000000E+05    0.5511015997E-01    0.6709438277E-02    0.6959657701E+00    0.1579014437E+00    0.3666478642E-04
    0.1000000000E+05    0.3423241157E-01    0.4098237834E-02    0.6958434266E+00    0.7501680073E-01    0.3356262056E-04
    0.3000000000E+05    0.5144925899E-01    0.6221303894E-02    0.6959463028E+00    0.1323374032E+00    0.3567806087E-04
    0.5000000000E+05    0.5519194082E-01    0.6721493059E-02    0.6959663762E+00    0.1589198076E+00    0.3670599315E-04
    0.7000000000E+05    0.5577192766E-01    0.6830039539E-02    0.6959747607E+00    0.1753833846E+00    0.3739909670E-04
    0.9000000000E+05    0.5530478756E-01    0.6804006941E-02    0.6959792946E+00    0.1870280896E+00    0.3792527252E-04
    0.1100000000E+06    0.5444588358E-01    0.6724629636E-02    0.6959820995E+00    0.1959123316E+00    0.3835071071E-04
    0.1300000000E+06    0.5344422948E-01    0.6623530141E-02    0.6959839847E+00    0.2030284793E+00    0.3870850865E-04
    0.1500000000E+06    0.5240582711E-01    0.6514597895E-02    0.6959853252E+00    0.2089242799E+00    0.3901765176E-04
    0.1700000000E+06    0.5137847904E-01    0.6404375124E-02    0.6959863179E+00    0.2139315618E+00    0.3929006412E-04
    0.1900000000E+06    0.5038392105E-01    0.6296041830E-02    0.6959870757E+00    0.2182654977E+00    0.3953373562E-04
    0.2100000000E+06    0.4943144784E-01    0.6191129860E-02    0.6959876680E+00    0.2220730427E+00    0.3975428700E-04
    0.2300000000E+06    0.4852418169E-01    0.6090324518E-02    0.6959881398E+00    0.2254587447E+00    0.3995582545E-04
    0.2500000000E+06    0.4766213485E-01    0.5993863751E-02    0.6959885212E+00    0.2284994747E+00    0.4014144515E-04
    0.2700000000E+06    0.4684377214E-01    0.5901746634E-02    0.6959888333E+00    0.2312533096E+00    0.4031353631E-04
    0.2900000000E+06    0.4606683259E-01    0.5813846174E-02    0.6959890914E+00    0.2337651367E+00    0.4047398437E-04
    0.3100000000E+06    0.4532876860E-01    0.5729971888E-02    0.6959893065E+00    0.2360703263E+00    0.4062430334E-04
    0.3300000000E+06    0.4462698130E-01    0.5649905050E-02    0.6959894870E+00    0.2381972165E+00    0.4076572771E-04
    0.3500000000E+06    0.4395894438E-01    0.5573418619E-02    0.6959896393E+00    0.2401688415E+00    0.4089927748E-04
    0.3700000000E+06    0.4332226596E-01    0.5500288388E-02    0.6959897683E+00    0.2420041630E+00    0.4102580537E-04
    0.3900000000E+06    0.4271471588E-01    0.5430299045E-02    0.6959898779E+00    0.2437189656E+00    0.4114603159E-04
    0.4100000000E+06    0.4213423349E-01    0.5363247223E-02    0.6959899713E+00    0.2453265212E+00    0.4126057010E-04
    0.4300000000E+06    0.4157892501E-01    0.5298942795E-02    0.6959900510E+00    0.2468380886E+00    0.4136994856E-04
    0.4500000000E+06    0.4104705521E-01    0.5237209140E-02    0.6959901189E+00    0.2482632959E+00    0.4147462388E-04
    0.4700000000E+06    0.4053703652E-01    0.5177882820E-02    0.6959901769E+00    0.2496104372E+00    0.4157499435E-04
    0.4900000000E+06    0.4004741713E-01    0.5120812935E-02    0.6959902262E+00    0.2508867048E+00    0.4167140931E-04
    0.1000000000E+06    0.5490373457E-01    0.6768392485E-02    0.6959808473E+00    0.1917385942E+00    0.3814805505E-04
    0.3000000000E+06    0.4569310422E-01    0.5771419056E-02    0.6959892038E+00    0.2349416484E+00    0.4055032715E-04
    0.5000000000E+06    0.3980983769E-01    0.5093080235E-02    0.6959902480E+00    0.2515002533E+00    0.4171823120E-04
    0.7000000000E+06    0.3586148535E-01    0.4628475345E-02    0.6959904311E+00    0.2612247496E+00    0.4250581856E-04
    0.9000000000E+06    0.3297023136E-01    0.4284009231E-02    0.6959903844E+00    0.2678873115E+00    0.4310375787E-04
    0.1100000000E+07    0.3072801406E-01    0.4014466132E-02    0.6959902592E+00    0.2728459421E+00    0.4358723607E-04
    0.1300000000E+07    0.2891888947E-01    0.3795457066E-02    0.6959901056E+00    0.2767344480E+00    0.4399385462E-04
    0.1500000000E+07    0.2741647052E-01    0.3612528012E-02    0.6959899436E+00    0.2798961747E+00    0.4434518442E-04
    0.1700000000E+07    0.2614107876E-01    0.3456481926E-02    0.6959897816E+00    0.2825363353E+00    0.4465477419E-04
    0.1900000000E+07    0.2503956994E-01    0.3321139385E-02    0.6959896233E+00    0.2847865100E+00    0.4493170278E-04
    0.2100000000E+07    0.2407490101E-01    0.3202166973E-02    0.6959894705E+00    0.2867356510E+00    0.4518235719E-04
    0.2300000000E+07    0.2322032257E-01    0.3096419278E-02    0.6959893237E+00    0.2884464337E+00    0.4541140465E-04
    0.2500000000E+07    0.2245595021E-01    0.3001547614E-02    0.6959891831E+00    0.2899645150E+00    0.4562236133E-04
    0.2700000000E+07    0.2176664045E-01    0.2915756171E-02    0.6959890485E+00    0.2913240787E+00    0.4581794341E-04
    0.2900000000E+07    0.2114062133E-01    0.2837643983E-02    0.6959889196E+00    0.2925513137E+00    0.4600029355E-04
    0.3100000000E+07    0.2056857912E-01    0.2766099065E-02    0.6959887961E+00    0.2936666794E+00    0.4617113229E-04
    0.3300000000E+07    0.2004303148E-01    0.2700225457E-02    0.6959886776E+00    0.2946864309E+00    0.4633186253E-04
    0.3500000000E+07    0.1955788626E-01    0.2639291690E-02    0.6959885639E+00    0.2956236736E+00    0.4648364346E-04
    0.3700000000E+07    0.1910812415E-01    0.2582693599E-02    0.6959884545E+00    0.2964891104E+00    0.4662744413E-04
    0.3900000000E+07    0.1868956594E-01    0.2529926969E-02    0.6959883493E+00    0.2972915824E+00    0.4676408303E-04
    0.4100000000E+07    0.1829869888E-01    0.2480567073E-02    0.6959882479E+00    0.2980384677E+00    0.4689425790E-04
    0.4300000000E+07    0.1793254525E-01    0.2434253132E-02    0.6959881501E+00    0.2987359799E+00    0.4701856840E-04
    0.4500000000E+07    0.1758856126E-01    0.2390676353E-02    0.6959880556E+00    0.2993893951E+00    0.4713753380E-04
    0.4700000000E+07    0.1726455857E-01    0.2349570609E-02    0.6959879643E+00    0.3000032274E+00    0.4725160675E-04
    0.4900000000E+07    0.1695864253E-01    0.2310705087E-02    0.6959878759E+00    0.3005813651E+00    0.4736118427E-04
    0.1000000000E+07    0.3178434897E-01    0.4141711749E-02    0.6959903274E+00    0.2705303425E+00    0.4335693180E-04
    0.3000000000E+07    0.2084835778E-01    0.2801110988E-02    0.6959888572E+00    0.2931218799E+00    0.4608705770E-04
    0.5000000000E+07    0.1681194292E-01    0.2292048472E-02    0.6959878328E+00    0.3008581195E+00    0.4741439830E-04
    0.7000000000E+07    0.1451983869E-01    0.1998880252E-02    0.6959870879E+00    0.3051427964E+00    0.4830950929E-04
    0.9000000000E+07    0.1298695379E-01    0.1800940584E-02    0.6959865029E+00    0.3079690406E+00    0.4898908275E-04
    0.1100000000E+08    0.1186661429E-01    0.1655221484E-02    0.6959860207E+00    0.3100160704E+00    0.4953856891E-04
    0.1300000000E+08    0.1100044188E-01    0.1541901313E-02    0.6959856101E+00    0.3115884383E+00    0.5000070230E-04
    0.1500000000E+08    0.1030419847E-01    0.1450365713E-02    0.6959852522E+00    0.3128460794E+00    0.5039999866E-04
    0.1700000000E+08    0.9728316007E-02    0.1374334276E-02    0.6959849348E+00    0.3138822213E+00    0.5075185636E-04
    0.1900000000E+08    0.9241435007E-02    0.1309815047E-02    0.6959846494E+00    0.3147554133E+00    0.5106659374E-04
    0.2100000000E+08    0.8822600334E-02    0.1254129673E-02    0.6959843900E+00    0.3155045478E+00    0.5135146978E-04
    0.2300000000E+08    0.8457196484E-02    0.1205403391E-02    0.6959841523E+00    0.3161566178E+00    0.5161178891E-04
    0.2500000000E+08    0.8134671927E-02    0.1162278388E-02    0.6959839327E+00    0.3167310294E+00    0.5185154733E-04
    0.2700000000E+08    0.7847189712E-02    0.1123743244E-02    0.6959837287E+00    0.3172421444E+00    0.5207383209E-04
