  Pressure (Pa) 22mC5-500 (mol/kg) 23mC5-500 (mol/kg) 24mC5-500 (mol/kg) 2mC6-500 (mol/kg) C7-500 (mol/kg)
    0.1000000000E+01    0.1280244218E-04    0.2208787489E-05    0.6964990147E-01    0.3068067176E-04    0.4147459311E-02
    0.3000000000E+01    0.3063134992E-04    0.5274784230E-05    0.1740807102E+00    0.7091513495E-04    0.4178313743E-02
    0.5000000000E+01    0.4244668411E-04    0.7299344338E-05    0.2486443396E+00    0.9607976440E-04    0.4190690035E-02
    0.7000000000E+01    0.5073328319E-04    0.8714634955E-05    0.3045526677E+00    0.1129566973E-03    0.4198666610E-02
    0.9000000000E+01    0.5680236085E-04    0.9748212558E-05    0.3480295865E+00    0.1249615047E-03    0.4204411480E-02
    0.1100000000E+02    0.6140829247E-04    0.1053073061E-04    0.3828072733E+00    0.1339736550E-03    0.4208763879E-02
    0.1300000000E+02    0.6501213542E-04    0.1114187597E-04    0.4112597181E+00    0.1410897384E-03    0.4212161735E-02
    0.1500000000E+02    0.6790915790E-04    0.1163257185E-04    0.4349690524E+00    0.1469784691E-03    0.4214867926E-02
    0.1700000000E+02    0.7029568049E-04    0.1203660122E-04    0.4550303123E+00    0.1520620129E-03    0.4217053539E-02
    0.1900000000E+02    0.7230632024E-04    0.1237707558E-04    0.4722255061E+00    0.1566143581E-03    0.4218836055E-02
    0.2100000000E+02    0.7403579415E-04    0.1267021731E-04    0.4871280127E+00    0.1608173145E-03    0.4220299364E-02
    0.2300000000E+02    0.7555221768E-04    0.1292766355E-04    0.5001678099E+00    0.1647936820E-03    0.4221505210E-02
    0.2500000000E+02    0.7690550187E-04    0.1315791920E-04    0.5116736702E+00    0.1686275621E-03    0.4222500162E-02
    0.2700000000E+02    0.7813281568E-04    0.1336730071E-04    0.5219012837E+00    0.1723771545E-03    0.4223320067E-02
    0.2900000000E+02    0.7926223205E-04    0.1356056521E-04    0.5310524976E+00    0.1760830192E-03    0.4223993000E-02
    0.3100000000E+02    0.8031521732E-04    0.1374133950E-04    0.5392887811E+00    0.1797735250E-03    0.4224541280E-02
    0.3300000000E+02    0.8130836522E-04    0.1391241834E-04    0.5467408417E+00    0.1834685105E-03    0.4224982885E-02
    0.3500000000E+02    0.8225462630E-04    0.1407597569E-04    0.5535156184E+00    0.1871817835E-03    0.4225332466E-02
    0.3700000000E+02    0.8316419366E-04    0.1423371663E-04    0.5597014498E+00    0.1909228523E-03    0.4225602086E-02
    0.3900000000E+02    0.8404515019E-04    0.1438698822E-04    0.5653719501E+00    0.1946981403E-03    0.4225801767E-02
    0.4100000000E+02    0.8490394783E-04    0.1453686143E-04    0.5705889544E+00    0.1985118474E-03    0.4225939913E-02
    0.4300000000E+02    0.8574576654E-04    0.1468419243E-04    0.5754047841E+00    0.2023665663E-03    0.4226023617E-02
    0.4500000000E+02    0.8657478611E-04    0.1482966893E-04    0.5798640091E+00    0.2062637282E-03    0.4226058912E-02
    0.4700000000E+02    0.8739439407E-04    0.1497384549E-04    0.5840048323E+00    0.2102039261E-03    0.4226050965E-02
    0.4900000000E+02    0.8820734605E-04    0.1511717080E-04    0.5878601869E+00    0.2141871521E-03    0.4226004220E-02
    0.1000000000E+02    0.5925443309E-04    0.1016501066E-04    0.3663340118E+00    0.1297601171E-03    0.4206728750E-02
    0.3000000000E+02    0.7979714366E-04    0.1365232228E-04    0.5352762079E+00    0.1779287859E-03    0.4224281509E-02
    0.5000000000E+02    0.8861204570E-04    0.1518863082E-04    0.5896898842E+00    0.2161947777E-03    0.4225967522E-02
    0.7000000000E+02    0.9672455209E-04    0.1663195383E-04    0.6165596334E+00    0.2583922503E-03    0.4223905162E-02
    0.9000000000E+02    0.1052390624E-03    0.1815784054E-04    0.6325766698E+00    0.3037276363E-03    0.4220340564E-02
    0.1100000000E+03    0.1142747575E-03    0.1978089512E-04    0.6432119048E+00    0.3513451407E-03    0.4216002708E-02
    0.1300000000E+03    0.1238009358E-03    0.2149309293E-04    0.6507878886E+00    0.4007408018E-03    0.4211197159E-02
    0.1500000000E+03    0.1337701229E-03    0.2328487036E-04    0.6564587664E+00    0.4516315029E-03    0.4206072744E-02
    0.1700000000E+03    0.1441422316E-03    0.2514857701E-04    0.6608629522E+00    0.5038594205E-03    0.4200709304E-02
    0.1900000000E+03    0.1548873731E-03    0.2707865058E-04    0.6643822584E+00    0.5573390927E-03    0.4195152476E-02
    0.2100000000E+03    0.1659844161E-03    0.2907122041E-04    0.6672590496E+00    0.6120284819E-03    0.4189429395E-02
    0.2300000000E+03    0.1774190592E-03    0.3112369922E-04    0.6696545806E+00    0.6679127159E-03    0.4183556478E-02
    0.2500000000E+03    0.1891822097E-03    0.3323446226E-04    0.6716803080E+00    0.7249946386E-03    0.4177543587E-02
    0.2700000000E+03    0.2012687584E-03    0.3540261229E-04    0.6734157362E+00    0.7832891393E-03    0.4171396385E-02
    0.2900000000E+03    0.2136766808E-03    0.3762781083E-04    0.6749191022E+00    0.8428196543E-03    0.4165117734E-02
    0.3100000000E+03    0.2264063865E-03    0.3991015723E-04    0.6762340412E+00    0.9036159585E-03    0.4158708559E-02
    0.3300000000E+03    0.2394602449E-03    0.4225010168E-04    0.6773938931E+00    0.9657127494E-03    0.4152168399E-02
    0.3500000000E+03    0.2528422410E-03    0.4464838239E-04    0.6784245701E+00    0.1029148729E-02    0.4145495764E-02
    0.3700000000E+03    0.2665577222E-03    0.4710597976E-04    0.6793465160E+00    0.1093966009E-02    0.4138688379E-02
    0.3900000000E+03    0.2806132142E-03    0.4962408310E-04    0.6801760765E+00    0.1160209730E-02    0.4131743345E-02
    0.4100000000E+03    0.2950162843E-03    0.5220406631E-04    0.6809264769E+00    0.1227927826E-02    0.4124657252E-02
    0.4300000000E+03    0.3097754440E-03    0.5484747035E-04    0.6816085332E+00    0.1297170889E-02    0.4117426257E-02
    0.4500000000E+03    0.3249000775E-03    0.5755599064E-04    0.6822311767E+00    0.1367992108E-02    0.4110046136E-02
    0.4700000000E+03    0.3404003929E-03    0.6033146843E-04    0.6828018471E+00    0.1440447257E-02    0.4102512322E-02
    0.4900000000E+03    0.3562873897E-03    0.6317588509E-04    0.6833267918E+00    0.1514594726E-02    0.4094819931E-02
    0.1000000000E+03    0.1096926830E-03    0.1895759619E-04    0.6383819087E+00    0.3272893009E-03    0.4218243832E-02
    0.3000000000E+03    0.2200012040E-03    0.3876181980E-04    0.6755978391E+00    0.8730575169E-03    0.4161929463E-02
    0.5000000000E+03    0.3643795423E-03    0.6462460213E-04    0.6835738009E+00    0.1552322056E-02    0.4090912658E-02
    0.7000000000E+03    0.5498725268E-03    0.9781979637E-04    0.6870512409E+00    0.2412454542E-02    0.4002993278E-02
    0.9000000000E+03    0.7933024895E-03    0.1413644202E-03    0.6889989236E+00    0.3535194153E-02    0.3891079243E-02
    0.1100000000E+04    0.1122618183E-02    0.2002609443E-03    0.6902443148E+00    0.5051112952E-02    0.3743900532E-02
    0.1300000000E+04    0.1584331603E-02    0.2828307584E-03    0.6911092478E+00    0.7175920804E-02    0.3543381914E-02
    0.1500000000E+04    0.2256740740E-02    0.4030818081E-03    0.6917449634E+00    0.1027272120E-01    0.3260394234E-02
    0.1700000000E+04    0.3266642509E-02    0.5837031607E-03    0.6922319168E+00    0.1493145929E-01    0.2850955643E-02
    0.1900000000E+04    0.4778008553E-02    0.8540527123E-03    0.6926168533E+00    0.2192218254E-01    0.2267438341E-02
    0.2100000000E+04    0.6831110792E-02    0.1221403067E-02    0.6929287895E+00    0.3146037064E-01    0.1529771609E-02
    0.2300000000E+04    0.9012327619E-02    0.1611859509E-02    0.6931866905E+00    0.4167180539E-01    0.8353988137E-03
    0.2500000000E+04    0.1071043161E-01    0.1916097359E-02    0.6934034755E+00    0.4973314191E-01    0.4049707045E-03
    0.2700000000E+04    0.1184523342E-01    0.2119696278E-02    0.6935882492E+00    0.5524132522E-01    0.2176019913E-03
    0.2900000000E+04    0.1265934986E-01    0.2265998498E-02    0.6937476126E+00    0.5929507690E-01    0.1501630384E-03
    0.3100000000E+04    0.1332883976E-01    0.2386477318E-02    0.6938864689E+00    0.6270070810E-01    0.1276938576E-03
    0.3300000000E+04    0.1393057975E-01    0.2494878459E-02    0.6940085358E+00    0.6581151426E-01    0.1205060506E-03
    0.3500000000E+04    0.1449367910E-01    0.2596406004E-02    0.6941166837E+00    0.6876099663E-01    0.1183682933E-03
    0.3700000000E+04    0.1502912136E-01    0.2693021992E-02    0.6942131638E+00    0.7159889005E-01    0.1178901315E-03
    0.3900000000E+04    0.1554144474E-01    0.2785535474E-02    0.6942997669E+00    0.7434507401E-01    0.1179543163E-03
    0.4100000000E+04    0.1603290684E-01    0.2874347571E-02    0.6943779350E+00    0.7700887994E-01    0.1181909511E-03
    0.4300000000E+04    0.1650493204E-01    0.2959710477E-02    0.6944488425E+00    0.7959582557E-01    0.1184768796E-03
    0.4500000000E+04    0.1695861471E-01    0.3041817498E-02    0.6945134555E+00    0.8210996116E-01    0.1187711262E-03
    0.4700000000E+04    0.1739489666E-01    0.3120834827E-02    0.6945725760E+00    0.8455469648E-01    0.1190603401E-03
    0.4900000000E+04    0.1781463201E-01    0.3196913125E-02    0.6946268752E+00    0.8693309989E-01    0.1193405167E-03
    0.1000000000E+04    0.9448759736E-03    0.1684734711E-03    0.6896833118E+00    0.4233101858E-02    0.3822825890E-02
    0.3000000000E+04    0.1300571621E-01    0.2328311329E-02    0.6938193487E+00    0.6104923869E-01    0.1358558305E-03
    0.5000000000E+04    0.1801854420E-01    0.3233894144E-02    0.6946523974E+00    0.8809832226E-01    0.1194768984E-03
    0.7000000000E+04    0.2139598690E-01    0.3848842659E-02    0.6950097589E+00    0.1085261827E+00    0.1217689818E-03
    0.9000000000E+04    0.2377527588E-01    0.4285805407E-02    0.6952082477E+00    0.1247115791E+00    0.1235020483E-03
    0.1100000000E+05    0.2548979602E-01    0.4603775890E-02    0.6953344667E+00    0.1379098067E+00    0.1248998689E-03
    0.1300000000E+05    0.2674407380E-01    0.4839032891E-02    0.6954217607E+00    0.1489191516E+00    0.1260735752E-03
    0.1500000000E+05    0.2766974758E-01    0.5014984840E-02    0.6954856998E+00    0.1582725147E+00    0.1270865451E-03
    0.1700000000E+05    0.2835488574E-01    0.5147333063E-02    0.6955345297E+00    0.1663398678E+00    0.1279784259E-03
    0.1900000000E+05    0.2886031467E-01    0.5246951171E-02    0.6955730246E+00    0.1733865214E+00    0.1287757067E-03
    0.2100000000E+05    0.2922918038E-01    0.5321573587E-02    0.6956041401E+00    0.1796079759E+00    0.1294969811E-03
    0.2300000000E+05    0.2949278741E-01    0.5376828158E-02    0.6956298039E+00    0.1851516650E+00    0.1301558126E-03
    0.2500000000E+05    0.2967429348E-01    0.5416890500E-02    0.6956513263E+00    0.1901310149E+00    0.1307624047E-03
    0.2700000000E+05    0.2979111963E-01    0.5444911526E-02    0.6956696294E+00    0.1946348185E+00    0.1313246307E-03
    0.2900000000E+05    0.2985656468E-01    0.5463304263E-02    0.6956853807E+00    0.1987336537E+00    0.1318486951E-03
    0.3100000000E+05    0.2988091207E-01    0.5473940808E-02    0.6956990755E+00    0.2024843841E+00    0.1323395761E-03
    0.3300000000E+05    0.2987220445E-01    0.5478290375E-02    0.6957110886E+00    0.2059333789E+00    0.1328013298E-03
    0.3500000000E+05    0.2983679558E-01    0.5477517842E-02    0.6957217094E+00    0.2091188606E+00    0.1332373060E-03
    0.3700000000E+05    0.2977975024E-01    0.5472555257E-02    0.6957311643E+00    0.2120726447E+00    0.1336503030E-03
    0.3900000000E+05    0.2970513813E-01    0.5464154495E-02    0.6957396335E+00    0.2148214489E+00    0.1340426837E-03
    0.4100000000E+05    0.2961625285E-01    0.5452926554E-02    0.6957472618E+00    0.2173878909E+00    0.1344164613E-03
    0.4300000000E+05    0.2951577699E-01    0.5439371241E-02    0.6957541671E+00    0.2197912589E+00    0.1347733654E-03
    0.4500000000E+05    0.2940590799E-01    0.5423899841E-02    0.6957604462E+00    0.2220481131E+00    0.1351148932E-03
    0.4700000000E+05    0.2928845509E-01    0.5406852615E-02    0.6957661796E+00    0.2241727599E+00    0.1354423494E-03
    0.4900000000E+05    0.2916491466E-01    0.5388512420E-02    0.6957714343E+00    0.2261776298E+00    0.1357568781E-03
    0.1000000000E+05    0.2470066472E-01    0.4457011812E-02    0.6952776822E+00    0.1316263285E+00    0.1242343567E-03
    0.3000000000E+05    0.2987332775E-01    0.5469492103E-02    0.6956924594E+00    0.2006494190E+00    0.1320980113E-03
    0.5000000000E+05    0.2910125849E-01    0.5378932838E-02    0.6957739003E+00    0.2271385961E+00    0.1359096147E-03
    0.7000000000E+05    0.2771904366E-01    0.5159915250E-02    0.6958080876E+00    0.2421019463E+00    0.1384781359E-03
    0.9000000000E+05    0.2636565254E-01    0.4935925709E-02    0.6958266628E+00    0.2520380976E+00    0.1404275218E-03
    0.1100000000E+06    0.2514658300E-01    0.4730070333E-02    0.6958382086E+00    0.2592550446E+00    0.1420034480E-03
    0.1300000000E+06    0.2406685811E-01    0.4545441364E-02    0.6958460067E+00    0.2648052370E+00    0.1433286852E-03
    0.1500000000E+06    0.2311063098E-01    0.4380448420E-02    0.6958515795E+00    0.2692462524E+00    0.1444736309E-03
    0.1700000000E+06    0.2225957968E-01    0.4232569913E-02    0.6958557277E+00    0.2729048452E+00    0.1454824883E-03
    0.1900000000E+06    0.2149731688E-01    0.4099358564E-02    0.6958589118E+00    0.2759869558E+00    0.1463848705E-03
    0.2100000000E+06    0.2081014665E-01    0.3978687778E-02    0.6958614151E+00    0.2786297297E+00    0.1472016070E-03
    0.2300000000E+06    0.2018685319E-01    0.3868774711E-02    0.6958634210E+00    0.2809285295E+00    0.1479479168E-03
    0.2500000000E+06    0.1961828418E-01    0.3768141001E-02    0.6958650534E+00    0.2829520118E+00    0.1486352641E-03
    0.2700000000E+06    0.1909694650E-01    0.3675561844E-02    0.6958663988E+00    0.2847510430E+00    0.1492725042E-03
    0.2900000000E+06    0.1861666749E-01    0.3590018870E-02    0.6958675194E+00    0.2863642242E+00    0.1498666219E-03
    0.3100000000E+06    0.1817232507E-01    0.3510660645E-02    0.6958684610E+00    0.2878214532E+00    0.1504232258E-03
    0.3300000000E+06    0.1775963662E-01    0.3436770772E-02    0.6958692580E+00    0.2891462969E+00    0.1509468887E-03
    0.3500000000E+06    0.1737499454E-01    0.3367742506E-02    0.6958699369E+00    0.2903576184E+00    0.1514413889E-03
    0.3700000000E+06    0.1701533796E-01    0.3303058627E-02    0.6958705181E+00    0.2914707198E+00    0.1519098847E-03
    0.3900000000E+06    0.1667805220E-01    0.3242275470E-02    0.6958710178E+00    0.2924981629E+00    0.1523550438E-03
    0.4100000000E+06    0.1636088937E-01    0.3185010185E-02    0.6958714488E+00    0.2934503699E+00    0.1527791402E-03
    0.4300000000E+06    0.1606190534E-01    0.3130930546E-02    0.6958718217E+00    0.2943360703E+00    0.1531841282E-03
    0.4500000000E+06    0.1577940928E-01    0.3079746719E-02    0.6958721448E+00    0.2951626390E+00    0.1535716999E-03
    0.4700000000E+06    0.1551192291E-01    0.3031204595E-02    0.6958724252E+00    0.2959363552E+00    0.1539433305E-03
    0.4900000000E+06    0.1525814750E-01    0.2985080345E-02    0.6958726688E+00    0.2966626029E+00    0.1543003137E-03
    0.1000000000E+06    0.2573811285E-01    0.4830346437E-02    0.6958330473E+00    0.2559041147E+00    0.1412527860E-03
    0.3000000000E+06    0.1839028942E-01    0.3549614278E-02    0.6958680102E+00    0.2871107334E+00    0.1501493062E-03
    0.5000000000E+06    0.1513603788E-01    0.2962862137E-02    0.6958727782E+00    0.2970094035E+00    0.1544736745E-03
    0.7000000000E+06    0.1319537491E-01    0.2607569417E-02    0.6958738717E+00    0.3023067692E+00    0.1573897129E-03
    0.9000000000E+06    0.1186623289E-01    0.2361763401E-02    0.6958739431E+00    0.3057251936E+00    0.1596035287E-03
    0.1100000000E+07    0.1088085001E-01    0.2178146205E-02    0.6958736424E+00    0.3081620900E+00    0.1613935373E-03
    0.1300000000E+07    0.1011171432E-01    0.2033953653E-02    0.6958731915E+00    0.3100109972E+00    0.1628989695E-03
    0.1500000000E+07    0.9489222896E-02    0.1916661832E-02    0.6958726808E+00    0.3114751519E+00    0.1641996957E-03
    0.1700000000E+07    0.8971678940E-02    0.1818721039E-02    0.6958721515E+00    0.3126714487E+00    0.1653458816E-03
    0.1900000000E+07    0.8532352617E-02    0.1735266298E-02    0.6958716229E+00    0.3136724899E+00    0.1663711423E-03
    0.2100000000E+07    0.8153200391E-02    0.1662998949E-02    0.6958711049E+00    0.3145260488E+00    0.1672991258E-03
    0.2300000000E+07    0.7821535741E-02    0.1599590640E-02    0.6958706020E+00    0.3152650107E+00    0.1681471123E-03
    0.2500000000E+07    0.7528139472E-02    0.1543343524E-02    0.6958701161E+00    0.3159128475E+00    0.1689281204E-03
    0.2700000000E+07    0.7266126776E-02    0.1492985715E-02    0.6958696480E+00    0.3164868184E+00    0.1696522065E-03
    0.2900000000E+07    0.7030236814E-02    0.1447542586E-02    0.6958691974E+00    0.3169999339E+00    0.1703273038E-03
    0.3100000000E+07    0.6816370201E-02    0.1406252716E-02    0.6958687638E+00    0.3174622115E+00    0.1709597822E-03
    0.3300000000E+07    0.6621278161E-02    0.1368511230E-02    0.6958683464E+00    0.3178815056E+00    0.1715548359E-03
    0.3500000000E+07    0.6442347803E-02    0.1333830568E-02    0.6958679445E+00    0.3182640729E+00    0.1721167567E-03
    0.3700000000E+07    0.6277450224E-02    0.1301812659E-02    0.6958675570E+00    0.3186149668E+00    0.1726491322E-03
    0.3900000000E+07    0.6124830799E-02    0.1272128777E-02    0.6958671833E+00    0.3189383191E+00    0.1731549929E-03
    0.4100000000E+07    0.5983028440E-02    0.1244504693E-02    0.6958668224E+00    0.3192375458E+00    0.1736369220E-03
    0.4300000000E+07    0.5850815214E-02    0.1218709538E-02    0.6958664736E+00    0.3195154981E+00    0.1740971397E-03
    0.4500000000E+07    0.5727150491E-02    0.1194547343E-02    0.6958661363E+00    0.3197745775E+00    0.1745375684E-03
    0.4700000000E+07    0.5611145671E-02    0.1171850505E-02    0.6958658096E+00    0.3200168231E+00    0.1749598840E-03
    0.4900000000E+07    0.5502036713E-02    0.1150474706E-02    0.6958654931E+00    0.3202439782E+00    0.1753655564E-03
    0.1000000000E+07    0.1134045498E-01    0.2263941304E-02    0.6958738207E+00    0.3070352876E+00    0.1605408713E-03
    0.3000000000E+07    0.6920770686E-02    0.1426419440E-02    0.6958689785E+00    0.3172368934E+00    0.1706485218E-03
    0.5000000000E+07    0.5449858061E-02    0.1140242457E-02    0.6958653384E+00    0.3203523743E+00    0.1755625626E-03
    0.7000000000E+07    0.4646374950E-02    0.9818297321E-03    0.6958626557E+00    0.3220026635E+00    0.1788763815E-03
    0.9000000000E+07    0.4120932896E-02    0.8772894008E-03    0.6958605364E+00    0.3230632166E+00    0.1813922352E-03
    0.1100000000E+08    0.3742665315E-02    0.8015064171E-03    0.6958587832E+00    0.3238178826E+00    0.1834264818E-03
    0.1300000000E+08    0.3453444443E-02    0.7432365859E-03    0.6958572867E+00    0.3243900334E+00    0.1851373339E-03
    0.1500000000E+08    0.3222958097E-02    0.6965800183E-03    0.6958559801E+00    0.3248430370E+00    0.1866155538E-03
    0.1700000000E+08    0.3033634185E-02    0.6580990980E-03    0.6958548196E+00    0.3252132113E+00    0.1879181492E-03
    0.1900000000E+08    0.2874486485E-02    0.6256352772E-03    0.6958537754E+00    0.3255230590E+00    0.1890833203E-03
    0.2100000000E+08    0.2738244602E-02    0.5977546872E-03    0.6958528256E+00    0.3257873624E+00    0.1901379412E-03
    0.2300000000E+08    0.2619878800E-02    0.5734620381E-03    0.6958519544E+00    0.3260162855E+00    0.1911016495E-03
    0.2500000000E+08    0.2515783106E-02    0.5520416288E-03    0.6958511492E+00    0.3262170768E+00    0.1919892400E-03
    0.2700000000E+08    0.2423295407E-02    0.5329636467E-03    0.6958504007E+00    0.3263950633E+00    0.1928121412E-03
