  Pressure (Pa) 22mC5-500 (mol/kg) 23mC5-500 (mol/kg) 24mC5-500 (mol/kg) 2mC6-500 (mol/kg) C7-500 (mol/kg)
    0.1000000000E+01    0.1211595038E-04    0.2786235595E-05    0.9949779771E-01    0.2247655746E-04    0.4147261140E-02
    0.3000000000E+01    0.2678201301E-04    0.6144231308E-05    0.2321032855E+00    0.4768582247E-04    0.4176338502E-02
    0.5000000000E+01    0.3521213206E-04    0.8064962227E-05    0.3164569569E+00    0.6120545353E-04    0.4186592548E-02
    0.7000000000E+01    0.4057467456E-04    0.9281924299E-05    0.3748431590E+00    0.6952443580E-04    0.4192583240E-02
    0.9000000000E+01    0.4425352271E-04    0.1011448248E-04    0.4176542531E+00    0.7528684486E-04    0.4196578231E-02
    0.1100000000E+02    0.4693782027E-04    0.1072116267E-04    0.4503896361E+00    0.7971708710E-04    0.4199415322E-02
    0.1300000000E+02    0.4900288995E-04    0.1118801044E-04    0.4762321874E+00    0.8343159062E-04    0.4201505226E-02
    0.1500000000E+02    0.5066711472E-04    0.1156491380E-04    0.4971518231E+00    0.8675953914E-04    0.4203080029E-02
    0.1700000000E+02    0.5206419685E-04    0.1188230121E-04    0.5144330610E+00    0.8988427200E-04    0.4204282876E-02
    0.1900000000E+02    0.5327935931E-04    0.1215949059E-04    0.5289492658E+00    0.9291090081E-04    0.4205207589E-02
    0.2100000000E+02    0.5436872023E-04    0.1240914826E-04    0.5413149704E+00    0.9590075126E-04    0.4205918518E-02
    0.2300000000E+02    0.5537023020E-04    0.1263980076E-04    0.5519751497E+00    0.9888981363E-04    0.4206461400E-02
    0.2500000000E+02    0.5631012495E-04    0.1285731334E-04    0.5612599285E+00    0.1018990395E-03    0.4206869695E-02
    0.2700000000E+02    0.5720687603E-04    0.1306579320E-04    0.5694193909E+00    0.1049402842E-03    0.4207168480E-02
    0.2900000000E+02    0.5807368708E-04    0.1326815877E-04    0.5766464527E+00    0.1080198317E-03    0.4207376935E-02
    0.3100000000E+02    0.5892011480E-04    0.1346650843E-04    0.5830923147E+00    0.1111405337E-03    0.4207509990E-02
    0.3300000000E+02    0.5975314661E-04    0.1366236509E-04    0.5888771602E+00    0.1143031312E-03    0.4207579444E-02
    0.3500000000E+02    0.6057793213E-04    0.1385684166E-04    0.5940977205E+00    0.1175070821E-03    0.4207594750E-02
    0.3700000000E+02    0.6139828896E-04    0.1405075523E-04    0.5988327300E+00    0.1207510861E-03    0.4207563573E-02
    0.3900000000E+02    0.6221705797E-04    0.1424470696E-04    0.6031469255E+00    0.1240334175E-03    0.4207492190E-02
    0.4100000000E+02    0.6303635669E-04    0.1443913894E-04    0.6070940245E+00    0.1273521388E-03    0.4207385797E-02
    0.4300000000E+02    0.6385776219E-04    0.1463437505E-04    0.6107189746E+00    0.1307052349E-03    0.4207248728E-02
    0.4500000000E+02    0.6468244477E-04    0.1483065077E-04    0.6140596725E+00    0.1340906984E-03    0.4207084630E-02
    0.4700000000E+02    0.6551126662E-04    0.1502813506E-04    0.6171482948E+00    0.1375065811E-03    0.4206896591E-02
    0.4900000000E+02    0.6634485537E-04    0.1522694662E-04    0.6200123382E+00    0.1409510241E-03    0.4206687246E-02
    0.1000000000E+02    0.4569161641E-04    0.1043954571E-04    0.4350451610E+00    0.7762075613E-04    0.4198110004E-02
    0.3000000000E+02    0.5849896183E-04    0.1336772916E-04    0.5799588963E+00    0.1095749542E-03    0.4207452087E-02
    0.5000000000E+02    0.6676358321E-04    0.1532687653E-04    0.6213676615E+00    0.1426834037E-03    0.4206575302E-02
    0.7000000000E+02    0.7544073381E-04    0.1740297706E-04    0.6409856296E+00    0.1784667077E-03    0.4203627703E-02
    0.9000000000E+02    0.8466643831E-04    0.1961401657E-04    0.6524310374E+00    0.2157640499E-03    0.4199905156E-02
    0.1100000000E+03    0.9434093089E-04    0.2193258849E-04    0.6599306150E+00    0.2540500835E-03    0.4195801087E-02
    0.1300000000E+03    0.1043804123E-03    0.2433763909E-04    0.6652249479E+00    0.2930907200E-03    0.4191472884E-02
    0.1500000000E+03    0.1147288787E-03    0.2681550847E-04    0.6691620886E+00    0.3327796732E-03    0.4186994111E-02
    0.1700000000E+03    0.1253501850E-03    0.2935753191E-04    0.6722046473E+00    0.3730708372E-03    0.4182402608E-02
    0.1900000000E+03    0.1362211789E-03    0.3195823372E-04    0.6746264333E+00    0.4139484571E-03    0.4177719006E-02
    0.2100000000E+03    0.1473272092E-03    0.3461419400E-04    0.6765998557E+00    0.4554129880E-03    0.4172954869E-02
    0.2300000000E+03    0.1586593044E-03    0.3732335189E-04    0.6782388866E+00    0.4974739677E-03    0.4168116656E-02
    0.2500000000E+03    0.1702123882E-03    0.4008457108E-04    0.6796218858E+00    0.5401462443E-03    0.4163207792E-02
    0.2700000000E+03    0.1819841304E-03    0.4289736283E-04    0.6808045030E+00    0.5834479017E-03    0.4158229816E-02
    0.2900000000E+03    0.1939741910E-03    0.4576170507E-04    0.6818273491E+00    0.6273990887E-03    0.4153183052E-02
    0.3100000000E+03    0.2061837124E-03    0.4867792175E-04    0.6827207551E+00    0.6720213457E-03    0.4148067010E-02
    0.3300000000E+03    0.2186149711E-03    0.5164660074E-04    0.6835078313E+00    0.7173372168E-03    0.4142880643E-02
    0.3500000000E+03    0.2312711371E-03    0.5466853701E-04    0.6842064952E+00    0.7633700286E-03    0.4137622506E-02
    0.3700000000E+03    0.2441561024E-03    0.5774469284E-04    0.6848308525E+00    0.8101437705E-03    0.4132290861E-02
    0.3900000000E+03    0.2572743606E-03    0.6087616959E-04    0.6853921600E+00    0.8576830355E-03    0.4126883750E-02
    0.4100000000E+03    0.2706309193E-03    0.6406418758E-04    0.6858995096E+00    0.9060130006E-03    0.4121399039E-02
    0.4300000000E+03    0.2842312379E-03    0.6731007174E-04    0.6863603253E+00    0.9551594307E-03    0.4115834449E-02
    0.4500000000E+03    0.2980811832E-03    0.7061524138E-04    0.6867807290E+00    0.1005148698E-02    0.4110187581E-02
    0.4700000000E+03    0.3121869973E-03    0.7398120303E-04    0.6871658137E+00    0.1056007814E-02    0.4104455927E-02
    0.4900000000E+03    0.3265552757E-03    0.7740954553E-04    0.6875198509E+00    0.1107764462E-02    0.4098636880E-02
    0.1000000000E+03    0.8945354847E-04    0.2076137800E-04    0.6565344831E+00    0.2348023315E-03    0.4197888072E-02
    0.3000000000E+03    0.2000514002E-03    0.4721329779E-04    0.6822886462E+00    0.6496249448E-03    0.4150633745E-02
    0.5000000000E+03    0.3338399931E-03    0.7914762781E-04    0.6876863771E+00    0.1133988208E-02    0.4095693744E-02
    0.7000000000E+03    0.4952099296E-03    0.1176392097E-03    0.6900264306E+00    0.1713047480E-02    0.4031526359E-02
    0.9000000000E+03    0.6931648146E-03    0.1648439953E-03    0.6913335242E+00    0.2421215476E-02    0.3954841175E-02
    0.1100000000E+04    0.9409687811E-03    0.2239286266E-03    0.6921679600E+00    0.3306845045E-02    0.3861068744E-02
    0.1300000000E+04    0.1258288070E-02    0.2995847819E-03    0.6927468552E+00    0.4440904694E-02    0.3743663920E-02
    0.1500000000E+04    0.1674911913E-02    0.3989179445E-03    0.6931720045E+00    0.5930684460E-02    0.3592995165E-02
    0.1700000000E+04    0.2236671133E-02    0.5328601406E-03    0.6934974728E+00    0.7941362039E-02    0.3394714096E-02
    0.1900000000E+04    0.3013717909E-02    0.7181468290E-03    0.6937546351E+00    0.1072631779E-01    0.3127800969E-02
    0.2100000000E+04    0.4107091747E-02    0.9788879793E-03    0.6939629493E+00    0.1465201140E-01    0.2764145636E-02
    0.2300000000E+04    0.5632532331E-02    0.1342718422E-02    0.6941351238E+00    0.2014246007E-01    0.2277152199E-02
    0.2500000000E+04    0.7625255786E-02    0.1818101867E-02    0.6942798105E+00    0.2734034340E-01    0.1676005649E-02
    0.2700000000E+04    0.9853398220E-02    0.2349827147E-02    0.6944031036E+00    0.3543338784E-01    0.1059310014E-02
    0.2900000000E+04    0.1184528152E-01    0.2825439430E-02    0.6945094199E+00    0.4273477295E-01    0.5815938650E-03
    0.3100000000E+04    0.1332712612E-01    0.3179590530E-02    0.6946020387E+00    0.4824690277E-01    0.3043605453E-03
    0.3300000000E+04    0.1438106147E-01    0.3431793306E-02    0.6946834459E+00    0.5224682553E-01    0.1733554129E-03
    0.3500000000E+04    0.1518672054E-01    0.3624847950E-02    0.6947555599E+00    0.5537041680E-01    0.1178227992E-03
    0.3700000000E+04    0.1586563649E-01    0.3787724563E-02    0.6948198855E+00    0.5805111025E-01    0.9538176964E-04
    0.3900000000E+04    0.1647840567E-01    0.3934870163E-02    0.6948776190E+00    0.6050565957E-01    0.8651412816E-04
    0.4100000000E+04    0.1705222918E-01    0.4072769622E-02    0.6949297236E+00    0.6283131666E-01    0.8308747523E-04
    0.4300000000E+04    0.1759908212E-01    0.4204276725E-02    0.6949769838E+00    0.6507063046E-01    0.8183036348E-04
    0.4500000000E+04    0.1812441998E-01    0.4330690218E-02    0.6950200446E+00    0.6724266328E-01    0.8143864413E-04
    0.4700000000E+04    0.1863095334E-01    0.4452654113E-02    0.6950594415E+00    0.6935657934E-01    0.8139179006E-04
    0.4900000000E+04    0.1912023000E-01    0.4570535107E-02    0.6950956226E+00    0.7141735957E-01    0.8148101279E-04
    0.1000000000E+04    0.8097912399E-03    0.1926521311E-03    0.6917922084E+00    0.2838071520E-02    0.3910442904E-02
    0.3000000000E+04    0.1265055945E-01    0.3017846129E-02    0.6945572706E+00    0.4571793624E-01    0.4197834500E-03
    0.5000000000E+04    0.1935873363E-01    0.4628024039E-02    0.6951126277E+00    0.7242885517E-01    0.8154790282E-04
    0.7000000000E+04    0.2340409381E-01    0.5606170416E-02    0.6953506619E+00    0.9039746250E-01    0.8305466680E-04
    0.9000000000E+04    0.2638949804E-01    0.6332820217E-02    0.6954828065E+00    0.1049643701E+00    0.8423163828E-04
    0.1100000000E+05    0.2864004422E-01    0.6884577894E-02    0.6955668064E+00    0.1170640901E+00    0.8518180519E-04
    0.1300000000E+05    0.3036376855E-01    0.7310557913E-02    0.6956248841E+00    0.1273122662E+00    0.8598010074E-04
    0.1500000000E+05    0.3169947899E-01    0.7643596065E-02    0.6956674127E+00    0.1361320027E+00    0.8666935632E-04
    0.1700000000E+05    0.3274297210E-01    0.7906399957E-02    0.6956998840E+00    0.1438241532E+00    0.8727640448E-04
    0.1900000000E+05    0.3356225084E-01    0.8115122939E-02    0.6957254774E+00    0.1506088236E+00    0.8781919157E-04
    0.2100000000E+05    0.3420675533E-01    0.8281534344E-02    0.6957461605E+00    0.1566509859E+00    0.8831032484E-04
    0.2300000000E+05    0.3471317383E-01    0.8414387282E-02    0.6957632166E+00    0.1620768858E+00    0.8875900653E-04
    0.2500000000E+05    0.3510921946E-01    0.8520308622E-02    0.6957775177E+00    0.1669848936E+00    0.8917216314E-04
    0.2700000000E+05    0.3541615318E-01    0.8604394261E-02    0.6957896777E+00    0.1714528829E+00    0.8955514131E-04
    0.2900000000E+05    0.3565051059E-01    0.8670617013E-02    0.6958001407E+00    0.1755433703E+00    0.8991215611E-04
    0.3100000000E+05    0.3582530901E-01    0.8722112110E-02    0.6958092360E+00    0.1793071729E+00    0.9024659045E-04
    0.3300000000E+05    0.3595090748E-01    0.8761380869E-02    0.6958172133E+00    0.1827860618E+00    0.9056120144E-04
    0.3500000000E+05    0.3603562996E-01    0.8790438445E-02    0.6958242649E+00    0.1860147190E+00    0.9085826632E-04
    0.3700000000E+05    0.3608622372E-01    0.8810922683E-02    0.6958305415E+00    0.1890222042E+00    0.9113968821E-04
    0.3900000000E+05    0.3610820133E-01    0.8824175414E-02    0.6958361629E+00    0.1918330685E+00    0.9140707402E-04
    0.4100000000E+05    0.3610609889E-01    0.8831303943E-02    0.6958412255E+00    0.1944682114E+00    0.9166179322E-04
    0.4300000000E+05    0.3608367340E-01    0.8833228085E-02    0.6958458075E+00    0.1969455480E+00    0.9190502253E-04
    0.4500000000E+05    0.3604405501E-01    0.8830716531E-02    0.6958499735E+00    0.1992805332E+00    0.9213778067E-04
    0.4700000000E+05    0.3598986581E-01    0.8824415226E-02    0.6958537768E+00    0.2014865783E+00    0.9236095550E-04
    0.4900000000E+05    0.3592331314E-01    0.8814869731E-02    0.6958572621E+00    0.2035753851E+00    0.9257532564E-04
    0.1000000000E+05    0.2759158694E-01    0.6627011688E-02    0.6955290191E+00    0.1112785303E+00    0.8472934052E-04
    0.3000000000E+05    0.3574465318E-01    0.8698036284E-02    0.6958048421E+00    0.1774633102E+00    0.9008201080E-04
    0.5000000000E+05    0.3588599544E-01    0.8809027893E-02    0.6958588976E+00    0.2045790808E+00    0.9267942672E-04
    0.7000000000E+05    0.3481820872E-01    0.8603678905E-02    0.6958815563E+00    0.2204315294E+00    0.9443023028E-04
    0.9000000000E+05    0.3355075135E-01    0.8334937443E-02    0.6958938509E+00    0.2312178867E+00    0.9575917653E-04
    0.1100000000E+06    0.3231598441E-01    0.8064338469E-02    0.6959014825E+00    0.2392038859E+00    0.9683360420E-04
    0.1300000000E+06    0.3117167513E-01    0.7809002937E-02    0.6959066300E+00    0.2454433706E+00    0.9773716100E-04
    0.1500000000E+06    0.3012676192E-01    0.7573037134E-02    0.6959103034E+00    0.2505034530E+00    0.9851781956E-04
    0.1700000000E+06    0.2917555042E-01    0.7356322511E-02    0.6959130337E+00    0.2547208981E+00    0.9920570569E-04
    0.1900000000E+06    0.2830844075E-01    0.7157386196E-02    0.6959151263E+00    0.2583104322E+00    0.9982100359E-04
    0.2100000000E+06    0.2751550771E-01    0.6974420461E-02    0.6959167688E+00    0.2614165471E+00    0.1003779114E-03
    0.2300000000E+06    0.2678766132E-01    0.6805652938E-02    0.6959180828E+00    0.2641406679E+00    0.1008868035E-03
    0.2500000000E+06    0.2611694096E-01    0.6649472273E-02    0.6959191501E+00    0.2665564527E+00    0.1013554950E-03
    0.2700000000E+06    0.2549649872E-01    0.6504458546E-02    0.6959200281E+00    0.2687189129E+00    0.1017900228E-03
    0.2900000000E+06    0.2492048072E-01    0.6369377065E-02    0.6959207580E+00    0.2706701078E+00    0.1021951487E-03
    0.3100000000E+06    0.2438388642E-01    0.6243159457E-02    0.6959213699E+00    0.2724428407E+00    0.1025746965E-03
    0.3300000000E+06    0.2388243521E-01    0.6124881812E-02    0.6959218866E+00    0.2740631385E+00    0.1029317838E-03
    0.3500000000E+06    0.2341244985E-01    0.6013743819E-02    0.6959223257E+00    0.2755519611E+00    0.1032689865E-03
    0.3700000000E+06    0.2297075794E-01    0.5909050213E-02    0.6959227005E+00    0.2769264101E+00    0.1035884580E-03
    0.3900000000E+06    0.2255461024E-01    0.5810194853E-02    0.6959230217E+00    0.2782006015E+00    0.1038920171E-03
    0.4100000000E+06    0.2216161319E-01    0.5716647264E-02    0.6959232980E+00    0.2793863079E+00    0.1041812143E-03
    0.4300000000E+06    0.2178967340E-01    0.5627941361E-02    0.6959235360E+00    0.2804934381E+00    0.1044573820E-03
    0.4500000000E+06    0.2143695193E-01    0.5543666022E-02    0.6959237415E+00    0.2815304027E+00    0.1047216740E-03
    0.4700000000E+06    0.2110182645E-01    0.5463457211E-02    0.6959239191E+00    0.2825043945E+00    0.1049750961E-03
    0.4900000000E+06    0.2078285996E-01    0.5386991382E-02    0.6959240725E+00    0.2834216073E+00    0.1052185305E-03
    0.1000000000E+06    0.3292381323E-01    0.8198313924E-02    0.6958980723E+00    0.2354788530E+00    0.9632181373E-04
    0.3000000000E+06    0.2464753856E-01    0.6305221153E-02    0.6959210771E+00    0.2715770195E+00    0.1023879107E-03
    0.5000000000E+06    0.2062903141E-01    0.5350070668E-02    0.6959241411E+00    0.2838606272E+00    0.1053367490E-03
    0.7000000000E+06    0.1815445200E-01    0.4752237672E-02    0.6959248005E+00    0.2906528139E+00    0.1073252763E-03
    0.9000000000E+06    0.1642833563E-01    0.4330784591E-02    0.6959247986E+00    0.2951269491E+00    0.1088349553E-03
    0.1100000000E+07    0.1513281574E-01    0.4011965406E-02    0.6959245597E+00    0.2983633275E+00    0.1100556336E-03
    0.1300000000E+07    0.1411244742E-01    0.3759278748E-02    0.6959242278E+00    0.3008462014E+00    0.1110822525E-03
    0.1500000000E+07    0.1328083853E-01    0.3552260398E-02    0.6959238611E+00    0.3028298098E+00    0.1119692767E-03
    0.1700000000E+07    0.1258553939E-01    0.3378400983E-02    0.6959234855E+00    0.3044623019E+00    0.1127509150E-03
    0.1900000000E+07    0.1199257449E-01    0.3229551502E-02    0.6959231132E+00    0.3058366813E+00    0.1134500901E-03
    0.2100000000E+07    0.1147881437E-01    0.3100137761E-02    0.6959227500E+00    0.3070146995E+00    0.1140829282E-03
    0.2300000000E+07    0.1102788155E-01    0.2986196339E-02    0.6959223987E+00    0.3080391932E+00    0.1146612133E-03
    0.2500000000E+07    0.1062780309E-01    0.2884819056E-02    0.6959220602E+00    0.3089409433E+00    0.1151938232E-03
    0.2700000000E+07    0.1026959127E-01    0.2793815621E-02    0.6959217347E+00    0.3097427181E+00    0.1156876156E-03
    0.2900000000E+07    0.9946347147E-02    0.2711499745E-02    0.6959214219E+00    0.3104617720E+00    0.1161480003E-03
    0.3100000000E+07    0.9652673240E-02    0.2636548535E-02    0.6959211213E+00    0.3111114534E+00    0.1165793214E-03
    0.3300000000E+07    0.9384276639E-02    0.2567907175E-02    0.6959208323E+00    0.3117022734E+00    0.1169851209E-03
    0.3500000000E+07    0.9137693508E-02    0.2504722579E-02    0.6959205542E+00    0.3122426378E+00    0.1173683256E-03
    0.3700000000E+07    0.8910093333E-02    0.2446296126E-02    0.6959202864E+00    0.3127393602E+00    0.1177313820E-03
    0.3900000000E+07    0.8699136968E-02    0.2392049303E-02    0.6959200283E+00    0.3131980305E+00    0.1180763567E-03
    0.4100000000E+07    0.8502871813E-02    0.2341498275E-02    0.6959197792E+00    0.3136232835E+00    0.1184050113E-03
    0.4300000000E+07    0.8319653133E-02    0.2294234761E-02    0.6959195386E+00    0.3140189996E+00    0.1187188598E-03
    0.4500000000E+07    0.8148084155E-02    0.2249911444E-02    0.6959193059E+00    0.3143884554E+00    0.1190192133E-03
    0.4700000000E+07    0.7986969844E-02    0.2208230691E-02    0.6959190808E+00    0.3147344397E+00    0.1193072145E-03
    0.4900000000E+07    0.7835280814E-02    0.2168935732E-02    0.6959188627E+00    0.3150593431E+00    0.1195838660E-03
    0.1000000000E+07    0.1573872954E-01    0.4161350696E-02    0.6959246966E+00    0.2968618476E+00    0.1094741658E-03
    0.3000000000E+07    0.9796104413E-02    0.2673174876E-02    0.6959212701E+00    0.3107945707E+00    0.1163670561E-03
    0.5000000000E+07    0.7762687257E-02    0.2150112112E-02    0.6959187562E+00    0.3152145451E+00    0.1197182159E-03
    0.7000000000E+07    0.6640610158E-02    0.1857563840E-02    0.6959169112E+00    0.3175905234E+00    0.1219781055E-03
    0.9000000000E+07    0.5902553754E-02    0.1663360279E-02    0.6959154564E+00    0.3191306859E+00    0.1236938205E-03
    0.1100000000E+08    0.5369152316E-02    0.1522019719E-02    0.6959142542E+00    0.3202331206E+00    0.1250811011E-03
    0.1300000000E+08    0.4960153744E-02    0.1413026653E-02    0.6959132288E+00    0.3210726021E+00    0.1262478408E-03
    0.1500000000E+08    0.4633495220E-02    0.1325560075E-02    0.6959123339E+00    0.3217395468E+00    0.1272559352E-03
    0.1700000000E+08    0.4364699175E-02    0.1253290166E-02    0.6959115395E+00    0.3222860602E+00    0.1281442609E-03
    0.1900000000E+08    0.4138415615E-02    0.1192229925E-02    0.6959108248E+00    0.3227445693E+00    0.1289388688E-03
    0.2100000000E+08    0.3944461142E-02    0.1139724144E-02    0.6959101750E+00    0.3231364534E+00    0.1296580858E-03
    0.2300000000E+08    0.3775776149E-02    0.1093925835E-02    0.6959095789E+00    0.3234764572E+00    0.1303153040E-03
    0.2500000000E+08    0.3627290413E-02    0.1053504434E-02    0.6959090283E+00    0.3237751242E+00    0.1309206128E-03
    0.2700000000E+08    0.3495255079E-02    0.1017473407E-02    0.6959085164E+00    0.3240402206E+00    0.1314818059E-03
