  Pressure (Pa) 22mC5-500 (mol/kg) 23mC5-500 (mol/kg) 24mC5-500 (mol/kg) 2mC6-500 (mol/kg) C7-500 (mol/kg)
    0.1000000000E+01    0.1280242129E-04    0.2945044541E-05    0.6965023687E-01    0.2727151023E-04    0.4147560299E-02
    0.3000000000E+01    0.3063114064E-04    0.7032993009E-05    0.1740826589E+00    0.6303416512E-04    0.4178524347E-02
    0.5000000000E+01    0.4244595366E-04    0.9732279770E-05    0.2486480495E+00    0.8540002385E-04    0.4190991702E-02
    0.7000000000E+01    0.5073166436E-04    0.1161912010E-04    0.3045578785E+00    0.1003976595E-03    0.4199051106E-02
    0.9000000000E+01    0.5679950224E-04    0.1299692650E-04    0.3480359771E+00    0.1110632210E-03    0.4204873766E-02
    0.1100000000E+02    0.6140386693E-04    0.1403990935E-04    0.3828145558E+00    0.1190674324E-03    0.4209300444E-02
    0.1300000000E+02    0.6500583771E-04    0.1485432293E-04    0.4112676567E+00    0.1253851095E-03    0.4212769954E-02
    0.1500000000E+02    0.6790070049E-04    0.1550806899E-04    0.4349774606E+00    0.1306107173E-03    0.4215545745E-02
    0.1700000000E+02    0.7028478955E-04    0.1604619471E-04    0.4550390452E+00    0.1351195536E-03    0.4217799297E-02
    0.1900000000E+02    0.7229273246E-04    0.1649951789E-04    0.4722344512E+00    0.1391551931E-03    0.4219648378E-02
    0.2100000000E+02    0.7401925431E-04    0.1688967022E-04    0.4871370833E+00    0.1428792671E-03    0.4221177095E-02
    0.2300000000E+02    0.7553247681E-04    0.1723216938E-04    0.5001769392E+00    0.1464009484E-03    0.4222447360E-02
    0.2500000000E+02    0.7688231588E-04    0.1753835635E-04    0.5116828066E+00    0.1497950075E-03    0.4223505877E-02
    0.2700000000E+02    0.7810594429E-04    0.1781665396E-04    0.5219103876E+00    0.1531131878E-03    0.4224388604E-02
    0.2900000000E+02    0.7923143800E-04    0.1807340576E-04    0.5310615388E+00    0.1563915512E-03    0.4225123704E-02
    0.3100000000E+02    0.8028026575E-04    0.1831344802E-04    0.5392977364E+00    0.1596553213E-03    0.4225733575E-02
    0.3300000000E+02    0.8126902318E-04    0.1854050755E-04    0.5467496935E+00    0.1629221377E-03    0.4226236258E-02
    0.3500000000E+02    0.8221066237E-04    0.1875748332E-04    0.5535243536E+00    0.1662042783E-03    0.4226646461E-02
    0.3700000000E+02    0.8311537761E-04    0.1896664903E-04    0.5597100588E+00    0.1695101984E-03    0.4226976292E-02
    0.3900000000E+02    0.8399125279E-04    0.1916980100E-04    0.5653804261E+00    0.1728456105E-03    0.4227235819E-02
    0.4100000000E+02    0.8484474060E-04    0.1936836738E-04    0.5705972925E+00    0.1762142499E-03    0.4227433479E-02
    0.4300000000E+02    0.8568102158E-04    0.1956348986E-04    0.5754129815E+00    0.1796184229E-03    0.4227576401E-02
    0.4500000000E+02    0.8650427597E-04    0.1975608547E-04    0.5798720641E+00    0.1830594029E-03    0.4227670648E-02
    0.4700000000E+02    0.8731789163E-04    0.1994689372E-04    0.5840127442E+00    0.1865377179E-03    0.4227721410E-02
    0.4900000000E+02    0.8812462439E-04    0.2013651291E-04    0.5878679561E+00    0.1900533613E-03    0.4227733157E-02
    0.1000000000E+02    0.5925083045E-04    0.1355247937E-04    0.3663408812E+00    0.1153255063E-03    0.4207228549E-02
    0.3000000000E+02    0.7976430009E-04    0.1819526041E-04    0.5352852087E+00    0.1580240103E-03    0.4225443077E-02
    0.5000000000E+02    0.8852612937E-04    0.2023103205E-04    0.5896975824E+00    0.1918250719E-03    0.4227725630E-02
    0.7000000000E+02    0.9656281959E-04    0.2213740405E-04    0.6165660217E+00    0.2290286969E-03    0.4226239582E-02
    0.9000000000E+02    0.1049785823E-03    0.2414839638E-04    0.6325820146E+00    0.2689285666E-03    0.4223245528E-02
    0.1100000000E+03    0.1138920492E-03    0.2628335021E-04    0.6432164363E+00    0.3107617079E-03    0.4219479650E-02
    0.1300000000E+03    0.1232717693E-03    0.2853138734E-04    0.6507917791E+00    0.3540770870E-03    0.4215251920E-02
    0.1500000000E+03    0.1330693751E-03    0.3087954334E-04    0.6564621430E+00    0.3986193892E-03    0.4210714229E-02
    0.1700000000E+03    0.1432437679E-03    0.3331737652E-04    0.6608659097E+00    0.4442441870E-03    0.4205948752E-02
    0.1900000000E+03    0.1537639422E-03    0.3583720419E-04    0.6643848688E+00    0.4908709446E-03    0.4201003037E-02
    0.2100000000E+03    0.1646075514E-03    0.3843357574E-04    0.6672613687E+00    0.5384573224E-03    0.4195905865E-02
    0.2300000000E+03    0.1757589832E-03    0.4110272892E-04    0.6696566521E+00    0.5869847381E-03    0.4190675131E-02
    0.2500000000E+03    0.1872077391E-03    0.4384216219E-04    0.6716821669E+00    0.6364499685E-03    0.4185322076E-02
    0.2700000000E+03    0.1989472076E-03    0.4665032113E-04    0.6734174110E+00    0.6868601051E-03    0.4179853673E-02
    0.2900000000E+03    0.2109737642E-03    0.4952637284E-04    0.6749206160E+00    0.7382294344E-03    0.4174274061E-02
    0.3100000000E+03    0.2232861159E-03    0.5247004394E-04    0.6762354132E+00    0.7905774615E-03    0.4168585429E-02
    0.3300000000E+03    0.2358848244E-03    0.5548150365E-04    0.6773951396E+00    0.8439276346E-03    0.4162788577E-02
    0.3500000000E+03    0.2487719560E-03    0.5856127882E-04    0.6784257047E+00    0.8983065093E-03    0.4156883293E-02
    0.3700000000E+03    0.2619508240E-03    0.6171019161E-04    0.6793475504E+00    0.9537431976E-03    0.4150868601E-02
    0.3900000000E+03    0.2754257972E-03    0.6492931361E-04    0.6801770205E+00    0.1010269005E-02    0.4144742934E-02
    0.4100000000E+03    0.2892021585E-03    0.6821993193E-04    0.6809273394E+00    0.1067917192E-02    0.4138504253E-02
    0.4300000000E+03    0.3032859982E-03    0.7158352399E-04    0.6816093216E+00    0.1126722829E-02    0.4132150132E-02
    0.4500000000E+03    0.3176841363E-03    0.7502173895E-04    0.6822318975E+00    0.1186722703E-02    0.4125677817E-02
    0.4700000000E+03    0.3324040648E-03    0.7853638418E-04    0.6828025061E+00    0.1247955279E-02    0.4119084268E-02
    0.4900000000E+03    0.3474539055E-03    0.8212941544E-04    0.6833273942E+00    0.1310460684E-02    0.4112366194E-02
    0.1000000000E+03    0.1093740669E-03    0.2520088750E-04    0.6383868220E+00    0.2896375898E-03    0.4221434288E-02
    0.3000000000E+03    0.2170942194E-03    0.5098975464E-04    0.6755992798E+00    0.7642797262E-03    0.4171443295E-02
    0.5000000000E+03    0.3551052461E-03    0.8395597587E-04    0.6835743768E+00    0.1342203696E-02    0.4108959365E-02
    0.7000000000E+03    0.5279337370E-03    0.1251976024E-03    0.6870514502E+00    0.2055214089E-02    0.4033295080E-02
    0.9000000000E+03    0.7478783209E-03    0.1776586693E-03    0.6889989392E+00    0.2957437993E-02    0.3939654963E-02
    0.1100000000E+04    0.1034623433E-02    0.2460383518E-03    0.6902442149E+00    0.4131031157E-02    0.3820657244E-02
    0.1300000000E+04    0.1419333588E-02    0.3377714365E-03    0.6911090739E+00    0.5704625312E-02    0.3664992130E-02
    0.1500000000E+04    0.1952159138E-02    0.4648205630E-03    0.6917447393E+00    0.7884848918E-02    0.3455071737E-02
    0.1700000000E+04    0.2713762741E-02    0.6464281743E-03    0.6922316576E+00    0.1100454097E-01    0.3163878495E-02
    0.1900000000E+04    0.3825704211E-02    0.9116002373E-03    0.6926165688E+00    0.1556740468E-01    0.2753817497E-02
    0.2100000000E+04    0.5425703534E-02    0.1293222678E-02    0.6929284866E+00    0.2215087442E-01    0.2191075909E-02
    0.2300000000E+04    0.7512837483E-02    0.1791161586E-02    0.6931863740E+00    0.3077552266E-01    0.1505907779E-02
    0.2500000000E+04    0.9700365717E-02    0.2313282042E-02    0.6934031488E+00    0.3988030874E-01    0.8642798567E-03
    0.2700000000E+04    0.1145200263E-01    0.2731688133E-02    0.6935879149E+00    0.4726275977E-01    0.4446620402E-03
    0.2900000000E+04    0.1266119938E-01    0.3020880858E-02    0.6937472728E+00    0.5246038794E-01    0.2437427183E-03
    0.3100000000E+04    0.1352890524E-01    0.3228715717E-02    0.6938861250E+00    0.5627951086E-01    0.1634697915E-03
    0.3300000000E+04    0.1422963361E-01    0.3396786181E-02    0.6940081889E+00    0.5942982507E-01    0.1338636617E-03
    0.3500000000E+04    0.1485009804E-01    0.3545764908E-02    0.6941163348E+00    0.6226550570E-01    0.1233403749E-03
    0.3700000000E+04    0.1542654315E-01    0.3684292677E-02    0.6942128136E+00    0.6493461624E-01    0.1197496715E-03
    0.3900000000E+04    0.1597358700E-01    0.3815853015E-02    0.6942994160E+00    0.6749648471E-01    0.1186551731E-03
    0.4100000000E+04    0.1649737318E-01    0.3941908182E-02    0.6943775839E+00    0.6997556166E-01    0.1184574673E-03
    0.4300000000E+04    0.1700079549E-01    0.4063145292E-02    0.6944484915E+00    0.7238291161E-01    0.1185791785E-03
    0.4500000000E+04    0.1748548864E-01    0.4179951227E-02    0.6945131050E+00    0.7472443227E-01    0.1188107579E-03
    0.4700000000E+04    0.1795257997E-01    0.4292591979E-02    0.6945722262E+00    0.7700396713E-01    0.1190758259E-03
    0.4900000000E+04    0.1840297470E-01    0.4401280729E-02    0.6946265263E+00    0.7922448848E-01    0.1193466075E-03
    0.1000000000E+04    0.8812909218E-03    0.2094745677E-03    0.6896832630E+00    0.3503655000E-02    0.3883918161E-02
    0.3000000000E+04    0.1312448985E-01    0.3131810657E-02    0.6938190066E+00    0.5448848459E-01    0.1940155788E-03
    0.5000000000E+04    0.1862216162E-01    0.4454202116E-02    0.6946520489E+00    0.8031342833E-01    0.1194807223E-03
    0.7000000000E+04    0.2229387368E-01    0.5343862599E-02    0.6950094249E+00    0.9952229334E-01    0.1217689265E-03
    0.9000000000E+04    0.2493828118E-01    0.5989511257E-02    0.6952079300E+00    0.1149034847E+00    0.1235019943E-03
    0.1100000000E+05    0.2688586679E-01    0.6469075268E-02    0.6953341639E+00    0.1275537136E+00    0.1248998168E-03
    0.1300000000E+05    0.2834327033E-01    0.6831385691E-02    0.6954214713E+00    0.1381814916E+00    0.1260735249E-03
    0.1500000000E+05    0.2944564452E-01    0.7108452428E-02    0.6954854222E+00    0.1472658340E+00    0.1270864964E-03
    0.1700000000E+05    0.3028467647E-01    0.7322041421E-02    0.6955342624E+00    0.1551427898E+00    0.1279783787E-03
    0.1900000000E+05    0.3092447856E-01    0.7487409104E-02    0.6955727666E+00    0.1620554570E+00    0.1287756608E-03
    0.2100000000E+05    0.3141103851E-01    0.7615525975E-02    0.6956038906E+00    0.1681843048E+00    0.1294969366E-03
    0.2300000000E+05    0.3177806760E-01    0.7714454457E-02    0.6956295618E+00    0.1736663069E+00    0.1301557691E-03
    0.2500000000E+05    0.3205074472E-01    0.7790232188E-02    0.6956510911E+00    0.1786074336E+00    0.1307623623E-03
    0.2700000000E+05    0.3224818464E-01    0.7847455107E-02    0.6956694005E+00    0.1830910513E+00    0.1313245892E-03
    0.2900000000E+05    0.3238510699E-01    0.7889672286E-02    0.6956851576E+00    0.1871837172E+00    0.1318486545E-03
    0.3100000000E+05    0.3247299052E-01    0.7919659373E-02    0.6956988577E+00    0.1909392670E+00    0.1323395363E-03
    0.3300000000E+05    0.3252088726E-01    0.7939611743E-02    0.6957108758E+00    0.1944017580E+00    0.1328012908E-03
    0.3500000000E+05    0.3253600700E-01    0.7951283386E-02    0.6957215011E+00    0.1976076251E+00    0.1332372677E-03
    0.3700000000E+05    0.3252414375E-01    0.7956088368E-02    0.6957309603E+00    0.2005872868E+00    0.1336502654E-03
    0.3900000000E+05    0.3248999122E-01    0.7955176025E-02    0.6957394335E+00    0.2033663575E+00    0.1340426467E-03
    0.4100000000E+05    0.3243737934E-01    0.7949487422E-02    0.6957470656E+00    0.2059665763E+00    0.1344164249E-03
    0.4300000000E+05    0.3236945367E-01    0.7939798243E-02    0.6957539744E+00    0.2084065262E+00    0.1347733295E-03
    0.4500000000E+05    0.3228881296E-01    0.7926751734E-02    0.6957602569E+00    0.2107021973E+00    0.1351148578E-03
    0.4700000000E+05    0.3219761572E-01    0.7910884262E-02    0.6957659934E+00    0.2128674321E+00    0.1354423146E-03
    0.4900000000E+05    0.3209766343E-01    0.7892645312E-02    0.6957712512E+00    0.2149142821E+00    0.1357568438E-03
    0.1000000000E+05    0.2598413546E-01    0.6246501906E-02    0.6952773721E+00    0.1215189291E+00    0.1242343036E-03
    0.3000000000E+05    0.3243456375E-01    0.7906045624E-02    0.6956922390E+00    0.1891006773E+00    0.1320979711E-03
    0.5000000000E+05    0.3204488592E-01    0.7882757199E-02    0.6957737186E+00    0.2158966606E+00    0.1359095806E-03
    0.7000000000E+05    0.3079032363E-01    0.7626370829E-02    0.6958079289E+00    0.2313093020E+00    0.1384781055E-03
    0.9000000000E+05    0.2946830722E-01    0.7339350289E-02    0.6958265197E+00    0.2416783723E+00    0.1404274941E-03
    0.1100000000E+06    0.2823819270E-01    0.7065578086E-02    0.6958380771E+00    0.2492879146E+00    0.1420034222E-03
    0.1300000000E+06    0.2712727629E-01    0.6814684459E-02    0.6958458843E+00    0.2551901711E+00    0.1433286609E-03
    0.1500000000E+06    0.2613012176E-01    0.6587176435E-02    0.6958514644E+00    0.2599472519E+00    0.1444736079E-03
    0.1700000000E+06    0.2523367809E-01    0.6381054230E-02    0.6958556186E+00    0.2638909187E+00    0.1454824664E-03
    0.1900000000E+06    0.2442436887E-01    0.6193802423E-02    0.6958588079E+00    0.2672315864E+00    0.1463848495E-03
    0.2100000000E+06    0.2369004350E-01    0.6023011667E-02    0.6958613157E+00    0.2701101742E+00    0.1472015868E-03
    0.2300000000E+06    0.2302034466E-01    0.5866553206E-02    0.6958633256E+00    0.2726251741E+00    0.1479478973E-03
    0.2500000000E+06    0.2240659071E-01    0.5722601745E-02    0.6958649614E+00    0.2748478309E+00    0.1486352452E-03
    0.2700000000E+06    0.2184153389E-01    0.5589608987E-02    0.6958663099E+00    0.2768311594E+00    0.1492724859E-03
    0.2900000000E+06    0.2131911350E-01    0.5466264622E-02    0.6958674333E+00    0.2786155539E+00    0.1498666041E-03
    0.3100000000E+06    0.2083423975E-01    0.5351457793E-02    0.6958683775E+00    0.2802324193E+00    0.1504232085E-03
    0.3300000000E+06    0.2038261478E-01    0.5244243210E-02    0.6958691769E+00    0.2817065979E+00    0.1509468718E-03
    0.3500000000E+06    0.1996058790E-01    0.5143812689E-02    0.6958698579E+00    0.2830580397E+00    0.1514413723E-03
    0.3700000000E+06    0.1956503945E-01    0.5049471753E-02    0.6958704410E+00    0.2843029790E+00    0.1519098685E-03
    0.3900000000E+06    0.1919328785E-01    0.4960620537E-02    0.6958709425E+00    0.2854547822E+00    0.1523550280E-03
    0.4100000000E+06    0.1884301500E-01    0.4876738250E-02    0.6958713752E+00    0.2865245697E+00    0.1527791247E-03
    0.4300000000E+06    0.1851220620E-01    0.4797370517E-02    0.6958717496E+00    0.2875216807E+00    0.1531841129E-03
    0.4500000000E+06    0.1819910145E-01    0.4722119024E-02    0.6958720743E+00    0.2884540249E+00    0.1535716849E-03
    0.4700000000E+06    0.1790215587E-01    0.4650633030E-02    0.6958723561E+00    0.2893283528E+00    0.1539433158E-03
    0.4900000000E+06    0.1762000724E-01    0.4582602360E-02    0.6958726009E+00    0.2901504659E+00    0.1543002993E-03
    0.1000000000E+06    0.2883874881E-01    0.7199852614E-02    0.6958329104E+00    0.2457459476E+00    0.1412527593E-03
    0.3000000000E+06    0.2107226862E-01    0.5407856617E-02    0.6958679254E+00    0.2794432438E+00    0.1501492886E-03
    0.5000000000E+06    0.1748409935E-01    0.4549795485E-02    0.6958727110E+00    0.2905435369E+00    0.1544736602E-03
    0.7000000000E+06    0.1531177794E-01    0.4022083602E-02    0.6958738141E+00    0.2965887261E+00    0.1573897004E-03
    0.9000000000E+06    0.1381104555E-01    0.3653735451E-02    0.6958738919E+00    0.3005328338E+00    0.1596035173E-03
    0.1100000000E+07    0.1269194538E-01    0.3376931341E-02    0.6958735957E+00    0.3033665024E+00    0.1613935269E-03
    0.1300000000E+07    0.1181468985E-01    0.3158606029E-02    0.6958731483E+00    0.3055292500E+00    0.1628989597E-03
    0.1500000000E+07    0.1110233259E-01    0.2980408162E-02    0.6958726405E+00    0.3072500504E+00    0.1641996865E-03
    0.1700000000E+07    0.1050848906E-01    0.2831202948E-02    0.6958721134E+00    0.3086615146E+00    0.1653458729E-03
    0.1900000000E+07    0.1000327849E-01    0.2703778622E-02    0.6958715868E+00    0.3098464744E+00    0.1663711340E-03
    0.2100000000E+07    0.9566450015E-02    0.2593225065E-02    0.6958710705E+00    0.3108596950E+00    0.1672991178E-03
    0.2300000000E+07    0.9183717782E-02    0.2496064548E-02    0.6958705690E+00    0.3117390293E+00    0.1681471046E-03
    0.2500000000E+07    0.8844671008E-02    0.2409753649E-02    0.6958700844E+00    0.3125115914E+00    0.1689281130E-03
    0.2700000000E+07    0.8541515988E-02    0.2332382228E-02    0.6958696174E+00    0.3131973816E+00    0.1696521994E-03
    0.2900000000E+07    0.8268284600E-02    0.2262483326E-02    0.6958691679E+00    0.3138115190E+00    0.1703272968E-03
    0.3100000000E+07    0.8020317490E-02    0.2198908633E-02    0.6958687352E+00    0.3143656741E+00    0.1709597754E-03
    0.3300000000E+07    0.7793915828E-02    0.2140744337E-02    0.6958683186E+00    0.3148690186E+00    0.1715548293E-03
    0.3500000000E+07    0.7586100200E-02    0.2087252685E-02    0.6958679174E+00    0.3153288732E+00    0.1721167502E-03
    0.3700000000E+07    0.7394439705E-02    0.2037830475E-02    0.6958675307E+00    0.3157511625E+00    0.1726491259E-03
    0.3900000000E+07    0.7216928265E-02    0.1991978931E-02    0.6958671576E+00    0.3161407393E+00    0.1731549868E-03
    0.4100000000E+07    0.7051893468E-02    0.1949281466E-02    0.6958667973E+00    0.3165016215E+00    0.1736369160E-03
    0.4300000000E+07    0.6897928268E-02    0.1909386975E-02    0.6958664491E+00    0.3168371686E+00    0.1740971338E-03
    0.4500000000E+07    0.6753839059E-02    0.1871997121E-02    0.6958661123E+00    0.3171502140E+00    0.1745375626E-03
    0.4700000000E+07    0.6618605674E-02    0.1836856511E-02    0.6958657861E+00    0.3174431662E+00    0.1749598783E-03
    0.4900000000E+07    0.6491350193E-02    0.1803745037E-02    0.6958654701E+00    0.3177180878E+00    0.1753655508E-03
    0.1000000000E+07    0.1321459708E-01    0.3506439700E-02    0.6958737719E+00    0.3020538925E+00    0.1605408605E-03
    0.3000000000E+07    0.8141393460E-02    0.2229967278E-02    0.6958689494E+00    0.3140954713E+00    0.1706485149E-03
    0.5000000000E+07    0.6430472553E-02    0.1787889572E-02    0.6958653156E+00    0.3178493524E+00    0.1755625571E-03
    0.7000000000E+07    0.5491341983E-02    0.1541966941E-02    0.6958626363E+00    0.3198538722E+00    0.1788763767E-03
    0.9000000000E+07    0.4875485813E-02    0.1379217460E-02    0.6958605192E+00    0.3211482245E+00    0.1813922309E-03
    0.1100000000E+08    0.4431301633E-02    0.1261013585E-02    0.6958587676E+00    0.3220722818E+00    0.1834264778E-03
    0.1300000000E+08    0.4091217449E-02    0.1169999757E-02    0.6958572723E+00    0.3227745730E+00    0.1851373303E-03
    0.1500000000E+08    0.3819910639E-02    0.1097046718E-02    0.6958559666E+00    0.3233316860E+00    0.1866155504E-03
    0.1700000000E+08    0.3596867084E-02    0.1036825242E-02    0.6958548070E+00    0.3237876473E+00    0.1879181459E-03
    0.1900000000E+08    0.3409242634E-02    0.9859840283E-03    0.6958537634E+00    0.3241698018E+00    0.1890833172E-03
    0.2100000000E+08    0.3248527311E-02    0.9422941918E-03    0.6958528142E+00    0.3244961485E+00    0.1901379382E-03
    0.2300000000E+08    0.3108827984E-02    0.9042070226E-03    0.6958519434E+00    0.3247790840E+00    0.1911016466E-03
    0.2500000000E+08    0.2985916109E-02    0.8706078932E-03    0.6958511387E+00    0.3250274622E+00    0.1919892372E-03
    0.2700000000E+08    0.2876667662E-02    0.8406710551E-03    0.6958503906E+00    0.3252477980E+00    0.1928121385E-03
