  Pressure (Pa) 22mC5-500 (mol/kg) 23mC5-500 (mol/kg) 24mC5-500 (mol/kg) 2mC6-500 (mol/kg) C7-500 (mol/kg)
    0.1000000000E+01    0.9273265901E-05    0.1063797402E-05    0.2142764663E+00    0.2355880376E-05    0.4188417714E-02
    0.3000000000E+01    0.1581412797E-04    0.1807268480E-05    0.3978345052E+00    0.3816979397E-05    0.4217433360E-02
    0.5000000000E+01    0.1825779952E-04    0.2083027255E-05    0.4800880668E+00    0.4386728317E-05    0.4229701706E-02
    0.7000000000E+01    0.1959437318E-04    0.2234403585E-05    0.5267644071E+00    0.4796568016E-05    0.4236760673E-02
    0.9000000000E+01    0.2054463679E-04    0.2343290400E-05    0.5568417639E+00    0.5182456914E-05    0.4241410108E-02
    0.1100000000E+02    0.2134528063E-04    0.2436251590E-05    0.5778378617E+00    0.5575545047E-05    0.4244730483E-02
    0.1300000000E+02    0.2208813220E-04    0.2523437893E-05    0.5933261331E+00    0.5982160453E-05    0.4247233809E-02
    0.1500000000E+02    0.2281240761E-04    0.2609097903E-05    0.6052225614E+00    0.6402056357E-05    0.4249195879E-02
    0.1700000000E+02    0.2353568310E-04    0.2695080805E-05    0.6146467918E+00    0.6833362852E-05    0.4250779144E-02
    0.1900000000E+02    0.2426585930E-04    0.2782178291E-05    0.6222969161E+00    0.7274033230E-05    0.4252085879E-02
    0.2100000000E+02    0.2500626616E-04    0.2870691716E-05    0.6286308024E+00    0.7722249661E-05    0.4253183884E-02
    0.2300000000E+02    0.2575800542E-04    0.2960689454E-05    0.6339612408E+00    0.8176502571E-05    0.4254119995E-02
    0.2500000000E+02    0.2652108435E-04    0.3052129774E-05    0.6385091871E+00    0.8635569973E-05    0.4254927682E-02
    0.2700000000E+02    0.2729498563E-04    0.3144921559E-05    0.6424351609E+00    0.9098471630E-05    0.4255631546E-02
    0.2900000000E+02    0.2807896081E-04    0.3238954871E-05    0.6458585867E+00    0.9564422568E-05    0.4256250105E-02
    0.3100000000E+02    0.2887218289E-04    0.3334116352E-05    0.6488701538E+00    0.1003279304E-04    0.4256797591E-02
    0.3300000000E+02    0.2967382500E-04    0.3430296782E-05    0.6515399684E+00    0.1050307609E-04    0.4257285134E-02
    0.3500000000E+02    0.3048309954E-04    0.3527394536E-05    0.6539230801E+00    0.1097486193E-04    0.4257721578E-02
    0.3700000000E+02    0.3129927593E-04    0.3625316879E-05    0.6560633173E+00    0.1144781785E-04    0.4258114046E-02
    0.3900000000E+02    0.3212168683E-04    0.3723980128E-05    0.6579960084E+00    0.1192167266E-04    0.4258468347E-02
    0.4100000000E+02    0.3294972821E-04    0.3823309263E-05    0.6597499468E+00    0.1239620439E-04    0.4258789271E-02
    0.4300000000E+02    0.3378285621E-04    0.3923237263E-05    0.6613488350E+00    0.1287123079E-04    0.4259080804E-02
    0.4500000000E+02    0.3462058269E-04    0.4023704367E-05    0.6628123624E+00    0.1334660172E-04    0.4259346298E-02
    0.4700000000E+02    0.3546247015E-04    0.4124657310E-05    0.6641570202E+00    0.1382219321E-04    0.4259588588E-02
    0.4900000000E+02    0.3630812665E-04    0.4226048612E-05    0.6653967249E+00    0.1429790273E-04    0.4259810097E-02
    0.1000000000E+02    0.2095609067E-04    0.2390921079E-05    0.5681969256E+00    0.5377446712E-05    0.4243196618E-02
    0.3000000000E+02    0.2847446827E-04    0.3286401569E-05    0.6474110633E+00    0.9798339595E-05    0.4256531975E-02
    0.5000000000E+02    0.3673225707E-04    0.4276895227E-05    0.6659809863E+00    0.1453577460E-04    0.4259913720E-02
    0.7000000000E+02    0.4534484410E-04    0.5308709884E-05    0.6742696936E+00    0.1928526472E-04    0.4261274330E-02
    0.9000000000E+02    0.5409749277E-04    0.6356189516E-05    0.6789642326E+00    0.2400552361E-04    0.4261822330E-02
    0.1100000000E+03    0.6291028792E-04    0.7410061898E-05    0.6819857820E+00    0.2869361843E-04    0.4261944886E-02
    0.1300000000E+03    0.7175020173E-04    0.8466591446E-05    0.6840933634E+00    0.3335372601E-04    0.4261809913E-02
    0.1500000000E+03    0.8060286674E-04    0.9524206650E-05    0.6856471672E+00    0.3799102872E-04    0.4261503913E-02
    0.1700000000E+03    0.8946218203E-04    0.1058227911E-04    0.6868400953E+00    0.4261033440E-04    0.4261076747E-02
    0.1900000000E+03    0.9832598325E-04    0.1164062153E-04    0.6877847779E+00    0.4721581210E-04    0.4260559526E-02
    0.2100000000E+03    0.1071940642E-03    0.1269926117E-04    0.6885513929E+00    0.5181101437E-04    0.4259972843E-02
    0.2300000000E+03    0.1160672091E-03    0.1375833038E-04    0.6891859446E+00    0.5639896521E-04    0.4259330964E-02
    0.2500000000E+03    0.1249466953E-03    0.1481801119E-04    0.6897198471E+00    0.6098225195E-04    0.4258644137E-02
    0.2700000000E+03    0.1338340284E-03    0.1587850633E-04    0.6901752833E+00    0.6556310487E-04    0.4257919948E-02
    0.2900000000E+03    0.1427307990E-03    0.1694002380E-04    0.6905683638E+00    0.7014346224E-04    0.4257164148E-02
    0.3100000000E+03    0.1516386040E-03    0.1800276879E-04    0.6909110714E+00    0.7472502246E-04    0.4256381188E-02
    0.3300000000E+03    0.1605590049E-03    0.1906693948E-04    0.6912125035E+00    0.7930928565E-04    0.4255574577E-02
    0.3500000000E+03    0.1694935054E-03    0.2013272509E-04    0.6914796915E+00    0.8389758678E-04    0.4254747120E-02
    0.3700000000E+03    0.1784435423E-03    0.2120030516E-04    0.6917181554E+00    0.8849112232E-04    0.4253901089E-02
    0.3900000000E+03    0.1874104820E-03    0.2226984952E-04    0.6919322895E+00    0.9309097176E-04    0.4253038350E-02
    0.4100000000E+03    0.1963956209E-03    0.2334151860E-04    0.6921256352E+00    0.9769811510E-04    0.4252160443E-02
    0.4300000000E+03    0.2054001885E-03    0.2441546400E-04    0.6923010786E+00    0.1023134472E-03    0.4251268659E-02
    0.4500000000E+03    0.2144253510E-03    0.2549182906E-04    0.6924609951E+00    0.1069377897E-03    0.4250364083E-02
    0.4700000000E+03    0.2234722160E-03    0.2657074953E-04    0.6926073577E+00    0.1115719008E-03    0.4249447635E-02
    0.4900000000E+03    0.2325418363E-03    0.2765235419E-04    0.6927418188E+00    0.1162164835E-03    0.4248520099E-02
    0.1000000000E+03    0.5849906793E-04    0.6882633767E-05    0.6806227735E+00    0.2635338579E-04    0.4261923524E-02
    0.3000000000E+03    0.1471832235E-03    0.1747123028E-04    0.6907453892E+00    0.7243399401E-04    0.4256775825E-02
    0.5000000000E+03    0.2370854950E-03    0.2819420156E-04    0.6928050306E+00    0.1185429081E-03    0.4248052388E-02
    0.7000000000E+03    0.3293751237E-03    0.3919904229E-04    0.6936909494E+00    0.1657605940E-03    0.4238237830E-02
    0.9000000000E+03    0.4248641362E-03    0.5058426177E-04    0.6941837797E+00    0.2145848947E-03    0.4227712005E-02
    0.1100000000E+04    0.5241605914E-03    0.6242296411E-04    0.6944975466E+00    0.2653534100E-03    0.4216574585E-02
    0.1300000000E+04    0.6277908737E-03    0.7477818983E-04    0.6947147807E+00    0.3183469252E-03    0.4204845261E-02
    0.1500000000E+04    0.7362547096E-03    0.8770967450E-04    0.6948740555E+00    0.3738272777E-03    0.4192511502E-02
    0.1700000000E+04    0.8500539896E-03    0.1012773546E-03    0.6949958120E+00    0.4320552702E-03    0.4179544123E-02
    0.1900000000E+04    0.9697105899E-03    0.1155435214E-03    0.6950918927E+00    0.4933010442E-03    0.4165903236E-02
    0.2100000000E+04    0.1095779293E-02    0.1305743758E-03    0.6951696316E+00    0.5578512675E-03    0.4151540645E-02
    0.2300000000E+04    0.1228858573E-02    0.1464413214E-03    0.6952338137E+00    0.6260149542E-03    0.4136400703E-02
    0.2500000000E+04    0.1369600665E-02    0.1632221697E-03    0.6952876931E+00    0.6981287998E-03    0.4120420392E-02
    0.2700000000E+04    0.1518721744E-02    0.1810023563E-03    0.6953335603E+00    0.7745625183E-03    0.4103528968E-02
    0.2900000000E+04    0.1677012775E-02    0.1998762372E-03    0.6953730739E+00    0.8557245020E-03    0.4085647291E-02
    0.3100000000E+04    0.1845351475E-02    0.2199485163E-03    0.6954074646E+00    0.9420680428E-03    0.4066686919E-02
    0.3300000000E+04    0.2024715775E-02    0.2413358529E-03    0.6954376648E+00    0.1034098331E-02    0.4046548975E-02
    0.3500000000E+04    0.2216199197E-02    0.2641686958E-03    0.6954643936E+00    0.1132380437E-02    0.4025122782E-02
    0.3700000000E+04    0.2421028546E-02    0.2885933960E-03    0.6954882147E+00    0.1237548512E-02    0.4002284249E-02
    0.3900000000E+04    0.2640584424E-02    0.3147746535E-03    0.6955095761E+00    0.1350316439E-02    0.3977893981E-02
    0.4100000000E+04    0.2876425078E-02    0.3428983641E-03    0.6955288383E+00    0.1471490239E-02    0.3951795067E-02
    0.4300000000E+04    0.3130314230E-02    0.3731749402E-03    0.6955462947E+00    0.1601982543E-02    0.3923810509E-02
    0.4500000000E+04    0.3404253585E-02    0.4058431908E-03    0.6955621867E+00    0.1742829517E-02    0.3893740224E-02
    0.4700000000E+04    0.3700520840E-02    0.4411748578E-03    0.6955767144E+00    0.1895210657E-02    0.3861357572E-02
    0.4900000000E+04    0.4021714089E-02    0.4794799154E-03    0.6955900451E+00    0.2060471941E-02    0.3826405334E-02
    0.1000000000E+04    0.4740024513E-03    0.5644285413E-04    0.6943563436E+00    0.2397078368E-03    0.4222217457E-02
    0.3000000000E+04    0.1759867564E-02    0.2097555863E-03    0.6953908455E+00    0.8982183080E-03    0.4076307862E-02
    0.5000000000E+04    0.4192570051E-02    0.4998562882E-03    0.6955963067E+00    0.2148405341E-02    0.3807875753E-02
    0.7000000000E+04    0.9986840948E-02    0.1190990361E-02    0.6956836192E+00    0.5138160568E-02    0.3199772336E-02
    0.9000000000E+04    0.2601391178E-01    0.3103498575E-02    0.6957316942E+00    0.1346613139E-01    0.1663445614E-02
    0.1100000000E+05    0.4423825762E-01    0.5280919936E-02    0.6957620052E+00    0.2312941021E-01    0.3086622843E-03
    0.1300000000E+05    0.5129578824E-01    0.6127591710E-02    0.6957827907E+00    0.2711952948E-01    0.1461995334E-03
    0.1500000000E+05    0.5615729754E-01    0.6712799578E-02    0.6957978852E+00    0.3001334824E-01    0.1378984572E-03
    0.1700000000E+05    0.6042244514E-01    0.7227289850E-02    0.6958093135E+00    0.3263233824E-01    0.1382962567E-03
    0.1900000000E+05    0.6425792855E-01    0.7690852089E-02    0.6958182445E+00    0.3505597973E-01    0.1391168136E-03
    0.2100000000E+05    0.6772705732E-01    0.8110955164E-02    0.6958253998E+00    0.3731111683E-01    0.1398905910E-03
    0.2300000000E+05    0.7087758458E-01    0.8493228832E-02    0.6958312485E+00    0.3941767258E-01    0.1405999284E-03
    0.2500000000E+05    0.7374912294E-01    0.8842345404E-02    0.6958361090E+00    0.4139228954E-01    0.1412533867E-03
    0.2700000000E+05    0.7637503440E-01    0.9162242285E-02    0.6958402043E+00    0.4324911333E-01    0.1418592035E-03
    0.2900000000E+05    0.7878362912E-01    0.9456262698E-02    0.6958436958E+00    0.4500026032E-01    0.1424240088E-03
    0.3100000000E+05    0.8099908368E-01    0.9727263477E-02    0.6958467026E+00    0.4665617480E-01    0.1429531373E-03
    0.3300000000E+05    0.8304216525E-01    0.9977700092E-02    0.6958493148E+00    0.4822591212E-01    0.1434509397E-03
    0.3500000000E+05    0.8493080900E-01    0.1020969448E-01    0.6958516016E+00    0.4971736567E-01    0.1439210101E-03
    0.3700000000E+05    0.8668058221E-01    0.1042508956E-01    0.6958536172E+00    0.5113745043E-01    0.1443663532E-03
    0.3900000000E+05    0.8830506038E-01    0.1062549347E-01    0.6958554044E+00    0.5249225254E-01    0.1447895063E-03
    0.4100000000E+05    0.8981613399E-01    0.1081231563E-01    0.6958569977E+00    0.5378715202E-01    0.1451926324E-03
    0.4300000000E+05    0.9122426045E-01    0.1098679635E-01    0.6958584249E+00    0.5502692416E-01    0.1455775902E-03
    0.4500000000E+05    0.9253867229E-01    0.1115003137E-01    0.6958597089E+00    0.5621582369E-01    0.1459459890E-03
    0.4700000000E+05    0.9376755025E-01    0.1130299221E-01    0.6958608687E+00    0.5735765528E-01    0.1462992318E-03
    0.4900000000E+05    0.9491816783E-01    0.1144654318E-01    0.6958619200E+00    0.5845583265E-01    0.1466385489E-03
    0.1000000000E+05    0.3699388654E-01    0.4414675803E-02    0.6957484004E+00    0.1923838414E-01    0.7562317650E-03
    0.3000000000E+05    0.7991412845E-01    0.9594478536E-02    0.6958452536E+00    0.4583952601E-01    0.1426927407E-03
    0.5000000000E+05    0.9546618418E-01    0.1151503433E-01    0.6958624092E+00    0.5898952337E-01    0.1468033295E-03
    0.7000000000E+05    0.1035727674E+00    0.1254025078E-01    0.6958688279E+00    0.6797678036E-01    0.1495749566E-03
    0.9000000000E+05    0.1082723930E+00    0.1315142866E-01    0.6958718700E+00    0.7477716082E-01    0.1516790526E-03
    0.1100000000E+06    0.1111610766E+00    0.1354009038E-01    0.6958734689E+00    0.8024846559E-01    0.1533803082E-03
    0.1300000000E+06    0.1129891582E+00    0.1379690943E-01    0.6958743401E+00    0.8483237710E-01    0.1548110775E-03
    0.1500000000E+06    0.1141525910E+00    0.1397007877E-01    0.6958748046E+00    0.8878363348E-01    0.1560472818E-03
    0.1700000000E+06    0.1148783407E+00    0.1408742852E-01    0.6958750254E+00    0.9226157230E-01    0.1571366044E-03
    0.1900000000E+06    0.1153048631E+00    0.1416606633E-01    0.6958750927E+00    0.9537212427E-01    0.1581109961E-03
    0.2100000000E+06    0.1155208171E+00    0.1421703453E-01    0.6958750602E+00    0.9818913805E-01    0.1589929337E-03
    0.2300000000E+06    0.1155852212E+00    0.1424774490E-01    0.6958749609E+00    0.1007660894E+00    0.1597988414E-03
    0.2500000000E+06    0.1155386269E+00    0.1426333439E-01    0.6958748165E+00    0.1031429226E+00    0.1605410924E-03
    0.2700000000E+06    0.1154096381E+00    0.1426745955E-01    0.6958746411E+00    0.1053502550E+00    0.1612292449E-03
    0.2900000000E+06    0.1152188814E+00    0.1426278245E-01    0.6958744446E+00    0.1074120718E+00    0.1618708385E-03
    0.3100000000E+06    0.1149815114E+00    0.1425127876E-01    0.6958742339E+00    0.1093475163E+00    0.1624719277E-03
    0.3300000000E+06    0.1147088409E+00    0.1423443914E-01    0.6958740138E+00    0.1111721149E+00    0.1630374488E-03
    0.3500000000E+06    0.1144094318E+00    0.1421340463E-01    0.6958737877E+00    0.1128986386E+00    0.1635714808E-03
    0.3700000000E+06    0.1140898403E+00    0.1418905956E-01    0.6958735583E+00    0.1145377219E+00    0.1640774335E-03
    0.3900000000E+06    0.1137551376E+00    0.1416209694E-01    0.6958733274E+00    0.1160983179E+00    0.1645581871E-03
    0.4100000000E+06    0.1134092809E+00    0.1413306502E-01    0.6958730963E+00    0.1175880375E+00    0.1650161965E-03
    0.4300000000E+06    0.1130553805E+00    0.1410240130E-01    0.6958728662E+00    0.1190134073E+00    0.1654535719E-03
    0.4500000000E+06    0.1126958965E+00    0.1407045746E-01    0.6958726376E+00    0.1203800683E+00    0.1658721403E-03
    0.4700000000E+06    0.1123327846E+00    0.1403751806E-01    0.6958724113E+00    0.1216929306E+00    0.1662734944E-03
    0.4900000000E+06    0.1119676057E+00    0.1400381470E-01    0.6958721875E+00    0.1229562964E+00    0.1666590313E-03
    0.1000000000E+06    0.1098844849E+00    0.1336650456E-01    0.6958727911E+00    0.7764531402E-01    0.1525699231E-03
    0.3000000000E+06    0.1151052408E+00    0.1425778123E-01    0.6958743407E+00    0.1083945470E+00    0.1621761149E-03
    0.5000000000E+06    0.1117846420E+00    0.1398673712E-01    0.6958720767E+00    0.1235706205E+00    0.1668462591E-03
    0.7000000000E+06    0.1082142752E+00    0.1363641025E-01    0.6958700290E+00    0.1339818295E+00    0.1699955922E-03
    0.9000000000E+06    0.1049841054E+00    0.1330239005E-01    0.6958682888E+00    0.1419773053E+00    0.1723865652E-03
    0.1100000000E+07    0.1021177683E+00    0.1299768210E-01    0.6958667942E+00    0.1484887279E+00    0.1743198359E-03
    0.1300000000E+07    0.9956552306E-01    0.1272140489E-01    0.6958654891E+00    0.1539879258E+00    0.1759457645E-03
    0.1500000000E+07    0.9727497549E-01    0.1247014858E-01    0.6958643320E+00    0.1587492864E+00    0.1773506082E-03
    0.1700000000E+07    0.9520227661E-01    0.1224042150E-01    0.6958632932E+00    0.1629474128E+00    0.1785885452E-03
    0.1900000000E+07    0.9331241537E-01    0.1202918022E-01    0.6958623507E+00    0.1667007111E+00    0.1796958795E-03
    0.2100000000E+07    0.9157761149E-01    0.1183388485E-01    0.6958614880E+00    0.1700933836E+00    0.1806981511E-03
    0.2300000000E+07    0.8997568472E-01    0.1165243845E-01    0.6958606926E+00    0.1731875578E+00    0.1816140230E-03
    0.2500000000E+07    0.8848874425E-01    0.1148310806E-01    0.6958599545E+00    0.1760304451E+00    0.1824575555E-03
    0.2700000000E+07    0.8710219688E-01    0.1132445362E-01    0.6958592660E+00    0.1786587988E+00    0.1832396099E-03
    0.2900000000E+07    0.8580400754E-01    0.1117526968E-01    0.6958586207E+00    0.1811018127E+00    0.1839687539E-03
    0.3100000000E+07    0.8458414739E-01    0.1103453933E-01    0.6958580133E+00    0.1833830748E+00    0.1846518677E-03
    0.3300000000E+07    0.8343417878E-01    0.1090139809E-01    0.6958574397E+00    0.1855219255E+00    0.1852945608E-03
    0.3500000000E+07    0.8234693995E-01    0.1077510559E-01    0.6958568961E+00    0.1875344251E+00    0.1859014687E-03
    0.3700000000E+07    0.8131630285E-01    0.1065502336E-01    0.6958563795E+00    0.1894340598E+00    0.1864764663E-03
    0.3900000000E+07    0.8033698507E-01    0.1054059719E-01    0.6958558874E+00    0.1912322667E+00    0.1870228264E-03
    0.4100000000E+07    0.7940440229E-01    0.1043134314E-01    0.6958554173E+00    0.1929388303E+00    0.1875433391E-03
    0.4300000000E+07    0.7851455125E-01    0.1032683621E-01    0.6958549675E+00    0.1945621876E+00    0.1880404023E-03
    0.4500000000E+07    0.7766391608E-01    0.1022670124E-01    0.6958545361E+00    0.1961096654E+00    0.1885160922E-03
    0.4700000000E+07    0.7684939272E-01    0.1013060545E-01    0.6958541217E+00    0.1975876678E+00    0.1889722191E-03
    0.4900000000E+07    0.7606822735E-01    0.1003825233E-01    0.6958537230E+00    0.1990018247E+00    0.1894103703E-03
    0.1000000000E+07    0.1035082045E+00    0.1314631182E-01    0.6958675147E+00    0.1453826173E+00    0.1733989256E-03
    0.3000000000E+07    0.8518484685E-01    0.1110390504E-01    0.6958583125E+00    0.1822613673E+00    0.1843156881E-03
    0.5000000000E+07    0.7568937647E-01    0.9993395269E-02    0.6958535292E+00    0.1996865390E+00    0.1896231492E-03
    0.7000000000E+07    0.6938747533E-01    0.9240914775E-02    0.6958502494E+00    0.2109818125E+00    0.1932022805E-03
    0.9000000000E+07    0.6472895445E-01    0.8677207541E-02    0.6958477400E+00    0.2192372038E+00    0.1959195613E-03
    0.1100000000E+08    0.6106762920E-01    0.8229820646E-02    0.6958457018E+00    0.2256813558E+00    0.1981166766E-03
    0.1300000000E+08    0.5807297514E-01    0.7861074066E-02    0.6958439825E+00    0.2309279637E+00    0.1999645055E-03
    0.1500000000E+08    0.5555365929E-01    0.7548891654E-02    0.6958424938E+00    0.2353271239E+00    0.2015610767E-03
    0.1700000000E+08    0.5338924657E-01    0.7279246220E-02    0.6958411800E+00    0.2390970101E+00    0.2029679623E-03
    0.1900000000E+08    0.5149917792E-01    0.7042682471E-02    0.6958400033E+00    0.2423824928E+00    0.2042264209E-03
    0.2100000000E+08    0.4982701572E-01    0.6832533085E-02    0.6958389373E+00    0.2452844950E+00    0.2053654781E-03
    0.2300000000E+08    0.4833175294E-01    0.6643926381E-02    0.6958379624E+00    0.2478760196E+00    0.2064063439E-03
    0.2500000000E+08    0.4698270169E-01    0.6473198574E-02    0.6958370639E+00    0.2502115005E+00    0.2073649976E-03
    0.2700000000E+08    0.4575632907E-01    0.6317527735E-02    0.6958362304E+00    0.2523325537E+00    0.2082537827E-03
