  Pressure (Pa) 22mC5-500 (mol/kg) 23mC5-500 (mol/kg) 24mC5-500 (mol/kg) 2mC6-500 (mol/kg) C7-500 (mol/kg)
    0.1000000000E+01    0.1028096863E-04    0.1770824112E-05    0.1741081975E+00    0.1064164515E-04    0.4168271798E-02
    0.3000000000E+01    0.1907895726E-04    0.3275189417E-05    0.3481252643E+00    0.1878888557E-04    0.4192393022E-02
    0.5000000000E+01    0.2283199287E-04    0.3912340661E-05    0.4351022372E+00    0.2214638246E-04    0.4201694509E-02
    0.7000000000E+01    0.2491027874E-04    0.4264638130E-05    0.4872795086E+00    0.2426430765E-04    0.4206950608E-02
    0.9000000000E+01    0.2630057861E-04    0.4501375102E-05    0.5220611290E+00    0.2602239937E-04    0.4210341795E-02
    0.1100000000E+02    0.2737387162E-04    0.4685700216E-05    0.5469037916E+00    0.2769171462E-04    0.4212697609E-02
    0.1300000000E+02    0.2829197451E-04    0.4844914867E-05    0.5655351685E+00    0.2936377843E-04    0.4214413434E-02
    0.1500000000E+02    0.2913267034E-04    0.4992007767E-05    0.5800259396E+00    0.3106892516E-04    0.4215703946E-02
    0.1700000000E+02    0.2993588970E-04    0.5133564518E-05    0.5916184083E+00    0.3281494043E-04    0.4216696469E-02
    0.1900000000E+02    0.3072304765E-04    0.5273062491E-05    0.6011030832E+00    0.3460113104E-04    0.4217471582E-02
    0.2100000000E+02    0.3150592971E-04    0.5412376541E-05    0.6090069465E+00    0.3642380890E-04    0.4218082895E-02
    0.2300000000E+02    0.3229107679E-04    0.5552517522E-05    0.6156948195E+00    0.3827849930E-04    0.4218567530E-02
    0.2500000000E+02    0.3308207323E-04    0.5694015086E-05    0.6214272820E+00    0.4016082214E-04    0.4218952047E-02
    0.2700000000E+02    0.3388079520E-04    0.5837124967E-05    0.6263954222E+00    0.4206681548E-04    0.4219255975E-02
    0.2900000000E+02    0.3468811653E-04    0.5981945192E-05    0.6307425537E+00    0.4399302217E-04    0.4219494008E-02
    0.3100000000E+02    0.3550431929E-04    0.6128483022E-05    0.6345782683E+00    0.4593647829E-04    0.4219677426E-02
    0.3300000000E+02    0.3632933810E-04    0.6276694310E-05    0.6379878030E+00    0.4789466456E-04    0.4219815037E-02
    0.3500000000E+02    0.3716290790E-04    0.6426506987E-05    0.6410384497E+00    0.4986544771E-04    0.4219913826E-02
    0.3700000000E+02    0.3800465431E-04    0.6577835172E-05    0.6437840418E+00    0.5184702318E-04    0.4219979405E-02
    0.3900000000E+02    0.3885414926E-04    0.6730587667E-05    0.6462681583E+00    0.5383786367E-04    0.4220016338E-02
    0.4100000000E+02    0.3971094512E-04    0.6884673015E-05    0.6485264547E+00    0.5583667470E-04    0.4220028377E-02
    0.4300000000E+02    0.4057459550E-04    0.7040002449E-05    0.6505883856E+00    0.5784235701E-04    0.4220018636E-02
    0.4500000000E+02    0.4144466750E-04    0.7196491528E-05    0.6524784963E+00    0.5985397505E-04    0.4219989722E-02
    0.4700000000E+02    0.4232074875E-04    0.7354060960E-05    0.6542174050E+00    0.6187073088E-04    0.4219943834E-02
    0.4900000000E+02    0.4320245097E-04    0.7512636926E-05    0.6558225577E+00    0.6389194238E-04    0.4219882842E-02
    0.1000000000E+02    0.2686390640E-04    0.4597899498E-05    0.5354380745E+00    0.2686023993E-04    0.4211618453E-02
    0.3000000000E+02    0.3509510575E-04    0.6055001294E-05    0.6327185265E+00    0.4496276125E-04    0.4219591945E-02
    0.5000000000E+02    0.4364529559E-04    0.7592280795E-05    0.6565797074E+00    0.6490403301E-04    0.4219847192E-02
    0.7000000000E+02    0.5272270106E-04    0.9224132003E-05    0.6673666813E+00    0.8527568073E-04    0.4218630686E-02
    0.9000000000E+02    0.6208752362E-04    0.1090612217E-04    0.6735142903E+00    0.1057622612E-03    0.4216860549E-02
    0.1100000000E+03    0.7163047352E-04    0.1261876535E-04    0.6774858496E+00    0.1262947245E-03    0.4214816445E-02
    0.1300000000E+03    0.8130019615E-04    0.1435310101E-04    0.6802630044E+00    0.1468652526E-03    0.4212613275E-02
    0.1500000000E+03    0.9107121386E-04    0.1610477207E-04    0.6823141319E+00    0.1674832899E-03    0.4210306966E-02
    0.1700000000E+03    0.1009305821E-03    0.1787161879E-04    0.6838910244E+00    0.1881628540E-03    0.4207927886E-02
    0.1900000000E+03    0.1108718709E-03    0.1965260939E-04    0.6851411067E+00    0.2089184872E-03    0.4205493814E-02
    0.2100000000E+03    0.1208922295E-03    0.2144732430E-04    0.6861564346E+00    0.2297639595E-03    0.4203015733E-02
    0.2300000000E+03    0.1309908595E-03    0.2325569049E-04    0.6869974577E+00    0.2507119256E-03    0.4200500698E-02
    0.2500000000E+03    0.1411681785E-03    0.2507783727E-04    0.6877055116E+00    0.2717739188E-03    0.4197953363E-02
    0.2700000000E+03    0.1514253418E-03    0.2691401466E-04    0.6883098192E+00    0.2929604592E-03    0.4195376849E-02
    0.2900000000E+03    0.1617639601E-03    0.2876454569E-04    0.6888316249E+00    0.3142811899E-03    0.4192773270E-02
    0.3100000000E+03    0.1721859291E-03    0.3062979782E-04    0.6892867433E+00    0.3357450101E-03    0.4190144045E-02
    0.3300000000E+03    0.1826933232E-03    0.3251016549E-04    0.6896871897E+00    0.3573601927E-03    0.4187490115E-02
    0.3500000000E+03    0.1932883299E-03    0.3440605937E-04    0.6900422566E+00    0.3791344875E-03    0.4184812075E-02
    0.3700000000E+03    0.2039732077E-03    0.3631789977E-04    0.6903592435E+00    0.4010752069E-03    0.4182110269E-02
    0.3900000000E+03    0.2147502601E-03    0.3824611252E-04    0.6906439640E+00    0.4231892989E-03    0.4179384853E-02
    0.4100000000E+03    0.2256218197E-03    0.4019112655E-04    0.6909011056E+00    0.4454834087E-03    0.4176635846E-02
    0.4300000000E+03    0.2365902377E-03    0.4215337253E-04    0.6911344899E+00    0.4679639299E-03    0.4173863157E-02
    0.4500000000E+03    0.2476578786E-03    0.4413328210E-04    0.6913472634E+00    0.4906370486E-03    0.4171066611E-02
    0.4700000000E+03    0.2588271175E-03    0.4613128766E-04    0.6915420407E+00    0.5135087804E-03    0.4168245969E-02
    0.4900000000E+03    0.2701003390E-03    0.4814782234E-04    0.6917210119E+00    0.5365850020E-03    0.4165400938E-02
    0.1000000000E+03    0.6684078879E-04    0.1175932366E-04    0.6756928541E+00    0.1160239118E-03    0.4215863529E-02
    0.3000000000E+03    0.1669643994E-03    0.2969530745E-04    0.6890666947E+00    0.3249946834E-03    0.4191461795E-02
    0.5000000000E+03    0.2757766910E-03    0.4916317369E-04    0.6918051594E+00    0.5482016019E-03    0.4163969173E-02
    0.7000000000E+03    0.3953578237E-03    0.7055050190E-04    0.6929852835E+00    0.7926476470E-03    0.4133954615E-02
    0.9000000000E+03    0.5282222367E-03    0.9431055410E-04    0.6936425173E+00    0.1063993847E-02    0.4100963189E-02
    0.1100000000E+04    0.6772214909E-03    0.1209546740E-03    0.6940613093E+00    0.1368261332E-02    0.4064385429E-02
    0.1300000000E+04    0.8457641691E-03    0.1510931596E-03    0.6943514648E+00    0.1712524591E-02    0.4023480060E-02
    0.1500000000E+04    0.1038053523E-02    0.1854781958E-03    0.6945643420E+00    0.2105460551E-02    0.3977337888E-02
    0.1700000000E+04    0.1259378384E-02    0.2250560537E-03    0.6947271722E+00    0.2557969005E-02    0.3924826374E-02
    0.1900000000E+04    0.1516496236E-02    0.2710356990E-03    0.6948557383E+00    0.3083972575E-02    0.3864514860E-02
    0.2100000000E+04    0.1818153272E-02    0.3249818889E-03    0.6949598186E+00    0.3701497034E-02    0.3794574198E-02
    0.2300000000E+04    0.2175797662E-02    0.3889428396E-03    0.6950457945E+00    0.4434152164E-02    0.3712642201E-02
    0.2500000000E+04    0.2604553790E-02    0.4656246163E-03    0.6951180075E+00    0.5313157057E-02    0.3615645684E-02
    0.2700000000E+04    0.3124523360E-02    0.5586240684E-03    0.6951795139E+00    0.6380052150E-02    0.3499573920E-02
    0.2900000000E+04    0.3762426255E-02    0.6727226728E-03    0.6952325277E+00    0.7690135505E-02    0.3359215693E-02
    0.3100000000E+04    0.4553391810E-02    0.8142075146E-03    0.6952786920E+00    0.9316252114E-02    0.3187924266E-02
    0.3300000000E+04    0.5542131566E-02    0.9910819997E-03    0.6953192517E+00    0.1135138145E-01    0.2977607449E-02
    0.3500000000E+04    0.6781332017E-02    0.1212779800E-02    0.6953551674E+00    0.1390560581E-01    0.2719431822E-02
    0.3700000000E+04    0.8322461280E-02    0.1488522267E-02    0.6953871922E+00    0.1708756446E-01    0.2406225710E-02
    0.3900000000E+04    0.1019145073E-01    0.1822969865E-02    0.6954159246E+00    0.2095472222E-01    0.2037910757E-02
    0.4100000000E+04    0.1234626181E-01    0.2208630143E-02    0.6954418466E+00    0.2542580081E-01    0.1629862158E-02
    0.4300000000E+04    0.1463932675E-01    0.2619130754E-02    0.6954653503E+00    0.3020195318E-01    0.1218417715E-02
    0.4500000000E+04    0.1684244353E-01    0.3013659005E-02    0.6954867583E+00    0.3481538832E-01    0.8520130759E-03
    0.4700000000E+04    0.1875433502E-01    0.3356195378E-02    0.6955063383E+00    0.3884932992E-01    0.5671547775E-03
    0.4900000000E+04    0.2029668189E-01    0.3632701571E-02    0.6955243142E+00    0.4213734741E-01    0.3713287116E-03
    0.1000000000E+04    0.6005076454E-03    0.1072367565E-03    0.6938728030E+00    0.1211601363E-02    0.4083165528E-02
    0.3000000000E+04    0.4136209237E-02    0.7395823650E-03    0.6952563805E+00    0.8458359032E-02    0.3277911501E-02
    0.5000000000E+04    0.2093852185E-01    0.3747838646E-02    0.6955327608E+00    0.4351903947E-01    0.3023236483E-03
    0.7000000000E+04    0.2758564840E-01    0.4944556996E-02    0.6956508216E+00    0.5865903972E-01    0.8694388801E-04
    0.9000000000E+04    0.3202171204E-01    0.5747332113E-02    0.6957161645E+00    0.6957730345E-01    0.8755760581E-04
    0.1100000000E+05    0.3561734804E-01    0.6400725425E-02    0.6957575796E+00    0.7897918749E-01    0.8853981507E-04
    0.1300000000E+05    0.3857125399E-01    0.6939836472E-02    0.6957861319E+00    0.8718980510E-01    0.8936742290E-04
    0.1500000000E+05    0.4102351317E-01    0.7389434168E-02    0.6958069801E+00    0.9444142967E-01    0.9008227733E-04
    0.1700000000E+05    0.4307722437E-01    0.7767770876E-02    0.6958228526E+00    0.1009083088E+00    0.9071205251E-04
    0.1900000000E+05    0.4480983777E-01    0.8088575742E-02    0.6958353271E+00    0.1067238800E+00    0.9127528494E-04
    0.2100000000E+05    0.4628057625E-01    0.8362360528E-02    0.6958453792E+00    0.1119921628E+00    0.9178500657E-04
    0.2300000000E+05    0.4753543507E-01    0.8597299960E-02    0.6958536444E+00    0.1167955210E+00    0.9225073542E-04
    0.2500000000E+05    0.4861063135E-01    0.8799839544E-02    0.6958605545E+00    0.1212000797E+00    0.9267963918E-04
    0.2700000000E+05    0.4953503458E-01    0.8975124148E-02    0.6958664126E+00    0.1252595854E+00    0.9307725287E-04
    0.2900000000E+05    0.5033191155E-01    0.9127305920E-02    0.6958714382E+00    0.1290182094E+00    0.9344794156E-04
    0.3100000000E+05    0.5102020034E-01    0.9259769254E-02    0.6958757939E+00    0.1325126176E+00    0.9379520952E-04
    0.3300000000E+05    0.5161545447E-01    0.9375297666E-02    0.6958796026E+00    0.1357735227E+00    0.9412191350E-04
    0.3500000000E+05    0.5213055252E-01    0.9476199281E-02    0.6958829591E+00    0.1388268632E+00    0.9443041354E-04
    0.3700000000E+05    0.5257623788E-01    0.9564402381E-02    0.6958859376E+00    0.1416947116E+00    0.9472268228E-04
    0.3900000000E+05    0.5296153423E-01    0.9641528997E-02    0.6958885969E+00    0.1443959808E+00    0.9500038568E-04
    0.4100000000E+05    0.5329406861E-01    0.9708952179E-02    0.6958909843E+00    0.1469469799E+00    0.9526494365E-04
    0.4300000000E+05    0.5358032504E-01    0.9767841002E-02    0.6958931384E+00    0.1493618559E+00    0.9551757650E-04
    0.4500000000E+05    0.5382584551E-01    0.9819196241E-02    0.6958950906E+00    0.1516529474E+00    0.9575934074E-04
    0.4700000000E+05    0.5403539044E-01    0.9863878901E-02    0.6958968671E+00    0.1538310703E+00    0.9599115731E-04
    0.4900000000E+05    0.5421306789E-01    0.9902633185E-02    0.6958984899E+00    0.1559057506E+00    0.9621383388E-04
    0.1000000000E+05    0.3391037583E-01    0.6090192185E-02    0.6957389638E+00    0.7444458683E-01    0.8807106276E-04
    0.3000000000E+05    0.5068858732E-01    0.9195815979E-02    0.6958736913E+00    0.1307963967E+00    0.9362431142E-04
    0.5000000000E+05    0.5429108789E-01    0.9919992474E-02    0.6958992495E+00    0.1569069718E+00    0.9632197059E-04
    0.7000000000E+05    0.5483241974E-01    0.1007498612E-01    0.6959096093E+00    0.1731119354E+00    0.9814080709E-04
    0.9000000000E+05    0.5436549015E-01    0.1003524483E-01    0.6959150297E+00    0.1846013906E+00    0.9952155329E-04
    0.1100000000E+06    0.5352305648E-01    0.9918550188E-02    0.6959182627E+00    0.1933872699E+00    0.1006379335E-03
    0.1300000000E+06    0.5254476296E-01    0.9770626428E-02    0.6959203493E+00    0.2004392882E+00    0.1015768103E-03
    0.1500000000E+06    0.5153235165E-01    0.9611518002E-02    0.6959217670E+00    0.2062929181E+00    0.1023880084E-03
    0.1700000000E+06    0.5053157713E-01    0.9450650761E-02    0.6959227644E+00    0.2112727942E+00    0.1031028200E-03
    0.1900000000E+06    0.4956316659E-01    0.9292598438E-02    0.6959234828E+00    0.2155896126E+00    0.1037422124E-03
    0.2100000000E+06    0.4863592415E-01    0.9139559128E-02    0.6959240080E+00    0.2193874092E+00    0.1043209355E-03
    0.2300000000E+06    0.4775275024E-01    0.8992512049E-02    0.6959243950E+00    0.2227687559E+00    0.1048497674E-03
    0.2500000000E+06    0.4691357804E-01    0.8851793031E-02    0.6959246805E+00    0.2258091438E+00    0.1053368276E-03
    0.2700000000E+06    0.4611686969E-01    0.8717394811E-02    0.6959248899E+00    0.2285656622E+00    0.1057883883E-03
    0.2900000000E+06    0.4536040176E-01    0.8589129377E-02    0.6959250410E+00    0.2310824759E+00    0.1062093971E-03
    0.3100000000E+06    0.4464168439E-01    0.8466717972E-02    0.6959251469E+00    0.2333944170E+00    0.1066038270E-03
    0.3300000000E+06    0.4395818531E-01    0.8349841725E-02    0.6959252172E+00    0.2355294170E+00    0.1069749172E-03
    0.3500000000E+06    0.4330744727E-01    0.8238170249E-02    0.6959252594E+00    0.2375101982E+00    0.1073253444E-03
    0.3700000000E+06    0.4268714644E-01    0.8131377631E-02    0.6959252790E+00    0.2393554809E+00    0.1076573462E-03
    0.3900000000E+06    0.4209511768E-01    0.8029151079E-02    0.6959252803E+00    0.2410808607E+00    0.1079728124E-03
    0.4100000000E+06    0.4152936152E-01    0.7931195276E-02    0.6959252667E+00    0.2426994603E+00    0.1082733540E-03
    0.4300000000E+06    0.4098804105E-01    0.7837234205E-02    0.6959252411E+00    0.2442224198E+00    0.1085603558E-03
    0.4500000000E+06    0.4046947357E-01    0.7747011492E-02    0.6959252054E+00    0.2456592728E+00    0.1088350166E-03
    0.4700000000E+06    0.3997211986E-01    0.7660289920E-02    0.6959251616E+00    0.2470182370E+00    0.1090983815E-03
    0.4900000000E+06    0.3949457249E-01    0.7576850484E-02    0.6959251110E+00    0.2483064433E+00    0.1093513673E-03
    0.1000000000E+06    0.5397140004E-01    0.9982764014E-02    0.6959168347E+00    0.1892573584E+00    0.1001061524E-03
    0.3000000000E+06    0.4499648328E-01    0.8527211324E-02    0.6959250989E+00    0.2322621707E+00    0.1064097170E-03
    0.5000000000E+06    0.3926281954E-01    0.7536297820E-02    0.6959250835E+00    0.2489259886E+00    0.1094742244E-03
    0.7000000000E+06    0.3540806766E-01    0.6856313471E-02    0.6959243762E+00    0.2587684670E+00    0.1115407883E-03
    0.9000000000E+06    0.3258110920E-01    0.6351364523E-02    0.6959235906E+00    0.2655377767E+00    0.1131097243E-03
    0.1100000000E+07    0.3038603711E-01    0.5955734479E-02    0.6959228384E+00    0.2705902318E+00    0.1143783213E-03
    0.1300000000E+07    0.2861311645E-01    0.5633932194E-02    0.6959221411E+00    0.2745612225E+00    0.1154452438E-03
    0.1500000000E+07    0.2713946542E-01    0.5364899474E-02    0.6959214992E+00    0.2777959634E+00    0.1163670930E-03
    0.1700000000E+07    0.2588754065E-01    0.5135223008E-02    0.6959209078E+00    0.2805012821E+00    0.1171794198E-03
    0.1900000000E+07    0.2480557677E-01    0.4935882042E-02    0.6959203609E+00    0.2828100632E+00    0.1179060464E-03
    0.2100000000E+07    0.2385746322E-01    0.4760545297E-02    0.6959198531E+00    0.2848122986E+00    0.1185637321E-03
    0.2300000000E+07    0.2301710530E-01    0.4604613716E-02    0.6959193795E+00    0.2865714935E+00    0.1191647231E-03
    0.2500000000E+07    0.2226509250E-01    0.4464650796E-02    0.6959189359E+00    0.2881339724E+00    0.1197182457E-03
    0.2700000000E+07    0.2158663341E-01    0.4338027320E-02    0.6959185190E+00    0.2895344614E+00    0.1202314269E-03
    0.2900000000E+07    0.2097022335E-01    0.4222690965E-02    0.6959181257E+00    0.2907995941E+00    0.1207098888E-03
    0.3100000000E+07    0.2040675544E-01    0.4117011875E-02    0.6959177536E+00    0.2919501987E+00    0.1211581461E-03
    0.3300000000E+07    0.1988891002E-01    0.4019676170E-02    0.6959174005E+00    0.2930028383E+00    0.1215798797E-03
    0.3500000000E+07    0.1941072477E-01    0.3929610698E-02    0.6959170645E+00    0.2939708781E+00    0.1219781313E-03
    0.3700000000E+07    0.1896728529E-01    0.3845928692E-02    0.6959167440E+00    0.2948652417E+00    0.1223554436E-03
    0.3900000000E+07    0.1855449816E-01    0.3767889787E-02    0.6959164377E+00    0.2956949595E+00    0.1227139643E-03
    0.4100000000E+07    0.1816892148E-01    0.3694870099E-02    0.6959161444E+00    0.2964675723E+00    0.1230555240E-03
    0.4300000000E+07    0.1780763656E-01    0.3626339488E-02    0.6959158629E+00    0.2971894351E+00    0.1233816963E-03
    0.4500000000E+07    0.1746814926E-01    0.3561844053E-02    0.6959155924E+00    0.2978659474E+00    0.1236938437E-03
    0.4700000000E+07    0.1714831329E-01    0.3500992477E-02    0.6959153320E+00    0.2985017311E+00    0.1239931539E-03
    0.4900000000E+07    0.1684626982E-01    0.3443445274E-02    0.6959150810E+00    0.2991007700E+00    0.1242806687E-03
    0.1000000000E+07    0.3142046790E-01    0.6142560458E-02    0.6959232081E+00    0.2682292567E+00    0.1137740270E-03
    0.3000000000E+07    0.2068236525E-01    0.4168732781E-02    0.6959179372E+00    0.2913880916E+00    0.1209375460E-03
    0.5000000000E+07    0.1670140599E-01    0.3415816748E-02    0.6959149588E+00    0.2993876079E+00    0.1244202941E-03
    0.7000000000E+07    0.1443616884E-01    0.2981308504E-02    0.6959128775E+00    0.3038349755E+00    0.1267689236E-03
    0.9000000000E+07    0.1291931018E-01    0.2687556236E-02    0.6959112712E+00    0.3067755076E+00    0.1285520107E-03
    0.1100000000E+08    0.1180967591E-01    0.2471101496E-02    0.6959099599E+00    0.3089089221E+00    0.1299937668E-03
    0.1300000000E+08    0.1095118675E-01    0.2302654316E-02    0.6959088502E+00    0.3105497692E+00    0.1312063218E-03
    0.1500000000E+08    0.1026073929E-01    0.2166512965E-02    0.6959078871E+00    0.3118635479E+00    0.1322540018E-03
    0.1700000000E+08    0.9689392222E-02    0.2053378894E-02    0.6959070357E+00    0.3129468737E+00    0.1331772102E-03
    0.1900000000E+08    0.9206161458E-02    0.1957337606E-02    0.6959062721E+00    0.3138604974E+00    0.1340030206E-03
    0.2100000000E+08    0.8790330799E-02    0.1874418496E-02    0.6959055796E+00    0.3146448157E+00    0.1347504797E-03
    0.2300000000E+08    0.8427444291E-02    0.1801840866E-02    0.6959049457E+00    0.3153278902E+00    0.1354335054E-03
    0.2500000000E+08    0.8107061121E-02    0.1737589883E-02    0.6959043611E+00    0.3159299108E+00    0.1360625833E-03
    0.2700000000E+08    0.7821423641E-02    0.1680164138E-02    0.6959038185E+00    0.3164658299E+00    0.1366458133E-03
