  Pressure (Pa) 22mC5-500 (mol/kg) 23mC5-500 (mol/kg) 24mC5-500 (mol/kg) 2mC6-500 (mol/kg) C7-500 (mol/kg)
    0.1000000000E+01    0.1330555145E-04    0.2294881832E-05    0.3665812068E-01    0.2452802774E-04    0.4197844088E-02
    0.3000000000E+01    0.3513322683E-04    0.6052527837E-05    0.9947245794E-01    0.6330558519E-04    0.4266473972E-02
    0.5000000000E+01    0.5239013616E-04    0.9017206412E-05    0.1513365935E+00    0.9284601272E-04    0.4320500976E-02
    0.7000000000E+01    0.6629976522E-04    0.1140209257E-04    0.1948850890E+00    0.1158467143E-03    0.4365700580E-02
    0.9000000000E+01    0.7768566379E-04    0.1335047416E-04    0.2319700307E+00    0.1340681927E-03    0.4404249704E-02
    0.1100000000E+02    0.8712879782E-04    0.1496332717E-04    0.2639314555E+00    0.1487250846E-03    0.4437569142E-02
    0.1300000000E+02    0.9505075036E-04    0.1631385402E-04    0.2917628755E+00    0.1606804858E-03    0.4466680965E-02
    0.1500000000E+02    0.1017643248E-03    0.1745631609E-04    0.3162164929E+00    0.1705614159E-03    0.4492350241E-02
    0.1700000000E+02    0.1075059876E-03    0.1843169232E-04    0.3378722728E+00    0.1788317450E-03    0.4515164082E-02
    0.1900000000E+02    0.1124574003E-03    0.1927143253E-04    0.3571845749E+00    0.1858399951E-03    0.4535581616E-02
    0.2100000000E+02    0.1167601043E-03    0.2000001571E-04    0.3745144132E+00    0.1918515582E-03    0.4553967508E-02
    0.2300000000E+02    0.1205257671E-03    0.2063673409E-04    0.3901522580E+00    0.1970709142E-03    0.4570615285E-02
    0.2500000000E+02    0.1238434742E-03    0.2119696212E-04    0.4043344657E+00    0.2016572560E-03    0.4585763999E-02
    0.2700000000E+02    0.1267850104E-03    0.2169307497E-04    0.4172553205E+00    0.2057356678E-03    0.4599610377E-02
    0.2900000000E+02    0.1294087447E-03    0.2213512380E-04    0.4290759982E+00    0.2094052448E-03    0.4612317842E-02
    0.3100000000E+02    0.1317625281E-03    0.2253133922E-04    0.4399313305E+00    0.2127450727E-03    0.4624023307E-02
    0.3300000000E+02    0.1338858832E-03    0.2288851145E-04    0.4499349774E+00    0.2158186844E-03    0.4634842368E-02
    0.3500000000E+02    0.1358116776E-03    0.2321228067E-04    0.4591834260E+00    0.2186774204E-03    0.4644873314E-02
    0.3700000000E+02    0.1375674168E-03    0.2350736113E-04    0.4677591158E+00    0.2213629877E-03    0.4654200264E-02
    0.3900000000E+02    0.1391762518E-03    0.2377771597E-04    0.4757329063E+00    0.2239094267E-03    0.4662895646E-02
    0.4100000000E+02    0.1406577734E-03    0.2402669455E-04    0.4831660410E+00    0.2263446367E-03    0.4671022168E-02
    0.4300000000E+02    0.1420286412E-03    0.2425714145E-04    0.4901117256E+00    0.2286915676E-03    0.4678634402E-02
    0.4500000000E+02    0.1433030874E-03    0.2447148361E-04    0.4966164047E+00    0.2309691586E-03    0.4685780069E-02
    0.4700000000E+02    0.1444933224E-03    0.2467180035E-04    0.5027208030E+00    0.2331930819E-03    0.4692501088E-02
    0.4900000000E+02    0.1456098635E-03    0.2485988024E-04    0.5084607794E+00    0.2353763361E-03    0.4698834437E-02
    0.1000000000E+02    0.8262069771E-04    0.1419373887E-04    0.2485224202E+00    0.1417816487E-03    0.4421492013E-02
    0.3000000000E+02    0.1306167367E-03    0.2233850631E-04    0.4346167843E+00    0.2111120859E-03    0.4618288152E-02
    0.5000000000E+02    0.1461433897E-03    0.2494982235E-04    0.5112041611E+00    0.2364561625E-03    0.4701866116E-02
    0.7000000000E+02    0.1546032154E-03    0.2638703464E-04    0.5529804313E+00    0.2577337567E-03    0.4748409230E-02
    0.9000000000E+02    0.1611561612E-03    0.2752240794E-04    0.5792879197E+00    0.2803370781E-03    0.4778018913E-02
    0.1100000000E+03    0.1672882900E-03    0.2860233897E-04    0.5973773814E+00    0.3049556973E-03    0.4798374420E-02
    0.1300000000E+03    0.1735023135E-03    0.2970785582E-04    0.6105799532E+00    0.3314463293E-03    0.4813068784E-02
    0.1500000000E+03    0.1799777554E-03    0.3086650721E-04    0.6206405577E+00    0.3595483272E-03    0.4824017654E-02
    0.1700000000E+03    0.1867746016E-03    0.3208649001E-04    0.6285616698E+00    0.3890291140E-03    0.4832340556E-02
    0.1900000000E+03    0.1939058997E-03    0.3336864916E-04    0.6349602555E+00    0.4197062110E-03    0.4838737968E-02
    0.2100000000E+03    0.2013662188E-03    0.3471109979E-04    0.6402368425E+00    0.4514419839E-03    0.4843671934E-02
    0.2300000000E+03    0.2091434908E-03    0.3611110435E-04    0.6446627843E+00    0.4841340509E-03    0.4847460309E-02
    0.2500000000E+03    0.2172240777E-03    0.3756584745E-04    0.6484284531E+00    0.5177067210E-03    0.4850329373E-02
    0.2700000000E+03    0.2255949193E-03    0.3907274455E-04    0.6516713535E+00    0.5521043513E-03    0.4852444851E-02
    0.2900000000E+03    0.2342443794E-03    0.4062954810E-04    0.6544932844E+00    0.5872864150E-03    0.4853931049E-02
    0.3100000000E+03    0.2431625025E-03    0.4223436562E-04    0.6569712226E+00    0.6232238881E-03    0.4854883110E-02
    0.3300000000E+03    0.2523410088E-03    0.4388564098E-04    0.6591644544E+00    0.6598966022E-03    0.4855375134E-02
    0.3500000000E+03    0.2617731797E-03    0.4558212236E-04    0.6611193814E+00    0.6972912948E-03    0.4855465700E-02
    0.3700000000E+03    0.2714537051E-03    0.4732282728E-04    0.6628728407E+00    0.7354001644E-03    0.4855201720E-02
    0.3900000000E+03    0.2813785280E-03    0.4910700948E-04    0.6644544487E+00    0.7742197885E-03    0.4854621184E-02
    0.4100000000E+03    0.2915446979E-03    0.5093412920E-04    0.6658882877E+00    0.8137503078E-03    0.4853755161E-02
    0.4300000000E+03    0.3019502412E-03    0.5280382746E-04    0.6671941409E+00    0.8539948063E-03    0.4852629269E-02
    0.4500000000E+03    0.3125940489E-03    0.5471590414E-04    0.6683884107E+00    0.8949588366E-03    0.4851264785E-02
    0.4700000000E+03    0.3234757795E-03    0.5667029946E-04    0.6694848114E+00    0.9366500538E-03    0.4849679484E-02
    0.4900000000E+03    0.3345957777E-03    0.5866707846E-04    0.6704948984E+00    0.9790779331E-03    0.4847888293E-02
    0.1000000000E+03    0.1642317739E-03    0.2806230252E-04    0.5890987762E+00    0.2923971783E-03    0.4789073183E-02
    0.3000000000E+03    0.2386704138E-03    0.4142605991E-04    0.6557711977E+00    0.6051621677E-03    0.4854468797E-02
    0.5000000000E+03    0.3402454055E-03    0.5968141307E-04    0.6709706974E+00    0.1000571524E-02    0.4846919501E-02
    0.7000000000E+03    0.4662778037E-03    0.8228969345E-04    0.6777036265E+00    0.1472584059E-02    0.4818907958E-02
    0.9000000000E+03    0.6202464776E-03    0.1098786675E-03    0.6815025767E+00    0.2038818091E-02    0.4776808500E-02
    0.1100000000E+04    0.8093178865E-03    0.1437352568E-03    0.6839418699E+00    0.2727514423E-02    0.4720760188E-02
    0.1300000000E+04    0.1044516796E-02    0.1858349257E-03    0.6856404012E+00    0.3579692920E-02    0.4648403631E-02
    0.1500000000E+04    0.1342240563E-02    0.2391133306E-03    0.6868909496E+00    0.4655259778E-02    0.4555304060E-02
    0.1700000000E+04    0.1727046038E-02    0.3079655635E-03    0.6878499758E+00    0.6043389290E-02    0.4434458303E-02
    0.1900000000E+04    0.2236205585E-02    0.3990619739E-03    0.6886086860E+00    0.7879237577E-02    0.4275202450E-02
    0.2100000000E+04    0.2926557847E-02    0.5225750441E-03    0.6892238387E+00    0.1036908007E-01    0.4061596969E-02
    0.2300000000E+04    0.3882575875E-02    0.6936254047E-03    0.6897326037E+00    0.1382027849E-01    0.3770931528E-02
    0.2500000000E+04    0.5216594344E-02    0.9323278756E-03    0.6901603415E+00    0.1864388587E-01    0.3375575298E-02
    0.2700000000E+04    0.7027636413E-02    0.1256434212E-02    0.6905249475E+00    0.2520903709E-01    0.2858344678E-02
    0.2900000000E+04    0.9261293656E-02    0.1656268363E-02    0.6908394103E+00    0.3333861528E-01    0.2255068298E-02
    0.3100000000E+04    0.1155407063E-01    0.2066849570E-02    0.6911133858E+00    0.4173803985E-01    0.1689272176E-02
    0.3300000000E+04    0.1344129932E-01    0.2405036158E-02    0.6913542009E+00    0.4872775809E-01    0.1290713108E-02
    0.3500000000E+04    0.1478619470E-01    0.2646297930E-02    0.6915675163E+00    0.5379504993E-01    0.1074364681E-02
    0.3700000000E+04    0.1574122983E-01    0.2817865953E-02    0.6917577741E+00    0.5747447100E-01    0.9756694787E-03
    0.3900000000E+04    0.1648211299E-01    0.2951155794E-02    0.6919285093E+00    0.6039349049E-01    0.9350384975E-03
    0.4100000000E+04    0.1711434866E-01    0.3065037394E-02    0.6920825698E+00    0.6293098980E-01    0.9197146516E-03
    0.4300000000E+04    0.1768899248E-01    0.3168643555E-02    0.6922222755E+00    0.6527075127E-01    0.9148600295E-03
    0.4500000000E+04    0.1822899906E-01    0.3266080128E-02    0.6923495356E+00    0.6749533177E-01    0.9142360707E-03
    0.4700000000E+04    0.1874461231E-01    0.3359178669E-02    0.6924659352E+00    0.6964133465E-01    0.9152877991E-03
    0.4900000000E+04    0.1924058172E-01    0.3448787476E-02    0.6925728014E+00    0.7172544860E-01    0.9169767575E-03
    0.1000000000E+04    0.7098079829E-03    0.1259183840E-03    0.6828421028E+00    0.2365648498E-02    0.4750628008E-02
    0.3000000000E+04    0.1043304738E-01    0.1866074499E-02    0.6909809555E+00    0.3762237236E-01    0.1957589328E-02
    0.5000000000E+04    0.1948199818E-01    0.3492425554E-02    0.6926230164E+00    0.7274702354E-01    0.9179164153E-03
    0.7000000000E+04    0.2357561831E-01    0.4234677687E-02    0.6933246708E+00    0.9088293764E-01    0.9355940027E-03
    0.9000000000E+04    0.2660338715E-01    0.4787269255E-02    0.6937124315E+00    0.1056023076E+00    0.9490811225E-03
    0.1100000000E+05    0.2889036108E-01    0.5207646960E-02    0.6939576446E+00    0.1178395480E+00    0.9599285712E-03
    0.1300000000E+05    0.3064485600E-01    0.5532693419E-02    0.6941262444E+00    0.1282102070E+00    0.9690199035E-03
    0.1500000000E+05    0.3200633325E-01    0.5787148654E-02    0.6942489860E+00    0.1371385299E+00    0.9768558935E-03
    0.1700000000E+05    0.3307130194E-01    0.5988167605E-02    0.6943421353E+00    0.1449268728E+00    0.9837484431E-03
    0.1900000000E+05    0.3390842530E-01    0.6147980808E-02    0.6944150969E+00    0.1517968544E+00    0.9899052704E-03
    0.2100000000E+05    0.3456771839E-01    0.6275516126E-02    0.6944736840E+00    0.1579148369E+00    0.9954718186E-03
    0.2300000000E+05    0.3508635652E-01    0.6377424027E-02    0.6945216810E+00    0.1634082932E+00    0.1000553975E-02
    0.2500000000E+05    0.3549246022E-01    0.6458746438E-02    0.6945616568E+00    0.1683766570E+00    0.1005231271E-02
    0.2700000000E+05    0.3580762954E-01    0.6523365134E-02    0.6945954157E+00    0.1728987152E+00    0.1009564994E-02
    0.2900000000E+05    0.3604868198E-01    0.6574309574E-02    0.6946242615E+00    0.1770377658E+00    0.1013603387E-02
    0.3100000000E+05    0.3622886946E-01    0.6613972750E-02    0.6946491596E+00    0.1808452948E+00    0.1017385122E-02
    0.3300000000E+05    0.3635874680E-01    0.6644265389E-02    0.6946708397E+00    0.1843636463E+00    0.1020941682E-02
    0.3500000000E+05    0.3644680177E-01    0.6666727984E-02    0.6946898636E+00    0.1876279946E+00    0.1024299049E-02
    0.3700000000E+05    0.3649991920E-01    0.6682613424E-02    0.6947066705E+00    0.1906678233E+00    0.1027478915E-02
    0.3900000000E+05    0.3652372761E-01    0.6692948770E-02    0.6947216089E+00    0.1935080504E+00    0.1030499585E-02
    0.4100000000E+05    0.3652286119E-01    0.6698582034E-02    0.6947349584E+00    0.1961698934E+00    0.1033376648E-02
    0.4300000000E+05    0.3650116017E-01    0.6700217989E-02    0.6947469462E+00    0.1986715441E+00    0.1036123492E-02
    0.4500000000E+05    0.3646182564E-01    0.6698445878E-02    0.6947577587E+00    0.2010286994E+00    0.1038751699E-02
    0.4700000000E+05    0.3640754027E-01    0.6693761057E-02    0.6947675501E+00    0.2032549828E+00    0.1041271362E-02
    0.4900000000E+05    0.3634056337E-01    0.6686582058E-02    0.6947764491E+00    0.2053622823E+00    0.1043691326E-02
    0.1000000000E+05    0.2782442937E-01    0.5011322876E-02    0.6938474990E+00    0.1119871468E+00    0.9547670259E-03
    0.3000000000E+05    0.3614566929E-01    0.6595422078E-02    0.6946371538E+00    0.1789801357E+00    0.1015524223E-02
    0.5000000000E+05    0.3630292476E-01    0.6682170418E-02    0.6947805985E+00    0.2063746221E+00    0.1044866393E-02
    0.7000000000E+05    0.3521954545E-01    0.6525807994E-02    0.6948357677E+00    0.2223395039E+00    0.1064620554E-02
    0.9000000000E+05    0.3392976132E-01    0.6320546814E-02    0.6948628413E+00    0.2331710515E+00    0.1079606320E-02
    0.1100000000E+06    0.3267237693E-01    0.6113744057E-02    0.6948777551E+00    0.2411704434E+00    0.1091717935E-02
    0.1300000000E+06    0.3150697282E-01    0.5918598010E-02    0.6948864548E+00    0.2474068360E+00    0.1101901109E-02
    0.1500000000E+06    0.3044290717E-01    0.5738284113E-02    0.6948916284E+00    0.2524548216E+00    0.1110697799E-02
    0.1700000000E+06    0.2947445414E-01    0.5572720968E-02    0.6948946530E+00    0.2566551409E+00    0.1118448166E-02
    0.1900000000E+06    0.2859184224E-01    0.5420781875E-02    0.6948962988E+00    0.2602247639E+00    0.1125380031E-02
    0.2100000000E+06    0.2778494438E-01    0.5281080768E-02    0.6948970256E+00    0.2633095044E+00    0.1131653600E-02
    0.2300000000E+06    0.2704447722E-01    0.5152257830E-02    0.6948971223E+00    0.2660115902E+00    0.1137385908E-02
    0.2500000000E+06    0.2636230764E-01    0.5033076555E-02    0.6948967779E+00    0.2684051768E+00    0.1142665103E-02
    0.2700000000E+06    0.2573143825E-01    0.4922447333E-02    0.6948961197E+00    0.2705455863E+00    0.1147559264E-02
    0.2900000000E+06    0.2514588729E-01    0.4819422781E-02    0.6948952361E+00    0.2724750719E+00    0.1152122084E-02
    0.3100000000E+06    0.2460054524E-01    0.4723183250E-02    0.6948941899E+00    0.2742265563E+00    0.1156396675E-02
    0.3300000000E+06    0.2409103865E-01    0.4633020044E-02    0.6948930263E+00    0.2758261369E+00    0.1160418183E-02
    0.3500000000E+06    0.2361361097E-01    0.4548319387E-02    0.6948917785E+00    0.2772948120E+00    0.1164215644E-02
    0.3700000000E+06    0.2316502192E-01    0.4468548175E-02    0.6948904710E+00    0.2786497003E+00    0.1167813332E-02
    0.3900000000E+06    0.2274246383E-01    0.4393241730E-02    0.6948891224E+00    0.2799049212E+00    0.1171231747E-02
    0.4100000000E+06    0.2234349268E-01    0.4321993468E-02    0.6948877467E+00    0.2810722407E+00    0.1174488361E-02
    0.4300000000E+06    0.2196597135E-01    0.4254446227E-02    0.6948863546E+00    0.2821615554E+00    0.1177598192E-02
    0.4500000000E+06    0.2160802277E-01    0.4190285026E-02    0.6948849543E+00    0.2831812599E+00    0.1180574242E-02
    0.4700000000E+06    0.2126799129E-01    0.4129231016E-02    0.6948835520E+00    0.2841385282E+00    0.1183427845E-02
    0.4900000000E+06    0.2094441061E-01    0.4071036411E-02    0.6948821527E+00    0.2850395345E+00    0.1186168941E-02
    0.1000000000E+06    0.3329138557E-01    0.6216138956E-02    0.6948713312E+00    0.2374414663E+00    0.1085949117E-02
    0.3000000000E+06    0.2486847925E-01    0.4770501587E-02    0.6948947302E+00    0.2733712964E+00    0.1154293050E-02
    0.5000000000E+06    0.2078837622E-01    0.4042941386E-02    0.6948814553E+00    0.2854706387E+00    0.1187500079E-02
    0.7000000000E+06    0.1828010641E-01    0.3588353242E-02    0.6948682105E+00    0.2921268702E+00    0.1209889539E-02
    0.9000000000E+06    0.1653257430E-01    0.3268275872E-02    0.6948566163E+00    0.2964969674E+00    0.1226886020E-02
    0.1100000000E+07    0.1522215978E-01    0.3026368178E-02    0.6948465131E+00    0.2996504995E+00    0.1240628019E-02
    0.1300000000E+07    0.1419079374E-01    0.2834778827E-02    0.6948376130E+00    0.3020653108E+00    0.1252184848E-02
    0.1500000000E+07    0.1335071030E-01    0.2677908960E-02    0.6948296764E+00    0.3039916370E+00    0.1262169879E-02
    0.1700000000E+07    0.1264866830E-01    0.2546231245E-02    0.6948225206E+00    0.3055749960E+00    0.1270968343E-02
    0.1900000000E+07    0.1205020286E-01    0.2433543639E-02    0.6948160073E+00    0.3069065844E+00    0.1278838366E-02
    0.2100000000E+07    0.1153186505E-01    0.2335606305E-02    0.6948100309E+00    0.3080468658E+00    0.1285961533E-02
    0.2300000000E+07    0.1107705964E-01    0.2249406181E-02    0.6948045092E+00    0.3090377310E+00    0.1292470528E-02
    0.2500000000E+07    0.1067365999E-01    0.2172733449E-02    0.6947993772E+00    0.3099092483E+00    0.1298465310E-02
    0.2700000000E+07    0.1031256667E-01    0.2103924487E-02    0.6947945828E+00    0.3106836366E+00    0.1304023094E-02
    0.2900000000E+07    0.9986797539E-02    0.2041698963E-02    0.6947900838E+00    0.3113777192E+00    0.1309204788E-02
    0.3100000000E+07    0.9690891810E-02    0.1985052801E-02    0.6947858453E+00    0.3120045006E+00    0.1314059301E-02
    0.3300000000E+07    0.9420507551E-02    0.1933185643E-02    0.6947818382E+00    0.3125742137E+00    0.1318626511E-02
    0.3500000000E+07    0.9172142335E-02    0.1885450385E-02    0.6947780380E+00    0.3130950362E+00    0.1322939368E-02
    0.3700000000E+07    0.8942934849E-02    0.1841317229E-02    0.6947744241E+00    0.3135735928E+00    0.1327025417E-02
    0.3900000000E+07    0.8730521057E-02    0.1800347570E-02    0.6947709786E+00    0.3140153152E+00    0.1330907923E-02
    0.4100000000E+07    0.8532928015E-02    0.1762174666E-02    0.6947676861E+00    0.3144247048E+00    0.1334606719E-02
    0.4300000000E+07    0.8348494198E-02    0.1726489110E-02    0.6947645335E+00    0.3148055282E+00    0.1338138849E-02
    0.4500000000E+07    0.8175808845E-02    0.1693027749E-02    0.6947615089E+00    0.3151609647E+00    0.1341519072E-02
    0.4700000000E+07    0.8013665173E-02    0.1661565115E-02    0.6947586022E+00    0.3154937189E+00    0.1344760254E-02
    0.4900000000E+07    0.7861023856E-02    0.1631906731E-02    0.6947558043E+00    0.3158061083E+00    0.1347873679E-02
    0.1000000000E+07    0.1583491162E-01    0.3139691716E-02    0.6948513969E+00    0.2981882677E+00    0.1234082130E-02
    0.3000000000E+07    0.9835405592E-02    0.2012732582E-02    0.6947879339E+00    0.3116988277E+00    0.1311670266E-02
    0.5000000000E+07    0.7787980362E-02    0.1617700507E-02    0.6947544436E+00    0.3159553016E+00    0.1349385639E-02
    0.7000000000E+07    0.6659429577E-02    0.1397009733E-02    0.6947313878E+00    0.3182367386E+00    0.1374817341E-02
    0.9000000000E+07    0.5917613249E-02    0.1250607763E-02    0.6947137119E+00    0.3197129676E+00    0.1394124094E-02
    0.1100000000E+08    0.5381744108E-02    0.1144107531E-02    0.6946993372E+00    0.3207682990E+00    0.1409734343E-02
    0.1300000000E+08    0.4970996710E-02    0.1062010342E-02    0.6946872015E+00    0.3215711342E+00    0.1422862519E-02
    0.1500000000E+08    0.4643031529E-02    0.9961460440E-03    0.6946766873E+00    0.3222084700E+00    0.1434205279E-02
    0.1700000000E+08    0.4373220679E-02    0.9417375858E-03    0.6946674034E+00    0.3227303861E+00    0.1444200184E-02
    0.1900000000E+08    0.4146125325E-02    0.8957770983E-03    0.6946590857E+00    0.3231680202E+00    0.1453140431E-02
    0.2100000000E+08    0.3951506117E-02    0.8562620421E-03    0.6946515476E+00    0.3235418866E+00    0.1461232279E-02
    0.2300000000E+08    0.3782266413E-02    0.8217997871E-03    0.6946446520E+00    0.3238661240E+00    0.1468626449E-02
    0.2500000000E+08    0.3633310490E-02    0.7913873054E-03    0.6946382955E+00    0.3241508368E+00    0.1475436485E-02
    0.2700000000E+08    0.3500871340E-02    0.7642810564E-03    0.6946323978E+00    0.3244034643E+00    0.1481750099E-02
