  Pressure (Pa) 22mC5-500 (mol/kg) 23mC5-500 (mol/kg) 24mC5-500 (mol/kg) 2mC6-500 (mol/kg) C7-500 (mol/kg)
    0.1000000000E+01    0.1335078376E-04    0.3070593914E-05    0.3665855508E-01    0.2468192446E-04    0.4186014490E-02
    0.3000000000E+01    0.3523342371E-04    0.8093848045E-05    0.9947566933E-01    0.6364532941E-04    0.4239959611E-02
    0.5000000000E+01    0.5253781016E-04    0.1205802837E-04    0.1513440549E+00    0.9334523598E-04    0.4280802772E-02
    0.7000000000E+01    0.6649149728E-04    0.1524833728E-04    0.1948975072E+00    0.1164933387E-03    0.4314731845E-02
    0.9000000000E+01    0.7791925480E-04    0.1785611638E-04    0.2319876851E+00    0.1348545434E-03    0.4343581059E-02
    0.1100000000E+02    0.8740262997E-04    0.2001613915E-04    0.2639543847E+00    0.1496456110E-03    0.4368469307E-02
    0.1300000000E+02    0.9536354964E-04    0.2182609096E-04    0.2917909830E+00    0.1617308935E-03    0.4390182890E-02
    0.1500000000E+02    0.1021150479E-03    0.2335837537E-04    0.3162496082E+00    0.1717382455E-03    0.4409304432E-02
    0.1700000000E+02    0.1078937588E-03    0.2466767095E-04    0.3379101876E+00    0.1801321358E-03    0.4426278713E-02
    0.1900000000E+02    0.1128814721E-03    0.2579594134E-04    0.3572270646E+00    0.1872615379E-03    0.4441452511E-02
    0.2100000000E+02    0.1172198308E-03    0.2677584942E-04    0.3745612497E+00    0.1933921963E-03    0.4455100738E-02
    0.2300000000E+02    0.1210205852E-03    0.2763313784E-04    0.3902032171E+00    0.1987288737E-03    0.4467444395E-02
    0.2500000000E+02    0.1243728894E-03    0.2838832215E-04    0.4043893314E+00    0.2034309946E-03    0.4478663309E-02
    0.2700000000E+02    0.1273485859E-03    0.2905791629E-04    0.4173138876E+00    0.2076238355E-03    0.4488905369E-02
    0.2900000000E+02    0.1300060927E-03    0.2965533345E-04    0.4291380727E+00    0.2114066540E-03    0.4498293365E-02
    0.3100000000E+02    0.1323933032E-03    0.3019155782E-04    0.4399967306E+00    0.2148586737E-03    0.4506930128E-02
    0.3300000000E+02    0.1345497764E-03    0.3067565170E-04    0.4500035327E+00    0.2180435463E-03    0.4514902448E-02
    0.3500000000E+02    0.1365084121E-03    0.3111514290E-04    0.4592549774E+00    0.2210127152E-03    0.4522284101E-02
    0.3700000000E+02    0.1382967437E-03    0.3151632377E-04    0.4678335150E+00    0.2238079772E-03    0.4529138215E-02
    0.3900000000E+02    0.1399379474E-03    0.3188448437E-04    0.4758100147E+00    0.2264634517E-03    0.4535519129E-02
    0.4100000000E+02    0.1414516358E-03    0.3222409573E-04    0.4832457297E+00    0.2290071078E-03    0.4541473885E-02
    0.4300000000E+02    0.1428544883E-03    0.3253895533E-04    0.4901938740E+00    0.2314619575E-03    0.4547043411E-02
    0.4500000000E+02    0.1441607548E-03    0.3283230325E-04    0.4967009005E+00    0.2338469953E-03    0.4552263497E-02
    0.4700000000E+02    0.1453826618E-03    0.3310691571E-04    0.5028075411E+00    0.2361779433E-03    0.4557165571E-02
    0.4900000000E+02    0.1465307408E-03    0.3336518087E-04    0.5085496616E+00    0.2384678447E-03    0.4561777358E-02
    0.1000000000E+02    0.8287458648E-04    0.1898528751E-04    0.2485427175E+00    0.1426356895E-03    0.4356465342E-02
    0.3000000000E+02    0.1312308390E-03    0.2993048833E-04    0.4346805436E+00    0.2131697144E-03    0.4502699890E-02
    0.5000000000E+02    0.1470799898E-03    0.3348883884E-04    0.5112940806E+00    0.2396008659E-03    0.4563982175E-02
    0.7000000000E+02    0.1558498619E-03    0.3547879146E-04    0.5530872277E+00    0.2619306310E-03    0.4597531706E-02
    0.9000000000E+02    0.1627091293E-03    0.3706542852E-04    0.5794065520E+00    0.2855781086E-03    0.4618412120E-02
    0.1100000000E+03    0.1691480726E-03    0.3857827523E-04    0.5975048366E+00    0.3112457806E-03    0.4632372171E-02
    0.1300000000E+03    0.1756718650E-03    0.4012595057E-04    0.6107142860E+00    0.3387979679E-03    0.4642099077E-02
    0.1500000000E+03    0.1824616649E-03    0.4174557267E-04    0.6207804353E+00    0.3679791584E-03    0.4649024115E-02
    0.1700000000E+03    0.1895786538E-03    0.4344835359E-04    0.6287061365E+00    0.3985605996E-03    0.4653982834E-02
    0.1900000000E+03    0.1970368208E-03    0.4523564299E-04    0.6351086003E+00    0.4303628792E-03    0.4657497401E-02
    0.2100000000E+03    0.2048315211E-03    0.4710511405E-04    0.6403885209E+00    0.4632509647E-03    0.4659911776E-02
    0.2300000000E+03    0.2129513740E-03    0.4905327980E-04    0.6448173688E+00    0.4971247804E-03    0.4661462221E-02
    0.2500000000E+03    0.2213833639E-03    0.5107653429E-04    0.6485856012E+00    0.5319107497E-03    0.4662316635E-02
    0.2700000000E+03    0.2301150118E-03    0.5317156949E-04    0.6518307861E+00    0.5675552201E-03    0.4662597738E-02
    0.2900000000E+03    0.2391352351E-03    0.5533552038E-04    0.6546547705E+00    0.6040195777E-03    0.4662397363E-02
    0.3100000000E+03    0.2484346161E-03    0.5756599152E-04    0.6571345686E+00    0.6412766661E-03    0.4661785612E-02
    0.3300000000E+03    0.2580054040E-03    0.5986103396E-04    0.6593294962E+00    0.6793081636E-03    0.4660816907E-02
    0.3500000000E+03    0.2678414062E-03    0.6221910387E-04    0.6612859783E+00    0.7181026519E-03    0.4659534112E-02
    0.3700000000E+03    0.2779378409E-03    0.6463901697E-04    0.6630408713E+00    0.7576541854E-03    0.4657971405E-02
    0.3900000000E+03    0.2882911841E-03    0.6711990527E-04    0.6646238072E+00    0.7979612211E-03    0.4656156324E-02
    0.4100000000E+03    0.2988990272E-03    0.6966117810E-04    0.6660588813E+00    0.8390258129E-03    0.4654111251E-02
    0.4300000000E+03    0.3097599493E-03    0.7226248849E-04    0.6673658875E+00    0.8808529996E-03    0.4651854513E-02
    0.4500000000E+03    0.3208734071E-03    0.7492370440E-04    0.6685612375E+00    0.9234503381E-03    0.4649401197E-02
    0.4700000000E+03    0.3322396402E-03    0.7764488457E-04    0.6696586534E+00    0.9668275441E-03    0.4646763787E-02
    0.4900000000E+03    0.3438595915E-03    0.8042625825E-04    0.6706696972E+00    0.1010996216E-02    0.4643952633E-02
    0.1000000000E+03    0.1659379076E-03    0.3782169818E-04    0.5892221153E+00    0.2981615692E-03    0.4626047532E-02
    0.3000000000E+03    0.2437505534E-03    0.5644257275E-04    0.6559336360E+00    0.6225503573E-03    0.4662139197E-02
    0.5000000000E+03    0.3497651817E-03    0.8183963170E-04    0.6711459545E+00    0.1033381436E-02    0.4642484650E-02
    0.7000000000E+03    0.4818929853E-03    0.1134351771E-03    0.6778860360E+00    0.1526690833E-02    0.4605426455E-02
    0.9000000000E+03    0.6443979205E-03    0.1522533574E-03    0.6816898216E+00    0.2122894590E-02    0.4554842080E-02
    0.1100000000E+04    0.8456291862E-03    0.2002920382E-03    0.6841327260E+00    0.2854461382E-02    0.4489699112E-02
    0.1300000000E+04    0.1098460742E-02    0.2606260895E-03    0.6858341225E+00    0.3769035689E-02    0.4406642621E-02
    0.1500000000E+04    0.1422249743E-02    0.3378755403E-03    0.6870870382E+00    0.4937149563E-02    0.4300032113E-02
    0.1700000000E+04    0.1846358870E-02    0.4390467201E-03    0.6880480776E+00    0.6465271359E-02    0.4161151455E-02
    0.1900000000E+04    0.2415833579E-02    0.5748876722E-03    0.6888085372E+00    0.8516611465E-02    0.3976788569E-02
    0.2100000000E+04    0.3199467747E-02    0.7618143387E-03    0.6894252355E+00    0.1134077983E-01    0.3727390259E-02
    0.2300000000E+04    0.4296885870E-02    0.1023604831E-02    0.6899353845E+00    0.1530055121E-01    0.3386282125E-02
    0.2500000000E+04    0.5826381448E-02    0.1388508445E-02    0.6903643747E+00    0.2083048440E-01    0.2926149985E-02
    0.2700000000E+04    0.7841099737E-02    0.1869265298E-02    0.6907301243E+00    0.2813788087E-01    0.2347922020E-02
    0.2900000000E+04    0.1014320501E-01    0.2418769519E-02    0.6910456393E+00    0.3653036222E-01    0.1733603232E-02
    0.3100000000E+04    0.1225656818E-01    0.2923487604E-02    0.6913205889E+00    0.4430087874E-01    0.1234344728E-02
    0.3300000000E+04    0.1384490725E-01    0.3303152204E-02    0.6915623110E+00    0.5022388246E-01    0.9314328205E-03
    0.3500000000E+04    0.1495552369E-01    0.3568967292E-02    0.6917764747E+00    0.5445047409E-01    0.7843070480E-03
    0.3700000000E+04    0.1577860689E-01    0.3766254997E-02    0.6919675295E+00    0.5765552419E-01    0.7215943314E-03
    0.3900000000E+04    0.1645417088E-01    0.3928398273E-02    0.6921390161E+00    0.6034021586E-01    0.6968948998E-03
    0.4100000000E+04    0.1705440122E-01    0.4072611773E-02    0.6922937874E+00    0.6276388272E-01    0.6880096866E-03
    0.4300000000E+04    0.1761212664E-01    0.4206724672E-02    0.6924341675E+00    0.6504453926E-01    0.6854978859E-03
    0.4500000000E+04    0.1814180968E-01    0.4334185192E-02    0.6925620692E+00    0.6723397102E-01    0.6855131230E-03
    0.4700000000E+04    0.1864995847E-01    0.4456543830E-02    0.6926790806E+00    0.6935519296E-01    0.6865088533E-03
    0.4900000000E+04    0.1913971211E-01    0.4574547231E-02    0.6927865315E+00    0.7141901418E-01    0.6878648445E-03
    0.1000000000E+04    0.7394905466E-03    0.1749571120E-03    0.6830312687E+00    0.2469204543E-02    0.4524251271E-02
    0.3000000000E+04    0.1125389404E-01    0.2683983238E-02    0.6911876806E+00    0.4060339829E-01    0.1461155425E-02
    0.5000000000E+04    0.1937825449E-01    0.4632049500E-02    0.6928370294E+00    0.7243126670E-01    0.6885930349E-03
    0.7000000000E+04    0.2342119238E-01    0.5609682390E-02    0.6935433543E+00    0.9040043046E-01    0.7019039483E-03
    0.9000000000E+04    0.2640472623E-01    0.6335930739E-02    0.6939345679E+00    0.1049667337E+00    0.7120254959E-03
    0.1100000000E+05    0.2865392335E-01    0.6887400330E-02    0.6941825267E+00    0.1170660599E+00    0.7201661196E-03
    0.1300000000E+05    0.3037661443E-01    0.7313160613E-02    0.6943534094E+00    0.1273139583E+00    0.7269888800E-03
    0.1500000000E+05    0.3171150014E-01    0.7646023982E-02    0.6944781068E+00    0.1361334883E+00    0.7328695744E-03
    0.1700000000E+05    0.3275431478E-01    0.7908684519E-02    0.6945729682E+00    0.1438254788E+00    0.7380422651E-03
    0.1900000000E+05    0.3357302239E-01    0.8117287144E-02    0.6946474534E+00    0.1506100214E+00    0.7426628318E-03
    0.2100000000E+05    0.3421703729E-01    0.8283595619E-02    0.6947074135E+00    0.1566520794E+00    0.7468404212E-03
    0.2300000000E+05    0.3472302991E-01    0.8416359210E-02    0.6947566608E+00    0.1620778922E+00    0.7506544954E-03
    0.2500000000E+05    0.3511870054E-01    0.8522202033E-02    0.6947977846E+00    0.1669858263E+00    0.7541647393E-03
    0.2700000000E+05    0.3542530071E-01    0.8606217956E-02    0.6948326050E+00    0.1714537525E+00    0.7574171446E-03
    0.2900000000E+05    0.3565935884E-01    0.8672378257E-02    0.6948624382E+00    0.1755441850E+00    0.7604479163E-03
    0.3100000000E+05    0.3583388671E-01    0.8723816988E-02    0.6948882595E+00    0.1793079395E+00    0.7632860754E-03
    0.3300000000E+05    0.3595923902E-01    0.8763034534E-02    0.6949108067E+00    0.1827867859E+00    0.7659552491E-03
    0.3500000000E+05    0.3604373624E-01    0.8792045308E-02    0.6949306480E+00    0.1860154053E+00    0.7684749342E-03
    0.3700000000E+05    0.3609412282E-01    0.8812486555E-02    0.6949482282E+00    0.1890228565E+00    0.7708614109E-03
    0.3900000000E+05    0.3611590900E-01    0.8825699615E-02    0.6949639004E+00    0.1918336902E+00    0.7731284157E-03
    0.4100000000E+05    0.3611362900E-01    0.8832791384E-02    0.6949779482E+00    0.1944688054E+00    0.7752876476E-03
    0.4300000000E+05    0.3609103817E-01    0.8834681338E-02    0.6949906022E+00    0.1969461167E+00    0.7773491535E-03
    0.4500000000E+05    0.3605126535E-01    0.8832137879E-02    0.6950020515E+00    0.1992810788E+00    0.7793216263E-03
    0.4700000000E+05    0.3599693144E-01    0.8825806711E-02    0.6950124529E+00    0.2014871027E+00    0.7812126390E-03
    0.4900000000E+05    0.3593024281E-01    0.8816233183E-02    0.6950219374E+00    0.2035758899E+00    0.7830288299E-03
    0.1000000000E+05    0.2760609158E-01    0.6629967540E-02    0.6940710778E+00    0.1112806782E+00    0.7162925574E-03
    0.3000000000E+05    0.3575336286E-01    0.8699768648E-02    0.6948757996E+00    0.1774641001E+00    0.7618894862E-03
    0.5000000000E+05    0.3589286013E-01    0.8810377958E-02    0.6950263709E+00    0.2045795764E+00    0.7839107230E-03
    0.7000000000E+05    0.3482407628E-01    0.8604824314E-02    0.6950863044E+00    0.2204318939E+00    0.7987363981E-03
    0.9000000000E+05    0.3355596955E-01    0.8335950447E-02    0.6951169785E+00    0.2312181765E+00    0.8099834696E-03
    0.1100000000E+06    0.3232073598E-01    0.8065256803E-02    0.6951347950E+00    0.2392041271E+00    0.8190735166E-03
    0.1300000000E+06    0.3117607017E-01    0.7809849231E-02    0.6951459308E+00    0.2454435777E+00    0.8267162759E-03
    0.1500000000E+06    0.3013087285E-01    0.7573826223E-02    0.6951532060E+00    0.2505036347E+00    0.8333184789E-03
    0.1700000000E+06    0.2917942794E-01    0.7357064739E-02    0.6951580803E+00    0.2547210602E+00    0.8391354124E-03
    0.1900000000E+06    0.2831212198E-01    0.7158089120E-02    0.6951613789E+00    0.2583105786E+00    0.8443380530E-03
    0.2100000000E+06    0.2751902082E-01    0.6975089799E-02    0.6951636005E+00    0.2614166807E+00    0.8490466361E-03
    0.2300000000E+06    0.2679102827E-01    0.6806293139E-02    0.6951650623E+00    0.2641407908E+00    0.8533489955E-03
    0.2500000000E+06    0.2612017929E-01    0.6650086884E-02    0.6951659742E+00    0.2665565666E+00    0.8573112862E-03
    0.2700000000E+06    0.2549962269E-01    0.6505050444E-02    0.6951664803E+00    0.2687190191E+00    0.8609846017E-03
    0.2900000000E+06    0.2492350212E-01    0.6369948626E-02    0.6951666817E+00    0.2706702072E+00    0.8644092398E-03
    0.3100000000E+06    0.2438681513E-01    0.6243712668E-02    0.6951666516E+00    0.2724429343E+00    0.8676175549E-03
    0.3300000000E+06    0.2388527962E-01    0.6125418356E-02    0.6951664435E+00    0.2740632269E+00    0.8706359248E-03
    0.3500000000E+06    0.2341521712E-01    0.6014265135E-02    0.6951660977E+00    0.2755520448E+00    0.8734861426E-03
    0.3700000000E+06    0.2297345430E-01    0.5909557545E-02    0.6951656446E+00    0.2769264897E+00    0.8761864250E-03
    0.3900000000E+06    0.2255724109E-01    0.5810689283E-02    0.6951651077E+00    0.2782006774E+00    0.8787521574E-03
    0.4100000000E+06    0.2216418328E-01    0.5717129741E-02    0.6951645050E+00    0.2793863804E+00    0.8811964536E-03
    0.4300000000E+06    0.2179218693E-01    0.5628412723E-02    0.6951638509E+00    0.2804935075E+00    0.8835305843E-03
    0.4500000000E+06    0.2143941262E-01    0.5544127013E-02    0.6951631567E+00    0.2815304693E+00    0.8857643079E-03
    0.4700000000E+06    0.2110423766E-01    0.5463908496E-02    0.6951624313E+00    0.2825044585E+00    0.8879061305E-03
    0.4900000000E+06    0.2078522467E-01    0.5387433557E-02    0.6951616822E+00    0.2834216689E+00    0.8899635128E-03
    0.1000000000E+06    0.3292878100E-01    0.8199276067E-02    0.6951269893E+00    0.2354791161E+00    0.8147438768E-03
    0.3000000000E+06    0.2465051249E-01    0.6305783311E-02    0.6951666918E+00    0.2715771159E+00    0.8660386676E-03
    0.5000000000E+06    0.2063137391E-01    0.5350508494E-02    0.6951613005E+00    0.2838606877E+00    0.8909626255E-03
    0.7000000000E+06    0.1815645369E-01    0.4752609027E-02    0.6951533619E+00    0.2906528584E+00    0.9077676111E-03
    0.9000000000E+06    0.1643011552E-01    0.4331112968E-02    0.6951457919E+00    0.2951269844E+00    0.9205249158E-03
    0.1100000000E+07    0.1513443631E-01    0.4012263065E-02    0.6951389403E+00    0.2983633569E+00    0.9308395548E-03
    0.1300000000E+07    0.1411394629E-01    0.3759553038E-02    0.6951327735E+00    0.3008462267E+00    0.9395140905E-03
    0.1500000000E+07    0.1328224044E-01    0.3552516134E-02    0.6951271975E+00    0.3028298320E+00    0.9470088882E-03
    0.1700000000E+07    0.1258686165E-01    0.3378641523E-02    0.6951221213E+00    0.3044623216E+00    0.9536130844E-03
    0.1900000000E+07    0.1199382978E-01    0.3229779297E-02    0.6951174677E+00    0.3058366992E+00    0.9595204167E-03
    0.2100000000E+07    0.1148001230E-01    0.3100354667E-02    0.6951131741E+00    0.3070147158E+00    0.9648671748E-03
    0.2300000000E+07    0.1102902961E-01    0.2986403799E-02    0.6951091898E+00    0.3080392082E+00    0.9697529474E-03
    0.2500000000E+07    0.1062890727E-01    0.2885018218E-02    0.6951054736E+00    0.3089409572E+00    0.9742527600E-03
    0.2700000000E+07    0.1027065644E-01    0.2794007421E-02    0.6951019917E+00    0.3097427310E+00    0.9784245675E-03
    0.2900000000E+07    0.9947377336E-02    0.2711684952E-02    0.6950987162E+00    0.3104617841E+00    0.9823140860E-03
    0.3100000000E+07    0.9653671814E-02    0.2636727794E-02    0.6950956237E+00    0.3111114648E+00    0.9859580253E-03
    0.3300000000E+07    0.9385246459E-02    0.2568081031E-02    0.6950926948E+00    0.3117022842E+00    0.9893863167E-03
    0.3500000000E+07    0.9138637021E-02    0.2504891499E-02    0.6950899127E+00    0.3122426480E+00    0.9926236919E-03
    0.3700000000E+07    0.8911012657E-02    0.2446460514E-02    0.6950872631E+00    0.3127393699E+00    0.9956908257E-03
    0.3900000000E+07    0.8700033950E-02    0.2392209509E-02    0.6950847339E+00    0.3131980397E+00    0.9986051805E-03
    0.4100000000E+07    0.8503748073E-02    0.2341654607E-02    0.6950823144E+00    0.3136232924E+00    0.1001381642E-02
    0.4300000000E+07    0.8320510103E-02    0.2294387491E-02    0.6950799953E+00    0.3140190081E+00    0.1004033003E-02
    0.4500000000E+07    0.8148923109E-02    0.2250060813E-02    0.6950777683E+00    0.3143884635E+00    0.1006570343E-02
    0.4700000000E+07    0.7987791920E-02    0.2208376914E-02    0.6950756264E+00    0.3147344475E+00    0.1009003318E-02
    0.4900000000E+07    0.7836087033E-02    0.2169079003E-02    0.6950735631E+00    0.3150593506E+00    0.1011340397E-02
    0.1000000000E+07    0.1574042392E-01    0.4161662569E-02    0.6951422755E+00    0.2968618796E+00    0.9259262495E-03
    0.3000000000E+07    0.9797118408E-02    0.2673357035E-02    0.6950971484E+00    0.3107945824E+00    0.9841647445E-03
    0.5000000000E+07    0.7763485900E-02    0.2150253973E-02    0.6950725591E+00    0.3152145525E+00    0.1012475345E-02
    0.7000000000E+07    0.6641292587E-02    0.1857684160E-02    0.6950555023E+00    0.3175905288E+00    0.1031565735E-02
    0.9000000000E+07    0.5903160554E-02    0.1663466671E-02    0.6950423792E+00    0.3191306902E+00    0.1046058618E-02
    0.1100000000E+08    0.5369704793E-02    0.1522116158E-02    0.6950316849E+00    0.3202331242E+00    0.1057776799E-02
    0.1300000000E+08    0.4960664725E-02    0.1413115520E-02    0.6950226439E+00    0.3210726052E+00    0.1067631846E-02
    0.1500000000E+08    0.4633973144E-02    0.1325642929E-02    0.6950148033E+00    0.3217395495E+00    0.1076146686E-02
    0.1700000000E+08    0.4365149942E-02    0.1253368097E-02    0.6950078750E+00    0.3222860626E+00    0.1083649762E-02
    0.1900000000E+08    0.4138843547E-02    0.1192303727E-02    0.6950016642E+00    0.3227445715E+00    0.1090361157E-02
    0.2100000000E+08    0.3944869519E-02    0.1139794417E-02    0.6949960329E+00    0.3231364553E+00    0.1096435697E-02
    0.2300000000E+08    0.3776167526E-02    0.1093993048E-02    0.6949908797E+00    0.3234764590E+00    0.1101986517E-02
    0.2500000000E+08    0.3627666831E-02    0.1053568959E-02    0.6949861278E+00    0.3237751259E+00    0.1107098850E-02
    0.2700000000E+08    0.3495618197E-02    0.1017535546E-02    0.6949817177E+00    0.3240402222E+00    0.1111838537E-02
