  Pressure (Pa) 22mC5-500 (mol/kg) 23mC5-500 (mol/kg) 24mC5-500 (mol/kg) 2mC6-500 (mol/kg) C7-500 (mol/kg)
    0.1000000000E+01    0.1021002463E-04    0.2344234289E-05    0.1741078481E+00    0.5251762973E-05    0.4180687009E-02
    0.3000000000E+01    0.1892483681E-04    0.4330281904E-05    0.3481228096E+00    0.9244389452E-05    0.4209606217E-02
    0.5000000000E+01    0.2260703234E-04    0.5162976636E-05    0.4350971964E+00    0.1085414516E-04    0.4222463003E-02
    0.7000000000E+01    0.2461986994E-04    0.5617147713E-05    0.4872720390E+00    0.1184933650E-04    0.4230106761E-02
    0.9000000000E+01    0.2594792023E-04    0.5917998074E-05    0.5220515220E+00    0.1266769377E-04    0.4235226169E-02
    0.1100000000E+02    0.2696110379E-04    0.6149474263E-05    0.5468923344E+00    0.1344371589E-04    0.4238909995E-02
    0.1300000000E+02    0.2782062431E-04    0.6347832430E-05    0.5655221112E+00    0.1422257056E-04    0.4241692969E-02
    0.1500000000E+02    0.2860387019E-04    0.6530297060E-05    0.5800114917E+00    0.1501904276E-04    0.4243870667E-02
    0.1700000000E+02    0.2935049942E-04    0.6705584179E-05    0.5916027441E+00    0.1583676165E-04    0.4245620550E-02
    0.1900000000E+02    0.3008172903E-04    0.6878283229E-05    0.6010863474E+00    0.1667518928E-04    0.4247055953E-02
    0.2100000000E+02    0.3080919515E-04    0.7050858515E-05    0.6089892599E+00    0.1753233729E-04    0.4248252831E-02
    0.2300000000E+02    0.3153932249E-04    0.7224630239E-05    0.6156762838E+00    0.1840585613E-04    0.4249264104E-02
    0.2500000000E+02    0.3227560287E-04    0.7400282620E-05    0.6214079833E+00    0.1929346641E-04    0.4250127833E-02
    0.2700000000E+02    0.3301983728E-04    0.7578138773E-05    0.6263754339E+00    0.2019311456E-04    0.4250872138E-02
    0.2900000000E+02    0.3377283742E-04    0.7758314646E-05    0.6307219391E+00    0.2110301202E-04    0.4251518272E-02
    0.3100000000E+02    0.3453483333E-04    0.7940807550E-05    0.6345570819E+00    0.2202162654E-04    0.4252082614E-02
    0.3300000000E+02    0.3530571547E-04    0.8125548133E-05    0.6379660924E+00    0.2294765583E-04    0.4252578006E-02
    0.3500000000E+02    0.3608518089E-04    0.8312431305E-05    0.6410162566E+00    0.2387999663E-04    0.4253014668E-02
    0.3700000000E+02    0.3687282244E-04    0.8501334770E-05    0.6437614028E+00    0.2481771499E-04    0.4253400844E-02
    0.3900000000E+02    0.3766818344E-04    0.8692130129E-05    0.6462451060E+00    0.2576001958E-04    0.4253743258E-02
    0.4100000000E+02    0.3847079109E-04    0.8884689461E-05    0.6485030180E+00    0.2670623882E-04    0.4254047460E-02
    0.4300000000E+02    0.3928017668E-04    0.9078889112E-05    0.6505645902E+00    0.2765580149E-04    0.4254318069E-02
    0.4500000000E+02    0.4009588748E-04    0.9274611775E-05    0.6524543655E+00    0.2860822061E-04    0.4254558967E-02
    0.4700000000E+02    0.4091749332E-04    0.9471747500E-05    0.6541929596E+00    0.2956307997E-04    0.4254773441E-02
    0.4900000000E+02    0.4174458989E-04    0.9670194054E-05    0.6557978167E+00    0.3052002299E-04    0.4254964292E-02
    0.1000000000E+02    0.2648097089E-04    0.6039499139E-05    0.5354275086E+00    0.1305708346E-04    0.4237206298E-02
    0.3000000000E+02    0.3415271186E-04    0.7849274680E-05    0.6326976196E+00    0.2156131607E-04    0.4251809794E-02
    0.5000000000E+02    0.4216007825E-04    0.9769879048E-05    0.6565548250E+00    0.3099917843E-04    0.4255051624E-02
    0.7000000000E+02    0.5068061589E-04    0.1181321480E-04    0.6673396356E+00    0.4063681919E-04    0.4255996043E-02
    0.9000000000E+02    0.5946479291E-04    0.1391772522E-04    0.6734858489E+00    0.5030707321E-04    0.4256036156E-02
    0.1100000000E+03    0.6839847799E-04    0.1605627817E-04    0.6774564141E+00    0.5997069812E-04    0.4255612228E-02
    0.1300000000E+03    0.7742732307E-04    0.1821621452E-04    0.6802328136E+00    0.6962085336E-04    0.4254912085E-02
    0.1500000000E+03    0.8652372161E-04    0.2039121840E-04    0.6822833409E+00    0.7926016412E-04    0.4254030892E-02
    0.1700000000E+03    0.9567305745E-04    0.2257801241E-04    0.6838597401E+00    0.8889398300E-04    0.4253022620E-02
    0.1900000000E+03    0.1048674901E-03    0.2477488509E-04    0.6851094066E+00    0.9852817571E-04    0.4251920414E-02
    0.2100000000E+03    0.1141029145E-03    0.2698097835E-04    0.6861243770E+00    0.1081683714E-03    0.4250745875E-02
    0.2300000000E+03    0.1233773739E-03    0.2919591892E-04    0.6869650876E+00    0.1178197325E-03    0.4249513744E-02
    0.2500000000E+03    0.1326901860E-03    0.3141961718E-04    0.6876728647E+00    0.1274869156E-03    0.4248234452E-02
    0.2700000000E+03    0.1420414408E-03    0.3365215273E-04    0.6882769245E+00    0.1371741029E-03    0.4246915601E-02
    0.2900000000E+03    0.1514317030E-03    0.3589370691E-04    0.6887985061E+00    0.1468850545E-03    0.4245562867E-02
    0.3100000000E+03    0.1608618293E-03    0.3814452208E-04    0.6892534203E+00    0.1566231643E-03    0.4244180576E-02
    0.3300000000E+03    0.1703328549E-03    0.4040487648E-04    0.6896536794E+00    0.1663915110E-03    0.4242772078E-02
    0.3500000000E+03    0.1798459218E-03    0.4267506848E-04    0.6900085734E+00    0.1761929041E-03    0.4241340009E-02
    0.3700000000E+03    0.1894022324E-03    0.4495540666E-04    0.6903253998E+00    0.1860299222E-03    0.4239886466E-02
    0.3900000000E+03    0.1990030196E-03    0.4724620360E-04    0.6906099706E+00    0.1959049465E-03    0.4238413133E-02
    0.4100000000E+03    0.2086495283E-03    0.4954777190E-04    0.6908669722E+00    0.2058201883E-03    0.4236921378E-02
    0.4300000000E+03    0.2183430026E-03    0.5186042181E-04    0.6911002248E+00    0.2157777126E-03    0.4235412316E-02
    0.4500000000E+03    0.2280846784E-03    0.5418445981E-04    0.6913128742E+00    0.2257794583E-03    0.4233886862E-02
    0.4700000000E+03    0.2378757794E-03    0.5652018781E-04    0.6915075341E+00    0.2358272549E-03    0.4232345773E-02
    0.4900000000E+03    0.2477175136E-03    0.5886790287E-04    0.6916863939E+00    0.2459228369E-03    0.4230789672E-02
    0.1000000000E+03    0.6391721761E-04    0.1498374608E-04    0.6756638783E+00    0.5514050120E-04    0.4255867293E-02
    0.3000000000E+03    0.1561417216E-03    0.3701794011E-04    0.6890334715E+00    0.1517505154E-03    0.4244875187E-02
    0.5000000000E+03    0.2526577413E-03    0.6004634701E-04    0.6917704878E+00    0.2509890666E-03    0.4230006159E-02
    0.7000000000E+03    0.3544035007E-03    0.8431350468E-04    0.6929497522E+00    0.3551919003E-03    0.4213633636E-02
    0.9000000000E+03    0.4624965058E-03    0.1100906539E-03    0.6936063757E+00    0.4657577877E-03    0.4195999442E-02
    0.1100000000E+04    0.5779992048E-03    0.1376329296E-03    0.6940246943E+00    0.5838615065E-03    0.4177080424E-02
    0.1300000000E+04    0.7020056034E-03    0.1672020703E-03    0.6943144626E+00    0.7106635355E-03    0.4156772626E-02
    0.1500000000E+04    0.8357017965E-03    0.1990814115E-03    0.6945270120E+00    0.8474019380E-03    0.4134929872E-02
    0.1700000000E+04    0.9804130240E-03    0.2335873079E-03    0.6946895576E+00    0.9954507226E-03    0.4111372902E-02
    0.1900000000E+04    0.1137647801E-02    0.2710797454E-03    0.6948178720E+00    0.1156369357E-02    0.4085889612E-02
    0.2100000000E+04    0.1309145041E-02    0.3119736241E-03    0.6949217267E+00    0.1331953278E-02    0.4058231477E-02
    0.2300000000E+04    0.1496928193E-02    0.3567516968E-03    0.6950074980E+00    0.1524290813E-02    0.4028107610E-02
    0.2500000000E+04    0.1703369931E-02    0.4059800153E-03    0.6950795238E+00    0.1735830660E-02    0.3995176773E-02
    0.2700000000E+04    0.1931271070E-02    0.4603267694E-03    0.6951408575E+00    0.1969463951E-02    0.3959037203E-02
    0.2900000000E+04    0.2183957983E-02    0.5205855377E-03    0.6951937111E+00    0.2228625480E-02    0.3919213897E-02
    0.3100000000E+04    0.2465403608E-02    0.5877041680E-03    0.6952397258E+00    0.2517419441E-02    0.3875142853E-02
    0.3300000000E+04    0.2780378136E-02    0.6628207440E-03    0.6952801452E+00    0.2840776123E-02    0.3826151624E-02
    0.3500000000E+04    0.3134636500E-02    0.7473083345E-03    0.6953159289E+00    0.3204647057E-02    0.3771435491E-02
    0.3700000000E+04    0.3535150370E-02    0.8428303741E-03    0.6953478288E+00    0.3616246854E-02    0.3710028603E-02
    0.3900000000E+04    0.3990391930E-02    0.9514084084E-03    0.6953764430E+00    0.4084349565E-02    0.3640769678E-02
    0.4100000000E+04    0.4510673474E-02    0.1075503182E-02    0.6954022525E+00    0.4619644295E-02    0.3562262637E-02
    0.4300000000E+04    0.5108537971E-02    0.1218107915E-02    0.6954256490E+00    0.5235145807E-02    0.3472834207E-02
    0.4500000000E+04    0.5799175355E-02    0.1382847772E-02    0.6954469546E+00    0.5946635177E-02    0.3370493983E-02
    0.4700000000E+04    0.6600797281E-02    0.1574069483E-02    0.6954664365E+00    0.6773062563E-02    0.3252909051E-02
    0.4900000000E+04    0.7534823071E-02    0.1796886032E-02    0.6954843183E+00    0.7736761913E-02    0.3117417148E-02
    0.1000000000E+04    0.5192548183E-03    0.1236251497E-03    0.6938364115E+00    0.5237958915E-03    0.4186705828E-02
    0.3000000000E+04    0.2320808504E-02    0.5532211757E-03    0.6952174878E+00    0.2369031705E-02    0.3897748572E-02
    0.5000000000E+04    0.8059003590E-02    0.1921936812E-02    0.6954927193E+00    0.8277944514E-02    0.3042054788E-02
    0.7000000000E+04    0.2691943238E-01    0.6424171436E-02    0.6956100159E+00    0.2795004681E-01    0.6683431776E-03
    0.9000000000E+04    0.3633730773E-01    0.8680011242E-02    0.6956747820E+00    0.3832233992E-01    0.1419589896E-03
    0.1100000000E+05    0.4127747926E-01    0.9869368418E-02    0.6957157324E+00    0.4420366707E-01    0.1330037177E-03
    0.1300000000E+05    0.4544812602E-01    0.1087634580E-01    0.6957438945E+00    0.4938567333E-01    0.1340481778E-03
    0.1500000000E+05    0.4905923329E-01    0.1175066102E-01    0.6957644061E+00    0.5405884641E-01    0.1351157676E-03
    0.1700000000E+05    0.5220973105E-01    0.1251562801E-01    0.6957799821E+00    0.5830498349E-01    0.1360601924E-03
    0.1900000000E+05    0.5497583795E-01    0.1318921913E-01    0.6957921916E+00    0.6218760941E-01    0.1369049388E-03
    0.2100000000E+05    0.5741809690E-01    0.1378572248E-01    0.6958020040E+00    0.6575784316E-01    0.1376694320E-03
    0.2300000000E+05    0.5958520478E-01    0.1431664043E-01    0.6958100502E+00    0.6905734449E-01    0.1383679435E-03
    0.2500000000E+05    0.6151675428E-01    0.1479133305E-01    0.6958167586E+00    0.7212043129E-01    0.1390112234E-03
    0.2700000000E+05    0.6324525015E-01    0.1521749146E-01    0.6958224298E+00    0.7497564883E-01    0.1396075734E-03
    0.2900000000E+05    0.6479761439E-01    0.1560149149E-01    0.6958272812E+00    0.7764695064E-01    0.1401635404E-03
    0.3100000000E+05    0.6619632512E-01    0.1594866126E-01    0.6958314737E+00    0.8015459909E-01    0.1406843803E-03
    0.3300000000E+05    0.6746028873E-01    0.1626348627E-01    0.6958351288E+00    0.8251586060E-01    0.1411743776E-03
    0.3500000000E+05    0.6860551540E-01    0.1654976836E-01    0.6958383404E+00    0.8474554838E-01    0.1416370721E-03
    0.3700000000E+05    0.6964564758E-01    0.1681075006E-01    0.6958411815E+00    0.8685645039E-01    0.1420754225E-03
    0.3900000000E+05    0.7059237744E-01    0.1704921288E-01    0.6958437102E+00    0.8885967001E-01    0.1424919272E-03
    0.4100000000E+05    0.7145577944E-01    0.1726755573E-01    0.6958459733E+00    0.9076489966E-01    0.1428887161E-03
    0.4300000000E+05    0.7224457749E-01    0.1746785785E-01    0.6958480086E+00    0.9258064229E-01    0.1432676194E-03
    0.4500000000E+05    0.7296636115E-01    0.1765192980E-01    0.6958498472E+00    0.9431439201E-01    0.1436302216E-03
    0.4700000000E+05    0.7362776184E-01    0.1782135507E-01    0.6958515148E+00    0.9597278253E-01    0.1439779040E-03
    0.4900000000E+05    0.7423459738E-01    0.1797752419E-01    0.6958530330E+00    0.9756170977E-01    0.1443118779E-03
    0.1000000000E+05    0.3893506084E-01    0.9304970780E-02    0.6956973378E+00    0.4138114169E-01    0.1335259023E-03
    0.3000000000E+05    0.6551491982E-01    0.1577938212E-01    0.6958294514E+00    0.7892008917E-01    0.1404280637E-03
    0.5000000000E+05    0.7451917862E-01    0.1805102651E-01    0.6958537417E+00    0.9833179090E-01    0.1444740631E-03
    0.7000000000E+05    0.7831486355E-01    0.1905732428E-01    0.6958632465E+00    0.1111070131E+00    0.1472019800E-03
    0.9000000000E+05    0.7998428839E-01    0.1953806680E-01    0.6958680178E+00    0.1205525333E+00    0.1492728385E-03
    0.1100000000E+06    0.8062898901E-01    0.1976049920E-01    0.6958707258E+00    0.1280243823E+00    0.1509471952E-03
    0.1300000000E+06    0.8072850839E-01    0.1984230180E-01    0.6958723707E+00    0.1341985212E+00    0.1523553290E-03
    0.1500000000E+06    0.8051963451E-01    0.1984230375E-01    0.6958734069E+00    0.1394570261E+00    0.1535719680E-03
    0.1700000000E+06    0.8012992252E-01    0.1979262605E-01    0.6958740679E+00    0.1440357199E+00    0.1546440449E-03
    0.1900000000E+06    0.7963255610E-01    0.1971197537E-01    0.6958744854E+00    0.1480899420E+00    0.1556030070E-03
    0.2100000000E+06    0.7907153799E-01    0.1961178973E-01    0.6958747382E+00    0.1517272658E+00    0.1564709766E-03
    0.2300000000E+06    0.7847427132E-01    0.1949932977E-01    0.6958748763E+00    0.1550251990E+00    0.1572641186E-03
    0.2500000000E+06    0.7785827139E-01    0.1937934016E-01    0.6958749326E+00    0.1580414094E+00    0.1579946111E-03
    0.2700000000E+06    0.7723494124E-01    0.1925499152E-01    0.6958749293E+00    0.1608199584E+00    0.1586718609E-03
    0.2900000000E+06    0.7661178987E-01    0.1912843836E-01    0.6958748822E+00    0.1633952695E+00    0.1593032888E-03
    0.3100000000E+06    0.7599378356E-01    0.1900116204E-01    0.6958748024E+00    0.1657947511E+00    0.1598948533E-03
    0.3300000000E+06    0.7538419466E-01    0.1887418816E-01    0.6958746980E+00    0.1680405848E+00    0.1604514128E-03
    0.3500000000E+06    0.7478514861E-01    0.1874822805E-01    0.6958745752E+00    0.1701509780E+00    0.1609769818E-03
    0.3700000000E+06    0.7419798448E-01    0.1862377313E-01    0.6958744384E+00    0.1721410628E+00    0.1614749162E-03
    0.3900000000E+06    0.7362349706E-01    0.1850115891E-01    0.6958742911E+00    0.1740235540E+00    0.1619480504E-03
    0.4100000000E+06    0.7306210219E-01    0.1838060933E-01    0.6958741360E+00    0.1758092400E+00    0.1623988007E-03
    0.4300000000E+06    0.7251395112E-01    0.1826226780E-01    0.6958739752E+00    0.1775073548E+00    0.1628292438E-03
    0.4500000000E+06    0.7197901067E-01    0.1814621938E-01    0.6958738102E+00    0.1791258641E+00    0.1632411778E-03
    0.4700000000E+06    0.7145711985E-01    0.1803250659E-01    0.6958736423E+00    0.1806716886E+00    0.1636361703E-03
    0.4900000000E+06    0.7094803032E-01    0.1792114106E-01    0.6958734725E+00    0.1821508800E+00    0.1640155961E-03
    0.1000000000E+06    0.8039654629E-01    0.1967223191E-01    0.6958695478E+00    0.1244833352E+00    0.1501496256E-03
    0.3000000000E+06    0.7630190690E-01    0.1906481776E-01    0.6958748458E+00    0.1646154969E+00    0.1596037279E-03
    0.5000000000E+06    0.7069819183E-01    0.1786633581E-01    0.6958733871E+00    0.1828671769E+00    0.1641998561E-03
    0.7000000000E+06    0.6628695362E-01    0.1688462060E-01    0.6958717062E+00    0.1947064118E+00    0.1672992649E-03
    0.9000000000E+06    0.6275634019E-01    0.1608313115E-01    0.6958701813E+00    0.2034088571E+00    0.1696523317E-03
    0.1100000000E+07    0.5984501357E-01    0.1541353532E-01    0.6958688311E+00    0.2102449358E+00    0.1715549509E-03
    0.1300000000E+07    0.5738397393E-01    0.1484199445E-01    0.6958676309E+00    0.2158439824E+00    0.1731551001E-03
    0.1500000000E+07    0.5526233364E-01    0.1434547838E-01    0.6958665544E+00    0.2205643053E+00    0.1745376693E-03
    0.1700000000E+07    0.5340447462E-01    0.1390792753E-01    0.6958655800E+00    0.2246293767E+00    0.1757559779E-03
    0.1900000000E+07    0.5175687487E-01    0.1351779612E-01    0.6958646906E+00    0.2281879033E+00    0.1768457544E-03
    0.2100000000E+07    0.5028041052E-01    0.1316654376E-01    0.6958638726E+00    0.2313437686E+00    0.1778321340E-03
    0.2300000000E+07    0.4894568918E-01    0.1284769339E-01    0.6958631156E+00    0.2341723475E+00    0.1787334837E-03
    0.2500000000E+07    0.4773011037E-01    0.1255622550E-01    0.6958624111E+00    0.2367300201E+00    0.1795636411E-03
    0.2700000000E+07    0.4661594751E-01    0.1228817674E-01    0.6958617522E+00    0.2390600264E+00    0.1803332950E-03
    0.2900000000E+07    0.4558905670E-01    0.1204036644E-01    0.6958611333E+00    0.2411962303E+00    0.1810508775E-03
    0.3100000000E+07    0.4463798335E-01    0.1181020557E-01    0.6958605497E+00    0.2431656289E+00    0.1817231596E-03
    0.3300000000E+07    0.4375332898E-01    0.1159556012E-01    0.6958599977E+00    0.2449900770E+00    0.1823556621E-03
    0.3500000000E+07    0.4292729271E-01    0.1139465156E-01    0.6958594739E+00    0.2466875040E+00    0.1829529467E-03
    0.3700000000E+07    0.4215333297E-01    0.1120598289E-01    0.6958589755E+00    0.2482727920E+00    0.1835188268E-03
    0.3900000000E+07    0.4142591360E-01    0.1102828283E-01    0.6958585001E+00    0.2497584227E+00    0.1840565237E-03
    0.4100000000E+07    0.4074031049E-01    0.1086046316E-01    0.6958580456E+00    0.2511549619E+00    0.1845687829E-03
    0.4300000000E+07    0.4009246219E-01    0.1070158555E-01    0.6958576103E+00    0.2524714281E+00    0.1850579645E-03
    0.4500000000E+07    0.3947885320E-01    0.1055083557E-01    0.6958571926E+00    0.2537155768E+00    0.1855261118E-03
    0.4700000000E+07    0.3889642159E-01    0.1040750209E-01    0.6958567910E+00    0.2548941235E+00    0.1859750061E-03
    0.4900000000E+07    0.3834248531E-01    0.1027096066E-01    0.6958564044E+00    0.2560129190E+00    0.1864062099E-03
    0.1000000000E+07    0.6123554759E-01    0.1573426990E-01    0.6958694857E+00    0.2070119994E+00    0.1706486415E-03
    0.3000000000E+07    0.4510467237E-01    0.1192322255E-01    0.6958608373E+00    0.2422003100E+00    0.1813923107E-03
    0.5000000000E+07    0.3807545379E-01    0.1020506221E-01    0.6958562164E+00    0.2565515371E+00    0.1866156148E-03
    0.7000000000E+07    0.3378212053E-01    0.9138561594E-02    0.6958530272E+00    0.2651532842E+00    0.1901379942E-03
    0.9000000000E+07    0.3077801669E-01    0.8384268246E-02    0.6958505797E+00    0.2711147218E+00    0.1928121890E-03
    0.1100000000E+08    0.2851106665E-01    0.7810470358E-02    0.6958485883E+00    0.2755867818E+00    0.1949744662E-03
    0.1300000000E+08    0.2671532257E-01    0.7353011140E-02    0.6958469065E+00    0.2791149177E+00    0.1967929955E-03
    0.1500000000E+08    0.2524371270E-01    0.6976113139E-02    0.6958454492E+00    0.2819976222E+00    0.1983642513E-03
    0.1700000000E+08    0.2400701774E-01    0.6657926054E-02    0.6958441621E+00    0.2844146331E+00    0.1997488291E-03
    0.1900000000E+08    0.2294737452E-01    0.6384199122E-02    0.6958430090E+00    0.2864818709E+00    0.2009873335E-03
    0.2100000000E+08    0.2202530572E-01    0.6145162776E-02    0.6958419638E+00    0.2882780783E+00    0.2021083298E-03
    0.2300000000E+08    0.2121278368E-01    0.5933851628E-02    0.6958410077E+00    0.2898589631E+00    0.2031326917E-03
    0.2500000000E+08    0.2048925922E-01    0.5745139651E-02    0.6958401262E+00    0.2912652501E+00    0.2040761450E-03
    0.2700000000E+08    0.1983926082E-01    0.5575154424E-02    0.6958393084E+00    0.2925275257E+00    0.2049508376E-03
