  Pressure (Pa) 22mC5-500 (mol/kg) 23mC5-500 (mol/kg) 24mC5-500 (mol/kg) 2mC6-500 (mol/kg) C7-500 (mol/kg)
    0.1000000000E+01    0.9699577147E-05    0.5565070089E-06    0.1949940948E+00    0.7422036804E-05    0.4189355729E-02
    0.3000000000E+01    0.1719079783E-04    0.9826986624E-06    0.3748849619E+00    0.1247818409E-04    0.4221011227E-02
    0.5000000000E+01    0.2013635634E-04    0.1148950708E-05    0.4597065519E+00    0.1444094981E-04    0.4235051295E-02
    0.7000000000E+01    0.2172672544E-04    0.1238722514E-05    0.5090714925E+00    0.1573695657E-04    0.4243278420E-02
    0.9000000000E+01    0.2280530499E-04    0.1300086052E-05    0.5413687935E+00    0.1688563668E-04    0.4248736512E-02
    0.1100000000E+02    0.2366743665E-04    0.1349708531E-05    0.5641454890E+00    0.1802588606E-04    0.4252640814E-02
    0.1300000000E+02    0.2443441350E-04    0.1394355144E-05    0.5810706018E+00    0.1919603684E-04    0.4255579488E-02
    0.1500000000E+02    0.2516121420E-04    0.1437048189E-05    0.5941424742E+00    0.2040392396E-04    0.4257873868E-02
    0.1700000000E+02    0.2587431223E-04    0.1479215552E-05    0.6045425112E+00    0.2164778219E-04    0.4259715141E-02
    0.1900000000E+02    0.2658685127E-04    0.1521547358E-05    0.6130139362E+00    0.2292313311E-04    0.4261224551E-02
    0.2100000000E+02    0.2730535708E-04    0.1564372079E-05    0.6200477047E+00    0.2422514500E-04    0.4262482915E-02
    0.2300000000E+02    0.2803293030E-04    0.1607833981E-05    0.6259811654E+00    0.2554940953E-04    0.4263546291E-02
    0.2500000000E+02    0.2877085226E-04    0.1651981514E-05    0.6310537765E+00    0.2689214317E-04    0.4264454864E-02
    0.2700000000E+02    0.2951942769E-04    0.1696813183E-05    0.6354402116E+00    0.2825018178E-04    0.4265238241E-02
    0.2900000000E+02    0.3027844150E-04    0.1742302071E-05    0.6392708806E+00    0.2962090813E-04    0.4265918751E-02
    0.3100000000E+02    0.3104741195E-04    0.1788409201E-05    0.6426451156E+00    0.3100216552E-04    0.4266513573E-02
    0.3300000000E+02    0.3182573291E-04    0.1835090881E-05    0.6456399078E+00    0.3239217694E-04    0.4267036158E-02
    0.3500000000E+02    0.3261275412E-04    0.1882302718E-05    0.6483158544E+00    0.3378947554E-04    0.4267497202E-02
    0.3700000000E+02    0.3340782591E-04    0.1930001762E-05    0.6507213014E+00    0.3519284704E-04    0.4267905321E-02
    0.3900000000E+02    0.3421032352E-04    0.1978147580E-05    0.6528952909E+00    0.3660128296E-04    0.4268267544E-02
    0.4100000000E+02    0.3501965938E-04    0.2026702729E-05    0.6548696963E+00    0.3801394285E-04    0.4268589667E-02
    0.4300000000E+02    0.3583528844E-04    0.2075632879E-05    0.6566707956E+00    0.3943012391E-04    0.4268876514E-02
    0.4500000000E+02    0.3665670945E-04    0.2124906755E-05    0.6583204475E+00    0.4084923655E-04    0.4269132138E-02
    0.4700000000E+02    0.3748346393E-04    0.2174495967E-05    0.6598369831E+00    0.4227078464E-04    0.4269359970E-02
    0.4900000000E+02    0.3831513398E-04    0.2224374805E-05    0.6612358899E+00    0.4369434960E-04    0.4269562937E-02
    0.1000000000E+02    0.2325357321E-04    0.1325813440E-05    0.5536631696E+00    0.1745327900E-04    0.4250837367E-02
    0.3000000000E+02    0.3066171827E-04    0.1765281035E-05    0.6410097972E+00    0.3031033953E-04    0.4266225958E-02
    0.5000000000E+02    0.3873269214E-04    0.2249415476E-05    0.6618954278E+00    0.4440677554E-04    0.4269655895E-02
    0.7000000000E+02    0.4726663730E-04    0.2760867482E-05    0.6712690843E+00    0.5869955980E-04    0.4270667219E-02
    0.9000000000E+02    0.5602345793E-04    0.3285111225E-05    0.6765922731E+00    0.7300359097E-04    0.4270716760E-02
    0.1100000000E+03    0.6490509718E-04    0.3816391679E-05    0.6800238796E+00    0.8728620781E-04    0.4270267216E-02
    0.1300000000E+03    0.7386783512E-04    0.4352196355E-05    0.6824200120E+00    0.1015489585E-03    0.4269517252E-02
    0.1500000000E+03    0.8289082511E-04    0.4891353532E-05    0.6841878826E+00    0.1158017243E-03    0.4268568169E-02
    0.1700000000E+03    0.9196387683E-04    0.5433307408E-05    0.6855459299E+00    0.1300557961E-03    0.4267477767E-02
    0.1900000000E+03    0.1010821608E-03    0.5977807928E-05    0.6866218462E+00    0.1443218954E-03    0.4266281742E-02
    0.2100000000E+03    0.1102436991E-03    0.6524765375E-05    0.6874952673E+00    0.1586096740E-03    0.4265003479E-02
    0.2300000000E+03    0.1194480911E-03    0.7074177269E-05    0.6882184359E+00    0.1729276819E-03    0.4263659012E-02
    0.2500000000E+03    0.1286958305E-03    0.7626089588E-05    0.6888270469E+00    0.1872834776E-03    0.4262259734E-02
    0.2700000000E+03    0.1379879238E-03    0.8180575332E-05    0.6893463187E+00    0.2016837685E-03    0.4260813980E-02
    0.2900000000E+03    0.1473256699E-03    0.8737722319E-05    0.6897945739E+00    0.2161345454E-03    0.4259327996E-02
    0.3100000000E+03    0.1567105305E-03    0.9297626074E-05    0.6901854454E+00    0.2306411987E-03    0.4257806556E-02
    0.3300000000E+03    0.1661440520E-03    0.9860385651E-05    0.6905292869E+00    0.2452086173E-03    0.4256253366E-02
    0.3500000000E+03    0.1756278183E-03    0.1042610117E-04    0.6908341026E+00    0.2598412691E-03    0.4254671348E-02
    0.3700000000E+03    0.1851634229E-03    0.1099487236E-04    0.6911061778E+00    0.2745432684E-03    0.4253062827E-02
    0.3900000000E+03    0.1947524518E-03    0.1156679778E-04    0.6913505170E+00    0.2893184311E-03    0.4251429676E-02
    0.4100000000E+03    0.2043964742E-03    0.1214197438E-04    0.6915711545E+00    0.3041703200E-03    0.4249773412E-02
    0.4300000000E+03    0.2140970373E-03    0.1272049730E-04    0.6917713781E+00    0.3191022828E-03    0.4248095273E-02
    0.4500000000E+03    0.2238556642E-03    0.1330245988E-04    0.6919538947E+00    0.3341174841E-03    0.4246396274E-02
    0.4700000000E+03    0.2336738539E-03    0.1388795362E-04    0.6921209527E+00    0.3492189314E-03    0.4244677248E-02
    0.4900000000E+03    0.2435530814E-03    0.1447706839E-04    0.6922744354E+00    0.3644094981E-03    0.4242938881E-02
    0.1000000000E+03    0.6045216813E-04    0.3550073707E-05    0.6784753677E+00    0.8014782171E-04    0.4270538637E-02
    0.3000000000E+03    0.1520121156E-03    0.9017323457E-05    0.6899964713E+00    0.2233805712E-03    0.4258571455E-02
    0.5000000000E+03    0.2485160394E-03    0.1477301130E-04    0.6923465926E+00    0.3720390670E-03    0.4242062627E-02
    0.7000000000E+03    0.3513256696E-03    0.2090291285E-04    0.6933580852E+00    0.5299377726E-03    0.4223613729E-02
    0.9000000000E+03    0.4618261594E-03    0.2749061430E-04    0.6939209386E+00    0.6995147587E-03    0.4203470391E-02
    0.1100000000E+04    0.5813856968E-03    0.3461805852E-04    0.6942793505E+00    0.8829789094E-03    0.4181564758E-02
    0.1300000000E+04    0.7114752872E-03    0.4237312764E-04    0.6945275243E+00    0.1082642552E-02    0.4157721934E-02
    0.1500000000E+04    0.8537523904E-03    0.5085474772E-04    0.6947094999E+00    0.1301086413E-02    0.4131701807E-02
    0.1700000000E+04    0.1010134637E-02    0.6017732641E-04    0.6948486195E+00    0.1541285524E-02    0.4103206076E-02
    0.1900000000E+04    0.1182878129E-02    0.7047544079E-04    0.6949584077E+00    0.1806735332E-02    0.4071873641E-02
    0.2100000000E+04    0.1374669356E-02    0.8190932852E-04    0.6950472416E+00    0.2101596535E-02    0.4037269877E-02
    0.2300000000E+04    0.1588738498E-02    0.9467165105E-04    0.6951205866E+00    0.2430872238E-02    0.3998871005E-02
    0.2500000000E+04    0.1829002518E-02    0.1089960329E-03    0.6951821602E+00    0.2800631141E-02    0.3956043274E-02
    0.2700000000E+04    0.2100248207E-02    0.1251679834E-03    0.6952345789E+00    0.3218292894E-02    0.3908015974E-02
    0.2900000000E+04    0.2408367751E-02    0.1435389530E-03    0.6952797378E+00    0.3692995546E-02    0.3853846833E-02
    0.3100000000E+04    0.2760662298E-02    0.1645444475E-03    0.6953190429E+00    0.4236069517E-02    0.3792377998E-02
    0.3300000000E+04    0.3166231367E-02    0.1887272673E-03    0.6953535594E+00    0.4861646537E-02    0.3722180744E-02
    0.3500000000E+04    0.3636466086E-02    0.2167669449E-03    0.6953841090E+00    0.5587432508E-02    0.3641487522E-02
    0.3700000000E+04    0.4185657406E-02    0.2495160537E-03    0.6954113357E+00    0.6435663411E-02    0.3548111930E-02
    0.3900000000E+04    0.4831706972E-02    0.2880426547E-03    0.6954357516E+00    0.7434227874E-02    0.3439362173E-02
    0.4100000000E+04    0.5596867592E-02    0.3336745388E-03    0.6954577685E+00    0.8617847410E-02    0.3311965086E-02
    0.4300000000E+04    0.6508303329E-02    0.3880327496E-03    0.6954777217E+00    0.1002899472E-01    0.3162041715E-02
    0.4500000000E+04    0.7597980611E-02    0.4530252661E-03    0.6954958870E+00    0.1171779992E-01    0.2985221032E-02
    0.4700000000E+04    0.8900902213E-02    0.5307419150E-03    0.6955124931E+00    0.1373941815E-01    0.2777054530E-02
    0.4900000000E+04    0.1044998080E-01    0.6231489094E-03    0.6955277312E+00    0.1614621199E-01    0.2533991063E-02
    0.1000000000E+04    0.5203850963E-03    0.3098158133E-04    0.6941180499E+00    0.7893711166E-03    0.4192747049E-02
    0.3000000000E+04    0.2578471811E-02    0.1536812866E-03    0.6953000489E+00    0.3955176730E-02    0.3824107092E-02
    0.5000000000E+04    0.1132405163E-01    0.6752934194E-03    0.6955348888E+00    0.1750581761E-01    0.2398938749E-02
    0.7000000000E+04    0.2909412384E-01    0.1736658376E-02    0.6956347014E+00    0.4568376336E-01    0.2340054017E-03
    0.9000000000E+04    0.3491678966E-01    0.2086536899E-02    0.6956896656E+00    0.5582748706E-01    0.1521633492E-03
    0.1100000000E+05    0.3931297977E-01    0.2351737396E-02    0.6957243239E+00    0.6394900698E-01    0.1530881063E-03
    0.1300000000E+05    0.4302291164E-01    0.2576278736E-02    0.6957480929E+00    0.7114141659E-01    0.1545093028E-03
    0.1500000000E+05    0.4618549554E-01    0.2768343263E-02    0.6957653559E+00    0.7757653349E-01    0.1557446304E-03
    0.1700000000E+05    0.4890186433E-01    0.2933890074E-02    0.6957784273E+00    0.8337971283E-01    0.1568330933E-03
    0.1900000000E+05    0.5125021523E-01    0.3077531351E-02    0.6957886433E+00    0.8864934864E-01    0.1578065782E-03
    0.2100000000E+05    0.5329194444E-01    0.3202891982E-02    0.6957968290E+00    0.9346388439E-01    0.1586875955E-03
    0.2300000000E+05    0.5507588509E-01    0.3312858068E-02    0.6958035206E+00    0.9788667489E-01    0.1594925890E-03
    0.2500000000E+05    0.5664132984E-01    0.3409754260E-02    0.6958090822E+00    0.1019694852E+00    0.1602339427E-03
    0.2700000000E+05    0.5802022560E-01    0.3495472594E-02    0.6958137688E+00    0.1057550545E+00    0.1609212205E-03
    0.2900000000E+05    0.5923879248E-01    0.3571567588E-02    0.6958177648E+00    0.1092790046E+00    0.1615619649E-03
    0.3100000000E+05    0.6031873529E-01    0.3639327438E-02    0.6958212064E+00    0.1125712814E+00    0.1621622312E-03
    0.3300000000E+05    0.6127816195E-01    0.3699828026E-02    0.6958241967E+00    0.1156572569E+00    0.1627269562E-03
    0.3500000000E+05    0.6213228803E-01    0.3753974377E-02    0.6958268149E+00    0.1185585837E+00    0.1632602183E-03
    0.3700000000E+05    0.6289398310E-01    0.3802532824E-02    0.6958291228E+00    0.1212938621E+00    0.1637654265E-03
    0.3900000000E+05    0.6357419871E-01    0.3846156216E-02    0.6958311694E+00    0.1238791686E+00    0.1642454598E-03
    0.4100000000E+05    0.6418230671E-01    0.3885403869E-02    0.6958329942E+00    0.1263284769E+00    0.1647027723E-03
    0.4300000000E+05    0.6472636898E-01    0.3920757468E-02    0.6958346289E+00    0.1286539970E+00    0.1651394728E-03
    0.4500000000E+05    0.6521335425E-01    0.3952633865E-02    0.6958360999E+00    0.1308664498E+00    0.1655573875E-03
    0.4700000000E+05    0.6564931357E-01    0.3981395443E-02    0.6958374288E+00    0.1329752920E+00    0.1659581078E-03
    0.4900000000E+05    0.6603952341E-01    0.4007358570E-02    0.6958386335E+00    0.1349889006E+00    0.1663430298E-03
    0.1000000000E+05    0.3721227277E-01    0.2224903905E-02    0.6957087674E+00    0.6001908608E-01    0.1523509184E-03
    0.3000000000E+05    0.5979488499E-01    0.3606417725E-02    0.6958195478E+00    0.1109524203E+00    0.1618668265E-03
    0.5000000000E+05    0.6621893870E-01    0.4019378731E-02    0.6958391942E+00    0.1359623531E+00    0.1665299569E-03
    0.7000000000E+05    0.6826920146E-01    0.4164840363E-02    0.6958465556E+00    0.1518689292E+00    0.1696740621E-03
    0.9000000000E+05    0.6867774843E-01    0.4207459639E-02    0.6958500515E+00    0.1633170769E+00    0.1720608984E-03
    0.1100000000E+06    0.6836684956E-01    0.4203606824E-02    0.6958518940E+00    0.1721688483E+00    0.1739907488E-03
    0.1300000000E+06    0.6771665314E-01    0.4176886621E-02    0.6958529023E+00    0.1793382934E+00    0.1756137608E-03
    0.1500000000E+06    0.6690432527E-01    0.4138502696E-02    0.6958534440E+00    0.1853359765E+00    0.1770160609E-03
    0.1700000000E+06    0.6601931078E-01    0.4094236116E-02    0.6958537057E+00    0.1904739151E+00    0.1782517415E-03
    0.1900000000E+06    0.6510917137E-01    0.4047244918E-02    0.6958537912E+00    0.1949558446E+00    0.1793570474E-03
    0.2100000000E+06    0.6419997022E-01    0.3999320824E-02    0.6958537616E+00    0.1989217268E+00    0.1803574760E-03
    0.2300000000E+06    0.6330612682E-01    0.3951502960E-02    0.6958536551E+00    0.2024716501E+00    0.1812716586E-03
    0.2500000000E+06    0.6243549801E-01    0.3904397832E-02    0.6958534963E+00    0.2056795535E+00    0.1821136315E-03
    0.2700000000E+06    0.6159213421E-01    0.3858355023E-02    0.6958533017E+00    0.2086015439E+00    0.1828942369E-03
    0.2900000000E+06    0.6077783608E-01    0.3813567810E-02    0.6958530827E+00    0.2112811655E+00    0.1836220277E-03
    0.3100000000E+06    0.5999306267E-01    0.3770132769E-02    0.6958528469E+00    0.2137528658E+00    0.1843038719E-03
    0.3300000000E+06    0.5923747472E-01    0.3728086089E-02    0.6958526001E+00    0.2160443486E+00    0.1849453692E-03
    0.3500000000E+06    0.5851026631E-01    0.3687426193E-02    0.6958523463E+00    0.2181782152E+00    0.1855511466E-03
    0.3700000000E+06    0.5781037003E-01    0.3648128093E-02    0.6958520884E+00    0.2201731372E+00    0.1861250721E-03
    0.3900000000E+06    0.5713658504E-01    0.3610152616E-02    0.6958518286E+00    0.2220447113E+00    0.1866704127E-03
    0.4100000000E+06    0.5648765719E-01    0.3573452394E-02    0.6958515684E+00    0.2238060956E+00    0.1871899534E-03
    0.4300000000E+06    0.5586232885E-01    0.3537975782E-02    0.6958513090E+00    0.2254684889E+00    0.1876860879E-03
    0.4500000000E+06    0.5525936945E-01    0.3503669406E-02    0.6958510513E+00    0.2270414987E+00    0.1881608886E-03
    0.4700000000E+06    0.5467759354E-01    0.3470479824E-02    0.6958507960E+00    0.2285334272E+00    0.1886161622E-03
    0.4900000000E+06    0.5411587086E-01    0.3438354587E-02    0.6958505434E+00    0.2299514955E+00    0.1890534936E-03
    0.1000000000E+06    0.6858150641E-01    0.4209443153E-02    0.6958511122E+00    0.1679971618E+00    0.1730714749E-03
    0.3000000000E+06    0.6038176594E-01    0.3791677906E-02    0.6958529665E+00    0.2125411382E+00    0.1839683174E-03
    0.5000000000E+06    0.5384219265E-01    0.3422675148E-02    0.6958504183E+00    0.2306348377E+00    0.1892658741E-03
    0.7000000000E+06    0.4919436788E-01    0.3153846776E-02    0.6958481044E+00    0.2416131100E+00    0.1928382955E-03
    0.9000000000E+06    0.4568098154E-01    0.2947727996E-02    0.6958461354E+00    0.2493057358E+00    0.1955504726E-03
    0.1100000000E+07    0.4289707940E-01    0.2782770356E-02    0.6958444433E+00    0.2551285227E+00    0.1977434571E-03
    0.1300000000E+07    0.4061470265E-01    0.2646488996E-02    0.6958429652E+00    0.2597560791E+00    0.1995878099E-03
    0.1500000000E+07    0.3869527810E-01    0.2531163474E-02    0.6958416544E+00    0.2635600878E+00    0.2011813766E-03
    0.1700000000E+07    0.3704907442E-01    0.2431734278E-02    0.6958404773E+00    0.2667658784E+00    0.2025856140E-03
    0.1900000000E+07    0.3561500658E-01    0.2344725482E-02    0.6958394092E+00    0.2695197011E+00    0.2038417033E-03
    0.2100000000E+07    0.3434979329E-01    0.2267656039E-02    0.6958384315E+00    0.2719214801E+00    0.2049786158E-03
    0.2300000000E+07    0.3322175308E-01    0.2198698646E-02    0.6958375300E+00    0.2740422841E+00    0.2060175217E-03
    0.2500000000E+07    0.3220706195E-01    0.2136471930E-02    0.6958366934E+00    0.2759343178E+00    0.2069743700E-03
    0.2700000000E+07    0.3128739408E-01    0.2079908412E-02    0.6958359129E+00    0.2776369618E+00    0.2078614813E-03
    0.2900000000E+07    0.3044837823E-01    0.2028167535E-02    0.6958351813E+00    0.2791805916E+00    0.2086885743E-03
    0.3100000000E+07    0.2967855524E-01    0.1980576605E-02    0.6958344928E+00    0.2805890854E+00    0.2094634534E-03
    0.3300000000E+07    0.2896865464E-01    0.1936589594E-02    0.6958338425E+00    0.2818815222E+00    0.2101924819E-03
    0.3500000000E+07    0.2831108048E-01    0.1895757741E-02    0.6958332262E+00    0.2830733648E+00    0.2108809178E-03
    0.3700000000E+07    0.2769953831E-01    0.1857708130E-02    0.6958326405E+00    0.2841773027E+00    0.2115331566E-03
    0.3900000000E+07    0.2712875945E-01    0.1822127808E-02    0.6958320825E+00    0.2852038656E+00    0.2121529109E-03
    0.4100000000E+07    0.2659429387E-01    0.1788751807E-02    0.6958315495E+00    0.2861618773E+00    0.2127433454E-03
    0.4300000000E+07    0.2609235222E-01    0.1757353989E-02    0.6958310394E+00    0.2870587982E+00    0.2133071803E-03
    0.4500000000E+07    0.2561968383E-01    0.1727739949E-02    0.6958305503E+00    0.2879009870E+00    0.2138467709E-03
    0.4700000000E+07    0.2517348132E-01    0.1699741458E-02    0.6958300805E+00    0.2886939023E+00    0.2143641702E-03
    0.4900000000E+07    0.2475130513E-01    0.1673212050E-02    0.6958296284E+00    0.2894422616E+00    0.2148611791E-03
    0.1000000000E+07    0.4421488460E-01    0.2861031591E-02    0.6958452591E+00    0.2523986805E+00    0.1966988327E-03
    0.3000000000E+07    0.3005544148E-01    0.2003890031E-02    0.6958348320E+00    0.2799004415E+00    0.2090821136E-03
    0.5000000000E+07    0.2454855005E-01    0.1660457551E-02    0.6958294086E+00    0.2898010358E+00    0.2151025409E-03
    0.7000000000E+07    0.2135502164E-01    0.1458373277E-02    0.6958256894E+00    0.2954001951E+00    0.2191624606E-03
    0.9000000000E+07    0.1919243278E-01    0.1320175414E-02    0.6958228436E+00    0.2991401082E+00    0.2222447532E-03
    0.1100000000E+08    0.1759822137E-01    0.1217539336E-02    0.6958205320E+00    0.3018724325E+00    0.2247370043E-03
    0.1300000000E+08    0.1635777446E-01    0.1137199882E-02    0.6958185821E+00    0.3039847523E+00    0.2268330484E-03
    0.1500000000E+08    0.1535567688E-01    0.1071971994E-02    0.6958168937E+00    0.3056828070E+00    0.2286440828E-03
    0.1700000000E+08    0.1452343851E-01    0.1017567014E-02    0.6958154036E+00    0.3070875239E+00    0.2302399508E-03
    0.1900000000E+08    0.1381743456E-01    0.9712398534E-03    0.6958140690E+00    0.3082753577E+00    0.2316674534E-03
    0.2100000000E+08    0.1320835056E-01    0.9311380694E-03    0.6958128599E+00    0.3092973766E+00    0.2329595153E-03
    0.2300000000E+08    0.1267564388E-01    0.8959586757E-03    0.6958117542E+00    0.3101891906E+00    0.2341401958E-03
    0.2500000000E+08    0.1220442361E-01    0.8647540097E-03    0.6958107351E+00    0.3109765049E+00    0.2352276206E-03
    0.2700000000E+08    0.1178359052E-01    0.8368155805E-03    0.6958097897E+00    0.3116784103E+00    0.2362357914E-03
