  Pressure (Pa) 22mC5-500 (mol/kg) 23mC5-500 (mol/kg) 24mC5-500 (mol/kg) 2mC6-500 (mol/kg) C7-500 (mol/kg)
    0.1000000000E+01    0.1254049460E-04    0.7206958776E-06    0.6964787995E-01    0.2625240556E-04    0.4195959482E-02
    0.3000000000E+01    0.3006830625E-04    0.1724803585E-05    0.1740678240E+00    0.6084657740E-04    0.4253910932E-02
    0.5000000000E+01    0.4162911405E-04    0.2384534362E-05    0.2486175775E+00    0.8222762383E-04    0.4293219360E-02
    0.7000000000E+01    0.4968221936E-04    0.2842425352E-05    0.3045118776E+00    0.9632373454E-04    0.4322620222E-02
    0.9000000000E+01    0.5553081489E-04    0.3173851684E-05    0.3479755612E+00    0.1061393974E-03    0.4345557734E-02
    0.1100000000E+02    0.5992536982E-04    0.3422132243E-05    0.3827410760E+00    0.1133299232E-03    0.4363989923E-02
    0.1300000000E+02    0.6332464843E-04    0.3613693000E-05    0.4111824320E+00    0.1188611035E-03    0.4379143034E-02
    0.1500000000E+02    0.6602242219E-04    0.3765419409E-05    0.4348816896E+00    0.1233215340E-03    0.4391830102E-02
    0.1700000000E+02    0.6821396505E-04    0.3888510279E-05    0.4549337866E+00    0.1270824238E-03    0.4402613209E-02
    0.1900000000E+02    0.7003312577E-04    0.3990623813E-05    0.4721206297E+00    0.1303843575E-03    0.4411894048E-02
    0.2100000000E+02    0.7157403656E-04    0.4077132734E-05    0.4870155032E+00    0.1333866980E-03    0.4419967650E-02
    0.2300000000E+02    0.7290435493E-04    0.4151888905E-05    0.5000483010E+00    0.1361968470E-03    0.4427055759E-02
    0.2500000000E+02    0.7407362504E-04    0.4217705507E-05    0.5115477215E+00    0.1388881598E-03    0.4433328373E-02
    0.2700000000E+02    0.7511871631E-04    0.4276670245E-05    0.5217693910E+00    0.1415112273E-03    0.4438918076E-02
    0.2900000000E+02    0.7606745324E-04    0.4330354085E-05    0.5309151014E+00    0.1441011569E-03    0.4443929849E-02
    0.3100000000E+02    0.7694109325E-04    0.4379953559E-05    0.5391462739E+00    0.1466823711E-03    0.4448447928E-02
    0.3300000000E+02    0.7775605232E-04    0.4426389705E-05    0.5465935747E+00    0.1492718287E-03    0.4452540722E-02
    0.3500000000E+02    0.7852512819E-04    0.4470378108E-05    0.5533639067E+00    0.1518812231E-03    0.4456264378E-02
    0.3700000000E+02    0.7925838134E-04    0.4512479260E-05    0.5595455773E+00    0.1545185032E-03    0.4459665429E-02
    0.3900000000E+02    0.7996377872E-04    0.4553135299E-05    0.5652121733E+00    0.1571889386E-03    0.4462782777E-02
    0.4100000000E+02    0.8064767004E-04    0.4592697153E-05    0.5704255059E+00    0.1598958748E-03    0.4465649209E-02
    0.4300000000E+02    0.8131514460E-04    0.4631444833E-05    0.5752378753E+00    0.1626412724E-03    0.4468292559E-02
    0.4500000000E+02    0.8197030128E-04    0.4669602769E-05    0.5796938329E+00    0.1654260966E-03    0.4470736614E-02
    0.4700000000E+02    0.8261645496E-04    0.4707351510E-05    0.5838315650E+00    0.1682505990E-03    0.4473001833E-02
    0.4900000000E+02    0.8325629577E-04    0.4744836733E-05    0.5876839903E+00    0.1711145238E-03    0.4475105908E-02
    0.1000000000E+02    0.5787622862E-04    0.3306447385E-05    0.3662737631E+00    0.1099909752E-03    0.4355248025E-02
    0.3000000000E+02    0.7651253721E-04    0.4355601281E-05    0.5351362099E+00    0.1453916483E-03    0.4446246001E-02
    0.5000000000E+02    0.8357454972E-04    0.4763518268E-05    0.5895122795E+00    0.1725610889E-03    0.4476102404E-02
    0.7000000000E+02    0.8996422283E-04    0.5142210550E-05    0.6163598301E+00    0.2033264515E-03    0.4490427063E-02
    0.9000000000E+02    0.9674585092E-04    0.5547814603E-05    0.6323619472E+00    0.2368295778E-03    0.4498304319E-02
    0.1100000000E+03    0.1040183107E-03    0.5983993130E-05    0.6429863130E+00    0.2722317986E-03    0.4502816090E-02
    0.1300000000E+03    0.1117381294E-03    0.6447312723E-05    0.6505539330E+00    0.3090356807E-03    0.4505313199E-02
    0.1500000000E+03    0.1198486069E-03    0.6934037279E-05    0.6562181163E+00    0.3469535347E-03    0.4506487225E-02
    0.1700000000E+03    0.1283023105E-03    0.7441179964E-05    0.6606167822E+00    0.3858161756E-03    0.4506731501E-02
    0.1900000000E+03    0.1370630740E-03    0.7966513304E-05    0.6641314306E+00    0.4255227864E-03    0.4506287416E-02
    0.2100000000E+03    0.1461041145E-03    0.8508410834E-05    0.6670042180E+00    0.4660135101E-03    0.4505311870E-02
    0.2300000000E+03    0.1554058435E-03    0.9065695467E-05    0.6693962550E+00    0.5072539969E-03    0.4503911521E-02
    0.2500000000E+03    0.1649540805E-03    0.9637522738E-05    0.6714188947E+00    0.5492263697E-03    0.4502161503E-02
    0.2700000000E+03    0.1747387162E-03    0.1022329588E-04    0.6731515655E+00    0.5919237555E-03    0.4500116286E-02
    0.2900000000E+03    0.1847527361E-03    0.1082260489E-04    0.6746524464E+00    0.6353468718E-03    0.4497816299E-02
    0.3100000000E+03    0.1949915109E-03    0.1143518279E-04    0.6759651283E+00    0.6795018378E-03    0.4495292126E-02
    0.3300000000E+03    0.2054522774E-03    0.1206087396E-04    0.6771229164E+00    0.7243987379E-03    0.4492567263E-02
    0.3500000000E+03    0.2161337575E-03    0.1269961092E-04    0.6781516948E+00    0.7700506617E-03    0.4489659985E-02
    0.3700000000E+03    0.2270358737E-03    0.1335139731E-04    0.6790718851E+00    0.8164730513E-03    0.4486584641E-02
    0.3900000000E+03    0.2381595370E-03    0.1401629509E-04    0.6798998143E+00    0.8636832539E-03    0.4483352571E-02
    0.4100000000E+03    0.2495064862E-03    0.1469441495E-04    0.6806486929E+00    0.9117002119E-03    0.4479972772E-02
    0.4300000000E+03    0.2610791657E-03    0.1538590907E-04    0.6813293239E+00    0.9605442483E-03    0.4476452388E-02
    0.4500000000E+03    0.2728806322E-03    0.1609096558E-04    0.6819506279E+00    0.1010236920E-02    0.4472797077E-02
    0.4700000000E+03    0.2849144829E-03    0.1680980432E-04    0.6825200358E+00    0.1060800917E-02    0.4469011287E-02
    0.4900000000E+03    0.2971848006E-03    0.1754267360E-04    0.6830437870E+00    0.1112259998E-02    0.4465098471E-02
    0.1000000000E+03    0.1003225586E-03    0.5762260910E-05    0.6381613651E+00    0.2543307539E-03    0.4500874124E-02
    0.3000000000E+03    0.1898442405E-03    0.1112724726E-04    0.6753300286E+00    0.6573323232E-03    0.4496580626E-02
    0.5000000000E+03    0.3034100327E-03    0.1791445446E-04    0.6832902232E+00    0.1138332903E-02    0.4463095277E-02
    0.7000000000E+03    0.4416668245E-03    0.2616732615E-04    0.6867586016E+00    0.1713466707E-02    0.4416668904E-02
    0.9000000000E+03    0.6113055318E-03    0.3628774167E-04    0.6887000106E+00    0.2414062071E-02    0.4357468815E-02
    0.1100000000E+04    0.8229518153E-03    0.4891063738E-04    0.6899406278E+00    0.3285334839E-02    0.4282725893E-02
    0.1300000000E+04    0.1092606722E-02    0.6499089904E-04    0.6908017157E+00    0.4393920918E-02    0.4187496112E-02
    0.1500000000E+04    0.1444691759E-02    0.8598535848E-04    0.6914342150E+00    0.5840949358E-02    0.4064015475E-02
    0.1700000000E+04    0.1917276935E-02    0.1141648582E-03    0.6919184051E+00    0.7783931528E-02    0.3900266093E-02
    0.1900000000E+04    0.2570471557E-02    0.1531150768E-03    0.6923009195E+00    0.1047185167E-01    0.3677730449E-02
    0.2100000000E+04    0.3497478331E-02    0.2083967104E-03    0.6926106997E+00    0.1429183874E-01    0.3368929108E-02
    0.2300000000E+04    0.4827797996E-02    0.2877387944E-03    0.6928666579E+00    0.1978488580E-01    0.2938957773E-02
    0.2500000000E+04    0.6676072252E-02    0.3979918970E-03    0.6930816746E+00    0.2743941189E-01    0.2366487489E-02
    0.2700000000E+04    0.8951893769E-02    0.5337875345E-03    0.6932648255E+00    0.3690873482E-01    0.1705961951E-02
    0.2900000000E+04    0.1118411936E-01    0.6670463471E-03    0.6934226894E+00    0.4627007262E-01    0.1125119824E-02
    0.3100000000E+04    0.1289457917E-01    0.7692430718E-03    0.6935601517E+00    0.5354129320E-01    0.7598965958E-03
    0.3300000000E+04    0.1406076810E-01    0.8390124225E-03    0.6936809162E+00    0.5860348959E-01    0.5851590772E-03
    0.3500000000E+04    0.1489701778E-01    0.8891220473E-03    0.6937878417E+00    0.6232453651E-01    0.5138143041E-03
    0.3700000000E+04    0.1557079905E-01    0.9295545530E-03    0.6938831702E+00    0.6538983958E-01    0.4870041072E-03
    0.3900000000E+04    0.1616554758E-01    0.9652845836E-03    0.6939686844E+00    0.6814226076E-01    0.4776452793E-03
    0.4100000000E+04    0.1671710758E-01    0.9984493173E-03    0.6940458199E+00    0.7072917830E-01    0.4748942077E-03
    0.4300000000E+04    0.1724036876E-01    0.1029936257E-02    0.6941157454E+00    0.7321151267E-01    0.4746098926E-03
    0.4500000000E+04    0.1774170707E-01    0.1060125075E-02    0.6941794222E+00    0.7561494810E-01    0.4752309403E-03
    0.4700000000E+04    0.1822411145E-01    0.1089193398E-02    0.6942376481E+00    0.7795113125E-01    0.4761691215E-03
    0.4900000000E+04    0.1868921503E-01    0.1117237984E-02    0.6942910908E+00    0.8022610080E-01    0.4772026662E-03
    0.1000000000E+04    0.7110308976E-03    0.4223582904E-04    0.6893818693E+00    0.2824821424E-02    0.4322294618E-02
    0.3000000000E+04    0.1211666280E-01    0.7227501358E-03    0.6934937162E+00    0.5021850483E-01    0.9138446306E-03
    0.5000000000E+04    0.1891562640E-01    0.1130896898E-02    0.6943161979E+00    0.8134184891E-01    0.4777266266E-03
    0.7000000000E+04    0.2272191021E-01    0.1361309484E-02    0.6946666603E+00    0.1010640697E+00    0.4868495286E-03
    0.9000000000E+04    0.2548165455E-01    0.1529602194E-02    0.6948599965E+00    0.1169114006E+00    0.4937752037E-03
    0.1100000000E+05    0.2752534661E-01    0.1655250170E-02    0.6949820908E+00    0.1299742636E+00    0.4993611155E-03
    0.1300000000E+05    0.2906178833E-01    0.1750583524E-02    0.6950659397E+00    0.1409636431E+00    0.5040513892E-03
    0.1500000000E+05    0.3022874106E-01    0.1823755007E-02    0.6951269171E+00    0.1503639494E+00    0.5080993095E-03
    0.1700000000E+05    0.3112033040E-01    0.1880347535E-02    0.6951731471E+00    0.1585171157E+00    0.5116633223E-03
    0.1900000000E+05    0.3180276600E-01    0.1924297353E-02    0.6952093234E+00    0.1656717323E+00    0.5148492884E-03
    0.2100000000E+05    0.3232377889E-01    0.1958448928E-02    0.6952383457E+00    0.1720130994E+00    0.5177315145E-03
    0.2300000000E+05    0.3271850874E-01    0.1984901527E-02    0.6952621004E+00    0.1776823300E+00    0.5203642040E-03
    0.2500000000E+05    0.3301329886E-01    0.2005232919E-02    0.6952818677E+00    0.1827889009E+00    0.5227881342E-03
    0.2700000000E+05    0.3322821276E-01    0.2020647911E-02    0.6952985460E+00    0.1874191371E+00    0.5250347686E-03
    0.2900000000E+05    0.3337874466E-01    0.2032079444E-02    0.6953127844E+00    0.1916420903E+00    0.5271289023E-03
    0.3100000000E+05    0.3347700788E-01    0.2040258921E-02    0.6953250634E+00    0.1955137041E+00    0.5290904297E-03
    0.3300000000E+05    0.3353257629E-01    0.2045766084E-02    0.6953357459E+00    0.1990798222E+00    0.5309355603E-03
    0.3500000000E+05    0.3355309078E-01    0.2049065006E-02    0.6953451112E+00    0.2023783990E+00    0.5326776798E-03
    0.3700000000E+05    0.3354470298E-01    0.2050530463E-02    0.6953533777E+00    0.2054411505E+00    0.5343279720E-03
    0.3900000000E+05    0.3351240458E-01    0.2050467542E-02    0.6953607185E+00    0.2082948038E+00    0.5358958788E-03
    0.4100000000E+05    0.3346027481E-01    0.2049126393E-02    0.6953672724E+00    0.2109620564E+00    0.5373894455E-03
    0.4300000000E+05    0.3339166864E-01    0.2046713466E-02    0.6953731524E+00    0.2134623194E+00    0.5388155840E-03
    0.4500000000E+05    0.3330936142E-01    0.2043400161E-02    0.6953784509E+00    0.2158123019E+00    0.5401802775E-03
    0.4700000000E+05    0.3321566108E-01    0.2039329549E-02    0.6953832444E+00    0.2180264733E+00    0.5414887400E-03
    0.4900000000E+05    0.3311249596E-01    0.2034621646E-02    0.6953875967E+00    0.2201174326E+00    0.5427455434E-03
    0.1000000000E+05    0.2657785376E-01    0.1596862544E-02    0.6949272669E+00    0.1237398106E+00    0.4967016302E-03
    0.3000000000E+05    0.3343376002E-01    0.2036536378E-02    0.6953191439E+00    0.1936187418E+00    0.5281251538E-03
    0.5000000000E+05    0.3305788031E-01    0.2032060953E-02    0.6953896246E+00    0.2211202083E+00    0.5433558515E-03
    0.7000000000E+05    0.3174841270E-01    0.1965018776E-02    0.6954164560E+00    0.2367775852E+00    0.5536191044E-03
    0.9000000000E+05    0.3036120413E-01    0.1889579291E-02    0.6954294604E+00    0.2472158883E+00    0.5614082964E-03
    0.1100000000E+06    0.2906905053E-01    0.1817562852E-02    0.6954365088E+00    0.2548166215E+00    0.5677051665E-03
    0.1300000000E+06    0.2790225011E-01    0.1751584537E-02    0.6954405287E+00    0.2606724768E+00    0.5730003103E-03
    0.1500000000E+06    0.2685553432E-01    0.1691798128E-02    0.6954428396E+00    0.2653645516E+00    0.5775750359E-03
    0.1700000000E+06    0.2591524746E-01    0.1637678129E-02    0.6954441152E+00    0.2692342770E+00    0.5816059764E-03
    0.1900000000E+06    0.2506705888E-01    0.1588557421E-02    0.6954447312E+00    0.2724972663E+00    0.5852114641E-03
    0.2100000000E+06    0.2429810563E-01    0.1543795604E-02    0.6954449110E+00    0.2752973302E+00    0.5884747316E-03
    0.2300000000E+06    0.2359741086E-01    0.1502826525E-02    0.6954447944E+00    0.2777345942E+00    0.5914565917E-03
    0.2500000000E+06    0.2295577036E-01    0.1465164758E-02    0.6954444726E+00    0.2798812232E+00    0.5942028541E-03
    0.2700000000E+06    0.2236550039E-01    0.1430398676E-02    0.6954440066E+00    0.2817907335E+00    0.5967489027E-03
    0.2900000000E+06    0.2182017736E-01    0.1398180094E-02    0.6954434389E+00    0.2835037716E+00    0.5991226479E-03
    0.3100000000E+06    0.2131440883E-01    0.1368213997E-02    0.6954427990E+00    0.2850518428E+00    0.6013465003E-03
    0.3300000000E+06    0.2084364346E-01    0.1340249491E-02    0.6954421084E+00    0.2864597987E+00    0.6034387318E-03
    0.3500000000E+06    0.2040401725E-01    0.1314072211E-02    0.6954413827E+00    0.2877475426E+00    0.6054144395E-03
    0.3700000000E+06    0.1999223001E-01    0.1289498070E-02    0.6954406334E+00    0.2889312299E+00    0.6072862437E-03
    0.3900000000E+06    0.1960544656E-01    0.1266368164E-02    0.6954398690E+00    0.2900241300E+00    0.6090648036E-03
    0.4100000000E+06    0.1924121738E-01    0.1244544620E-02    0.6954390959E+00    0.2910372574E+00    0.6107592050E-03
    0.4300000000E+06    0.1889741469E-01    0.1223907227E-02    0.6954383191E+00    0.2919798421E+00    0.6123772570E-03
    0.4500000000E+06    0.1857218077E-01    0.1204350667E-02    0.6954375420E+00    0.2928596850E+00    0.6139257212E-03
    0.4700000000E+06    0.1826388583E-01    0.1185782258E-02    0.6954367676E+00    0.2936834306E+00    0.6154104916E-03
    0.4900000000E+06    0.1797109352E-01    0.1168120086E-02    0.6954359980E+00    0.2944567788E+00    0.6168367378E-03
    0.1000000000E+06    0.2969993463E-01    0.1852884442E-02    0.6954334892E+00    0.2512855509E+00    0.5647057833E-03
    0.3000000000E+06    0.2156265099E-01    0.1382932104E-02    0.6954431264E+00    0.2842967419E+00    0.6002520846E-03
    0.5000000000E+06    0.1783010781E-01    0.1159605798E-02    0.6954356155E+00    0.2948261181E+00    0.6175293604E-03
    0.7000000000E+06    0.1558107365E-01    0.1022928778E-02    0.6954284361E+00    0.3004713399E+00    0.6291795747E-03
    0.9000000000E+06    0.1403240995E-01    0.9278458608E-03    0.6954222300E+00    0.3041173823E+00    0.6380240829E-03
    0.1100000000E+07    0.1288036812E-01    0.8565708662E-03    0.6954168551E+00    0.3067177056E+00    0.6451753127E-03
    0.1300000000E+07    0.1197900582E-01    0.8004629103E-03    0.6954121378E+00    0.3086910694E+00    0.6511895612E-03
    0.1500000000E+07    0.1124820312E-01    0.7547396048E-03    0.6954079415E+00    0.3102539574E+00    0.6563859475E-03
    0.1700000000E+07    0.1063976784E-01    0.7165057877E-03    0.6954041648E+00    0.3115309739E+00    0.6609649046E-03
    0.1900000000E+07    0.1012271162E-01    0.6838898844E-03    0.6954007320E+00    0.3125995504E+00    0.6650607372E-03
    0.2100000000E+07    0.9676065881E-02    0.6556197059E-03    0.6953975854E+00    0.3135106583E+00    0.6687679276E-03
    0.2300000000E+07    0.9285058682E-02    0.6307954586E-03    0.6953946808E+00    0.3142993950E+00    0.6721555163E-03
    0.2500000000E+07    0.8938937935E-02    0.6087599003E-03    0.6953919831E+00    0.3149908171E+00    0.6752755161E-03
    0.2700000000E+07    0.8629663053E-02    0.5890199787E-03    0.6953894644E+00    0.3156033521E+00    0.6781681055E-03
    0.2900000000E+07    0.8351082786E-02    0.5711974130E-03    0.6953871022E+00    0.3161508936E+00    0.6808649788E-03
    0.3100000000E+07    0.8098398992E-02    0.5549963580E-03    0.6953848776E+00    0.3166441397E+00    0.6833915863E-03
    0.3300000000E+07    0.7867805691E-02    0.5401815746E-03    0.6953827754E+00    0.3170914796E+00    0.6857686794E-03
    0.3500000000E+07    0.7656239393E-02    0.5265632898E-03    0.6953807825E+00    0.3174995958E+00    0.6880134046E-03
    0.3700000000E+07    0.7461202272E-02    0.5139864470E-03    0.6953788878E+00    0.3178738864E+00    0.6901400955E-03
    0.3900000000E+07    0.7280634301E-02    0.5023229158E-03    0.6953770819E+00    0.3182187649E+00    0.6921608592E-03
    0.4100000000E+07    0.7112819086E-02    0.4914657421E-03    0.6953753567E+00    0.3185378803E+00    0.6940860158E-03
    0.4300000000E+07    0.6956313349E-02    0.4813248338E-03    0.6953737051E+00    0.3188342783E+00    0.6959244356E-03
    0.4500000000E+07    0.6809893369E-02    0.4718236781E-03    0.6953721210E+00    0.3191105244E+00    0.6976837988E-03
    0.4700000000E+07    0.6672513732E-02    0.4628968082E-03    0.6953705989E+00    0.3193687965E+00    0.6993708008E-03
    0.4900000000E+07    0.6543275191E-02    0.4544878272E-03    0.6953691340E+00    0.3196109571E+00    0.7009913139E-03
    0.1000000000E+07    0.1341810204E-01    0.8898991584E-03    0.6954194503E+00    0.3055152347E+00    0.6417688550E-03
    0.3000000000E+07    0.8221761602E-02    0.5629101162E-03    0.6953859737E+00    0.3164037333E+00    0.6821481733E-03
    0.5000000000E+07    0.6481461442E-02    0.4504620101E-03    0.6953684217E+00    0.3197265056E+00    0.7017782798E-03
    0.7000000000E+07    0.5528926880E-02    0.3880896726E-03    0.6953563598E+00    0.3214849452E+00    0.7150155681E-03
    0.9000000000E+07    0.4905348093E-02    0.3468838988E-03    0.6953471208E+00    0.3226141109E+00    0.7250651035E-03
    0.1100000000E+08    0.4456125098E-02    0.3169923416E-03    0.6953396115E+00    0.3234170681E+00    0.7331907260E-03
    0.1300000000E+08    0.4112486492E-02    0.2939972832E-03    0.6953332742E+00    0.3240254854E+00    0.7400244794E-03
    0.1500000000E+08    0.3838534135E-02    0.2755783522E-03    0.6953277854E+00    0.3245069645E+00    0.7459289448E-03
    0.1700000000E+08    0.3613442698E-02    0.2603825588E-03    0.6953229398E+00    0.3249002349E+00    0.7511318565E-03
    0.1900000000E+08    0.3424184774E-02    0.2475598464E-03    0.6953185993E+00    0.3252292852E+00    0.7557858153E-03
    0.2100000000E+08    0.3262135337E-02    0.2365452854E-03    0.6953146661E+00    0.3255098684E+00    0.7599981753E-03
    0.2300000000E+08    0.3121325322E-02    0.2269465945E-03    0.6953110687E+00    0.3257528127E+00    0.7638473836E-03
    0.2500000000E+08    0.2997474019E-02    0.2184815993E-03    0.6953077528E+00    0.3259658382E+00    0.7673925396E-03
    0.2700000000E+08    0.2887420355E-02    0.2109413586E-03    0.6953046766E+00    0.3261546169E+00    0.7706792965E-03
