  Pressure (Pa) 22mC5-500 (mol/kg) 23mC5-500 (mol/kg) 24mC5-500 (mol/kg) 2mC6-500 (mol/kg) C7-500 (mol/kg)
    0.1000000000E+01    0.1596672066E-04    0.5354740612E-05    0.3665895231E-01    0.7007913461E-05    0.4198143930E-02
    0.3000000000E+01    0.4216029118E-04    0.1412268086E-04    0.9947834155E-01    0.1808663441E-04    0.4267139536E-02
    0.5000000000E+01    0.6286840434E-04    0.2104016536E-04    0.1513496883E+00    0.2652533949E-04    0.4321480749E-02
    0.7000000000E+01    0.7955864276E-04    0.2660440182E-04    0.1949059862E+00    0.3309448778E-04    0.4366970573E-02
    0.9000000000E+01    0.9321900304E-04    0.3114964118E-04    0.2319985449E+00    0.3829699765E-04    0.4405794419E-02
    0.1100000000E+02    0.1045465541E-03    0.3491146471E-04    0.2639670349E+00    0.4247989863E-04    0.4439377206E-02
    0.1300000000E+02    0.1140471902E-03    0.3806067714E-04    0.2918048172E+00    0.4588981295E-04    0.4468743466E-02
    0.1500000000E+02    0.1220963099E-03    0.4072390060E-04    0.3162640553E+00    0.4870592527E-04    0.4494659918E-02
    0.1700000000E+02    0.1289777238E-03    0.4299677021E-04    0.3379247345E+00    0.5106080917E-04    0.4517714868E-02
    0.1900000000E+02    0.1349094809E-03    0.4495268792E-04    0.3572412625E+00    0.5305408017E-04    0.4538368352E-02
    0.2100000000E+02    0.1400614851E-03    0.4664878989E-04    0.3745747131E+00    0.5476159888E-04    0.4556985746E-02
    0.2300000000E+02    0.1445677873E-03    0.4813010842E-04    0.3902156194E+00    0.5624181843E-04    0.4573861151E-02
    0.2500000000E+02    0.1485353352E-03    0.4943253252E-04    0.4044003989E+00    0.5754024882E-04    0.4589234088E-02
    0.2700000000E+02    0.1520503104E-03    0.5058495112E-04    0.4173233929E+00    0.5869265102E-04    0.4603301678E-02
    0.2900000000E+02    0.1551827904E-03    0.5161082877E-04    0.4291458291E+00    0.5972735733E-04    0.4616227674E-02
    0.3100000000E+02    0.1579902267E-03    0.5252938052E-04    0.4400025859E+00    0.6066698014E-04    0.4628149270E-02
    0.3300000000E+02    0.1605200727E-03    0.5335645910E-04    0.4500073649E+00    0.6152968582E-04    0.4639182303E-02
    0.3500000000E+02    0.1628117923E-03    0.5410523259E-04    0.4592566896E+00    0.6233015507E-04    0.4649425272E-02
    0.3700000000E+02    0.1648984116E-03    0.5478670764E-04    0.4678330322E+00    0.6308031439E-04    0.4658962479E-02
    0.3900000000E+02    0.1668077290E-03    0.5541013723E-04    0.4758072804E+00    0.6378989836E-04    0.4667866514E-02
    0.4100000000E+02    0.1685632680E-03    0.5598334151E-04    0.4832407026E+00    0.6446688567E-04    0.4676200223E-02
    0.4300000000E+02    0.1701850327E-03    0.5651296216E-04    0.4901865263E+00    0.6511783985E-04    0.4684018305E-02
    0.4500000000E+02    0.1716901129E-03    0.5700466569E-04    0.4966912153E+00    0.6574817755E-04    0.4691368593E-02
    0.4700000000E+02    0.1730931705E-03    0.5746330708E-04    0.5027955109E+00    0.6636238126E-04    0.4698293107E-02
    0.4900000000E+02    0.1744068345E-03    0.5789306240E-04    0.5085352868E+00    0.6696416888E-04    0.4704828913E-02
    0.1000000000E+02    0.9913912696E-04    0.3311657373E-04    0.2485545490E+00    0.4049859447E-04    0.4423169645E-02
    0.3000000000E+02    0.1566239649E-03    0.5208245959E-04    0.4346873665E+00    0.6020782712E-04    0.4622306333E-02
    0.5000000000E+02    0.1750336150E-03    0.5809825419E-04    0.5112785357E+00    0.6726139350E-04    0.4707961457E-02
    0.7000000000E+02    0.1848672166E-03    0.6134121191E-04    0.5530494023E+00    0.7307355511E-04    0.4756483550E-02
    0.9000000000E+02    0.1923204333E-03    0.6384786742E-04    0.5793496004E+00    0.7918663384E-04    0.4788027326E-02
    0.1100000000E+03    0.1991769371E-03    0.6619327005E-04    0.5974319326E+00    0.8579756916E-04    0.4810296837E-02
    0.1300000000E+03    0.2060392160E-03    0.6856621440E-04    0.6106280802E+00    0.9286465168E-04    0.4826899191E-02
    0.1500000000E+03    0.2131213745E-03    0.7103051904E-04    0.6206830491E+00    0.1003122533E-03    0.4839759120E-02
    0.1700000000E+03    0.2204937258E-03    0.7360472892E-04    0.6285992564E+00    0.1080724962E-03    0.4850002567E-02
    0.1900000000E+03    0.2281700026E-03    0.7629014635E-04    0.6349935745E+00    0.1160916046E-03    0.4858334858E-02
    0.2100000000E+03    0.2361415543E-03    0.7908163144E-04    0.6402664374E+00    0.1243284364E-03    0.4865221891E-02
    0.2300000000E+03    0.2443915838E-03    0.8197199141E-04    0.6446891152E+00    0.1327517637E-03    0.4870984720E-02
    0.2500000000E+03    0.2529012433E-03    0.8495379391E-04    0.6484519091E+00    0.1413378401E-03    0.4875852365E-02
    0.2700000000E+03    0.2616522226E-03    0.8802009095E-04    0.6516922649E+00    0.1500685117E-03    0.4879992969E-02
    0.2900000000E+03    0.2706277708E-03    0.9116466886E-04    0.6545119324E+00    0.1589298144E-03    0.4883533020E-02
    0.3100000000E+03    0.2798130085E-03    0.9438209182E-04    0.6569878483E+00    0.1679109450E-03    0.4886569672E-02
    0.3300000000E+03    0.2891949238E-03    0.9766765904E-04    0.6591792650E+00    0.1770035066E-03    0.4889178906E-02
    0.3500000000E+03    0.2987622357E-03    0.1010173301E-03    0.6611325563E+00    0.1862009531E-03    0.4891421088E-02
    0.3700000000E+03    0.3085052108E-03    0.1044276435E-03    0.6628845360E+00    0.1954981758E-03    0.4893344848E-02
    0.3900000000E+03    0.3184154747E-03    0.1078956385E-03    0.6644648008E+00    0.2048911934E-03    0.4894989845E-02
    0.4100000000E+03    0.3284858354E-03    0.1114187858E-03    0.6658974164E+00    0.2143769171E-03    0.4896388780E-02
    0.4300000000E+03    0.3387101242E-03    0.1149949258E-03    0.6672021517E+00    0.2239529719E-03    0.4897568884E-02
    0.4500000000E+03    0.3490830579E-03    0.1186222170E-03    0.6683953973E+00    0.2336175572E-03    0.4898553034E-02
    0.4700000000E+03    0.3596001189E-03    0.1222990909E-03    0.6694908570E+00    0.2433693403E-03    0.4899360602E-02
    0.4900000000E+03    0.3702574535E-03    0.1260242152E-03    0.6705000773E+00    0.2532073711E-03    0.4900008118E-02
    0.1000000000E+03    0.1957716405E-03    0.6502440028E-04    0.5891568207E+00    0.8243067869E-04    0.4800040071E-02
    0.3000000000E+03    0.2751950342E-03    0.9276458493E-04    0.6557888067E+00    0.1634059751E-03    0.4885109101E-02
    0.5000000000E+03    0.3756376787E-03    0.1279045113E-03    0.6709754683E+00    0.2581585204E-03    0.4900276371E-02
    0.7000000000E+03    0.4900502956E-03    0.1678535923E-03    0.6777027128E+00    0.3616771519E-03    0.4899821679E-02
    0.9000000000E+03    0.6169775718E-03    0.2121183687E-03    0.6814986441E+00    0.4741695957E-03    0.4891943857E-02
    0.1100000000E+04    0.7568422746E-03    0.2608573791E-03    0.6839361588E+00    0.5966912444E-03    0.4879162839E-02
    0.1300000000E+04    0.9108652422E-03    0.3145026737E-03    0.6856335723E+00    0.7306539066E-03    0.4862437898E-02
    0.1500000000E+04    0.1080792398E-02    0.3736663603E-03    0.6868833886E+00    0.8777670108E-03    0.4842112779E-02
    0.1700000000E+04    0.1268846092E-02    0.4391247276E-03    0.6878419228E+00    0.1040070336E-02    0.4818218544E-02
    0.1900000000E+04    0.1477763973E-02    0.5118323775E-03    0.6886002982E+00    0.1220002636E-02    0.4790587636E-02
    0.2100000000E+04    0.1710888795E-02    0.5929538260E-03    0.6892152225E+00    0.1420497175E-02    0.4758897287E-02
    0.2300000000E+04    0.1972301698E-02    0.6839100937E-03    0.6897238338E+00    0.1645106822E-02    0.4722680424E-02
    0.2500000000E+04    0.2267002866E-02    0.7864417074E-03    0.6901514712E+00    0.1898166068E-02    0.4681317984E-02
    0.2700000000E+04    0.2601149790E-02    0.9026917087E-03    0.6905160156E+00    0.2185000812E-02    0.4634017697E-02
    0.2900000000E+04    0.2982368257E-02    0.1035313950E-02    0.6908304456E+00    0.2512200111E-02    0.4579780635E-02
    0.3100000000E+04    0.3420155339E-02    0.1187613409E-02    0.6911044098E+00    0.2887967359E-02    0.4517355144E-02
    0.3300000000E+04    0.3926396204E-02    0.1363726130E-02    0.6913452300E+00    0.3322570555E-02    0.4445177114E-02
    0.3500000000E+04    0.4516014214E-02    0.1568845594E-02    0.6915585628E+00    0.3828909512E-02    0.4361296301E-02
    0.3700000000E+04    0.5207758781E-02    0.1809497108E-02    0.6917488476E+00    0.4423205409E-02    0.4263291254E-02
    0.3900000000E+04    0.6025091069E-02    0.2093846384E-02    0.6919196169E+00    0.5125780629E-02    0.4148183040E-02
    0.4100000000E+04    0.6997019987E-02    0.2431991062E-02    0.6920737170E+00    0.5961805212E-02    0.4012374592E-02
    0.4300000000E+04    0.8158508331E-02    0.2836103013E-02    0.6922134666E+00    0.6961687069E-02    0.3851676339E-02
    0.4500000000E+04    0.9549618060E-02    0.3320132419E-02    0.6923407737E+00    0.8160395102E-02    0.3661539987E-02
    0.4700000000E+04    0.1121181887E-01    0.3898525375E-02    0.6924572227E+00    0.9594359409E-02    0.3437715353E-02
    0.4900000000E+04    0.1317901291E-01    0.4583103301E-02    0.6925641400E+00    0.1129382889E-01    0.3177633747E-02
    0.1000000000E+04    0.6852302565E-03    0.2359063196E-03    0.6828371727E+00    0.5340954820E-03    0.4886085974E-02
    0.3000000000E+04    0.3193510799E-02    0.1108767416E-02    0.6909719829E+00    0.2693425422E-02    0.4549681080E-02
    0.5000000000E+04    0.1428156426E-01    0.4966816505E-02    0.6926143810E+00    0.1224750919E-01    0.3034212570E-02
    0.7000000000E+04    0.3449296451E-01    0.1200978334E-01    0.6933165664E+00    0.3009444574E-01    0.1002304717E-02
    0.9000000000E+04    0.4112595399E-01    0.1433543398E-01    0.6937048062E+00    0.3653972124E-01    0.9497018012E-03
    0.1100000000E+05    0.4622855874E-01    0.1613120658E-01    0.6939504287E+00    0.4178326185E-01    0.9599267912E-03
    0.1300000000E+05    0.5053878367E-01    0.1765298952E-01    0.6941193783E+00    0.4642542017E-01    0.9690108335E-03
    0.1500000000E+05    0.5422105806E-01    0.1895732070E-01    0.6942424215E+00    0.5058053118E-01    0.9768470317E-03
    0.1700000000E+05    0.5739467672E-01    0.2008523885E-01    0.6943358336E+00    0.5433199160E-01    0.9837398733E-03
    0.1900000000E+05    0.6015089934E-01    0.2106816904E-01    0.6944090270E+00    0.5774456380E-01    0.9898969634E-03
    0.2100000000E+05    0.6256072147E-01    0.2193058287E-01    0.6944678201E+00    0.6086939963E-01    0.9954637483E-03
    0.2300000000E+05    0.6468016955E-01    0.2269181165E-01    0.6945160021E+00    0.6374748164E-01    0.1000546119E-02
    0.2500000000E+05    0.6655402279E-01    0.2336732174E-01    0.6945561451E+00    0.6641206386E-01    0.1005223610E-02
    0.2700000000E+05    0.6821848105E-01    0.2396962906E-01    0.6945900561E+00    0.6889043749E-01    0.1009557512E-02
    0.2900000000E+05    0.6970311035E-01    0.2450896649E-01    0.6946190411E+00    0.7120523041E-01    0.1013596070E-02
    0.3100000000E+05    0.7103228398E-01    0.2499377849E-01    0.6946440672E+00    0.7337537858E-01    0.1017377957E-02
    0.3300000000E+05    0.7222626503E-01    0.2543109284E-01    0.6946658656E+00    0.7541686248E-01    0.1020934660E-02
    0.3500000000E+05    0.7330203011E-01    0.2582680371E-01    0.6946849993E+00    0.7734327259E-01    0.1024292159E-02
    0.3700000000E+05    0.7427390341E-01    0.2618588966E-01    0.6947019085E+00    0.7916624868E-01    0.1027472149E-02
    0.3900000000E+05    0.7515405017E-01    0.2651258340E-01    0.6947169424E+00    0.8089582476E-01    0.1030492935E-02
    0.4100000000E+05    0.7595286442E-01    0.2681050530E-01    0.6947303815E+00    0.8254070262E-01    0.1033370107E-02
    0.4300000000E+05    0.7667927649E-01    0.2708276925E-01    0.6947424536E+00    0.8410847075E-01    0.1036117054E-02
    0.4500000000E+05    0.7734099892E-01    0.2733206749E-01    0.6947533454E+00    0.8560578096E-01    0.1038745359E-02
    0.4700000000E+05    0.7794472473E-01    0.2756073891E-01    0.6947632118E+00    0.8703849208E-01    0.1041265114E-02
    0.4900000000E+05    0.7849628835E-01    0.2777082465E-01    0.6947721818E+00    0.8841178764E-01    0.1043685166E-02
    0.1000000000E+05    0.4378982009E-01    0.1527221972E-01    0.6938400867E+00    0.3924621609E-01    0.9548248844E-03
    0.3000000000E+05    0.7038577706E-01    0.2475771941E-01    0.6946319987E+00    0.7230732437E-01    0.1015516984E-02
    0.5000000000E+05    0.7875413071E-01    0.2786946568E-01    0.6947763653E+00    0.8907761405E-01    0.1044860275E-02
    0.7000000000E+05    0.8212841964E-01    0.2920208112E-01    0.6948320729E+00    0.1001621251E+00    0.1064615112E-02
    0.9000000000E+05    0.8354025280E-01    0.2982119290E-01    0.6948595122E+00    0.1084299513E+00    0.1079601348E-02
    0.1100000000E+06    0.8402896129E-01    0.3009678196E-01    0.6948746961E+00    0.1150309671E+00    0.1091713315E-02
    0.1300000000E+06    0.8403554673E-01    0.3018795766E-01    0.6948836060E+00    0.1205331783E+00    0.1101896765E-02
    0.1500000000E+06    0.8377386998E-01    0.3017300772E-01    0.6948889498E+00    0.1252567154E+00    0.1110693682E-02
    0.1700000000E+06    0.8335754097E-01    0.3009418974E-01    0.6948921158E+00    0.1293992153E+00    0.1118444239E-02
    0.1900000000E+06    0.8285098957E-01    0.2997589812E-01    0.6948938815E+00    0.1330911121E+00    0.1125376266E-02
    0.2100000000E+06    0.8229255532E-01    0.2983294330E-01    0.6948947120E+00    0.1364229862E+00    0.1131649977E-02
    0.2300000000E+06    0.8170587938E-01    0.2967467065E-01    0.6948948995E+00    0.1394603152E+00    0.1137382409E-02
    0.2500000000E+06    0.8110592139E-01    0.2950715504E-01    0.6948946353E+00    0.1422519880E+00    0.1142661715E-02
    0.2700000000E+06    0.8050231540E-01    0.2933443614E-01    0.6948940488E+00    0.1448354919E+00    0.1147555975E-02
    0.2900000000E+06    0.7990132702E-01    0.2915924594E-01    0.6948932299E+00    0.1472402197E+00    0.1152118885E-02
    0.3100000000E+06    0.7930703780E-01    0.2898345361E-01    0.6948922424E+00    0.1494896564E+00    0.1156393558E-02
    0.3300000000E+06    0.7872208463E-01    0.2880834630E-01    0.6948911323E+00    0.1516028741E+00    0.1160415141E-02
    0.3500000000E+06    0.7814813349E-01    0.2863481129E-01    0.6948899336E+00    0.1535955797E+00    0.1164212671E-02
    0.3700000000E+06    0.7758619005E-01    0.2846345685E-01    0.6948886715E+00    0.1554808693E+00    0.1167810424E-02
    0.3900000000E+06    0.7703680702E-01    0.2829469417E-01    0.6948873649E+00    0.1572697812E+00    0.1171228898E-02
    0.4100000000E+06    0.7650022498E-01    0.2812879382E-01    0.6948860282E+00    0.1589717090E+00    0.1174485568E-02
    0.4300000000E+06    0.7597646929E-01    0.2796592528E-01    0.6948846725E+00    0.1605947162E+00    0.1177595450E-02
    0.4500000000E+06    0.7546541754E-01    0.2780618497E-01    0.6948833063E+00    0.1621457780E+00    0.1180571549E-02
    0.4700000000E+06    0.7496684697E-01    0.2764961637E-01    0.6948819360E+00    0.1636309706E+00    0.1183425198E-02
    0.4900000000E+06    0.7448046805E-01    0.2749622460E-01    0.6948805668E+00    0.1650556211E+00    0.1186166337E-02
    0.1000000000E+06    0.8386469131E-01    0.2998923750E-01    0.6948681463E+00    0.1118951980E+00    0.1085944332E-02
    0.3000000000E+06    0.7960315289E-01    0.2907133345E-01    0.6948927540E+00    0.1483830680E+00    0.1154289893E-02
    0.5000000000E+06    0.7424174774E-01    0.2742071383E-01    0.6948798839E+00    0.1657467326E+00    0.1187497496E-02
    0.7000000000E+06    0.7001934379E-01    0.2606427122E-01    0.6948668616E+00    0.1772870932E+00    0.1209887279E-02
    0.9000000000E+06    0.6662272742E-01    0.2494962382E-01    0.6948554137E+00    0.1859142044E+00    0.1226883977E-02
    0.1100000000E+07    0.6380607856E-01    0.2401227691E-01    0.6948454163E+00    0.1927797585E+00    0.1240626136E-02
    0.1300000000E+07    0.6141209274E-01    0.2320729862E-01    0.6948365975E+00    0.1984627996E+00    0.1252183087E-02
    0.1500000000E+07    0.5933776625E-01    0.2250407613E-01    0.6948287258E+00    0.2032969307E+00    0.1262168217E-02
    0.1700000000E+07    0.5751280573E-01    0.2188120362E-01    0.6948216235E+00    0.2074922916E+00    0.1270966764E-02
    0.1900000000E+07    0.5588736404E-01    0.2132324057E-01    0.6948151553E+00    0.2111899223E+00    0.1278836858E-02
    0.2100000000E+07    0.5442491570E-01    0.2081872570E-01    0.6948092176E+00    0.2144890996E+00    0.1285960085E-02
    0.2300000000E+07    0.5309794775E-01    0.2035893621E-01    0.6948037295E+00    0.2174623469E+00    0.1292469133E-02
    0.2500000000E+07    0.5188524696E-01    0.1993708890E-01    0.6947986271E+00    0.2201642468E+00    0.1298463962E-02
    0.2700000000E+07    0.5077012906E-01    0.1954780992E-01    0.6947938592E+00    0.2226368976E+00    0.1304021787E-02
    0.2900000000E+07    0.4973924567E-01    0.1918677275E-01    0.6947893839E+00    0.2249134412E+00    0.1309203519E-02
    0.3100000000E+07    0.4878175770E-01    0.1885044465E-01    0.6947851668E+00    0.2270204271E+00    0.1314058066E-02
    0.3300000000E+07    0.4788874859E-01    0.1853590513E-01    0.6947811792E+00    0.2289794448E+00    0.1318625307E-02
    0.3500000000E+07    0.4705279888E-01    0.1824071316E-01    0.6947773969E+00    0.2308082811E+00    0.1322938193E-02
    0.3700000000E+07    0.4626767161E-01    0.1796280846E-01    0.6947737994E+00    0.2325217587E+00    0.1327024269E-02
    0.3900000000E+07    0.4552807600E-01    0.1770043681E-01    0.6947703691E+00    0.2341323559E+00    0.1330906800E-02
    0.4100000000E+07    0.4482948697E-01    0.1745209271E-01    0.6947670907E+00    0.2356506736E+00    0.1334605618E-02
    0.4300000000E+07    0.4416800561E-01    0.1721647488E-01    0.6947639512E+00    0.2370857903E+00    0.1338137770E-02
    0.4500000000E+07    0.4354024986E-01    0.1699245120E-01    0.6947609389E+00    0.2384455390E+00    0.1341518013E-02
    0.4700000000E+07    0.4294326794E-01    0.1677903086E-01    0.6947580437E+00    0.2397367224E+00    0.1344759214E-02
    0.4900000000E+07    0.4237446909E-01    0.1657534197E-01    0.6947552566E+00    0.2409652849E+00    0.1347872657E-02
    0.1000000000E+07    0.6515335281E-01    0.2446200577E-01    0.6948502511E+00    0.1895229984E+00    0.1234080172E-02
    0.3000000000E+07    0.4925192397E-01    0.1901571519E-01    0.6947872450E+00    0.2259866787E+00    0.1311669015E-02
    0.5000000000E+07    0.4209991344E-01    0.1647690234E-01    0.6947539011E+00    0.2415577405E+00    0.1349384625E-02
    0.7000000000E+07    0.3765259647E-01    0.1487135955E-01    0.6947309245E+00    0.2511086831E+00    0.1374816459E-02
    0.9000000000E+07    0.3450227142E-01    0.1372129173E-01    0.6947133003E+00    0.2578300481E+00    0.1394123299E-02
    0.1100000000E+08    0.3210294882E-01    0.1283805742E-01    0.6946989626E+00    0.2629294474E+00    0.1409733612E-02
    0.1300000000E+08    0.3018840804E-01    0.1212858128E-01    0.6946868553E+00    0.2669882891E+00    0.1422861837E-02
    0.1500000000E+08    0.2861000101E-01    0.1154042902E-01    0.6946763638E+00    0.2703286489E+00    0.1434204637E-02
    0.1700000000E+08    0.2727683080E-01    0.1104130834E-01    0.6946670984E+00    0.2731463993E+00    0.1444199574E-02
    0.1900000000E+08    0.2612954610E-01    0.1061000839E-01    0.6946587964E+00    0.2755689231E+00    0.1453139849E-02
    0.2100000000E+08    0.2512741654E-01    0.1023189882E-01    0.6946512716E+00    0.2776833695E+00    0.1461231721E-02
    0.2300000000E+08    0.2424137564E-01    0.9896492498E-02    0.6946443876E+00    0.2795517796E+00    0.1468625911E-02
    0.2500000000E+08    0.2345001485E-01    0.9596034726E-02    0.6946380413E+00    0.2812197592E+00    0.1475435965E-02
    0.2700000000E+08    0.2273714926E-01    0.9324642148E-02    0.6946321528E+00    0.2827217300E+00    0.1481749596E-02
