  Pressure (Pa) 22mC5-500 (mol/kg) 23mC5-500 (mol/kg) 24mC5-500 (mol/kg) 2mC6-500 (mol/kg) C7-500 (mol/kg)
    0.1000000000E+01    0.1610612074E-04    0.5403064671E-05    0.3665944250E-01    0.1424186983E-04    0.4172007765E-02
    0.3000000000E+01    0.4246552069E-04    0.1422848208E-04    0.9948207844E-01    0.3666756217E-04    0.4213035758E-02
    0.5000000000E+01    0.6331589291E-04    0.2119526406E-04    0.1513586166E+00    0.5377437044E-04    0.4241185789E-02
    0.7000000000E+01    0.8013801616E-04    0.2680519638E-04    0.1949212288E+00    0.6712487712E-04    0.4264141748E-02
    0.9000000000E+01    0.9392392566E-04    0.3139393220E-04    0.2320207251E+00    0.7773163301E-04    0.4283519788E-02
    0.1100000000E+02    0.1053726042E-03    0.3519771773E-04    0.2639964641E+00    0.8629190764E-04    0.4300172085E-02
    0.1300000000E+02    0.1149910510E-03    0.3838774160E-04    0.2918416083E+00    0.9330080806E-04    0.4314663238E-02
    0.1500000000E+02    0.1231553816E-03    0.4109087527E-04    0.3163081940E+00    0.9911791459E-04    0.4327400281E-02
    0.1700000000E+02    0.1301499099E-03    0.4340292881E-04    0.3379761243E+00    0.1040092235E-03    0.4338689460E-02
    0.1900000000E+02    0.1361930584E-03    0.4539743390E-04    0.3572997551E+00    0.1081745935E-03    0.4348767515E-02
    0.2100000000E+02    0.1414550191E-03    0.4713162682E-04    0.3746401276E+00    0.1117662283E-03    0.4357821108E-02
    0.2300000000E+02    0.1460700721E-03    0.4865061951E-04    0.3902877559E+00    0.1149014159E-03    0.4365999749E-02
    0.2500000000E+02    0.1501453520E-03    0.4999036589E-04    0.4044790476E+00    0.1176714859E-03    0.4373424780E-02
    0.2700000000E+02    0.1537671956E-03    0.5117980875E-04    0.4174083401E+00    0.1201482156E-03    0.4380195800E-02
    0.2900000000E+02    0.1570058113E-03    0.5224245802E-04    0.4292368612E+00    0.1223884837E-03    0.4386395388E-02
    0.3100000000E+02    0.1599187622E-03    0.5319756754E-04    0.4400994925E+00    0.1244376966E-03    0.4392092618E-02
    0.3300000000E+02    0.1625535982E-03    0.5406102345E-04    0.4501099406E+00    0.1263323429E-03    0.4397345738E-02
    0.3500000000E+02    0.1649498672E-03    0.5484602295E-04    0.4593647352E+00    0.1281019191E-03    0.4402204224E-02
    0.3700000000E+02    0.1671406689E-03    0.5556359823E-04    0.4679463552E+00    0.1297703960E-03    0.4406710384E-02
    0.3900000000E+02    0.1691538669E-03    0.5622302486E-04    0.4759256956E+00    0.1313573463E-03    0.4410900618E-02
    0.4100000000E+02    0.1710130427E-03    0.5683214305E-04    0.4833640325E+00    0.1328788190E-03    0.4414806422E-02
    0.4300000000E+02    0.1727382522E-03    0.5739761241E-04    0.4903146006E+00    0.1343480229E-03    0.4418455190E-02
    0.4500000000E+02    0.1743466317E-03    0.5792511559E-04    0.4968238713E+00    0.1357758643E-03    0.4421870864E-02
    0.4700000000E+02    0.1758528852E-03    0.5841952212E-04    0.5029325930E+00    0.1371713738E-03    0.4425074467E-02
    0.4900000000E+02    0.1772696798E-03    0.5888502126E-04    0.5086766464E+00    0.1385420464E-03    0.4428084534E-02
    0.1000000000E+02    0.9990508487E-04    0.3338200934E-04    0.2485803292E+00    0.8223283415E-04    0.4292146721E-02
    0.3000000000E+02    0.1584998144E-03    0.5273239226E-04    0.4347813619E+00    0.1234345076E-03    0.4389302930E-02
    0.5000000000E+02    0.1779480122E-03    0.5910808075E-04    0.5114219805E+00    0.1392200596E-03    0.4429522195E-02
    0.7000000000E+02    0.1888162236E-03    0.6270969370E-04    0.5532282211E+00    0.1525261953E-03    0.4451250832E-02
    0.9000000000E+02    0.1973235575E-03    0.6558187097E-04    0.5795548157E+00    0.1664735540E-03    0.4464552734E-02
    0.1100000000E+03    0.2052654054E-03    0.6830370849E-04    0.5976576188E+00    0.1814737205E-03    0.4473261959E-02
    0.1300000000E+03    0.2132513161E-03    0.7106643828E-04    0.6108701462E+00    0.1974539569E-03    0.4479168578E-02
    0.1500000000E+03    0.2215002303E-03    0.7393554907E-04    0.6209385555E+00    0.2142704024E-03    0.4483225069E-02
    0.1700000000E+03    0.2300861080E-03    0.7693084602E-04    0.6288660199E+00    0.2317929619E-03    0.4485986972E-02
    0.1900000000E+03    0.2390256414E-03    0.8005465515E-04    0.6352699277E+00    0.2499187513E-03    0.4487801190E-02
    0.2100000000E+03    0.2483127227E-03    0.8330271668E-04    0.6405510766E+00    0.2685695552E-03    0.4488896083E-02
    0.2300000000E+03    0.2579328345E-03    0.8666862776E-04    0.6449810007E+00    0.2876866130E-03    0.4489428423E-02
    0.2500000000E+03    0.2678692420E-03    0.9014568850E-04    0.6487501976E+00    0.3072258923E-03    0.4489509585E-02
    0.2700000000E+03    0.2781056414E-03    0.9372764689E-04    0.6519962622E+00    0.3271543990E-03    0.4489220968E-02
    0.2900000000E+03    0.2886272226E-03    0.9740896277E-04    0.6548210596E+00    0.3474474318E-03    0.4488623497E-02
    0.3100000000E+03    0.2994210097E-03    0.1011848611E-03    0.6573016171E+00    0.3680865654E-03    0.4487763705E-02
    0.3300000000E+03    0.3104758770E-03    0.1050512963E-03    0.6594972595E+00    0.3890581721E-03    0.4486677757E-02
    0.3500000000E+03    0.3217824277E-03    0.1090048822E-03    0.6614544191E+00    0.4103523325E-03    0.4485394186E-02
    0.3700000000E+03    0.3333328220E-03    0.1130428154E-03    0.6632099572E+00    0.4319620257E-03    0.4483935792E-02
    0.3900000000E+03    0.3451205974E-03    0.1171627994E-03    0.6647935100E+00    0.4538825232E-03    0.4482321006E-02
    0.4100000000E+03    0.3571404990E-03    0.1213629781E-03    0.6662291759E+00    0.4761109303E-03    0.4480564873E-02
    0.4300000000E+03    0.3693883268E-03    0.1256418761E-03    0.6675367516E+00    0.4986458362E-03    0.4478679774E-02
    0.4500000000E+03    0.3818608022E-03    0.1299983487E-03    0.6687326507E+00    0.5214870457E-03    0.4476675981E-02
    0.4700000000E+03    0.3945554532E-03    0.1344315386E-03    0.6698305973E+00    0.5446353701E-03    0.4474562060E-02
    0.4900000000E+03    0.4074705156E-03    0.1389408398E-03    0.6708421546E+00    0.5680924649E-03    0.4472345200E-02
    0.1000000000E+03    0.2013130219E-03    0.6694508055E-04    0.5893728769E+00    0.1738428829E-03    0.4469341727E-02
    0.3000000000E+03    0.2939908281E-03    0.9928535837E-04    0.6561003109E+00    0.3577246858E-03    0.4488223924E-02
    0.5000000000E+03    0.4140103227E-03    0.1412239037E-03    0.6713186628E+00    0.5799375173E-03    0.4471200098E-02
    0.7000000000E+03    0.5563790481E-03    0.1908847808E-03    0.6780631015E+00    0.8339339064E-03    0.4443941406E-02
    0.9000000000E+03    0.7221631217E-03    0.2486512513E-03    0.6818703550E+00    0.1124430315E-02    0.4409559984E-02
    0.1100000000E+04    0.9151155980E-03    0.3158399852E-03    0.6843161421E+00    0.1459229038E-02    0.4368292319E-02
    0.1300000000E+04    0.1140935681E-02    0.3944405288E-03    0.6860200025E+00    0.1848815467E-02    0.4319394270E-02
    0.1500000000E+04    0.1407464531E-02    0.4871849306E-03    0.6872750672E+00    0.2307046243E-02    0.4261486233E-02
    0.1700000000E+04    0.1725312868E-02    0.5977671516E-03    0.6882380101E+00    0.2852379364E-02    0.4192556191E-02
    0.1900000000E+04    0.2108884748E-02    0.7311999026E-03    0.6890001769E+00    0.3509710419E-02    0.4109819352E-02
    0.2100000000E+04    0.2577897749E-02    0.8943440207E-03    0.6896184218E+00    0.4313036113E-02    0.4009469073E-02
    0.2300000000E+04    0.3159553436E-02    0.1096664127E-02    0.6901299836E+00    0.5309235658E-02    0.3886317804E-02
    0.2500000000E+04    0.3891465434E-02    0.1351248170E-02    0.6905602738E+00    0.6563179042E-02    0.3733339597E-02
    0.2700000000E+04    0.4825098148E-02    0.1676005381E-02    0.6909272268E+00    0.8163774033E-02    0.3541215630E-02
    0.2900000000E+04    0.6028210170E-02    0.2094519486E-02    0.6912438615E+00    0.1022842444E-01    0.3298264886E-02
    0.3100000000E+04    0.7581327039E-02    0.2634827394E-02    0.6915198579E+00    0.1289743334E-01    0.2991840773E-02
    0.3300000000E+04    0.9556232068E-02    0.3321945234E-02    0.6917625626E+00    0.1629773707E-01    0.2613517373E-02
    0.3500000000E+04    0.1195907577E-01    0.4158084491E-02    0.6919776519E+00    0.2044571998E-01    0.2170784906E-02
    0.3700000000E+04    0.1464600871E-01    0.5093292899E-02    0.6921695815E+00    0.2510146014E-01    0.1701699300E-02
    0.3900000000E+04    0.1730486068E-01    0.6019038430E-02    0.6923418972E+00    0.2973380649E-01    0.1272593209E-02
    0.4100000000E+04    0.1961092434E-01    0.6822354801E-02    0.6924974564E+00    0.3378418486E-01    0.9421842075E-03
    0.4300000000E+04    0.2142642977E-01    0.7455243271E-02    0.6926385870E+00    0.3701009856E-01    0.7253584352E-03
    0.4500000000E+04    0.2281043065E-01    0.7938167599E-02    0.6927672051E+00    0.3950661449E-01    0.5991666444E-03
    0.4700000000E+04    0.2389434230E-01    0.8316791474E-02    0.6928849018E+00    0.4149531552E-01    0.5311707599E-03
    0.4900000000E+04    0.2479240360E-01    0.8630830018E-02    0.6929930094E+00    0.4317042099E-01    0.4962016522E-03
    0.1000000000E+04    0.8149325155E-03    0.2809592062E-03    0.6832133042E+00    0.1285704671E-02    0.4389817114E-02
    0.3000000000E+04    0.6755871610E-02    0.2347656723E-02    0.6913864347E+00    0.1147836452E-01    0.3153713508E-02
    0.5000000000E+04    0.2519656975E-01    0.8772263646E-02    0.6930438256E+00    0.4393274505E-01    0.4859587892E-03
    0.7000000000E+04    0.3137562927E-01    0.1094095059E-01    0.6937554459E+00    0.5612343573E-01    0.4681093967E-03
    0.9000000000E+04    0.3608771028E-01    0.1260262288E-01    0.6941506022E+00    0.6609687501E-01    0.4748228510E-03
    0.1100000000E+05    0.3984427966E-01    0.1393362924E-01    0.6944016995E+00    0.7460514367E-01    0.4802534124E-03
    0.1300000000E+05    0.4288526200E-01    0.1501645250E-01    0.6945751882E+00    0.8197965917E-01    0.4848049404E-03
    0.1500000000E+05    0.4537793221E-01    0.1590867869E-01    0.6947021130E+00    0.8845639058E-01    0.4887280255E-03
    0.1700000000E+05    0.4744237231E-01    0.1665170612E-01    0.6947989193E+00    0.9420840838E-01    0.4921788054E-03
    0.1900000000E+05    0.4916686936E-01    0.1727601603E-01    0.6948751304E+00    0.9936572770E-01    0.4952612650E-03
    0.2100000000E+05    0.5061768184E-01    0.1780451803E-01    0.6949366417E+00    0.1040280531E+00    0.4980482146E-03
    0.2300000000E+05    0.5184543259E-01    0.1825474183E-01    0.6949872976E+00    0.1082732276E+00    0.5005926625E-03
    0.2500000000E+05    0.5288940957E-01    0.1864031285E-01    0.6950297116E+00    0.1121629895E+00    0.5029344242E-03
    0.2700000000E+05    0.5378052935E-01    0.1897196980E-01    0.6950657222E+00    0.1157469900E+00    0.5051041805E-03
    0.2900000000E+05    0.5454342299E-01    0.1925828162E-01    0.6950966600E+00    0.1190656581E+00    0.5071260835E-03
    0.3100000000E+05    0.5519793203E-01    0.1950616197E-01    0.6951235118E+00    0.1221522811E+00    0.5090194933E-03
    0.3300000000E+05    0.5576019974E-01    0.1972124501E-01    0.6951470248E+00    0.1250345420E+00    0.5108001713E-03
    0.3500000000E+05    0.5624347941E-01    0.1990816384E-01    0.6951677749E+00    0.1277356732E+00    0.5124811241E-03
    0.3700000000E+05    0.5665874126E-01    0.2007075979E-01    0.6951862133E+00    0.1302753335E+00    0.5140732120E-03
    0.3900000000E+05    0.5701513391E-01    0.2021224180E-01    0.6952026984E+00    0.1326702841E+00    0.5155855989E-03
    0.4100000000E+05    0.5732033938E-01    0.2033530897E-01    0.6952175185E+00    0.1349349146E+00    0.5170260891E-03
    0.4300000000E+05    0.5758084898E-01    0.2044224602E-01    0.6952309079E+00    0.1370816582E+00    0.5184013850E-03
    0.4500000000E+05    0.5780217987E-01    0.2053499823E-01    0.6952430592E+00    0.1391213205E+00    0.5197172857E-03
    0.4700000000E+05    0.5798904651E-01    0.2061523086E-01    0.6952541322E+00    0.1410633444E+00    0.5209788431E-03
    0.4900000000E+05    0.5814549759E-01    0.2068437657E-01    0.6952642604E+00    0.1429160236E+00    0.5221904857E-03
    0.1000000000E+05    0.3806833596E-01    0.1330358378E-01    0.6942887611E+00    0.7051069328E-01    0.4776693382E-03
    0.3000000000E+05    0.5488314057E-01    0.1938664726E-01    0.6951105453E+00    0.1206361288E+00    0.5080877919E-03
    0.5000000000E+05    0.5821342804E-01    0.2071518553E-01    0.6952690060E+00    0.1438111801E+00    0.5227788271E-03
    0.7000000000E+05    0.5861211584E-01    0.2097591441E-01    0.6953341420E+00    0.1584179242E+00    0.5326695929E-03
    0.9000000000E+05    0.5807602115E-01    0.2088082435E-01    0.6953687118E+00    0.1689461236E+00    0.5401729969E-03
    0.1100000000E+06    0.5720148737E-01    0.2064754450E-01    0.6953896481E+00    0.1771190283E+00    0.5462373956E-03
    0.1300000000E+06    0.5620990780E-01    0.2035920335E-01    0.6954033888E+00    0.1837673341E+00    0.5513362677E-03
    0.1500000000E+06    0.5519377165E-01    0.2005184778E-01    0.6954129019E+00    0.1893516378E+00    0.5557409522E-03
    0.1700000000E+06    0.5419397997E-01    0.1974228190E-01    0.6954197390E+00    0.1941528065E+00    0.5596217569E-03
    0.1900000000E+06    0.5322864167E-01    0.1943858962E-01    0.6954247864E+00    0.1983543200E+00    0.5630927449E-03
    0.2100000000E+06    0.5230512587E-01    0.1914461264E-01    0.6954285858E+00    0.2020824547E+00    0.5662341285E-03
    0.2300000000E+06    0.5142554675E-01    0.1886202809E-01    0.6954314850E+00    0.2054277390E+00    0.5691045042E-03
    0.2500000000E+06    0.5058941661E-01    0.1859137657E-01    0.6954337176E+00    0.2084572376E+00    0.5717480061E-03
    0.2700000000E+06    0.4979498640E-01    0.1833259623E-01    0.6954354453E+00    0.2112219887E+00    0.5741987203E-03
    0.2900000000E+06    0.4903994307E-01    0.1808531044E-01    0.6954367834E+00    0.2137617172E+00    0.5764835308E-03
    0.3100000000E+06    0.4832177748E-01    0.1784898655E-01    0.6954378163E+00    0.2161079365E+00    0.5786240224E-03
    0.3300000000E+06    0.4763797825E-01    0.1762302499E-01    0.6954386067E+00    0.2182860580E+00    0.5806377927E-03
    0.3500000000E+06    0.4698613110E-01    0.1740680922E-01    0.6954392024E+00    0.2203168649E+00    0.5825393806E-03
    0.3700000000E+06    0.4636396630E-01    0.1719973361E-01    0.6954396400E+00    0.2222175674E+00    0.5843409393E-03
    0.3900000000E+06    0.4576937743E-01    0.1700121826E-01    0.6954399483E+00    0.2240025734E+00    0.5860527328E-03
    0.4100000000E+06    0.4520042437E-01    0.1681071642E-01    0.6954401499E+00    0.2256840631E+00    0.5876835101E-03
    0.4300000000E+06    0.4465532795E-01    0.1662771740E-01    0.6954402631E+00    0.2272724231E+00    0.5892407902E-03
    0.4500000000E+06    0.4413246029E-01    0.1645174698E-01    0.6954403024E+00    0.2287765803E+00    0.5907310834E-03
    0.4700000000E+06    0.4363033342E-01    0.1628236634E-01    0.6954402797E+00    0.2302042619E+00    0.5921600645E-03
    0.4900000000E+06    0.4314758738E-01    0.1611917023E-01    0.6954402049E+00    0.2315621991E+00    0.5935327107E-03
    0.1000000000E+06    0.5766267924E-01    0.2077461423E-01    0.6953803595E+00    0.1732628652E+00    0.5433488845E-03
    0.3000000000E+06    0.4867640896E-01    0.1796581489E-01    0.6954373337E+00    0.2149573040E+00    0.5775706355E-03
    0.5000000000E+06    0.4291308929E-01    0.1603977338E-01    0.6954401505E+00    0.2322168858E+00    0.5941993004E-03
    0.7000000000E+06    0.3898977691E-01    0.1470006254E-01    0.6954376977E+00    0.2427619077E+00    0.6054113525E-03
    0.9000000000E+06    0.3608246722E-01    0.1369421240E-01    0.6954342708E+00    0.2501793771E+00    0.6139229423E-03
    0.1100000000E+07    0.3380569074E-01    0.1289906730E-01    0.6954307572E+00    0.2558085286E+00    0.6208048617E-03
    0.1300000000E+07    0.3195366384E-01    0.1224750212E-01    0.6954273903E+00    0.2602910388E+00    0.6265925476E-03
    0.1500000000E+07    0.3040492836E-01    0.1169935725E-01    0.6954242286E+00    0.2639817204E+00    0.6315931387E-03
    0.1700000000E+07    0.2908232383E-01    0.1122886345E-01    0.6954212763E+00    0.2670962269E+00    0.6359995373E-03
    0.1900000000E+07    0.2793402816E-01    0.1081857643E-01    0.6954185200E+00    0.2697748008E+00    0.6399409993E-03
    0.2100000000E+07    0.2692369335E-01    0.1045618085E-01    0.6954159416E+00    0.2721134110E+00    0.6435084534E-03
    0.2300000000E+07    0.2602492273E-01    0.1013268345E-01    0.6954135232E+00    0.2741804014E+00    0.6467683428E-03
    0.2500000000E+07    0.2521799237E-01    0.9841332000E-02    0.6954112479E+00    0.2760260309E+00    0.6497707228E-03
    0.2700000000E+07    0.2448780973E-01    0.9576937832E-02    0.6954091008E+00    0.2776882486E+00    0.6525542597E-03
    0.2900000000E+07    0.2382259115E-01    0.9335434455E-02    0.6954070689E+00    0.2791963517E+00    0.6551494546E-03
    0.3100000000E+07    0.2321297601E-01    0.9113580469E-02    0.6954051409E+00    0.2805733882E+00    0.6575807994E-03
    0.3300000000E+07    0.2265141609E-01    0.8908753896E-02    0.6954033069E+00    0.2818377872E+00    0.6598682641E-03
    0.3500000000E+07    0.2213174412E-01    0.8718806293E-02    0.6954015582E+00    0.2830044946E+00    0.6620283492E-03
    0.3700000000E+07    0.2164886229E-01    0.8541957060E-02    0.6953998874E+00    0.2840857832E+00    0.6640748486E-03
    0.3900000000E+07    0.2119851304E-01    0.8376715408E-02    0.6953982877E+00    0.2850918426E+00    0.6660194133E-03
    0.4100000000E+07    0.2077710744E-01    0.8221821787E-02    0.6953967533E+00    0.2860312167E+00    0.6678719746E-03
    0.4300000000E+07    0.2038159492E-01    0.8076203257E-02    0.6953952792E+00    0.2869111327E+00    0.6696410685E-03
    0.4500000000E+07    0.2000936278E-01    0.7938939023E-02    0.6953938606E+00    0.2877377533E+00    0.6713340859E-03
    0.4700000000E+07    0.1965815792E-01    0.7809233501E-02    0.6953924935E+00    0.2885163717E+00    0.6729574699E-03
    0.4900000000E+07    0.1932602510E-01    0.7686395022E-02    0.6953911744E+00    0.2892515643E+00    0.6745168716E-03
    0.1000000000E+07    0.3488080873E-01    0.1327534949E-01    0.6954325036E+00    0.2531679197E+00    0.6175267013E-03
    0.3000000000E+07    0.2351134163E-01    0.9222227735E-02    0.6954060926E+00    0.2799000085E+00    0.6563842682E-03
    0.5000000000E+07    0.1916656882E-01    0.7627358939E-02    0.6953905317E+00    0.2896041405E+00    0.6752741598E-03
    0.7000000000E+07    0.1665932173E-01    0.6693634183E-02    0.6953795450E+00    0.2951167383E+00    0.6880122263E-03
    0.9000000000E+07    0.1496551897E-01    0.6056664466E-02    0.6953710224E+00    0.2988104516E+00    0.6976827381E-03
    0.1100000000E+08    0.1371864970E-01    0.5584292025E-02    0.6953640435E+00    0.3015156207E+00    0.7055018887E-03
    0.1300000000E+08    0.1274936972E-01    0.5214892324E-02    0.6953581247E+00    0.3036111178E+00    0.7120778906E-03
    0.1500000000E+08    0.1196684749E-01    0.4915178165E-02    0.6953529799E+00    0.3052984818E+00    0.7177596521E-03
    0.1700000000E+08    0.1131727961E-01    0.4665318780E-02    0.6953484258E+00    0.3066963815E+00    0.7227663195E-03
    0.1900000000E+08    0.1076644196E-01    0.4452638703E-02    0.6953443378E+00    0.3078799588E+00    0.7272447387E-03
    0.2100000000E+08    0.1029136071E-01    0.4268593480E-02    0.6953406271E+00    0.3088994731E+00    0.7312982151E-03
    0.2300000000E+08    0.9875949667E-02    0.4107178175E-02    0.6953372283E+00    0.3097900129E+00    0.7350022369E-03
    0.2500000000E+08    0.9508555982E-02    0.3964028412E-02    0.6953340919E+00    0.3105769344E+00    0.7384136747E-03
    0.2700000000E+08    0.9180498704E-02    0.3835883162E-02    0.6953311792E+00    0.3112790881E+00    0.7415764598E-03
