  Pressure (Pa) 22mC5-500 (mol/kg) 23mC5-500 (mol/kg) 24mC5-500 (mol/kg) 2mC6-500 (mol/kg) C7-500 (mol/kg)
    0.1000000000E+01    0.1163943187E-04    0.1113007803E-05    0.1949950245E+00    0.2473975521E-05    0.4189462798E-02
    0.3000000000E+01    0.2062828298E-04    0.1965329859E-05    0.3748875208E+00    0.4159081732E-05    0.4221247372E-02
    0.5000000000E+01    0.2416175877E-04    0.2297715334E-05    0.4597095040E+00    0.4812833361E-05    0.4235396997E-02
    0.7000000000E+01    0.2606852916E-04    0.2477092991E-05    0.5090743312E+00    0.5244137589E-05    0.4243724690E-02
    0.9000000000E+01    0.2736072024E-04    0.2599611283E-05    0.5413713490E+00    0.5626153211E-05    0.4249277738E-02
    0.1100000000E+02    0.2839276590E-04    0.2698606970E-05    0.5641477195E+00    0.6005187112E-05    0.4253273019E-02
    0.1300000000E+02    0.2931023277E-04    0.2787611907E-05    0.5810725139E+00    0.6394022249E-05    0.4256299644E-02
    0.1500000000E+02    0.3017910589E-04    0.2872671741E-05    0.5941440917E+00    0.6795274508E-05    0.4258679560E-02
    0.1700000000E+02    0.3103116170E-04    0.2956643063E-05    0.6045438626E+00    0.7208358875E-05    0.4260604379E-02
    0.1900000000E+02    0.3188217941E-04    0.3040906794E-05    0.6130150499E+00    0.7631785388E-05    0.4262195657E-02
    0.2100000000E+02    0.3273999566E-04    0.3126120449E-05    0.6200486068E+00    0.8063945900E-05    0.4263534444E-02
    0.2300000000E+02    0.3360833620E-04    0.3212573055E-05    0.6259818791E+00    0.8503373069E-05    0.4264676984E-02
    0.2500000000E+02    0.3448874296E-04    0.3300361942E-05    0.6310543225E+00    0.8948807571E-05    0.4265663609E-02
    0.2700000000E+02    0.3538158550E-04    0.3389484505E-05    0.6354406079E+00    0.9399196335E-05    0.4266524048E-02
    0.2900000000E+02    0.3628660918E-04    0.3479887253E-05    0.6392711428E+00    0.9853668414E-05    0.4267280729E-02
    0.3100000000E+02    0.3720323902E-04    0.3571492544E-05    0.6426452574E+00    0.1031150623E-04    0.4267950916E-02
    0.3300000000E+02    0.3813075053E-04    0.3664213274E-05    0.6456399413E+00    0.1077211864E-04    0.4268548134E-02
    0.3500000000E+02    0.3906836593E-04    0.3757960916E-05    0.6483157901E+00    0.1123501778E-04    0.4269083137E-02
    0.3700000000E+02    0.4001530802E-04    0.3852649802E-05    0.6507211486E+00    0.1169979987E-04    0.4269564599E-02
    0.3900000000E+02    0.4097082923E-04    0.3948199281E-05    0.6528950578E+00    0.1216612968E-04    0.4269999594E-02
    0.4100000000E+02    0.4193422649E-04    0.4044534665E-05    0.6548693900E+00    0.1263372787E-04    0.4270393961E-02
    0.4300000000E+02    0.4290484757E-04    0.4141587479E-05    0.6566704226E+00    0.1310236096E-04    0.4270752561E-02
    0.4500000000E+02    0.4388209267E-04    0.4239295339E-05    0.6583200136E+00    0.1357183312E-04    0.4271079481E-02
    0.4700000000E+02    0.4486541322E-04    0.4337601624E-05    0.6598364934E+00    0.1404197963E-04    0.4271378180E-02
    0.4900000000E+02    0.4585430918E-04    0.4436455059E-05    0.6612353489E+00    0.1451266158E-04    0.4271651613E-02
    0.1000000000E+02    0.2789743587E-04    0.2650946380E-05    0.5536655637E+00    0.5814863749E-05    0.4251424510E-02
    0.3000000000E+02    0.3674351650E-04    0.3525544920E-05    0.6410099976E+00    0.1008220622E-04    0.4267625715E-02
    0.5000000000E+02    0.4635070413E-04    0.4486072285E-05    0.6618948627E+00    0.1474816589E-04    0.4271779662E-02
    0.7000000000E+02    0.5648125639E-04    0.5498037019E-05    0.6712681924E+00    0.1946594073E-04    0.4273476676E-02
    0.9000000000E+02    0.6684802720E-04    0.6532483536E-05    0.6765912205E+00    0.2417422908E-04    0.4274190057E-02
    0.1100000000E+03    0.7733384751E-04    0.7577951228E-05    0.6800227427E+00    0.2886234566E-04    0.4274390604E-02
    0.1300000000E+03    0.8788649508E-04    0.8629439010E-05    0.6824188302E+00    0.3353090094E-04    0.4274281749E-02
    0.1500000000E+03    0.9848103368E-04    0.9684611256E-05    0.6841866782E+00    0.3818321559E-04    0.4273967916E-02
    0.1700000000E+03    0.1091052032E-03    0.1074235313E-04    0.6855447160E+00    0.4282303389E-04    0.4273509095E-02
    0.1900000000E+03    0.1197530948E-03    0.1180215318E-04    0.6866206308E+00    0.4745387623E-04    0.4272942607E-02
    0.2100000000E+03    0.1304221586E-03    0.1286381438E-04    0.6874940556E+00    0.5207888021E-04    0.4272293092E-02
    0.2300000000E+03    0.1411116872E-03    0.1392730921E-04    0.6882172311E+00    0.5670079522E-04    0.4271577577E-02
    0.2500000000E+03    0.1518220047E-03    0.1499270290E-04    0.6888258511E+00    0.6132202274E-04    0.4270808270E-02
    0.2700000000E+03    0.1625540151E-03    0.1606011124E-04    0.6893451333E+00    0.6594466576E-04    0.4269994188E-02
    0.2900000000E+03    0.1733089429E-03    0.1712967661E-04    0.6897933997E+00    0.7057057549E-04    0.4269142156E-02
    0.3100000000E+03    0.1840881804E-03    0.1820155407E-04    0.6901842829E+00    0.7520139168E-04    0.4268257449E-02
    0.3300000000E+03    0.1948931971E-03    0.1927590335E-04    0.6905281364E+00    0.7983857649E-04    0.4267344216E-02
    0.3500000000E+03    0.2057254851E-03    0.2035288402E-04    0.6908329640E+00    0.8448344239E-04    0.4266405769E-02
    0.3700000000E+03    0.2165865272E-03    0.2143265288E-04    0.6911050511E+00    0.8913717514E-04    0.4265444791E-02
    0.3900000000E+03    0.2274777774E-03    0.2251536237E-04    0.6913494022E+00    0.9380085275E-04    0.4264463474E-02
    0.4100000000E+03    0.2384006511E-03    0.2360115990E-04    0.6915700513E+00    0.9847546106E-04    0.4263463635E-02
    0.4300000000E+03    0.2493565195E-03    0.2469018752E-04    0.6917702864E+00    0.1031619067E-03    0.4262446785E-02
    0.4500000000E+03    0.2603467082E-03    0.2578258191E-04    0.6919528141E+00    0.1078610280E-03    0.4261414197E-02
    0.4700000000E+03    0.2713724966E-03    0.2687847453E-04    0.6921198830E+00    0.1125736040E-03    0.4260366947E-02
    0.4900000000E+03    0.2824351197E-03    0.2797799186E-04    0.6922733764E+00    0.1173003618E-03    0.4259305953E-02
    0.1000000000E+03    0.7208022793E-04    0.7054241474E-05    0.6784742664E+00    0.2652088287E-04    0.4274338349E-02
    0.3000000000E+03    0.1786954321E-03    0.1766531639E-04    0.6899953030E+00    0.7288527508E-04    0.4268703605E-02
    0.5000000000E+03    0.2879806185E-03    0.2852914803E-04    0.6923455388E+00    0.1196692737E-03    0.4258770551E-02
    0.7000000000E+03    0.4010952826E-03    0.3977010360E-04    0.6933571229E+00    0.1679395139E-03    0.4247482065E-02
    0.9000000000E+03    0.5190574212E-03    0.5149132507E-04    0.6939200472E+00    0.2182317712E-03    0.4235276072E-02
    0.1100000000E+04    0.6427015038E-03    0.6377645371E-04    0.6942785156E+00    0.2709356035E-03    0.4222258769E-02
    0.1300000000E+04    0.7727981652E-03    0.7670240268E-04    0.6945267357E+00    0.3263947103E-03    0.4208440425E-02
    0.1500000000E+04    0.9101157461E-03    0.9034570560E-04    0.6947087501E+00    0.3849451199E-03    0.4193791222E-02
    0.1700000000E+04    0.1055456082E-02    0.1047861554E-03    0.6948479028E+00    0.4469344139E-03    0.4178259184E-02
    0.1900000000E+04    0.1209679493E-02    0.1201093224E-03    0.6949577198E+00    0.5127339894E-03    0.4161776749E-02
    0.2100000000E+04    0.1373725475E-02    0.1364086275E-03    0.6950465790E+00    0.5827486465E-03    0.4144263077E-02
    0.2300000000E+04    0.1548632282E-02    0.1537872974E-03    0.6951199464E+00    0.6574253587E-03    0.4125624446E-02
    0.2500000000E+04    0.1735557198E-02    0.1723603845E-03    0.6951815402E+00    0.7372621929E-03    0.4105753626E-02
    0.2700000000E+04    0.1935798745E-02    0.1922569773E-03    0.6952339771E+00    0.8228179924E-03    0.4084528574E-02
    0.2900000000E+04    0.2150821830E-02    0.2136227033E-03    0.6952791526E+00    0.9147232983E-03    0.4061810596E-02
    0.3100000000E+04    0.2382286818E-02    0.2366226198E-03    0.6953184728E+00    0.1013692950E-02    0.4037442007E-02
    0.3300000000E+04    0.2632083552E-02    0.2614445981E-03    0.6953530033E+00    0.1120540821E-02    0.4011243262E-02
    0.3500000000E+04    0.2902371481E-02    0.2883033140E-03    0.6953835657E+00    0.1236197203E-02    0.3983009499E-02
    0.3700000000E+04    0.3195627242E-02    0.3174449795E-03    0.6954108045E+00    0.1361729414E-02    0.3952506424E-02
    0.3900000000E+04    0.3514701233E-02    0.3491529698E-03    0.6954352315E+00    0.1498366333E-02    0.3919465400E-02
    0.4100000000E+04    0.3862885016E-02    0.3837545259E-03    0.6954572588E+00    0.1647527631E-02    0.3883577651E-02
    0.4300000000E+04    0.4243991573E-02    0.4216287378E-03    0.6954772218E+00    0.1810858625E-02    0.3844487406E-02
    0.4500000000E+04    0.4662450729E-02    0.4632160347E-03    0.6954953963E+00    0.1990271740E-02    0.3801783867E-02
    0.4700000000E+04    0.5123422082E-02    0.5090294192E-03    0.6955120110E+00    0.2187995658E-02    0.3754991853E-02
    0.4900000000E+04    0.5632927672E-02    0.5596676649E-03    0.6955272574E+00    0.2406633134E-02    0.3703561044E-02
    0.1000000000E+04    0.5801204610E-03    0.5755852982E-04    0.6941171882E+00    0.2442602733E-03    0.4228866902E-02
    0.3000000000E+04    0.2264386787E-02    0.2249072240E-03    0.6952994714E+00    0.9632767244E-03    0.4049843300E-02
    0.5000000000E+04    0.5908035952E-02    0.5870104049E-03    0.6955344188E+00    0.2524726446E-02    0.3675910614E-02
    0.7000000000E+04    0.1655684500E-01    0.1645615954E-02    0.6956342929E+00    0.7112404845E-02    0.2654926344E-02
    0.9000000000E+04    0.4096931015E-01    0.4074342485E-02    0.6956892985E+00    0.1776264207E-01    0.6593072740E-03
    0.1100000000E+05    0.5278422213E-01    0.5253301672E-02    0.6957239871E+00    0.2316978946E-01    0.1761457634E-03
    0.1300000000E+05    0.5890896179E-01    0.5867271695E-02    0.6957477796E+00    0.2617671650E-01    0.1554758584E-03
    0.1500000000E+05    0.6409361230E-01    0.6388278691E-02    0.6957650616E+00    0.2881725329E-01    0.1557910678E-03
    0.1700000000E+05    0.6869241793E-01    0.6851418114E-02    0.6957781487E+00    0.3123566240E-01    0.1568356018E-03
    0.1900000000E+05    0.7280325793E-01    0.7266315479E-02    0.6957883780E+00    0.3346672759E-01    0.1578066819E-03
    0.2100000000E+05    0.7649685897E-01    0.7639920294E-02    0.6957965751E+00    0.3553510167E-01    0.1586875513E-03
    0.2300000000E+05    0.7983068289E-01    0.7977881920E-02    0.6958032768E+00    0.3746098296E-01    0.1594925362E-03
    0.2500000000E+05    0.8285218903E-01    0.8284869478E-02    0.6958088472E+00    0.3926122791E-01    0.1602338908E-03
    0.2700000000E+05    0.8560092904E-01    0.8564776786E-02    0.6958135417E+00    0.4095003229E-01    0.1609211700E-03
    0.2900000000E+05    0.8811012218E-01    0.8820876500E-02    0.6958175448E+00    0.4253944423E-01    0.1615619157E-03
    0.3100000000E+05    0.9040786835E-01    0.9055938848E-02    0.6958209929E+00    0.4403976173E-01    0.1621621834E-03
    0.3300000000E+05    0.9251809309E-01    0.9272324163E-02    0.6958239891E+00    0.4545984434E-01    0.1627269096E-03
    0.3500000000E+05    0.9446129121E-01    0.9472055736E-02    0.6958266127E+00    0.4680735999E-01    0.1632601727E-03
    0.3700000000E+05    0.9625511734E-01    0.9656877686E-02    0.6958289256E+00    0.4808898233E-01    0.1637653819E-03
    0.3900000000E+05    0.9791485881E-01    0.9828301323E-02    0.6958309768E+00    0.4931054973E-01    0.1642454161E-03
    0.4100000000E+05    0.9945381740E-01    0.9987642590E-02    0.6958328059E+00    0.5047719449E-01    0.1647027294E-03
    0.4300000000E+05    0.1008836197E+00    0.1013605252E-01    0.6958344446E+00    0.5159344856E-01    0.1651394308E-03
    0.4500000000E+05    0.1022144712E+00    0.1027454216E-01    0.6958359194E+00    0.5266333059E-01    0.1655573461E-03
    0.4700000000E+05    0.1034553657E+00    0.1040400316E-01    0.6958372517E+00    0.5369041819E-01    0.1659580672E-03
    0.4900000000E+05    0.1046142587E+00    0.1052522479E-01    0.6958384598E+00    0.5467790811E-01    0.1663429899E-03
    0.1000000000E+05    0.4852034130E-01    0.4827089804E-02    0.6957084165E+00    0.2116531633E-01    0.2671443479E-03
    0.3000000000E+05    0.8928384251E-01    0.8940881154E-02    0.6958193312E+00    0.4330015552E-01    0.1618667780E-03
    0.5000000000E+05    0.1051651929E+00    0.1058296804E-01    0.6958390220E+00    0.5515771139E-01    0.1665299173E-03
    0.7000000000E+05    0.1132333358E+00    0.1143993864E-01    0.6958464078E+00    0.6323582372E-01    0.1696740275E-03
    0.9000000000E+05    0.1178307549E+00    0.1194399145E-01    0.6958499197E+00    0.6935992125E-01    0.1720608671E-03
    0.1100000000E+06    0.1206170241E+00    0.1226158534E-01    0.6958517737E+00    0.7430410381E-01    0.1739907199E-03
    0.1300000000E+06    0.1223560531E+00    0.1246994727E-01    0.6958527909E+00    0.7846215471E-01    0.1756137338E-03
    0.1500000000E+06    0.1234450741E+00    0.1260956029E-01    0.6958533397E+00    0.8205972255E-01    0.1770160354E-03
    0.1700000000E+06    0.1241093159E+00    0.1270356967E-01    0.6958536073E+00    0.8523748126E-01    0.1782517172E-03
    0.1900000000E+06    0.1244850130E+00    0.1276609630E-01    0.6958536976E+00    0.8808881743E-01    0.1793570242E-03
    0.2100000000E+06    0.1246588061E+00    0.1280620131E-01    0.6958536722E+00    0.9067881487E-01    0.1803574537E-03
    0.2300000000E+06    0.1246880414E+00    0.1282993829E-01    0.6958535694E+00    0.9305462247E-01    0.1812716372E-03
    0.2500000000E+06    0.1246119294E+00    0.1284148695E-01    0.6958534139E+00    0.9525148976E-01    0.1821136107E-03
    0.2700000000E+06    0.1244580099E+00    0.1284381316E-01    0.6958532222E+00    0.9729646742E-01    0.1828942168E-03
    0.2900000000E+06    0.1242460658E+00    0.1283907054E-01    0.6958530057E+00    0.9921077560E-01    0.1836220082E-03
    0.3100000000E+06    0.1239905808E+00    0.1282885385E-01    0.6958527723E+00    0.1010113755E+00    0.1843038529E-03
    0.3300000000E+06    0.1237023318E+00    0.1281436414E-01    0.6958525277E+00    0.1027120446E+00    0.1849453507E-03
    0.3500000000E+06    0.1233894490E+00    0.1279651924E-01    0.6958522758E+00    0.1043241331E+00    0.1855511285E-03
    0.3700000000E+06    0.1230581397E+00    0.1277602952E-01    0.6958520197E+00    0.1058571068E+00    0.1861250544E-03
    0.3900000000E+06    0.1227131908E+00    0.1275345099E-01    0.6958517615E+00    0.1073189472E+00    0.1866703954E-03
    0.4100000000E+06    0.1223583262E+00    0.1272922305E-01    0.6958515028E+00    0.1087164493E+00    0.1871899365E-03
    0.4300000000E+06    0.1219964641E+00    0.1270369601E-01    0.6958512449E+00    0.1100554486E+00    0.1876860712E-03
    0.4500000000E+06    0.1216299052E+00    0.1267715123E-01    0.6958509885E+00    0.1113409959E+00    0.1881608722E-03
    0.4700000000E+06    0.1212604723E+00    0.1264981620E-01    0.6958507345E+00    0.1125774939E+00    0.1886161462E-03
    0.4900000000E+06    0.1208896151E+00    0.1262187596E-01    0.6958504831E+00    0.1137688048E+00    0.1890534778E-03
    0.1000000000E+06    0.1193903275E+00    0.1212004799E-01    0.6958509866E+00    0.7194944410E-01    0.1730714449E-03
    0.3000000000E+06    0.1241230200E+00    0.1283456366E-01    0.6958528907E+00    0.1001243635E+00    0.1839682981E-03
    0.5000000000E+06    0.1207040233E+00    0.1260772727E-01    0.6958503586E+00    0.1143485960E+00    0.1892658585E-03
    0.7000000000E+06    0.1170985302E+00    0.1231797819E-01    0.6958480533E+00    0.1242238604E+00    0.1928382819E-03
    0.9000000000E+06    0.1138462835E+00    0.1204162117E-01    0.6958460900E+00    0.1318695224E+00    0.1955504603E-03
    0.1100000000E+07    0.1109596918E+00    0.1178898589E-01    0.6958444019E+00    0.1381349236E+00    0.1977434457E-03
    0.1300000000E+07    0.1083861437E+00    0.1155934747E-01    0.6958429269E+00    0.1434533563E+00    0.1995877993E-03
    0.1500000000E+07    0.1060726382E+00    0.1134997104E-01    0.6958416186E+00    0.1480782123E+00    0.2011813667E-03
    0.1700000000E+07    0.1039753901E+00    0.1115805745E-01    0.6958404435E+00    0.1521714662E+00    0.2025856045E-03
    0.1900000000E+07    0.1020596371E+00    0.1098116503E-01    0.6958393771E+00    0.1558433813E+00    0.2038416943E-03
    0.2100000000E+07    0.1002978746E+00    0.1081725375E-01    0.6958384009E+00    0.1591726293E+00    0.2049786071E-03
    0.2300000000E+07    0.9866817431E-01    0.1066463714E-01    0.6958375006E+00    0.1622174281E+00    0.2060175133E-03
    0.2500000000E+07    0.9715286001E-01    0.1052191959E-01    0.6958366652E+00    0.1650221361E+00    0.2069743619E-03
    0.2700000000E+07    0.9573751636E-01    0.1038793976E-01    0.6958358857E+00    0.1676213692E+00    0.2078614735E-03
    0.2900000000E+07    0.9441025346E-01    0.1026172420E-01    0.6958351550E+00    0.1700426849E+00    0.2086885667E-03
    0.3100000000E+07    0.9316116024E-01    0.1014245057E-01    0.6958344673E+00    0.1723083962E+00    0.2094634460E-03
    0.3300000000E+07    0.9198189420E-01    0.1002941886E-01    0.6958338177E+00    0.1744368332E+00    0.2101924747E-03
    0.3500000000E+07    0.9086537034E-01    0.9922028792E-02    0.6958332021E+00    0.1764432458E+00    0.2108809108E-03
    0.3700000000E+07    0.8980552242E-01    0.9819762018E-02    0.6958326170E+00    0.1783404620E+00    0.2115331497E-03
    0.3900000000E+07    0.8879711777E-01    0.9722168055E-02    0.6958320596E+00    0.1801393784E+00    0.2121529042E-03
    0.4100000000E+07    0.8783561192E-01    0.9628853028E-02    0.6958315271E+00    0.1818493322E+00    0.2127433388E-03
    0.4300000000E+07    0.8691703349E-01    0.9539470637E-02    0.6958310176E+00    0.1834783869E+00    0.2133071739E-03
    0.4500000000E+07    0.8603789197E-01    0.9453714828E-02    0.6958305289E+00    0.1850335550E+00    0.2138467645E-03
    0.4700000000E+07    0.8519510332E-01    0.9371313816E-02    0.6958300595E+00    0.1865209744E+00    0.2143641639E-03
    0.4900000000E+07    0.8438592933E-01    0.9292025164E-02    0.6958296078E+00    0.1879460483E+00    0.2148611730E-03
    0.1000000000E+07    0.1123602936E+00    0.1191229192E-01    0.6958452158E+00    0.1351418413E+00    0.1966988210E-03
    0.3000000000E+07    0.9377648976E-01    0.1020126597E-01    0.6958348061E+00    0.1711937641E+00    0.2090821061E-03
    0.5000000000E+07    0.8399317430E-01    0.9253479220E-02    0.6958293882E+00    0.1886367218E+00    0.2151025349E-03
    0.7000000000E+07    0.7742827564E-01    0.8603446730E-02    0.6958256720E+00    0.2000949236E+00    0.2191624554E-03
    0.9000000000E+07    0.7253508722E-01    0.8112140906E-02    0.6958228281E+00    0.2085487642E+00    0.2222447485E-03
    0.1100000000E+08    0.6866397680E-01    0.7719478317E-02    0.6958205179E+00    0.2151962127E+00    0.2247370000E-03
    0.1300000000E+08    0.6548048948E-01    0.7393971426E-02    0.6958185691E+00    0.2206406054E+00    0.2268330443E-03
    0.1500000000E+08    0.6278992558E-01    0.7117053173E-02    0.6958168815E+00    0.2252284645E+00    0.2286440790E-03
    0.1700000000E+08    0.6046912470E-01    0.6876860472E-02    0.6958153921E+00    0.2291769814E+00    0.2302399471E-03
    0.1900000000E+08    0.5843534252E-01    0.6665357752E-02    0.6958140581E+00    0.2326310978E+00    0.2316674499E-03
    0.2100000000E+08    0.5663038147E-01    0.6476854158E-02    0.6958128495E+00    0.2356922351E+00    0.2329595119E-03
    0.2300000000E+08    0.5501180418E-01    0.6307175205E-02    0.6958117442E+00    0.2384340488E+00    0.2341401926E-03
    0.2500000000E+08    0.5354774837E-01    0.6153170262E-02    0.6958107255E+00    0.2409116574E+00    0.2352276175E-03
    0.2700000000E+08    0.5221370702E-01    0.6012404730E-02    0.6958097805E+00    0.2431673393E+00    0.2362357884E-03
