  Pressure (Pa) 22mC5-500 (mol/kg) 23mC5-500 (mol/kg) 24mC5-500 (mol/kg) 2mC6-500 (mol/kg) C7-500 (mol/kg)
    0.1000000000E+01    0.1144185707E-04    0.1094891795E-05    0.2142802156E+00    0.7449523782E-05    0.4146104901E-02
    0.3000000000E+01    0.1964957954E-04    0.1873890338E-05    0.3978491353E+00    0.1226929737E-04    0.4170283997E-02
    0.5000000000E+01    0.2288371999E-04    0.2179536102E-05    0.4801110977E+00    0.1434586044E-04    0.4176359570E-02
    0.7000000000E+01    0.2476386823E-04    0.2358276842E-05    0.5267936731E+00    0.1591182977E-04    0.4179166363E-02
    0.9000000000E+01    0.2616488050E-04    0.2492987022E-05    0.5568758043E+00    0.1738711270E-04    0.4180728417E-02
    0.1100000000E+02    0.2737555145E-04    0.2610702533E-05    0.5778756782E+00    0.1887093894E-04    0.4181673696E-02
    0.1300000000E+02    0.2850882893E-04    0.2721846910E-05    0.5933670183E+00    0.2038563126E-04    0.4182266220E-02
    0.1500000000E+02    0.2961354523E-04    0.2830844310E-05    0.6052659969E+00    0.2193259763E-04    0.4182637526E-02
    0.1700000000E+02    0.3071201748E-04    0.2939665281E-05    0.6146923861E+00    0.2350771342E-04    0.4182860830E-02
    0.1900000000E+02    0.3181461815E-04    0.3049189813E-05    0.6223443659E+00    0.2510591920E-04    0.4182980238E-02
    0.2100000000E+02    0.3292601751E-04    0.3159786038E-05    0.6286798678E+00    0.2672257883E-04    0.4183023943E-02
    0.2300000000E+02    0.3404806324E-04    0.3271574370E-05    0.6340117287E+00    0.2835380074E-04    0.4183010826E-02
    0.2500000000E+02    0.3518118370E-04    0.3384554635E-05    0.6385609392E+00    0.2999642782E-04    0.4182954013E-02
    0.2700000000E+02    0.3632509992E-04    0.3498669562E-05    0.6424880460E+00    0.3164793393E-04    0.4182862914E-02
    0.2900000000E+02    0.3747919689E-04    0.3613837251E-05    0.6459124946E+00    0.3330630756E-04    0.4182744452E-02
    0.3100000000E+02    0.3864272001E-04    0.3729967892E-05    0.6489249909E+00    0.3496994802E-04    0.4182603833E-02
    0.3300000000E+02    0.3981487928E-04    0.3846972291E-05    0.6515956546E+00    0.3663757982E-04    0.4182445046E-02
    0.3500000000E+02    0.4099490336E-04    0.3964766035E-05    0.6539795460E+00    0.3830818449E-04    0.4182271198E-02
    0.3700000000E+02    0.4218206633E-04    0.4083271315E-05    0.6561205027E+00    0.3998094694E-04    0.4182084744E-02
    0.3900000000E+02    0.4337569920E-04    0.4202417507E-05    0.6580538605E+00    0.4165521357E-04    0.4181887652E-02
    0.4100000000E+02    0.4457519327E-04    0.4322141089E-05    0.6598084187E+00    0.4333045953E-04    0.4181681511E-02
    0.4300000000E+02    0.4577999895E-04    0.4442385244E-05    0.6614078854E+00    0.4500626310E-04    0.4181467622E-02
    0.4500000000E+02    0.4698962234E-04    0.4563099309E-05    0.6628719545E+00    0.4668228546E-04    0.4181247060E-02
    0.4700000000E+02    0.4820362085E-04    0.4684238183E-05    0.6642171207E+00    0.4835825483E-04    0.4181020718E-02
    0.4900000000E+02    0.4942159845E-04    0.4805761741E-05    0.6654573041E+00    0.5003395378E-04    0.4180789345E-02
    0.1000000000E+02    0.2678472123E-04    0.2553108411E-05    0.5682329576E+00    0.1812574903E-04    0.4181257111E-02
    0.3000000000E+02    0.3805982953E-04    0.3671787855E-05    0.6474654466E+00    0.3413755590E-04    0.4182676639E-02
    0.5000000000E+02    0.5003196722E-04    0.4866656463E-05    0.6660417945E+00    0.5087164625E-04    0.4180671973E-02
    0.7000000000E+02    0.6238024348E-04    0.6097949714E-05    0.6743340477E+00    0.6758523787E-04    0.4178171978E-02
    0.9000000000E+02    0.7489198707E-04    0.7344469408E-05    0.6790309379E+00    0.8420916599E-04    0.4175527430E-02
    0.1100000000E+03    0.8749328055E-04    0.8599120338E-05    0.6820542100E+00    0.1007613691E-03    0.4172829904E-02
    0.1300000000E+03    0.1001574916E-03    0.9859454692E-05    0.6841631347E+00    0.1172702141E-03    0.4170110997E-02
    0.1500000000E+03    0.1128760298E-03    0.1112475790E-04    0.6857180315E+00    0.1337618047E-03    0.4167382994E-02
    0.1700000000E+03    0.1256478255E-03    0.1239502092E-04    0.6869118767E+00    0.1502582112E-03    0.4164650724E-02
    0.1900000000E+03    0.1384750907E-03    0.1367053303E-04    0.6878573468E+00    0.1667778393E-03    0.4161915805E-02
    0.2100000000E+03    0.1513614651E-03    0.1495170675E-04    0.6886246503E+00    0.1833361287E-03    0.4159178375E-02
    0.2300000000E+03    0.1643111601E-03    0.1623899862E-04    0.6892598128E+00    0.1999461872E-03    0.4156437879E-02
    0.2500000000E+03    0.1773285519E-03    0.1753287258E-04    0.6897942634E+00    0.2166192968E-03    0.4153693432E-02
    0.2700000000E+03    0.1904179872E-03    0.1883378324E-04    0.6902501964E+00    0.2333653027E-03    0.4150944011E-02
    0.2900000000E+03    0.2035836955E-03    0.2014216879E-04    0.6906437308E+00    0.2501929106E-03    0.4148188548E-02
    0.3100000000E+03    0.2168297534E-03    0.2145844872E-04    0.6909868560E+00    0.2671099138E-03    0.4145425978E-02
    0.3300000000E+03    0.2301600759E-03    0.2278302377E-04    0.6912886748E+00    0.2841233692E-03    0.4142655263E-02
    0.3500000000E+03    0.2435784221E-03    0.2411627709E-04    0.6915562225E+00    0.3012397350E-03    0.4139875404E-02
    0.3700000000E+03    0.2570884066E-03    0.2545857582E-04    0.6917950228E+00    0.3184649781E-03    0.4137085445E-02
    0.3900000000E+03    0.2706935131E-03    0.2681027287E-04    0.6920094726E+00    0.3358046615E-03    0.4134284471E-02
    0.4100000000E+03    0.2843971100E-03    0.2817170859E-04    0.6922031158E+00    0.3532640128E-03    0.4131471611E-02
    0.4300000000E+03    0.2982024641E-03    0.2954321242E-04    0.6923788404E+00    0.3708479818E-03    0.4128646028E-02
    0.4500000000E+03    0.3121127548E-03    0.3092510440E-04    0.6925390235E+00    0.3885612858E-03    0.4125806924E-02
    0.4700000000E+03    0.3261310862E-03    0.3231769656E-04    0.6926856394E+00    0.4064084494E-03    0.4122953529E-02
    0.4900000000E+03    0.3402604985E-03    0.3372129409E-04    0.6928203419E+00    0.4243938355E-03    0.4120085104E-02
    0.1000000000E+03    0.8118372644E-04    0.7970991655E-05    0.6806903991E+00    0.9249246093E-04    0.4174182624E-02
    0.3000000000E+03    0.2101964323E-03    0.2079929649E-04    0.6908209692E+00    0.2586397812E-03    0.4146808217E-02
    0.5000000000E+03    0.3473677953E-03    0.3442731365E-04    0.6928836703E+00    0.4334396881E-03    0.4118645031E-02
    0.7000000000E+03    0.4960584590E-03    0.4919683494E-04    0.6937714905E+00    0.6226000326E-03    0.4088890272E-02
    0.9000000000E+03    0.6591699708E-03    0.6539777510E-04    0.6942657024E+00    0.8300692326E-03    0.4056906699E-02
    0.1100000000E+04    0.8397070947E-03    0.8332925098E-04    0.6945805559E+00    0.1059767670E-02    0.4022111185E-02
    0.1300000000E+04    0.1041089367E-02    0.1033312821E-03    0.6947986863E+00    0.1316105888E-02    0.3983887600E-02
    0.1500000000E+04    0.1267383207E-02    0.1258080499E-03    0.6949587244E+00    0.1604310730E-02    0.3941534920E-02
    0.1700000000E+04    0.1523542570E-02    0.1512518832E-03    0.6950811462E+00    0.1930744076E-02    0.3894223063E-02
    0.1900000000E+04    0.1815699614E-02    0.1802721760E-03    0.6951778166E+00    0.2303280994E-02    0.3840945401E-02
    0.2100000000E+04    0.2151537638E-02    0.2136324724E-03    0.6952560855E+00    0.2731792641E-02    0.3780461636E-02
    0.2300000000E+04    0.2540780395E-02    0.2522991163E-03    0.6953207489E+00    0.3228779480E-02    0.3711225969E-02
    0.2500000000E+04    0.2995836735E-02    0.2975053469E-03    0.6953750693E+00    0.3810206338E-02    0.3631295926E-02
    0.2700000000E+04    0.3532641393E-02    0.3508349048E-03    0.6954213435E+00    0.4496593721E-02    0.3538218369E-02
    0.2900000000E+04    0.4171720026E-02    0.4143279574E-03    0.6954612352E+00    0.5314404563E-02    0.3428893473E-02
    0.3100000000E+04    0.4939452727E-02    0.4906068053E-03    0.6954959789E+00    0.6297698323E-02    0.3299429359E-02
    0.3300000000E+04    0.5869355775E-02    0.5830034970E-03    0.6955265101E+00    0.7489828763E-02    0.3145029320E-02
    0.3500000000E+04    0.7002825718E-02    0.6956341614E-03    0.6955535506E+00    0.8944482667E-02    0.2960018219E-02
    0.3700000000E+04    0.8387991445E-02    0.8332855339E-03    0.6955776663E+00    0.1072433241E-01    0.2738241050E-02
    0.3900000000E+04    0.1007391638E-01    0.1000839630E-02    0.6955993070E+00    0.1289376265E-01    0.2474266561E-02
    0.4100000000E+04    0.1209580549E-01    0.1201804565E-02    0.6956188348E+00    0.1550004989E-01    0.2165996988E-02
    0.4300000000E+04    0.1444774262E-01    0.1435605592E-02    0.6956365444E+00    0.1853838916E-01    0.1818959326E-02
    0.4500000000E+04    0.1704903493E-01    0.1694238896E-02    0.6956526783E+00    0.2190829747E-01    0.1450826970E-02
    0.4700000000E+04    0.1973089547E-01    0.1960943546E-02    0.6956674374E+00    0.2539552199E-01    0.1091651817E-02
    0.4900000000E+04    0.2227821586E-01    0.2214346787E-02    0.6956809903E+00    0.2872446875E-01    0.7751470118E-03
    0.1000000000E+04    0.7470591407E-03    0.7412718594E-04    0.6944388384E+00    0.9418797126E-03    0.4039897484E-02
    0.3000000000E+04    0.4537590606E-02    0.4506788839E-03    0.6954791862E+00    0.5782892431E-02    0.3366956643E-02
    0.5000000000E+04    0.2344321795E-01    0.2330274306E-02    0.6956873595E+00    0.3025440656E-01    0.6408449171E-03
    0.7000000000E+04    0.3435827679E-01    0.3419457796E-02    0.6957764744E+00    0.4524209015E-01    0.3670859523E-04
    0.9000000000E+04    0.4021710507E-01    0.4007337863E-02    0.6958259073E+00    0.5399658877E-01    0.3339077347E-04
    0.1100000000E+05    0.4503461780E-01    0.4492453495E-02    0.6958573109E+00    0.6158516105E-01    0.3374127833E-04
    0.1300000000E+05    0.4906350504E-01    0.4899630228E-02    0.6958790121E+00    0.6827257979E-01    0.3405628693E-04
    0.1500000000E+05    0.5246706736E-01    0.5244901710E-02    0.6958948960E+00    0.7422708439E-01    0.3432858606E-04
    0.1700000000E+05    0.5536717610E-01    0.5540246609E-02    0.6959070184E+00    0.7957629832E-01    0.3456849587E-04
    0.1900000000E+05    0.5785663613E-01    0.5794796695E-02    0.6959165692E+00    0.8441904480E-01    0.3478306783E-04
    0.2100000000E+05    0.6000729263E-01    0.6015629228E-02    0.6959242848E+00    0.8883311800E-01    0.3497726209E-04
    0.2300000000E+05    0.6187557846E-01    0.6208309512E-02    0.6959306450E+00    0.9288065403E-01    0.3515470189E-04
    0.2500000000E+05    0.6350639633E-01    0.6377270820E-02    0.6959359760E+00    0.9661192771E-01    0.3531811608E-04
    0.2700000000E+05    0.6493588953E-01    0.6526085716E-02    0.6959405073E+00    0.1000680897E+00    0.3546961213E-04
    0.2900000000E+05    0.6619345447E-01    0.6657663259E-02    0.6959444050E+00    0.1032831745E+00    0.3561085218E-04
    0.3100000000E+05    0.6730322584E-01    0.6774394630E-02    0.6959477920E+00    0.1062855975E+00    0.3574317070E-04
    0.3300000000E+05    0.6828518833E-01    0.6878262200E-02    0.6959507618E+00    0.1090992864E+00    0.3586765561E-04
    0.3500000000E+05    0.6915601971E-01    0.6970922303E-02    0.6959533861E+00    0.1117445481E+00    0.3598520575E-04
    0.3700000000E+05    0.6992973771E-01    0.7053768791E-02    0.6959557212E+00    0.1142387404E+00    0.3609657242E-04
    0.3900000000E+05    0.7061820191E-01    0.7127982368E-02    0.6959578120E+00    0.1165967986E+00    0.3620239016E-04
    0.4100000000E+05    0.7123150691E-01    0.7194569276E-02    0.6959596943E+00    0.1188316516E+00    0.3630319982E-04
    0.4300000000E+05    0.7177829328E-01    0.7254391896E-02    0.6959613974E+00    0.1209545548E+00    0.3639946619E-04
    0.4500000000E+05    0.7226599554E-01    0.7308193181E-02    0.6959629454E+00    0.1229753583E+00    0.3649159174E-04
    0.4700000000E+05    0.7270104149E-01    0.7356616303E-02    0.6959643582E+00    0.1249027239E+00    0.3657992727E-04
    0.4900000000E+05    0.7308901361E-01    0.7400220579E-02    0.6959656525E+00    0.1267443034E+00    0.3666478046E-04
    0.1000000000E+05    0.4273675863E-01    0.4260846902E-02    0.6958431862E+00    0.5791610343E-01    0.3356472060E-04
    0.3000000000E+05    0.6676547903E-01    0.6717752315E-02    0.6959461559E+00    0.1048093793E+00    0.3567805362E-04
    0.5000000000E+05    0.7326689327E-01    0.7420370754E-02    0.6959662597E+00    0.1276350749E+00    0.3670598724E-04
    0.7000000000E+05    0.7525791769E-01    0.7661392164E-02    0.6959746608E+00    0.1422510450E+00    0.3739909153E-04
    0.9000000000E+05    0.7559552051E-01    0.7728654586E-02    0.6959792056E+00    0.1528681173E+00    0.3792526785E-04
    0.1100000000E+06    0.7521967556E-01    0.7718337245E-02    0.6959820183E+00    0.1611527902E+00    0.3835070641E-04
    0.1300000000E+06    0.7451187813E-01    0.7670160202E-02    0.6959839095E+00    0.1679199162E+00    0.3870850463E-04
    0.1500000000E+06    0.7364800894E-01    0.7602809238E-02    0.6959852549E+00    0.1736246473E+00    0.3901764796E-04
    0.1700000000E+06    0.7271610644E-01    0.7525866941E-02    0.6959862514E+00    0.1785456713E+00    0.3929006051E-04
    0.1900000000E+06    0.7176262520E-01    0.7444544134E-02    0.6959870126E+00    0.1828654912E+00    0.3953373217E-04
    0.2100000000E+06    0.7081281993E-01    0.7361786372E-02    0.6959876078E+00    0.1867099108E+00    0.3975428369E-04
    0.2300000000E+06    0.6988052997E-01    0.7279296424E-02    0.6959880820E+00    0.1901692230E+00    0.3995582225E-04
    0.2500000000E+06    0.6897319501E-01    0.7198064868E-02    0.6959884656E+00    0.1933103800E+00    0.4014144207E-04
    0.2700000000E+06    0.6809456244E-01    0.7118660399E-02    0.6959887797E+00    0.1961843765E+00    0.4031353331E-04
    0.2900000000E+06    0.6724620972E-01    0.7041395584E-02    0.6959890395E+00    0.1988309347E+00    0.4047398146E-04
    0.3100000000E+06    0.6642842893E-01    0.6966424837E-02    0.6959892562E+00    0.2012815914E+00    0.4062430051E-04
    0.3300000000E+06    0.6564075386E-01    0.6893803983E-02    0.6959894381E+00    0.2035617979E+00    0.4076572495E-04
    0.3500000000E+06    0.6488228040E-01    0.6823527313E-02    0.6959895917E+00    0.2056923878E+00    0.4089927479E-04
    0.3700000000E+06    0.6415186390E-01    0.6755551056E-02    0.6959897219E+00    0.2076906284E+00    0.4102580274E-04
    0.3900000000E+06    0.6344824175E-01    0.6689808450E-02    0.6959898326E+00    0.2095709890E+00    0.4114602902E-04
    0.4100000000E+06    0.6277010951E-01    0.6626219520E-02    0.6959899271E+00    0.2113457132E+00    0.4126056758E-04
    0.4300000000E+06    0.6211616801E-01    0.6564697454E-02    0.6959900077E+00    0.2130252521E+00    0.4136994609E-04
    0.4500000000E+06    0.6148515172E-01    0.6505152754E-02    0.6959900766E+00    0.2146185973E+00    0.4147462145E-04
    0.4700000000E+06    0.6087584540E-01    0.6447495940E-02    0.6959901353E+00    0.2161335394E+00    0.4157499196E-04
    0.4900000000E+06    0.6028709302E-01    0.6391639265E-02    0.6959901855E+00    0.2175768726E+00    0.4167140696E-04
    0.1000000000E+06    0.7546584854E-01    0.7729988988E-02    0.6959807625E+00    0.1572392701E+00    0.3814805058E-04
    0.3000000000E+06    0.6683351371E-01    0.7003618169E-02    0.6959891526E+00    0.2000790370E+00    0.4055032429E-04
    0.5000000000E+06    0.6000008054E-01    0.6364359307E-02    0.6959902076E+00    0.2182735772E+00    0.4171822887E-04
    0.7000000000E+06    0.5510746489E-01    0.5894674662E-02    0.6959903965E+00    0.2295749598E+00    0.4250581653E-04
    0.9000000000E+06    0.5138313515E-01    0.5531817313E-02    0.6959903537E+00    0.2376199997E+00    0.4310375604E-04
    0.1100000000E+07    0.4841433131E-01    0.5239561698E-02    0.6959902312E+00    0.2437817475E+00    0.4358723439E-04
    0.1300000000E+07    0.4596781028E-01    0.4996799427E-02    0.6959900797E+00    0.2487245990E+00    0.4399385304E-04
    0.1500000000E+07    0.4390115338E-01    0.4790404931E-02    0.6959899194E+00    0.2528190915E+00    0.4434518294E-04
    0.1700000000E+07    0.4212173557E-01    0.4611732543E-02    0.6959897587E+00    0.2562921251E+00    0.4465477278E-04
    0.1900000000E+07    0.4056624266E-01    0.4454814991E-02    0.6959896016E+00    0.2592922283E+00    0.4493170143E-04
    0.2100000000E+07    0.3918964273E-01    0.4315374914E-02    0.6959894498E+00    0.2619216333E+00    0.4518235590E-04
    0.2300000000E+07    0.3795885662E-01    0.4190249827E-02    0.6959893039E+00    0.2642535234E+00    0.4541140340E-04
    0.2500000000E+07    0.3684892803E-01    0.4077040530E-02    0.6959891640E+00    0.2663419689E+00    0.4562236012E-04
    0.2700000000E+07    0.3584060206E-01    0.3973886938E-02    0.6959890301E+00    0.2682279700E+00    0.4581794224E-04
    0.2900000000E+07    0.3491873634E-01    0.3879319952E-02    0.6959889018E+00    0.2699433018E+00    0.4600029241E-04
    0.3100000000E+07    0.3407122513E-01    0.3792160549E-02    0.6959887788E+00    0.2715130502E+00    0.4617113119E-04
    0.3300000000E+07    0.3328825080E-01    0.3711449212E-02    0.6959886608E+00    0.2729573392E+00    0.4633186146E-04
    0.3500000000E+07    0.3256175055E-01    0.3636395412E-02    0.6959885475E+00    0.2742925385E+00    0.4648364241E-04
    0.3700000000E+07    0.3188502857E-01    0.3566340721E-02    0.6959884386E+00    0.2755321275E+00    0.4662744310E-04
    0.3900000000E+07    0.3125246879E-01    0.3500731385E-02    0.6959883338E+00    0.2766873269E+00    0.4676408203E-04
    0.4100000000E+07    0.3065931858E-01    0.3439097600E-02    0.6959882327E+00    0.2777675679E+00    0.4689425692E-04
    0.4300000000E+07    0.3010152354E-01    0.3381037637E-02    0.6959881352E+00    0.2787808464E+00    0.4701856744E-04
    0.4500000000E+07    0.2957559960E-01    0.3326205511E-02    0.6959880411E+00    0.2797339953E+00    0.4713753286E-04
    0.4700000000E+07    0.2907853279E-01    0.3274301299E-02    0.6959879500E+00    0.2806328952E+00    0.4725160582E-04
    0.4900000000E+07    0.2860769996E-01    0.3225063450E-02    0.6959878619E+00    0.2814826402E+00    0.4736118335E-04
    0.1000000000E+07    0.4982170404E-01    0.5378429815E-02    0.6959902981E+00    0.2408850895E+00    0.4335693004E-04
    0.3000000000E+07    0.3448634655E-01    0.3834878746E-02    0.6959888396E+00    0.2707450161E+00    0.4608705659E-04
    0.5000000000E+07    0.2838139251E-01    0.3201371627E-02    0.6959878189E+00    0.2818904893E+00    0.4741439739E-04
    0.7000000000E+07    0.2480085356E-01    0.2824257849E-02    0.6959870760E+00    0.2882955699E+00    0.4830950850E-04
    0.9000000000E+07    0.2235865459E-01    0.2564453451E-02    0.6959864924E+00    0.2926167097E+00    0.4898908203E-04
    0.1100000000E+08    0.2054899578E-01    0.2370480682E-02    0.6959860112E+00    0.2957960600E+00    0.4953856825E-04
    0.1300000000E+08    0.1913532605E-01    0.2218030837E-02    0.6959856013E+00    0.2982672152E+00    0.5000070169E-04
    0.1500000000E+08    0.1798966698E-01    0.2093855032E-02    0.6959852439E+00    0.3002622532E+00    0.5039999808E-04
    0.1700000000E+08    0.1703571051E-01    0.1990006109E-02    0.6959849269E+00    0.3019184730E+00    0.5075185581E-04
    0.1900000000E+08    0.1622466131E-01    0.1901376592E-02    0.6959846419E+00    0.3033231427E+00    0.5106659322E-04
    0.2100000000E+08    0.1552362186E-01    0.1824508045E-02    0.6959843829E+00    0.3045348145E+00    0.5135146928E-04
    0.2300000000E+08    0.1490947296E-01    0.1756960693E-02    0.6959841455E+00    0.3055944734E+00    0.5161178842E-04
    0.2500000000E+08    0.1436541428E-01    0.1696955529E-02    0.6959839262E+00    0.3065318030E+00    0.5185154686E-04
    0.2700000000E+08    0.1387889583E-01    0.1643159513E-02    0.6959837223E+00    0.3073689138E+00    0.5207383163E-04
