  Pressure (Pa) 22mC5-500 (mol/kg) 23mC5-500 (mol/kg) 24mC5-500 (mol/kg) 2mC6-500 (mol/kg) C7-500 (mol/kg)
    0.1000000000E+01    0.1585309752E-04    0.2278010517E-05    0.3665721473E-01    0.6915989156E-05    0.4239387319E-02
    0.3000000000E+01    0.4190216963E-04    0.6014251189E-05    0.9946549613E-01    0.1787919774E-04    0.4370853824E-02
    0.5000000000E+01    0.6248310293E-04    0.8960024638E-05    0.1513198431E+00    0.2621743140E-04    0.4478566112E-02
    0.7000000000E+01    0.7905425741E-04    0.1132704383E-04    0.1948563153E+00    0.3269317475E-04    0.4569338150E-02
    0.9000000000E+01    0.9260101499E-04    0.1325816733E-04    0.2319279312E+00    0.3780694244E-04    0.4647020064E-02
    0.1100000000E+02    0.1038192131E-03    0.1485417358E-04    0.2638753245E+00    0.4190460004E-04    0.4714323858E-02
    0.1300000000E+02    0.1132139976E-03    0.1618815222E-04    0.2916923970E+00    0.4523206561E-04    0.4773247379E-02
    0.1500000000E+02    0.1211602405E-03    0.1731429094E-04    0.3161316084E+00    0.4796804030E-04    0.4825301030E-02
    0.1700000000E+02    0.1279413499E-03    0.1827351602E-04    0.3377730946E+00    0.5024473943E-04    0.4871649691E-02
    0.1900000000E+02    0.1337750524E-03    0.1909723728E-04    0.3570713287E+00    0.5216150007E-04    0.4913206891E-02
    0.2100000000E+02    0.1388309852E-03    0.1980990193E-04    0.3743873983E+00    0.5379395957E-04    0.4950699482E-02
    0.2300000000E+02    0.1432429754E-03    0.2043077621E-04    0.3900118208E+00    0.5520038807E-04    0.4984713215E-02
    0.2500000000E+02    0.1471177796E-03    0.2097521278E-04    0.4041809804E+00    0.5642614313E-04    0.5015725529E-02
    0.2700000000E+02    0.1505414153E-03    0.2145556823E-04    0.4170891765E+00    0.5750685717E-04    0.5044129574E-02
    0.2900000000E+02    0.1535838178E-03    0.2188187771E-04    0.4288975902E+00    0.5847075303E-04    0.5070252093E-02
    0.3100000000E+02    0.1563023145E-03    0.2226235789E-04    0.4397410528E+00    0.5934034904E-04    0.5094366933E-02
    0.3300000000E+02    0.1587442500E-03    0.2260378669E-04    0.4497332190E+00    0.6013373021E-04    0.5116705372E-02
    0.3500000000E+02    0.1609489923E-03    0.2291179339E-04    0.4589705674E+00    0.6086550636E-04    0.5137464113E-02
    0.3700000000E+02    0.1629494826E-03    0.2319108259E-04    0.4675355274E+00    0.6154754194E-04    0.5156811542E-02
    0.3900000000E+02    0.1647734439E-03    0.2344560870E-04    0.4754989468E+00    0.6218951690E-04    0.5174892668E-02
    0.4100000000E+02    0.1664443322E-03    0.2367871328E-04    0.4829220566E+00    0.6279936155E-04    0.5191833059E-02
    0.4300000000E+02    0.1679820916E-03    0.2389323386E-04    0.4898580497E+00    0.6338359648E-04    0.5207742015E-02
    0.4500000000E+02    0.1694037575E-03    0.2409159095E-04    0.4963533577E+00    0.6394760002E-04    0.5222715128E-02
    0.4700000000E+02    0.1707239429E-03    0.2427585807E-04    0.5024486925E+00    0.6449582028E-04    0.5236836377E-02
    0.4900000000E+02    0.1719552326E-03    0.2444781843E-04    0.5081799004E+00    0.6503194427E-04    0.5250179850E-02
    0.1000000000E+02    0.9846598501E-04    0.1409296554E-04    0.2484733650E+00    0.3996553110E-04    0.4681830828E-02
    0.3000000000E+02    0.1549803874E-03    0.2207739290E-04    0.4344323924E+00    0.5891611682E-04    0.5082545124E-02
    0.5000000000E+02    0.1725410001E-03    0.2452967303E-04    0.5109190045E+00    0.6529644819E-04    0.5256580724E-02
    0.7000000000E+02    0.1815724695E-03    0.2580046917E-04    0.5526224440E+00    0.7046546059E-04    0.5356317079E-02
    0.9000000000E+02    0.1882440044E-03    0.2675868702E-04    0.5788753701E+00    0.7594727974E-04    0.5422051399E-02
    0.1100000000E+03    0.1943269430E-03    0.2764896323E-04    0.5969224723E+00    0.8193052986E-04    0.5469197819E-02
    0.1300000000E+03    0.2004169629E-03    0.2855120895E-04    0.6100911634E+00    0.8836889581E-04    0.5504977981E-02
    0.1500000000E+03    0.2067239372E-03    0.2949215303E-04    0.6201239995E+00    0.9518384619E-04    0.5533247876E-02
    0.1700000000E+03    0.2133153112E-03    0.3047932143E-04    0.6280218914E+00    0.1023054959E-03    0.5556264811E-02
    0.1900000000E+03    0.2202027377E-03    0.3151296607E-04    0.6344007331E+00    0.1096785815E-03    0.5575443903E-02
    0.2100000000E+03    0.2273759752E-03    0.3259064967E-04    0.6396602939E+00    0.1172607986E-03    0.5591720655E-02
    0.2300000000E+03    0.2348169546E-03    0.3370910194E-04    0.6440713762E+00    0.1250199708E-03    0.5605740274E-02
    0.2500000000E+03    0.2425057737E-03    0.3486498184E-04    0.6478239415E+00    0.1329315511E-03    0.5617963437E-02
    0.2700000000E+03    0.2504232213E-03    0.3605517845E-04    0.6510551829E+00    0.1409766899E-03    0.5628728691E-02
    0.2900000000E+03    0.2585517560E-03    0.3727691181E-04    0.6538666580E+00    0.1491408044E-03    0.5638290970E-02
    0.3100000000E+03    0.2668757902E-03    0.3852774736E-04    0.6563351540E+00    0.1574125294E-03    0.5646846302E-02
    0.3300000000E+03    0.2753816652E-03    0.3980557460E-04    0.6585198060E+00    0.1657829501E-03    0.5654548172E-02
    0.3500000000E+03    0.2840575000E-03    0.4110857295E-04    0.6604668936E+00    0.1742450350E-03    0.5661518670E-02
    0.3700000000E+03    0.2928929973E-03    0.4243517518E-04    0.6622131542E+00    0.1827932158E-03    0.5667856278E-02
    0.3900000000E+03    0.3018792464E-03    0.4378403283E-04    0.6637881221E+00    0.1914230712E-03    0.5673641426E-02
    0.4100000000E+03    0.3110085404E-03    0.4515398533E-04    0.6652158112E+00    0.2001310877E-03    0.5678940532E-02
    0.4300000000E+03    0.3202742124E-03    0.4654403314E-04    0.6665159472E+00    0.2089144769E-03    0.5683808990E-02
    0.4500000000E+03    0.3296704932E-03    0.4795331474E-04    0.6677048838E+00    0.2177710342E-03    0.5688293419E-02
    0.4700000000E+03    0.3391923886E-03    0.4938108716E-04    0.6687962941E+00    0.2266990287E-03    0.5692433372E-02
    0.4900000000E+03    0.3488355752E-03    0.5082670941E-04    0.6698016979E+00    0.2356971168E-03    0.5696262659E-02
    0.1000000000E+03    0.1913079222E-03    0.2720539598E-04    0.5886637950E+00    0.7887737739E-04    0.5447385034E-02
    0.3000000000E+03    0.2626902331E-03    0.3789883094E-04    0.6551397338E+00    0.1532638227E-03    0.5642684065E-02
    0.5000000000E+03    0.3537014626E-03    0.5155603833E-04    0.6702752607E+00    0.2402221150E-03    0.5698070057E-02
    0.7000000000E+03    0.4567172079E-03    0.6698141175E-04    0.6769739771E+00    0.3342739111E-03    0.5723229538E-02
    0.9000000000E+03    0.5698045553E-03    0.8389235566E-04    0.6807506220E+00    0.4352230061E-03    0.5735136812E-02
    0.1100000000E+04    0.6928527421E-03    0.1022773216E-03    0.6831737331E+00    0.5436703319E-03    0.5739287021E-02
    0.1300000000E+04    0.8264467460E-03    0.1222267128E-03    0.6848597185E+00    0.6604847379E-03    0.5738039922E-02
    0.1500000000E+04    0.9715570218E-03    0.1438872824E-03    0.6861000925E+00    0.7867125825E-03    0.5732556196E-02
    0.1700000000E+04    0.1129448875E-02    0.1674490742E-03    0.6870505967E+00    0.9235744918E-03    0.5723433059E-02
    0.1900000000E+04    0.1301669033E-02    0.1931436808E-03    0.6878019944E+00    0.1072488984E-02    0.5710959012E-02
    0.2100000000E+04    0.1490068024E-02    0.2212477335E-03    0.6884107535E+00    0.1235109906E-02    0.5695229232E-02
    0.2300000000E+04    0.1696845360E-02    0.2520897310E-03    0.6889138449E+00    0.1413375496E-02    0.5676201196E-02
    0.2500000000E+04    0.1924614327E-02    0.2860597604E-03    0.6893364865E+00    0.1609570321E-02    0.5653721108E-02
    0.2700000000E+04    0.2176487506E-02    0.3236222893E-03    0.6896964693E+00    0.1826402931E-02    0.5627534154E-02
    0.2900000000E+04    0.2456186611E-02    0.3653325757E-03    0.6900067026E+00    0.2067103383E-02    0.5597284459E-02
    0.3100000000E+04    0.2768182271E-02    0.4118575360E-03    0.6902767812E+00    0.2335546026E-02    0.5562507365E-02
    0.3300000000E+04    0.3117871261E-02    0.4640021982E-03    0.6905139840E+00    0.2636404449E-02    0.5522615018E-02
    0.3500000000E+04    0.3511800692E-02    0.5227431579E-03    0.6907239329E+00    0.2975347097E-02    0.5476875365E-02
    0.3700000000E+04    0.3957950432E-02    0.5892707246E-03    0.6909110389E+00    0.3359283634E-02    0.5424384159E-02
    0.3900000000E+04    0.4466086070E-02    0.6650415972E-03    0.6910788112E+00    0.3796673076E-02    0.5364029418E-02
    0.4100000000E+04    0.5048193378E-02    0.7518437084E-03    0.6912300761E+00    0.4297903717E-02    0.5294448128E-02
    0.4300000000E+04    0.5718998338E-02    0.8518738533E-03    0.6913671357E+00    0.4875749147E-02    0.5213976128E-02
    0.4500000000E+04    0.6496557820E-02    0.9678258899E-03    0.6914918838E+00    0.5545888675E-02    0.5120594987E-02
    0.4700000000E+04    0.7402862591E-02    0.1102980833E-02    0.6916058925E+00    0.6327443456E-02    0.5011885656E-02
    0.4900000000E+04    0.8464304420E-02    0.1261276756E-02    0.6917104776E+00    0.7243402575E-02    0.4885010360E-02
    0.1000000000E+04    0.6300579668E-03    0.9289653996E-04    0.6820814889E+00    0.4884596002E-03    0.5737993766E-02
    0.3000000000E+04    0.2607834152E-02    0.3879464984E-03    0.6901462611E+00    0.2197585634E-02    0.5580495477E-02
    0.5000000000E+04    0.9062673449E-02    0.1350516095E-02    0.6917595901E+00    0.7760051341E-02    0.4813769575E-02
    0.7000000000E+04    0.3169464115E-01    0.4727862236E-02    0.6924431473E+00    0.2750094723E-01    0.2406712243E-02
    0.9000000000E+04    0.4263670297E-01    0.6366684010E-02    0.6928176161E+00    0.3761421158E-01    0.1904631027E-02
    0.1100000000E+05    0.4825631694E-01    0.7212998727E-02    0.6930522877E+00    0.4326074215E-01    0.1917639450E-02
    0.1300000000E+05    0.5298380538E-01    0.7927118374E-02    0.6932121330E+00    0.4822850948E-01    0.1935639058E-02
    0.1500000000E+05    0.5705594252E-01    0.8544068191E-02    0.6933273764E+00    0.5269512173E-01    0.1951269505E-02
    0.1700000000E+05    0.6059213248E-01    0.9081442537E-02    0.6934139606E+00    0.5674337345E-01    0.1965020231E-02
    0.1900000000E+05    0.6368400509E-01    0.9552752893E-02    0.6934810783E+00    0.6043745897E-01    0.1977303053E-02
    0.2100000000E+05    0.6640374970E-01    0.9968653670E-02    0.6935343959E+00    0.6382865262E-01    0.1988408120E-02
    0.2300000000E+05    0.6880899450E-01    0.1033765796E-01    0.6935775923E+00    0.6695845614E-01    0.1998546711E-02
    0.2500000000E+05    0.7094627655E-01    0.1066664678E-01    0.6936131576E+00    0.6986084997E-01    0.2007877520E-02
    0.2700000000E+05    0.7285356797E-01    0.1096123993E-01    0.6936428358E+00    0.7256394569E-01    0.2016522832E-02
    0.2900000000E+05    0.7456214428E-01    0.1122607045E-01    0.6936678834E+00    0.7509121844E-01    0.2024578910E-02
    0.3100000000E+05    0.7609798613E-01    0.1146499070E-01    0.6936892283E+00    0.7746243928E-01    0.2032122913E-02
    0.3300000000E+05    0.7748284456E-01    0.1168122889E-01    0.6937075695E+00    0.7969438960E-01    0.2039217662E-02
    0.3500000000E+05    0.7873506011E-01    0.1187750972E-01    0.6937234438E+00    0.8180141516E-01    0.2045914993E-02
    0.3700000000E+05    0.7987019962E-01    0.1205614802E-01    0.6937372695E+00    0.8379586032E-01    0.2052258191E-02
    0.3900000000E+05    0.8090155606E-01    0.1221912244E-01    0.6937493774E+00    0.8568841176E-01    0.2058283776E-02
    0.4100000000E+05    0.8184054473E-01    0.1236813376E-01    0.6937600323E+00    0.8748837312E-01    0.2064022853E-02
    0.4300000000E+05    0.8269701966E-01    0.1250465165E-01    0.6937694485E+00    0.8920388629E-01    0.2069502133E-02
    0.4500000000E+05    0.8347952865E-01    0.1262995218E-01    0.6937778014E+00    0.9084211108E-01    0.2074744728E-02
    0.4700000000E+05    0.8419552005E-01    0.1274514842E-01    0.6937852354E+00    0.9240937224E-01    0.2079770770E-02
    0.4900000000E+05    0.8485151176E-01    0.1285121538E-01    0.6937918711E+00    0.9391128057E-01    0.2084597909E-02
    0.1000000000E+05    0.4559182652E-01    0.6811386699E-02    0.6929471437E+00    0.4054965678E-01    0.1908281937E-02
    0.3000000000E+05    0.7535020906E-01    0.1134855453E-01    0.6936789705E+00    0.7629522360E-01    0.2028410703E-02
    0.5000000000E+05    0.8515882486E-01    0.1290109745E-01    0.6937949216E+00    0.9463931061E-01    0.2086941823E-02
    0.7000000000E+05    0.8923346541E-01    0.1358124870E-01    0.6938316345E+00    0.1067355270E+00    0.2126344506E-02
    0.9000000000E+05    0.9100066936E-01    0.1390382679E-01    0.6938447201E+00    0.1157133838E+00    0.2156234552E-02
    0.1100000000E+06    0.9166526483E-01    0.1405193331E-01    0.6938483327E+00    0.1228440366E+00    0.2180391070E-02
    0.1300000000E+06    0.9174668814E-01    0.1410547210E-01    0.6938475316E+00    0.1287587176E+00    0.2200700737E-02
    0.1500000000E+06    0.9149975775E-01    0.1410415775E-01    0.6938444980E+00    0.1338137849E+00    0.2218244719E-02
    0.1700000000E+06    0.9106109403E-01    0.1406959019E-01    0.6938402912E+00    0.1382292137E+00    0.2233701598E-02
    0.1900000000E+06    0.9050879660E-01    0.1401431472E-01    0.6938354688E+00    0.1421500249E+00    0.2247525837E-02
    0.2100000000E+06    0.8988968475E-01    0.1394598735E-01    0.6938303412E+00    0.1456767702E+00    0.2260037020E-02
    0.2300000000E+06    0.8923284110E-01    0.1386946150E-01    0.6938250882E+00    0.1488820026E+00    0.2271468604E-02
    0.2500000000E+06    0.8855681094E-01    0.1378790591E-01    0.6938198163E+00    0.1518197876E+00    0.2281996421E-02
    0.2700000000E+06    0.8787364023E-01    0.1370343687E-01    0.6938145897E+00    0.1545314997E+00    0.2291756270E-02
    0.2900000000E+06    0.8719124227E-01    0.1361749208E-01    0.6938094466E+00    0.1570495149E+00    0.2300855255E-02
    0.3100000000E+06    0.8651483657E-01    0.1353106004E-01    0.6938044096E+00    0.1593996519E+00    0.2309379365E-02
    0.3300000000E+06    0.8584785085E-01    0.1344482526E-01    0.6937994912E+00    0.1616028378E+00    0.2317398706E-02
    0.3500000000E+06    0.8519250162E-01    0.1335926277E-01    0.6937946974E+00    0.1636762763E+00    0.2324971197E-02
    0.3700000000E+06    0.8455017617E-01    0.1327470099E-01    0.6937900303E+00    0.1656342856E+00    0.2332145253E-02
    0.3900000000E+06    0.8392168882E-01    0.1319136444E-01    0.6937854892E+00    0.1674889136E+00    0.2338961762E-02
    0.4100000000E+06    0.8330745559E-01    0.1310940327E-01    0.6937810720E+00    0.1692503967E+00    0.2345455575E-02
    0.4300000000E+06    0.8270761503E-01    0.1302891392E-01    0.6937767752E+00    0.1709275075E+00    0.2351656646E-02
    0.4500000000E+06    0.8212211268E-01    0.1294995390E-01    0.6937725950E+00    0.1725278236E+00    0.2357590907E-02
    0.4700000000E+06    0.8155076074E-01    0.1287255238E-01    0.6937685270E+00    0.1740579360E+00    0.2363280965E-02
    0.4900000000E+06    0.8099328063E-01    0.1279671782E-01    0.6937645670E+00    0.1755236151E+00    0.2368746645E-02
    0.1000000000E+06    0.9142935020E-01    0.1399333568E-01    0.6938472913E+00    0.1194611813E+00    0.2168885304E-02
    0.3000000000E+06    0.8685204216E-01    0.1357428836E-01    0.6938069139E+00    0.1582441612E+00    0.2305184465E-02
    0.5000000000E+06    0.8071963830E-01    0.1275938658E-01    0.6937626260E+00    0.1762339038E+00    0.2371400890E-02
    0.7000000000E+06    0.7588058842E-01    0.1208927570E-01    0.6937284591E+00    0.1880244581E+00    0.2416043331E-02
    0.9000000000E+06    0.7199506059E-01    0.1154003061E-01    0.6937009764E+00    0.1967521667E+00    0.2449930958E-02
    0.1100000000E+07    0.6878130048E-01    0.1107956837E-01    0.6936780235E+00    0.2036445967E+00    0.2477328702E-02
    0.1300000000E+07    0.6605712829E-01    0.1068533322E-01    0.6936583148E+00    0.2093139123E+00    0.2500369065E-02
    0.1500000000E+07    0.6370284797E-01    0.1034192375E-01    0.6936410380E+00    0.2141104825E+00    0.2520275247E-02
    0.1700000000E+07    0.6163669419E-01    0.1003856936E-01    0.6936256510E+00    0.2182537826E+00    0.2537815462E-02
    0.1900000000E+07    0.5980068951E-01    0.9767506729E-02    0.6936117743E+00    0.2218904046E+00    0.2553504443E-02
    0.2100000000E+07    0.5815237750E-01    0.9522979830E-02    0.6935991326E+00    0.2251230895E+00    0.2567704282E-02
    0.2300000000E+07    0.5665980717E-01    0.9300613818E-02    0.6935875197E+00    0.2280265990E+00    0.2580679558E-02
    0.2500000000E+07    0.5529837009E-01    0.9097011522E-02    0.6935767774E+00    0.2306570005E+00    0.2592629591E-02
    0.2700000000E+07    0.5404873442E-01    0.8909485566E-02    0.6935667815E+00    0.2330573962E+00    0.2603708343E-02
    0.2900000000E+07    0.5289545235E-01    0.8735875526E-02    0.6935574326E+00    0.2352616153E+00    0.2614037265E-02
    0.3100000000E+07    0.5182599556E-01    0.8574419941E-02    0.6935486502E+00    0.2372966812E+00    0.2623713875E-02
    0.3300000000E+07    0.5083007064E-01    0.8423664708E-02    0.6935403679E+00    0.2391845104E+00    0.2632817688E-02
    0.3500000000E+07    0.4989912294E-01    0.8282396174E-02    0.6935325306E+00    0.2409431140E+00    0.2641414401E-02
    0.3700000000E+07    0.4902596995E-01    0.8149591391E-02    0.6935250916E+00    0.2425874664E+00    0.2649558935E-02
    0.3900000000E+07    0.4820452601E-01    0.8024380533E-02    0.6935180115E+00    0.2441301455E+00    0.2657297678E-02
    0.4100000000E+07    0.4742959225E-01    0.7906018084E-02    0.6935112564E+00    0.2455818138E+00    0.2664670171E-02
    0.4300000000E+07    0.4669669432E-01    0.7793860468E-02    0.6935047969E+00    0.2469515846E+00    0.2671710398E-02
    0.4500000000E+07    0.4600195529E-01    0.7687348459E-02    0.6934986077E+00    0.2482473051E+00    0.2678447785E-02
    0.4700000000E+07    0.4534199515E-01    0.7585993214E-02    0.6934926665E+00    0.2494757784E+00    0.2684907983E-02
    0.4900000000E+07    0.4471385044E-01    0.7489365062E-02    0.6934869537E+00    0.2506429384E+00    0.2691113491E-02
    0.1000000000E+07    0.7031744460E-01    0.1130031516E-01    0.6936890285E+00    0.2003809908E+00    0.2464278132E-02
    0.3000000000E+07    0.5235093495E-01    0.8653725629E-02    0.6935529750E+00    0.2362988190E+00    0.2618951773E-02
    0.5000000000E+07    0.4441088044E-01    0.7442703287E-02    0.6934841774E+00    0.2512051776E+00    0.2694127029E-02
    0.7000000000E+07    0.3952473696E-01    0.6685110104E-02    0.6934373088E+00    0.2602140529E+00    0.2744814042E-02
    0.9000000000E+07    0.3608869817E-01    0.6146513646E-02    0.6934015533E+00    0.2664909630E+00    0.2783291430E-02
    0.1100000000E+08    0.3348622631E-01    0.5735235843E-02    0.6933725597E+00    0.2712177632E+00    0.2814400481E-02
    0.1300000000E+08    0.3141875286E-01    0.5406370163E-02    0.6933481291E+00    0.2749578752E+00    0.2840562140E-02
    0.1500000000E+08    0.2972048922E-01    0.5134765752E-02    0.6933269920E+00    0.2780210067E+00    0.2863165139E-02
    0.1700000000E+08    0.2829052633E-01    0.4905008411E-02    0.6933083473E+00    0.2805943173E+00    0.2883081690E-02
    0.1900000000E+08    0.2706323679E-01    0.4707015536E-02    0.6932916565E+00    0.2827988720E+00    0.2900896221E-02
    0.2100000000E+08    0.2599373901E-01    0.4533857724E-02    0.6932765397E+00    0.2847171147E+00    0.2917019864E-02
    0.2300000000E+08    0.2505010208E-01    0.4380583771E-02    0.6932627190E+00    0.2864074984E+00    0.2931753035E-02
    0.2500000000E+08    0.2420887199E-01    0.4243542956E-02    0.6932499844E+00    0.2879128359E+00    0.2945322051E-02
    0.2700000000E+08    0.2345236126E-01    0.4119972652E-02    0.6932381736E+00    0.2892653360E+00    0.2957901734E-02
