  Pressure (Pa) 22mC5-500 (mol/kg) 23mC5-500 (mol/kg) 24mC5-500 (mol/kg) 2mC6-500 (mol/kg) C7-500 (mol/kg)
    0.1000000000E+01    0.1510283501E-04    0.2893526557E-05    0.6964946600E-01    0.1651744712E-04    0.4184769218E-02
    0.3000000000E+01    0.3620145779E-04    0.6922872524E-05    0.1740773690E+00    0.3826954302E-04    0.4230905997E-02
    0.5000000000E+01    0.5012935134E-04    0.9572663048E-05    0.2486363951E+00    0.5174215277E-04    0.4260879901E-02
    0.7000000000E+01    0.5984258704E-04    0.1141402218E-04    0.3045392386E+00    0.6065078543E-04    0.4283115047E-02
    0.9000000000E+01    0.6690665118E-04    0.1274877907E-04    0.3480102834E+00    0.6687670989E-04    0.4300401507E-02
    0.1100000000E+02    0.7222298250E-04    0.1375038280E-04    0.3827819985E+00    0.7145627632E-04    0.4314263807E-02
    0.1300000000E+02    0.7634264579E-04    0.1452464561E-04    0.4112285440E+00    0.7499418906E-04    0.4325643005E-02
    0.1500000000E+02    0.7961853942E-04    0.1513918296E-04    0.4349321482E+00    0.7785904377E-04    0.4335158769E-02
    0.1700000000E+02    0.8228525932E-04    0.1563884280E-04    0.4549879000E+00    0.8028335737E-04    0.4343237850E-02
    0.1900000000E+02    0.8450362276E-04    0.1605429719E-04    0.4721778329E+00    0.8241787187E-04    0.4350184492E-02
    0.2100000000E+02    0.8638674060E-04    0.1640706700E-04    0.4870753344E+00    0.8436247567E-04    0.4356221788E-02
    0.2300000000E+02    0.8801592109E-04    0.1671258321E-04    0.5001103814E+00    0.8618451864E-04    0.4361517218E-02
    0.2500000000E+02    0.8945071257E-04    0.1698211734E-04    0.5116117389E+00    0.8793002627E-04    0.4366199066E-02
    0.2700000000E+02    0.9073543581E-04    0.1722403547E-04    0.5218350868E+00    0.8963076295E-04    0.4370367313E-02
    0.2900000000E+02    0.9190354406E-04    0.1744463406E-04    0.5309822599E+00    0.9130879049E-04    0.4374101081E-02
    0.3100000000E+02    0.9298059962E-04    0.1764870974E-04    0.5392147146E+00    0.9297947307E-04    0.4377463830E-02
    0.3300000000E+02    0.9398634670E-04    0.1783995556E-04    0.5466631452E+00    0.9465349478E-04    0.4380507072E-02
    0.3500000000E+02    0.9493618107E-04    0.1802124144E-04    0.5534344782E+00    0.9633823647E-04    0.4383273075E-02
    0.3700000000E+02    0.9584220842E-04    0.1819481588E-04    0.5596170400E+00    0.9803872867E-04    0.4385796858E-02
    0.3900000000E+02    0.9671401779E-04    0.1836245309E-04    0.5652844332E+00    0.9975831936E-04    0.4388107690E-02
    0.4100000000E+02    0.9755925396E-04    0.1852556174E-04    0.5704984822E+00    0.1014991471E-03    0.4390230233E-02
    0.4300000000E+02    0.9838404615E-04    0.1868526622E-04    0.5753114983E+00    0.1032624795E-03    0.4392185419E-02
    0.4500000000E+02    0.9919333255E-04    0.1884246811E-04    0.5797680422E+00    0.1050489569E-03    0.4393991133E-02
    0.4700000000E+02    0.9999110840E-04    0.1899789303E-04    0.5839063078E+00    0.1068587699E-03    0.4395662754E-02
    0.4900000000E+02    0.1007806173E-03    0.1915212675E-04    0.5877592206E+00    0.1086917883E-03    0.4397213581E-02
    0.1000000000E+02    0.6974290137E-04    0.1328346606E-04    0.3663117223E+00    0.6932731703E-04    0.4307692209E-02
    0.3000000000E+02    0.9245210266E-04    0.1754848432E-04    0.5352040301E+00    0.9214429109E-04    0.4375825369E-02
    0.5000000000E+02    0.1011731172E-03    0.1922894875E-04    0.5895877380E+00    0.1096168951E-03    0.4397947370E-02
    0.7000000000E+02    0.1090190530E-03    0.2077897413E-04    0.6164384412E+00    0.1291953173E-03    0.4408426183E-02
    0.9000000000E+02    0.1172759387E-03    0.2242485837E-04    0.6324423413E+00    0.1503603376E-03    0.4414086105E-02
    0.1100000000E+03    0.1260660494E-03    0.2418196757E-04    0.6430679413E+00    0.1725948032E-03    0.4417239314E-02
    0.1300000000E+03    0.1353387244E-03    0.2603686506E-04    0.6506365274E+00    0.1955906588E-03    0.4418898262E-02
    0.1500000000E+03    0.1450263352E-03    0.2797468672E-04    0.6563015238E+00    0.2191687444E-03    0.4419580893E-02
    0.1700000000E+03    0.1550717135E-03    0.2998343470E-04    0.6607009042E+00    0.2432226272E-03    0.4419581617E-02
    0.1900000000E+03    0.1654307660E-03    0.3205406049E-04    0.6642161970E+00    0.2676876961E-03    0.4419081062E-02
    0.2100000000E+03    0.1760703339E-03    0.3417985508E-04    0.6670895755E+00    0.2925242707E-03    0.4418196644E-02
    0.2300000000E+03    0.1869656365E-03    0.3635585644E-04    0.6694821610E+00    0.3177080854E-03    0.4417008223E-02
    0.2500000000E+03    0.1980981717E-03    0.3857839109E-04    0.6715053137E+00    0.3432247310E-03    0.4415572121E-02
    0.2700000000E+03    0.2094541396E-03    0.4084474002E-04    0.6732384671E+00    0.3690662930E-03    0.4413929251E-02
    0.2900000000E+03    0.2210232892E-03    0.4315289857E-04    0.6747398041E+00    0.3952292554E-03    0.4412110071E-02
    0.3100000000E+03    0.2327980784E-03    0.4550140376E-04    0.6760529187E+00    0.4217131556E-03    0.4410137715E-02
    0.3300000000E+03    0.2447730590E-03    0.4788920903E-04    0.6772111184E+00    0.4485197018E-03    0.4408030063E-02
    0.3500000000E+03    0.2569444232E-03    0.5031559247E-04    0.6782402897E+00    0.4756521810E-03    0.4405801128E-02
    0.3700000000E+03    0.2693096649E-03    0.5278008882E-04    0.6791608554E+00    0.5031150549E-03    0.4403462026E-02
    0.3900000000E+03    0.2818673250E-03    0.5528243855E-04    0.6799891445E+00    0.5309136805E-03    0.4401021661E-02
    0.4100000000E+03    0.2946167979E-03    0.5782254928E-04    0.6807383684E+00    0.5590541135E-03    0.4398487221E-02
    0.4300000000E+03    0.3075581826E-03    0.6040046628E-04    0.6814193314E+00    0.5875429696E-03    0.4395864544E-02
    0.4500000000E+03    0.3206921674E-03    0.6301634979E-04    0.6820409551E+00    0.6163873259E-03    0.4393158393E-02
    0.4700000000E+03    0.3340199406E-03    0.6567045728E-04    0.6826106710E+00    0.6455946496E-03    0.4390372663E-02
    0.4900000000E+03    0.3475431198E-03    0.6836312969E-04    0.6831347197E+00    0.6751727479E-03    0.4387510539E-02
    0.1000000000E+03    0.1216064116E-03    0.2329020013E-04    0.6382424214E+00    0.1613670538E-03    0.4415896007E-02
    0.3000000000E+03    0.2268853625E-03    0.4432218179E-04    0.6754176054E+00    0.4084310244E-03    0.4411141818E-02
    0.5000000000E+03    0.3543785955E-03    0.6972405436E-04    0.6833813008E+00    0.6901033611E-03    0.4386051664E-02
    0.7000000000E+03    0.5020036911E-03    0.9910129718E-04    0.6868521543E+00    0.1010324262E-02    0.4353272900E-02
    0.9000000000E+03    0.6731438491E-03    0.1331379567E-03    0.6887954721E+00    0.1378707655E-02    0.4313828791E-02
    0.1100000000E+04    0.8731944319E-03    0.1729116978E-03    0.6900376388E+00    0.1807728581E-02    0.4267101015E-02
    0.1300000000E+04    0.1109566710E-02    0.2198983741E-03    0.6909000285E+00    0.2313710412E-02    0.4211717505E-02
    0.1500000000E+04    0.1392327550E-02    0.2761005894E-03    0.6915336487E+00    0.2918484847E-02    0.4145625575E-02
    0.1700000000E+04    0.1735285449E-02    0.3442642066E-03    0.6920188222E+00    0.3651837815E-02    0.4065941309E-02
    0.1900000000E+04    0.2157648461E-02    0.4282082991E-03    0.6924022120E+00    0.4555135542E-02    0.3968652762E-02
    0.2100000000E+04    0.2686493828E-02    0.5333164521E-03    0.6927127806E+00    0.5686692755E-02    0.3848166591E-02
    0.2300000000E+04    0.3360321305E-02    0.6672436794E-03    0.6929694557E+00    0.7129503183E-02    0.3696679999E-02
    0.2500000000E+04    0.4233709252E-02    0.8408430478E-03    0.6931851294E+00    0.9001426119E-02    0.3503439902E-02
    0.2700000000E+04    0.5381812279E-02    0.1069061823E-02    0.6933688866E+00    0.1146521368E-01    0.3254274522E-02
    0.2900000000E+04    0.6899141158E-02    0.1370702840E-02    0.6935273132E+00    0.1472658170E-01    0.2932743664E-02
    0.3100000000E+04    0.8876533063E-02    0.1763852649E-02    0.6936653004E+00    0.1898583485E-01    0.2526343500E-02
    0.3300000000E+04    0.1132824486E-01    0.2251393754E-02    0.6937865566E+00    0.2428217868E-01    0.2042775681E-02
    0.3500000000E+04    0.1407465604E-01    0.2797678704E-02    0.6938939447E+00    0.3024022222E-01    0.1531986627E-02
    0.3700000000E+04    0.1672631972E-01    0.3325324588E-02    0.6939897097E+00    0.3602952343E-01    0.1080844845E-02
    0.3900000000E+04    0.1892390626E-01    0.3762879624E-02    0.6940756372E+00    0.4087447414E-01    0.7561339223E-03
    0.4100000000E+04    0.2057876960E-01    0.4092665930E-02    0.6941531651E+00    0.4457477939E-01    0.5606146785E-03
    0.4300000000E+04    0.2181260066E-01    0.4338826527E-02    0.6942234641E+00    0.4738345578E-01    0.4564891854E-03
    0.4500000000E+04    0.2278276523E-01    0.4532618904E-02    0.6942874971E+00    0.4963416359E-01    0.4048835863E-03
    0.4700000000E+04    0.2360179709E-01    0.4696403699E-02    0.6943460636E+00    0.5156694286E-01    0.3803432502E-03
    0.4900000000E+04    0.2433464360E-01    0.4843088408E-02    0.6943998324E+00    0.5332075059E-01    0.3690397331E-03
    0.1000000000E+04    0.7691447881E-03    0.1522258810E-03    0.6894781420E+00    0.1584724742E-02    0.4291445829E-02
    0.3000000000E+04    0.7826334646E-02    0.1555042508E-02    0.6935986068E+00    0.1672243786E-01    0.2740417490E-02
    0.5000000000E+04    0.2468022859E-01    0.4912300133E-02    0.6944250976E+00    0.5415513238E-01    0.3660249475E-03
    0.7000000000E+04    0.3039163304E-01    0.6059328178E-02    0.6947781858E+00    0.6853612828E-01    0.3651990437E-03
    0.9000000000E+04    0.3475077392E-01    0.6939321427E-02    0.6949734756E+00    0.8037698873E-01    0.3703883288E-03
    0.1100000000E+05    0.3816958812E-01    0.7633226871E-02    0.6950971260E+00    0.9039645652E-01    0.3745791732E-03
    0.1300000000E+05    0.4089280934E-01    0.8189135355E-02    0.6951822681E+00    0.9901848319E-01    0.3780980802E-03
    0.1500000000E+05    0.4308906940E-01    0.8640235263E-02    0.6952443522E+00    0.1065421938E+00    0.3811350636E-03
    0.1700000000E+05    0.4487807814E-01    0.9010124395E-02    0.6952915495E+00    0.1131850656E+00    0.3838089962E-03
    0.1900000000E+05    0.4634697193E-01    0.9316007614E-02    0.6953285852E+00    0.1191092436E+00    0.3861992995E-03
    0.2100000000E+05    0.4756055293E-01    0.9570701299E-02    0.6953583807E+00    0.1244382555E+00    0.3883617216E-03
    0.2300000000E+05    0.4856791772E-01    0.9783932149E-02    0.6953828383E+00    0.1292679855E+00    0.3903369285E-03
    0.2500000000E+05    0.4940687310E-01    0.9963203181E-02    0.6954032500E+00    0.1336740885E+00    0.3921555134E-03
    0.2700000000E+05    0.5010695212E-01    0.1011438578E-01    0.6954205233E+00    0.1377171271E+00    0.3938410814E-03
    0.2900000000E+05    0.5069151997E-01    0.1024213346E-01    0.6954353143E+00    0.1414462082E+00    0.3954122354E-03
    0.3100000000E+05    0.5117927326E-01    0.1035017675E-01    0.6954481093E+00    0.1449016107E+00    0.3968839008E-03
    0.3300000000E+05    0.5158532633E-01    0.1044153702E-01    0.6954592757E+00    0.1481167154E+00    0.3982682390E-03
    0.3500000000E+05    0.5192201071E-01    0.1051868403E-01    0.6954690967E+00    0.1511194465E+00    0.3995752926E-03
    0.3700000000E+05    0.5219947198E-01    0.1058365370E-01    0.6954777938E+00    0.1539333630E+00    0.4008134522E-03
    0.3900000000E+05    0.5242612098E-01    0.1063813714E-01    0.6954855427E+00    0.1565784958E+00    0.4019898016E-03
    0.4100000000E+05    0.5260897916E-01    0.1068354895E-01    0.6954924846E+00    0.1590719977E+00    0.4031103768E-03
    0.4300000000E+05    0.5275394559E-01    0.1072108005E-01    0.6954987343E+00    0.1614286531E+00    0.4041803636E-03
    0.4500000000E+05    0.5286600554E-01    0.1075173899E-01    0.6955043858E+00    0.1636612822E+00    0.4052042508E-03
    0.4700000000E+05    0.5294939494E-01    0.1077638455E-01    0.6955095172E+00    0.1657810642E+00    0.4061859502E-03
    0.4900000000E+05    0.5300773100E-01    0.1079575167E-01    0.6955141936E+00    0.1677977977E+00    0.4071288919E-03
    0.1000000000E+05    0.3656021775E-01    0.7306097216E-02    0.6950415634E+00    0.8558430335E-01    0.3725838817E-03
    0.3000000000E+05    0.5094648036E-01    0.1029841477E-01    0.6954419361E+00    0.1432058902E+00    0.3961596879E-03
    0.5000000000E+05    0.5302849144E-01    0.1080365683E-01    0.6955163787E+00    0.1687702590E+00    0.4075867879E-03
    0.7000000000E+05    0.5268820704E-01    0.1079913870E-01    0.6955458353E+00    0.1844478656E+00    0.4152870209E-03
    0.9000000000E+05    0.5167157878E-01    0.1064284771E-01    0.6955608118E+00    0.1955065419E+00    0.4211310605E-03
    0.1100000000E+06    0.5046615447E-01    0.1043778023E-01    0.6955694432E+00    0.2039374934E+00    0.4258554643E-03
    0.1300000000E+06    0.4923832512E-01    0.1022055319E-01    0.6955747872E+00    0.2106895723E+00    0.4298283065E-03
    0.1500000000E+06    0.4804960567E-01    0.1000558761E-01    0.6955782373E+00    0.2162837273E+00    0.4332606419E-03
    0.1700000000E+06    0.4692204220E-01    0.9798697168E-02    0.6955805133E+00    0.2210348070E+00    0.4362849918E-03
    0.1900000000E+06    0.4586157613E-01    0.9602038108E-02    0.6955820215E+00    0.2251467910E+00    0.4389901369E-03
    0.2100000000E+06    0.4486736112E-01    0.9416130467E-02    0.6955830069E+00    0.2287589702E+00    0.4414385236E-03
    0.2300000000E+06    0.4393576074E-01    0.9240751517E-02    0.6955836250E+00    0.2319704633E+00    0.4436757778E-03
    0.2500000000E+06    0.4306214210E-01    0.9075352753E-02    0.6955839784E+00    0.2348541792E+00    0.4457362690E-03
    0.2700000000E+06    0.4224169460E-01    0.8919261089E-02    0.6955841376E+00    0.2374652277E+00    0.4476465448E-03
    0.2900000000E+06    0.4146979718E-01    0.8771777142E-02    0.6955841518E+00    0.2398462237E+00    0.4494275454E-03
    0.3100000000E+06    0.4074217020E-01    0.8632222536E-02    0.6955840564E+00    0.2420307624E+00    0.4510960848E-03
    0.3300000000E+06    0.4005492348E-01    0.8499961329E-02    0.6955838775E+00    0.2440457707E+00    0.4526658720E-03
    0.3500000000E+06    0.3940455490E-01    0.8374408165E-02    0.6955836344E+00    0.2459131443E+00    0.4541482339E-03
    0.3700000000E+06    0.3878792655E-01    0.8255029631E-02    0.6955833419E+00    0.2476509131E+00    0.4555526390E-03
    0.3900000000E+06    0.3820223215E-01    0.8141342263E-02    0.6955830111E+00    0.2492740904E+00    0.4568870848E-03
    0.4100000000E+06    0.3764496233E-01    0.8032909003E-02    0.6955826509E+00    0.2507953022E+00    0.4581583881E-03
    0.4300000000E+06    0.3711387118E-01    0.7929335092E-02    0.6955822678E+00    0.2522252613E+00    0.4593724079E-03
    0.4500000000E+06    0.3660694546E-01    0.7830263900E-02    0.6955818675E+00    0.2535731305E+00    0.4605342171E-03
    0.4700000000E+06    0.3612237696E-01    0.7735372947E-02    0.6955814540E+00    0.2548468035E+00    0.4616482380E-03
    0.4900000000E+06    0.3565853806E-01    0.7644370232E-02    0.6955810308E+00    0.2560531262E+00    0.4627183492E-03
    0.1000000000E+06    0.5107830160E-01    0.1054333259E-01    0.6955656707E+00    0.1999770245E+00    0.4236050908E-03
    0.3000000000E+06    0.4110070229E-01    0.8701049552E-02    0.6955841160E+00    0.2409612329E+00    0.4502749528E-03
    0.5000000000E+06    0.3543392763E-01    0.7600243225E-02    0.6955808165E+00    0.2566329276E+00    0.4632380236E-03
    0.7000000000E+06    0.3174012584E-01    0.6869108214E-02    0.6955764589E+00    0.2658109021E+00    0.4719792049E-03
    0.9000000000E+06    0.2907496445E-01    0.6335323914E-02    0.6955723870E+00    0.2720849013E+00    0.4786152983E-03
    0.1100000000E+07    0.2702723459E-01    0.5921652977E-02    0.6955687335E+00    0.2767461111E+00    0.4839809388E-03
    0.1300000000E+07    0.2538579575E-01    0.5587801132E-02    0.6955654611E+00    0.2803962497E+00    0.4884935083E-03
    0.1500000000E+07    0.2402930620E-01    0.5310356932E-02    0.6955625115E+00    0.2833607758E+00    0.4923924381E-03
    0.1700000000E+07    0.2288222074E-01    0.5074623189E-02    0.6955598320E+00    0.2858339314E+00    0.4958281112E-03
    0.1900000000E+07    0.2189461718E-01    0.4870822376E-02    0.6955573797E+00    0.2879400998E+00    0.4989012955E-03
    0.2100000000E+07    0.2103194854E-01    0.4692150268E-02    0.6955551200E+00    0.2897632691E+00    0.5016828803E-03
    0.2300000000E+07    0.2026941258E-01    0.4533698366E-02    0.6955530251E+00    0.2913625554E+00    0.5042246665E-03
    0.2500000000E+07    0.1958866086E-01    0.4391820075E-02    0.6955510728E+00    0.2927809821E+00    0.5065656792E-03
    0.2700000000E+07    0.1897577641E-01    0.4263739132E-02    0.6955492448E+00    0.2940507341E+00    0.5087360643E-03
    0.2900000000E+07    0.1841997838E-01    0.4147297632E-02    0.6955475261E+00    0.2951964497E+00    0.5107596019E-03
    0.3100000000E+07    0.1791276311E-01    0.4040788251E-02    0.6955459044E+00    0.2962373639E+00    0.5126553876E-03
    0.3300000000E+07    0.1744731731E-01    0.3942839203E-02    0.6955443690E+00    0.2971887494E+00    0.5144389909E-03
    0.3500000000E+07    0.1701810673E-01    0.3852333341E-02    0.6955429111E+00    0.2980629122E+00    0.5161232770E-03
    0.3700000000E+07    0.1662058143E-01    0.3768350003E-02    0.6955415232E+00    0.2988698970E+00    0.5177190006E-03
    0.3900000000E+07    0.1625096029E-01    0.3690122379E-02    0.6955401988E+00    0.2996179974E+00    0.5192352455E-03
    0.4100000000E+07    0.1590607075E-01    0.3617005722E-02    0.6955389321E+00    0.3003141313E+00    0.5206797552E-03
    0.4300000000E+07    0.1558322769E-01    0.3548453276E-02    0.6955377182E+00    0.3009641222E+00    0.5220591848E-03
    0.4500000000E+07    0.1528014069E-01    0.3483997782E-02    0.6955365529E+00    0.3015729133E+00    0.5233792970E-03
    0.4700000000E+07    0.1499484201E-01    0.3423237106E-02    0.6955354323E+00    0.3021447322E+00    0.5246451154E-03
    0.4900000000E+07    0.1472563011E-01    0.3365822935E-02    0.6955343530E+00    0.3026832191E+00    0.5258610460E-03
    0.1000000000E+07    0.2799001359E-01    0.6116534414E-02    0.6955705091E+00    0.2745703032E+00    0.4814250361E-03
    0.3000000000E+07    0.1816075785E-01    0.4092893946E-02    0.6955467038E+00    0.2957289730E+00    0.5117224190E-03
    0.5000000000E+07    0.1459658653E-01    0.3338274407E-02    0.6955338279E+00    0.3029409654E+00    0.5264515360E-03
    0.7000000000E+07    0.1258481589E-01    0.2906363316E-02    0.6955249127E+00    0.3069292636E+00    0.5363840110E-03
    0.9000000000E+07    0.1124387581E-01    0.2615738353E-02    0.6955180598E+00    0.3095580978E+00    0.5439246401E-03
    0.1100000000E+08    0.1026595524E-01    0.2402262259E-02    0.6955124783E+00    0.3114613721E+00    0.5500217032E-03
    0.1300000000E+08    0.9511073867E-02    0.2236515446E-02    0.6955077614E+00    0.3129229631E+00    0.5551494360E-03
    0.1500000000E+08    0.8905010942E-02    0.2102794710E-02    0.6955036719E+00    0.3140918249E+00    0.5595798916E-03
    0.1700000000E+08    0.8404193290E-02    0.1991830731E-02    0.6955000589E+00    0.3150547340E+00    0.5634839453E-03
    0.1900000000E+08    0.7981103412E-02    0.1897742637E-02    0.6954968206E+00    0.3158661652E+00    0.5669760978E-03
    0.2100000000E+08    0.7617379967E-02    0.1816590608E-02    0.6954938849E+00    0.3165622924E+00    0.5701369003E-03
    0.2300000000E+08    0.7300231820E-02    0.1745620295E-02    0.6954911987E+00    0.3171682155E+00    0.5730252141E-03
    0.2500000000E+08    0.7020433843E-02    0.1682838918E-02    0.6954887219E+00    0.3177019760E+00    0.5756853838E-03
    0.2700000000E+08    0.6771140183E-02    0.1626763404E-02    0.6954864235E+00    0.3181769237E+00    0.5781516645E-03
