  Pressure (Pa) 22mC5-500 (mol/kg) 23mC5-500 (mol/kg) 24mC5-500 (mol/kg) 2mC6-500 (mol/kg) C7-500 (mol/kg)
    0.1000000000E+01    0.1286374405E-04    0.2462024386E-05    0.1514013174E+00    0.5538742142E-05    0.4181602146E-02
    0.3000000000E+01    0.2507407051E-04    0.4783756921E-05    0.3164814575E+00    0.1026524299E-04    0.4213531230E-02
    0.5000000000E+01    0.3066543808E-04    0.5839086526E-05    0.4047455926E+00    0.1227391509E-04    0.4228792727E-02
    0.7000000000E+01    0.3379174713E-04    0.6426738444E-05    0.4596912809E+00    0.1344850283E-04    0.4238206457E-02
    0.9000000000E+01    0.3581648707E-04    0.6807397803E-05    0.4971893714E+00    0.1433171831E-04    0.4244656269E-02
    0.1100000000E+02    0.3729372455E-04    0.7086346252E-05    0.5244119295E+00    0.1511345704E-04    0.4249370645E-02
    0.1300000000E+02    0.3848062526E-04    0.7312119838E-05    0.5450737846E+00    0.1586743407E-04    0.4252973979E-02
    0.1500000000E+02    0.3950785531E-04    0.7509193837E-05    0.5612916658E+00    0.1662351742E-04    0.4255819956E-02
    0.1700000000E+02    0.4044622365E-04    0.7690717541E-05    0.5743601269E+00    0.1739352595E-04    0.4258124817E-02
    0.1900000000E+02    0.4133593431E-04    0.7864081902E-05    0.5851154028E+00    0.1818145719E-04    0.4260028608E-02
    0.2100000000E+02    0.4220058846E-04    0.8033573356E-05    0.5941217455E+00    0.1898785560E-04    0.4261626223E-02
    0.2300000000E+02    0.4305435440E-04    0.8201726636E-05    0.6017736874E+00    0.1981177598E-04    0.4262984362E-02
    0.2500000000E+02    0.4390584211E-04    0.8370052283E-05    0.6083553906E+00    0.2065169351E-04    0.4264151345E-02
    0.2700000000E+02    0.4476029082E-04    0.8539445256E-05    0.6140767197E+00    0.2150592967E-04    0.4265163084E-02
    0.2900000000E+02    0.4562084950E-04    0.8710422726E-05    0.6190960348E+00    0.2237284770E-04    0.4266046854E-02
    0.3100000000E+02    0.4648934903E-04    0.8883266601E-05    0.6235350780E+00    0.2325093631E-04    0.4266823767E-02
    0.3300000000E+02    0.4736677981E-04    0.9058111027E-05    0.6274889797E+00    0.2413883860E-04    0.4267510431E-02
    0.3500000000E+02    0.4825359310E-04    0.9234997192E-05    0.6310331529E+00    0.2503535484E-04    0.4268120106E-02
    0.3700000000E+02    0.4914989460E-04    0.9413908188E-05    0.6342281501E+00    0.2593943315E-04    0.4268663510E-02
    0.3900000000E+02    0.5005557034E-04    0.9594791460E-05    0.6371231521E+00    0.2685015531E-04    0.4269149413E-02
    0.4100000000E+02    0.5097036949E-04    0.9777573387E-05    0.6397585176E+00    0.2776672145E-04    0.4269585061E-02
    0.4300000000E+02    0.5189395916E-04    0.9962168785E-05    0.6421676766E+00    0.2868843513E-04    0.4269976498E-02
    0.4500000000E+02    0.5282596084E-04    0.1014848711E-04    0.6443785560E+00    0.2961468971E-04    0.4270328807E-02
    0.4700000000E+02    0.5376597460E-04    0.1033643648E-04    0.6464146672E+00    0.3054495622E-04    0.4270646301E-02
    0.4900000000E+02    0.5471359501E-04    0.1052592625E-04    0.6482959457E+00    0.3147877277E-04    0.4270932659E-02
    0.1000000000E+02    0.3660328924E-04    0.6955755586E-05    0.5118016852E+00    0.1472914716E-04    0.4247182622E-02
    0.3000000000E+02    0.4605402925E-04    0.8796600279E-05    0.6213816139E+00    0.2281058422E-04    0.4266447540E-02
    0.5000000000E+02    0.5519013216E-04    0.1062122120E-04    0.6491839390E+00    0.3194688404E-04    0.4271065168E-02
    0.7000000000E+02    0.6503148089E-04    0.1258900826E-04    0.6618766081E+00    0.4142068287E-04    0.4272657049E-02
    0.9000000000E+02    0.7528664871E-04    0.1463799392E-04    0.6691452335E+00    0.5100055485E-04    0.4273055849E-02
    0.1100000000E+03    0.8579508518E-04    0.1673584148E-04    0.6738545683E+00    0.6061796484E-04    0.4272842911E-02
    0.1300000000E+03    0.9647338139E-04    0.1886611475E-04    0.6771539621E+00    0.7025166912E-04    0.4272266243E-02
    0.1500000000E+03    0.1072760609E-03    0.2101999082E-04    0.6795941551E+00    0.7989649718E-04    0.4271451382E-02
    0.1700000000E+03    0.1181771911E-03    0.2319250972E-04    0.6814720961E+00    0.8955324764E-04    0.4270469439E-02
    0.1900000000E+03    0.1291615273E-03    0.2538080010E-04    0.6829620305E+00    0.9922496670E-04    0.4269364045E-02
    0.2100000000E+03    0.1402199831E-03    0.2758318238E-04    0.6841729452E+00    0.1089154598E-03    0.4268163618E-02
    0.2300000000E+03    0.1513471766E-03    0.2979868730E-04    0.6851765040E+00    0.1186286709E-03    0.4266887537E-02
    0.2500000000E+03    0.1625400329E-03    0.3202678412E-04    0.6860217642E+00    0.1283684245E-03    0.4265549514E-02
    0.2700000000E+03    0.1737969562E-03    0.3426722054E-04    0.6867434396E+00    0.1381383270E-03    0.4264159545E-02
    0.2900000000E+03    0.1851173204E-03    0.3651992501E-04    0.6873667852E+00    0.1479417387E-03    0.4262725094E-02
    0.3100000000E+03    0.1965011472E-03    0.3878494537E-04    0.6879106138E+00    0.1577817782E-03    0.4261251853E-02
    0.3300000000E+03    0.2079488973E-03    0.4106240933E-04    0.6883892267E+00    0.1676613402E-03    0.4259744236E-02
    0.3500000000E+03    0.2194613323E-03    0.4335249856E-04    0.6888136898E+00    0.1775831172E-03    0.4258205716E-02
    0.3700000000E+03    0.2310394214E-03    0.4565543131E-04    0.6891926994E+00    0.1875496228E-03    0.4256639061E-02
    0.3900000000E+03    0.2426842783E-03    0.4797145069E-04    0.6895331845E+00    0.1975632130E-03    0.4255046499E-02
    0.4100000000E+03    0.2543971169E-03    0.5030081663E-04    0.6898407336E+00    0.2076261057E-03    0.4253429836E-02
    0.4300000000E+03    0.2661792207E-03    0.5264380038E-04    0.6901199044E+00    0.2177403985E-03    0.4251790553E-02
    0.4500000000E+03    0.2780319218E-03    0.5500068064E-04    0.6903744506E+00    0.2279080835E-03    0.4250129866E-02
    0.4700000000E+03    0.2899565855E-03    0.5737174097E-04    0.6906074921E+00    0.2381310615E-03    0.4248448780E-02
    0.4900000000E+03    0.3019545998E-03    0.5975726793E-04    0.6908216427E+00    0.2484111531E-03    0.4246748129E-02
    0.1000000000E+03    0.8051562969E-04    0.1568208143E-04    0.6717271769E+00    0.5580647046E-04    0.4273006162E-02
    0.3000000000E+03    0.1908012806E-03    0.3765088924E-04    0.6876476570E+00    0.1528569941E-03    0.4261993021E-02
    0.5000000000E+03    0.3079815515E-03    0.6095554646E-04    0.6909223374E+00    0.2535731662E-03    0.4245890688E-02
    0.7000000000E+03    0.4327191580E-03    0.8575150502E-04    0.6923349564E+00    0.3602114818E-03    0.4227829996E-02
    0.9000000000E+03    0.5664392434E-03    0.1123277710E-03    0.6931219795E+00    0.4743170432E-03    0.4208136455E-02
    0.1100000000E+04    0.7106323635E-03    0.1409827737E-03    0.6936235560E+00    0.5972770040E-03    0.4186780487E-02
    0.1300000000E+04    0.8669129218E-03    0.1720384198E-03    0.6939710857E+00    0.7305234058E-03    0.4163619376E-02
    0.1500000000E+04    0.1037092337E-02    0.2058553136E-03    0.6942260530E+00    0.8756342662E-03    0.4138447619E-02
    0.1700000000E+04    0.1223250167E-02    0.2428471425E-03    0.6944210673E+00    0.1034407699E-02    0.4111007866E-02
    0.1900000000E+04    0.1427810618E-02    0.2834959920E-03    0.6945750323E+00    0.1208933067E-02    0.4080989400E-02
    0.2100000000E+04    0.1653631503E-02    0.3283700855E-03    0.6946996613E+00    0.1401670108E-02    0.4048020770E-02
    0.2300000000E+04    0.1904112316E-02    0.3781452993E-03    0.6948025994E+00    0.1615543403E-02    0.4011658310E-02
    0.2500000000E+04    0.2183328583E-02    0.4336318941E-03    0.6948890481E+00    0.1854059082E-02    0.3971370692E-02
    0.2700000000E+04    0.2496201034E-02    0.4958081645E-03    0.6949626692E+00    0.2121451422E-02    0.3926519017E-02
    0.2900000000E+04    0.2848709939E-02    0.5658630712E-03    0.6950261156E+00    0.2422868535E-02    0.3876331546E-02
    0.3100000000E+04    0.3248167186E-02    0.6452503567E-03    0.6950813561E+00    0.2764608205E-02    0.3819871947E-02
    0.3300000000E+04    0.3703560593E-02    0.7357570330E-03    0.6951298823E+00    0.3154416676E-02    0.3755999830E-02
    0.3500000000E+04    0.4225985494E-02    0.8395892375E-03    0.6951728453E+00    0.3601863835E-02    0.3683322579E-02
    0.3700000000E+04    0.4829175067E-02    0.9594777472E-03    0.6952111475E+00    0.4118805363E-02    0.3600138427E-02
    0.3900000000E+04    0.5530127488E-02    0.1098802787E-02    0.6952455061E+00    0.4719931341E-02    0.3504373170E-02
    0.4100000000E+04    0.6349793396E-02    0.1261730896E-02    0.6952764984E+00    0.5423371531E-02    0.3393518395E-02
    0.4300000000E+04    0.7313709595E-02    0.1453341204E-02    0.6953045945E+00    0.6251261566E-02    0.3264590366E-02
    0.4500000000E+04    0.8452306906E-02    0.1679687074E-02    0.6953301808E+00    0.7230039034E-02    0.3114150229E-02
    0.4700000000E+04    0.9800327545E-02    0.1947680904E-02    0.6953535779E+00    0.8389986877E-02    0.2938463567E-02
    0.4900000000E+04    0.1139431603E-01    0.2264596148E-02    0.6953750543E+00    0.9763133860E-02    0.2733932925E-02
    0.1000000000E+04    0.6371295601E-03    0.1263760483E-03    0.6933977810E+00    0.5346031813E-03    0.4197673447E-02
    0.3000000000E+04    0.3042052157E-02    0.6042872036E-03    0.6950546590E+00    0.2588251850E-02    0.3848951734E-02
    0.5000000000E+04    0.1229407713E-01    0.2443496058E-02    0.6953851443E+00    0.1053896926E-01    0.2619972090E-02
    0.7000000000E+04    0.3451894381E-01    0.6866736698E-02    0.6955260474E+00    0.3000623356E-01    0.3159669486E-03
    0.9000000000E+04    0.4227398488E-01    0.8418221192E-02    0.6956038731E+00    0.3737851931E-01    0.1580091960E-03
    0.1100000000E+05    0.4771496146E-01    0.9511218091E-02    0.6956530946E+00    0.4288035220E-01    0.1577767081E-03
    0.1300000000E+05    0.5233328446E-01    0.1044175150E-01    0.6956869536E+00    0.4776222198E-01    0.1592221315E-03
    0.1500000000E+05    0.5630353381E-01    0.1124414054E-01    0.6957116204E+00    0.5214703122E-01    0.1604956058E-03
    0.1700000000E+05    0.5974448371E-01    0.1194172024E-01    0.6957303563E+00    0.5611709370E-01    0.1616179377E-03
    0.1900000000E+05    0.6274779739E-01    0.1255251525E-01    0.6957450460E+00    0.5973680030E-01    0.1626216505E-03
    0.2100000000E+05    0.6538546077E-01    0.1309069409E-01    0.6957568544E+00    0.6305744396E-01    0.1635299726E-03
    0.2300000000E+05    0.6771476403E-01    0.1356754342E-01    0.6957665395E+00    0.6612043059E-01    0.1643598764E-03
    0.2500000000E+05    0.6978184462E-01    0.1399216135E-01    0.6957746160E+00    0.6895958166E-01    0.1651241420E-03
    0.2700000000E+05    0.7162425577E-01    0.1437196030E-01    0.6957814452E+00    0.7160281812E-01    0.1658326378E-03
    0.2900000000E+05    0.7327285901E-01    0.1471303771E-01    0.6957872886E+00    0.7407341187E-01    0.1664931458E-03
    0.3100000000E+05    0.7475323906E-01    0.1502045337E-01    0.6957923393E+00    0.7639092957E-01    0.1671119128E-03
    0.3300000000E+05    0.7608677574E-01    0.1529843961E-01    0.6957967438E+00    0.7857195377E-01    0.1676940313E-03
    0.3500000000E+05    0.7729146591E-01    0.1555056259E-01    0.6958006144E+00    0.8063064071E-01    0.1682437082E-03
    0.3700000000E+05    0.7838256074E-01    0.1577984738E-01    0.6958040394E+00    0.8257915639E-01    0.1687644594E-03
    0.3900000000E+05    0.7937306479E-01    0.1598887601E-01    0.6958070886E+00    0.8442802117E-01    0.1692592545E-03
    0.4100000000E+05    0.8027413063E-01    0.1617986503E-01    0.6958098180E+00    0.8618638442E-01    0.1697306242E-03
    0.4300000000E+05    0.8109537351E-01    0.1635472739E-01    0.6958122732E+00    0.8786224547E-01    0.1701807434E-03
    0.4500000000E+05    0.8184512434E-01    0.1651512219E-01    0.6958144916E+00    0.8946263269E-01    0.1706114951E-03
    0.4700000000E+05    0.8253063458E-01    0.1666249505E-01    0.6958165042E+00    0.9099374984E-01    0.1710245206E-03
    0.4900000000E+05    0.8315824335E-01    0.1679811101E-01    0.6958183368E+00    0.9246109638E-01    0.1714212594E-03
    0.1000000000E+05    0.4511405251E-01    0.8988327937E-02    0.6956309831E+00    0.4021931021E-01    0.1571501165E-03
    0.3000000000E+05    0.7403265281E-01    0.1487067144E-01    0.6957899030E+00    0.7525020610E-01    0.1668074051E-03
    0.5000000000E+05    0.8345210047E-01    0.1686186285E-01    0.6958191925E+00    0.9317240654E-01    0.1716139239E-03
    0.7000000000E+05    0.8733549298E-01    0.1772906467E-01    0.6958306810E+00    0.1049964546E+00    0.1748544379E-03
    0.9000000000E+05    0.8900498193E-01    0.1813821743E-01    0.6958364639E+00    0.1137833089E+00    0.1773143695E-03
    0.1100000000E+06    0.8962088595E-01    0.1832465895E-01    0.6958397569E+00    0.1207717092E+00    0.1793032775E-03
    0.1300000000E+06    0.8968134903E-01    0.1839068923E-01    0.6958417655E+00    0.1265758626E+00    0.1809759342E-03
    0.1500000000E+06    0.8943000512E-01    0.1838701835E-01    0.6958430375E+00    0.1315423319E+00    0.1824211141E-03
    0.1700000000E+06    0.8899716508E-01    0.1834117136E-01    0.6958438552E+00    0.1358850380E+00    0.1836945706E-03
    0.1900000000E+06    0.8845716891E-01    0.1826910933E-01    0.6958443773E+00    0.1397450431E+00    0.1848336607E-03
    0.2100000000E+06    0.8785449822E-01    0.1818055978E-01    0.6958446994E+00    0.1432201911E+00    0.1858646635E-03
    0.2300000000E+06    0.8721673271E-01    0.1808168195E-01    0.6958448818E+00    0.1463811131E+00    0.1868067815E-03
    0.2500000000E+06    0.8656142577E-01    0.1797649266E-01    0.6958449644E+00    0.1492804684E+00    0.1876744807E-03
    0.2700000000E+06    0.8589995524E-01    0.1786767171E-01    0.6958449742E+00    0.1519585762E+00    0.1884789355E-03
    0.2900000000E+06    0.8523977748E-01    0.1775703756E-01    0.6958449302E+00    0.1544470029E+00    0.1892289607E-03
    0.3100000000E+06    0.8458579601E-01    0.1764583900E-01    0.6958448460E+00    0.1567709340E+00    0.1899316343E-03
    0.3300000000E+06    0.8394121874E-01    0.1753493961E-01    0.6958447316E+00    0.1589507941E+00    0.1905927276E-03
    0.3500000000E+06    0.8330810898E-01    0.1742493774E-01    0.6958445942E+00    0.1610033811E+00    0.1912170090E-03
    0.3700000000E+06    0.8268774766E-01    0.1731624622E-01    0.6958444395E+00    0.1629426828E+00    0.1918084648E-03
    0.3900000000E+06    0.8208087609E-01    0.1720914654E-01    0.6958442716E+00    0.1647804741E+00    0.1923704622E-03
    0.4100000000E+06    0.8148786123E-01    0.1710382624E-01    0.6958440938E+00    0.1665267635E+00    0.1929058712E-03
    0.4300000000E+06    0.8090880986E-01    0.1700040510E-01    0.6958439086E+00    0.1681901324E+00    0.1934171586E-03
    0.4500000000E+06    0.8034364836E-01    0.1689895381E-01    0.6958437181E+00    0.1697779958E+00    0.1939064603E-03
    0.4700000000E+06    0.7979217897E-01    0.1679950731E-01    0.6958435237E+00    0.1712968061E+00    0.1943756382E-03
    0.4900000000E+06    0.7925411981E-01    0.1670207460E-01    0.6958433267E+00    0.1727522144E+00    0.1948263256E-03
    0.1000000000E+06    0.8940485176E-01    0.1825113632E-01    0.6958383230E+00    0.1174551815E+00    0.1783558759E-03
    0.3000000000E+06    0.8491177957E-01    0.1770144748E-01    0.6958448925E+00    0.1556281574E+00    0.1895858292E-03
    0.5000000000E+06    0.7899001520E-01    0.1665411091E-01    0.6958432276E+00    0.1734577217E+00    0.1950451922E-03
    0.7000000000E+06    0.7431922499E-01    0.1579295448E-01    0.6958412637E+00    0.1851877522E+00    0.1987267059E-03
    0.9000000000E+06    0.7056682793E-01    0.1508661799E-01    0.6958394725E+00    0.1938939297E+00    0.2015216980E-03
    0.1100000000E+07    0.6746097780E-01    0.1449396331E-01    0.6958378823E+00    0.2007837021E+00    0.2037816406E-03
    0.1300000000E+07    0.6482635584E-01    0.1398613255E-01    0.6958364668E+00    0.2064605452E+00    0.2056823047E-03
    0.1500000000E+07    0.6254786658E-01    0.1354343071E-01    0.6958351960E+00    0.2112704780E+00    0.2073245247E-03
    0.1700000000E+07    0.6054690309E-01    0.1315208420E-01    0.6958340449E+00    0.2154305811E+00    0.2087716341E-03
    0.1900000000E+07    0.5876772369E-01    0.1280216277E-01    0.6958329935E+00    0.2190860399E+00    0.2100660718E-03
    0.2100000000E+07    0.5716950103E-01    0.1248630132E-01    0.6958320263E+00    0.2223387292E+00    0.2112376938E-03
    0.2300000000E+07    0.5572150166E-01    0.1219889987E-01    0.6958311309E+00    0.2252628597E+00    0.2123083167E-03
    0.2500000000E+07    0.5440004760E-01    0.1193560818E-01    0.6958302972E+00    0.2279141395E+00    0.2132943768E-03
    0.2700000000E+07    0.5318653173E-01    0.1169298352E-01    0.6958295174E+00    0.2303354328E+00    0.2142085705E-03
    0.2900000000E+07    0.5206608034E-01    0.1146825708E-01    0.6958287848E+00    0.2325604099E+00    0.2150609136E-03
    0.3100000000E+07    0.5102662654E-01    0.1125917050E-01    0.6958280939E+00    0.2346159879E+00    0.2158594486E-03
    0.3300000000E+07    0.5005825270E-01    0.1106385871E-01    0.6958274403E+00    0.2365240130E+00    0.2166107331E-03
    0.3500000000E+07    0.4915271365E-01    0.1088076447E-01    0.6958268199E+00    0.2383024508E+00    0.2173201857E-03
    0.3700000000E+07    0.4830308448E-01    0.1070857474E-01    0.6958262296E+00    0.2399662471E+00    0.2179923360E-03
    0.3900000000E+07    0.4750349584E-01    0.1054617262E-01    0.6958256665E+00    0.2415279636E+00    0.2186310101E-03
    0.4100000000E+07    0.4674893212E-01    0.1039260048E-01    0.6958251281E+00    0.2429982553E+00    0.2192394694E-03
    0.4300000000E+07    0.4603507531E-01    0.1024703138E-01    0.6958246124E+00    0.2443862338E+00    0.2198205169E-03
    0.4500000000E+07    0.4535818286E-01    0.1010874651E-01    0.6958241175E+00    0.2456997492E+00    0.2203765798E-03
    0.4700000000E+07    0.4471499094E-01    0.9977117320E-02    0.6958236416E+00    0.2469456104E+00    0.2209097741E-03
    0.4900000000E+07    0.4410263712E-01    0.9851591180E-02    0.6958231835E+00    0.2481297590E+00    0.2214219555E-03
    0.1000000000E+07    0.6894582593E-01    0.1477814533E-01    0.6958386536E+00    0.1975197559E+00    0.2027051212E-03
    0.3000000000E+07    0.5153689266E-01    0.1136188347E-01    0.6958284345E+00    0.2336079054E+00    0.2154664670E-03
    0.5000000000E+07    0.4380722413E-01    0.9790961908E-02    0.6958229606E+00    0.2487003458E+00    0.2216706854E-03
    0.7000000000E+07    0.3903748174E-01    0.8805420105E-02    0.6958191802E+00    0.2578577795E+00    0.2258545429E-03
    0.9000000000E+07    0.3567689249E-01    0.8103385533E-02    0.6958162779E+00    0.2642551471E+00    0.2290309276E-03
    0.1100000000E+08    0.3312788637E-01    0.7566506185E-02    0.6958139159E+00    0.2690821926E+00    0.2315992580E-03
    0.1300000000E+08    0.3110055448E-01    0.7136698414E-02    0.6958119209E+00    0.2729075977E+00    0.2337592861E-03
    0.1500000000E+08    0.2943368108E-01    0.6781381152E-02    0.6958101919E+00    0.2760446069E+00    0.2356256040E-03
    0.1700000000E+08    0.2802902062E-01    0.6480560887E-02    0.6958086649E+00    0.2786828369E+00    0.2372701869E-03
    0.1900000000E+08    0.2682261134E-01    0.6221145382E-02    0.6958072965E+00    0.2809451172E+00    0.2387412648E-03
    0.2100000000E+08    0.2577067102E-01    0.5994128298E-02    0.6958060562E+00    0.2829151956E+00    0.2400727675E-03
    0.2300000000E+08    0.2484202599E-01    0.5793069052E-02    0.6958049216E+00    0.2846525141E+00    0.2412894887E-03
    0.2500000000E+08    0.2401376209E-01    0.5613215213E-02    0.6958038755E+00    0.2862006513E+00    0.2424101073E-03
    0.2700000000E+08    0.2326858781E-01    0.5450968046E-02    0.6958029049E+00    0.2875924204E+00    0.2434490527E-03
