  Pressure (Pa) 22mC5-500 (mol/kg) 23mC5-500 (mol/kg) 24mC5-500 (mol/kg) 2mC6-500 (mol/kg) C7-500 (mol/kg)
    0.1000000000E+01    0.1585306791E-04    0.1518671009E-05    0.3665702543E-01    0.1037399595E-04    0.4239334532E-02
    0.3000000000E+01    0.4190196691E-04    0.4009482612E-05    0.9946415322E-01    0.2681889521E-04    0.4370732662E-02
    0.5000000000E+01    0.6248278554E-04    0.5973322630E-05    0.1513168459E+00    0.3932654028E-04    0.4478384835E-02
    0.7000000000E+01    0.7905402721E-04    0.7551346764E-05    0.1948515187E+00    0.4904074458E-04    0.4569100773E-02
    0.9000000000E+01    0.9260113802E-04    0.8838800165E-05    0.2319213673E+00    0.5671231339E-04    0.4646729359E-02
    0.1100000000E+02    0.1038199791E-03    0.9902870689E-05    0.2638671104E+00    0.6286005180E-04    0.4713981990E-02
    0.1300000000E+02    0.1132157000E-03    0.1079228505E-04    0.2916826858E+00    0.6785283154E-04    0.4772856129E-02
    0.1500000000E+02    0.1211631669E-03    0.1154316779E-04    0.3161205632E+00    0.7195869381E-04    0.4824861907E-02
    0.1700000000E+02    0.1279457777E-03    0.1218280207E-04    0.3377608757E+00    0.7537594964E-04    0.4871163993E-02
    0.1900000000E+02    0.1337812476E-03    0.1273212666E-04    0.3570580864E+00    0.7825359283E-04    0.4912675742E-02
    0.2100000000E+02    0.1388392024E-03    0.1320743859E-04    0.3743732703E+00    0.8070506847E-04    0.4950123870E-02
    0.2300000000E+02    0.1432534584E-03    0.1362158095E-04    0.3899969312E+00    0.8281777201E-04    0.4984094010E-02
    0.2500000000E+02    0.1471307626E-03    0.1398478792E-04    0.4041654402E+00    0.8465973128E-04    0.5015063502E-02
    0.2700000000E+02    0.1505571239E-03    0.1430529639E-04    0.4170730842E+00    0.8628438751E-04    0.5043425411E-02
    0.2900000000E+02    0.1536024698E-03    0.1458979571E-04    0.4288810328E+00    0.8773406856E-04    0.5069506408E-02
    0.3100000000E+02    0.1563241212E-03    0.1484376301E-04    0.4397241072E+00    0.8904254647E-04    0.5093580278E-02
    0.3300000000E+02    0.1587694167E-03    0.1507171634E-04    0.4497159526E+00    0.9023694399E-04    0.5115878244E-02
    0.3500000000E+02    0.1609777193E-03    0.1527740807E-04    0.4589530397E+00    0.9133917185E-04    0.5136596963E-02
    0.3700000000E+02    0.1629819657E-03    0.1546397415E-04    0.4675177906E+00    0.9236702321E-04    0.5155904780E-02
    0.3900000000E+02    0.1648098751E-03    0.1563405050E-04    0.4754810466E+00    0.9333501495E-04    0.5173946665E-02
    0.4100000000E+02    0.1664849002E-03    0.1578986450E-04    0.4829040334E+00    0.9425503997E-04    0.5190848156E-02
    0.4300000000E+02    0.1680269820E-03    0.1593330755E-04    0.4898399388E+00    0.9513687686E-04    0.5206718524E-02
    0.4500000000E+02    0.1694531534E-03    0.1606599307E-04    0.4963351902E+00    0.9598859113E-04    0.5221653335E-02
    0.4700000000E+02    0.1707780253E-03    0.1618930319E-04    0.5024304955E+00    0.9681685324E-04    0.5235736546E-02
    0.4900000000E+02    0.1720141803E-03    0.1630442654E-04    0.5081616978E+00    0.9762719219E-04    0.5249042225E-02
    0.1000000000E+02    0.9846639277E-04    0.9395361855E-05    0.2484659583E+00    0.5995078071E-04    0.4681514298E-02
    0.3000000000E+02    0.1550005908E-03    0.1472029352E-04    0.4344156319E+00    0.8840412567E-04    0.5081778889E-02
    0.5000000000E+02    0.1726024470E-03    0.1635924442E-04    0.5109008072E+00    0.9802710710E-04    0.5255424287E-02
    0.7000000000E+02    0.1816929658E-03    0.1721230393E-04    0.5526050545E+00    0.1058551721E-03    0.5354793593E-02
    0.9000000000E+02    0.1884403429E-03    0.1785864488E-04    0.5788593404E+00    0.1141737293E-03    0.5420172274E-02
    0.1100000000E+03    0.1946156122E-03    0.1846132910E-04    0.5969078527E+00    0.1232654790E-03    0.5466969318E-02
    0.1300000000E+03    0.2008143838E-03    0.1907362432E-04    0.6100778538E+00    0.1330609096E-03    0.5502403624E-02
    0.1500000000E+03    0.2072465691E-03    0.1971335370E-04    0.6201118632E+00    0.1434422867E-03    0.5530329508E-02
    0.1700000000E+03    0.2139797108E-03    0.2038554426E-04    0.6280107928E+00    0.1543049113E-03    0.5553003148E-02
    0.1900000000E+03    0.2210255997E-03    0.2109037769E-04    0.6343905494E+00    0.1655660654E-03    0.5571838849E-02
    0.2100000000E+03    0.2283741622E-03    0.2182624579E-04    0.6396509181E+00    0.1771625071E-03    0.5587771491E-02
    0.2300000000E+03    0.2360075213E-03    0.2259098748E-04    0.6440627159E+00    0.1890462188E-03    0.5601445792E-02
    0.2500000000E+03    0.2439059877E-03    0.2338239656E-04    0.6478159178E+00    0.2011806531E-03    0.5613322026E-02
    0.2700000000E+03    0.2520505810E-03    0.2419842203E-04    0.6510477278E+00    0.2135378334E-03    0.5623738398E-02
    0.2900000000E+03    0.2604240073E-03    0.2503723513E-04    0.6538597132E+00    0.2260962037E-03    0.5632949551E-02
    0.3100000000E+03    0.2690109406E-03    0.2589723889E-04    0.6563286691E+00    0.2388390543E-03    0.5641151254E-02
    0.3300000000E+03    0.2777979983E-03    0.2677705370E-04    0.6585137372E+00    0.2517533685E-03    0.5648496763E-02
    0.3500000000E+03    0.2867735880E-03    0.2767549455E-04    0.6604612028E+00    0.2648289723E-03    0.5655107960E-02
    0.3700000000E+03    0.2959277135E-03    0.2859154654E-04    0.6622078080E+00    0.2780579017E-03    0.5661083136E-02
    0.3900000000E+03    0.3052517772E-03    0.2952434183E-04    0.6637830913E+00    0.2914339291E-03    0.5666502544E-02
    0.4100000000E+03    0.3147383969E-03    0.3047313896E-04    0.6652110697E+00    0.3049522034E-03    0.5671432436E-02
    0.4300000000E+03    0.3243812413E-03    0.3143730496E-04    0.6665114720E+00    0.3186089756E-03    0.5675928050E-02
    0.4500000000E+03    0.3341748880E-03    0.3241629996E-04    0.6677006545E+00    0.3324013866E-03    0.5680035855E-02
    0.4700000000E+03    0.3441147009E-03    0.3340966419E-04    0.6687922924E+00    0.3463273020E-03    0.5683795262E-02
    0.4900000000E+03    0.3541967249E-03    0.3441700698E-04    0.6697979072E+00    0.3603851825E-03    0.5687239944E-02
    0.1000000000E+03    0.1915483725E-03    0.1816083024E-04    0.5886484777E+00    0.1186246878E-03    0.5445330643E-02
    0.3000000000E+03    0.2646916661E-03    0.2546467925E-04    0.6551330248E+00    0.2324454578E-03    0.5637166159E-02
    0.5000000000E+03    0.3592899941E-03    0.3492581482E-04    0.6702715700E+00    0.3674632656E-03    0.5688853475E-02
    0.7000000000E+03    0.4680510943E-03    0.4578018079E-04    0.6769717263E+00    0.5158893027E-03    0.5709891215E-02
    0.9000000000E+03    0.5894882134E-03    0.5788372908E-04    0.6807491934E+00    0.6780051122E-03    0.5717127975E-02
    0.1100000000E+04    0.7240591521E-03    0.7128527645E-04    0.6831728270E+00    0.8554458044E-03    0.5715932510E-02
    0.1300000000E+04    0.8730659203E-03    0.8611636618E-04    0.6848591685E+00    0.1050440081E-02    0.5708521272E-02
    0.1500000000E+04    0.1038382744E-02    0.1025646720E-03    0.6860997978E+00    0.1265724270E-02    0.5695884652E-02
    0.1700000000E+04    0.1222417448E-02    0.1208704633E-03    0.6870504916E+00    0.1504604929E-02    0.5678412830E-02
    0.1900000000E+04    0.1428167685E-02    0.1413323705E-03    0.6878020344E+00    0.1771084656E-02    0.5656139083E-02
    0.2100000000E+04    0.1659336537E-02    0.1643189812E-03    0.6884109070E+00    0.2070039264E-02    0.5628840742E-02
    0.2300000000E+04    0.1920502806E-02    0.1902858338E-03    0.6889140888E+00    0.2407453910E-02    0.5596076112E-02
    0.2500000000E+04    0.2217354247E-02    0.2197986490E-03    0.6893368035E+00    0.2790735003E-02    0.5557186325E-02
    0.2700000000E+04    0.2557000326E-02    0.2535644578E-03    0.6896968460E+00    0.3229122499E-02    0.5511273191E-02
    0.2900000000E+04    0.2948388458E-02    0.2924730165E-03    0.6900071288E+00    0.3734235507E-02    0.5457156455E-02
    0.3100000000E+04    0.3402854713E-02    0.3376515937E-03    0.6902772486E+00    0.4320792935E-02    0.5393310311E-02
    0.3300000000E+04    0.3934844744E-02    0.3905366961E-03    0.6905144860E+00    0.5007557263E-02    0.5317777612E-02
    0.3500000000E+04    0.4562837074E-02    0.4529659352E-03    0.6907244643E+00    0.5818545512E-02    0.5228061180E-02
    0.3700000000E+04    0.5310473078E-02    0.5272904891E-03    0.6909115952E+00    0.6784516926E-02    0.5120997118E-02
    0.3900000000E+04    0.6207810390E-02    0.6164999028E-03    0.6910793887E+00    0.7944635470E-02    0.4992630155E-02
    0.4100000000E+04    0.7292393060E-02    0.7243287845E-03    0.6912306718E+00    0.9347919068E-02    0.4838146533E-02
    0.4300000000E+04    0.8609332224E-02    0.8552652912E-03    0.6913677471E+00    0.1105344332E-01    0.4651994063E-02
    0.4500000000E+04    0.1020861859E-01    0.1014284610E-02    0.6914925087E+00    0.1312700653E-01    0.4428453368E-02
    0.4700000000E+04    0.1213640169E-01    0.1205982776E-02    0.6916065289E+00    0.1563001983E-01    0.4163107741E-02
    0.4900000000E+04    0.1441591657E-01    0.1432681078E-02    0.6917111241E+00    0.1859496181E-01    0.3855724394E-02
    0.1000000000E+04    0.6550654318E-03    0.6441548547E-04    0.6820803483E+00    0.7646823211E-03    0.5717404921E-02
    0.3000000000E+04    0.3166916619E-02    0.3141969910E-03    0.6901467088E+00    0.4016268585E-02    0.5426560607E-02
    0.5000000000E+04    0.1568112005E-01    0.1558518090E-02    0.6917602411E+00    0.2024324292E-01    0.3688374409E-02
    0.7000000000E+04    0.3417297635E-01    0.3400672736E-02    0.6924438420E+00    0.4496839742E-01    0.1899032103E-02
    0.9000000000E+04    0.4023719349E-01    0.4009017039E-02    0.6928183138E+00    0.5399554666E-01    0.1896055021E-02
    0.1100000000E+05    0.4505438705E-01    0.4494122030E-02    0.6930529751E+00    0.6158607981E-01    0.1917501708E-02
    0.1300000000E+05    0.4908181575E-01    0.4901170202E-02    0.6932128054E+00    0.6827338791E-01    0.1935638004E-02
    0.1500000000E+05    0.5248420142E-01    0.5246338181E-02    0.6933280326E+00    0.7422779406E-01    0.1951271200E-02
    0.1700000000E+05    0.5538334218E-01    0.5541598186E-02    0.6934146005E+00    0.7957693152E-01    0.1965021965E-02
    0.1900000000E+05    0.5787198747E-01    0.5796077005E-02    0.6934817024E+00    0.8441961698E-01    0.1977304758E-02
    0.2100000000E+05    0.6002194562E-01    0.6016848597E-02    0.6935350051E+00    0.8883364028E-01    0.1988409794E-02
    0.2300000000E+05    0.6188962403E-01    0.6209475987E-02    0.6935781874E+00    0.9288113473E-01    0.1998548354E-02
    0.2500000000E+05    0.6351990711E-01    0.6378390816E-02    0.6936137394E+00    0.9661237322E-01    0.2007879135E-02
    0.2700000000E+05    0.6494892464E-01    0.6527164443E-02    0.6936434051E+00    0.1000685050E+00    0.2016524419E-02
    0.2900000000E+05    0.6620606280E-01    0.6658705023E-02    0.6936684411E+00    0.1032835636E+00    0.2024580470E-02
    0.3100000000E+05    0.6731544839E-01    0.6775403031E-02    0.6936897749E+00    0.1062859636E+00    0.2032124449E-02
    0.3300000000E+05    0.6829705990E-01    0.6879240291E-02    0.6937081057E+00    0.1090996322E+00    0.2039219174E-02
    0.3500000000E+05    0.6916757010E-01    0.6971872696E-02    0.6937239702E+00    0.1117448758E+00    0.2045916483E-02
    0.3700000000E+05    0.6994099271E-01    0.7054693741E-02    0.6937377867E+00    0.1142390519E+00    0.2052259659E-02
    0.3900000000E+05    0.7062918401E-01    0.7128883842E-02    0.6937498858E+00    0.1165970955E+00    0.2058285224E-02
    0.4100000000E+05    0.7124223585E-01    0.7195448996E-02    0.6937605324E+00    0.1188319352E+00    0.2064024281E-02
    0.4300000000E+05    0.7178878653E-01    0.7255251385E-02    0.6937699407E+00    0.1209548264E+00    0.2069503543E-02
    0.4500000000E+05    0.7227626863E-01    0.7309033791E-02    0.6937782861E+00    0.1229756189E+00    0.2074746119E-02
    0.4700000000E+05    0.7271110828E-01    0.7357439242E-02    0.6937857130E+00    0.1249029743E+00    0.2079772144E-02
    0.4900000000E+05    0.7309888658E-01    0.7401026931E-02    0.6937923418E+00    0.1267445444E+00    0.2084599267E-02
    0.1000000000E+05    0.4275727967E-01    0.4262580419E-02    0.6929478372E+00    0.5791691694E-01    0.1907219983E-02
    0.3000000000E+05    0.6677788977E-01    0.6718776984E-02    0.6936795226E+00    0.1048097565E+00    0.2028412251E-02
    0.5000000000E+05    0.7327667363E-01    0.7421169184E-02    0.6937953890E+00    0.1276353115E+00    0.2086943173E-02
    0.7000000000E+05    0.7526627674E-01    0.7662069507E-02    0.6938320484E+00    0.1422512191E+00    0.2126345724E-02
    0.9000000000E+05    0.7560295408E-01    0.7729253598E-02    0.6938450962E+00    0.1528682556E+00    0.2156235675E-02
    0.1100000000E+06    0.7522644412E-01    0.7718880255E-02    0.6938486803E+00    0.1611529054E+00    0.2180392120E-02
    0.1300000000E+06    0.7451813861E-01    0.7670660599E-02    0.6938478566E+00    0.1679200151E+00    0.2200701728E-02
    0.1500000000E+06    0.7365386457E-01    0.7603275798E-02    0.6938448046E+00    0.1736247340E+00    0.2218245661E-02
    0.1700000000E+06    0.7272162948E-01    0.7526305784E-02    0.6938405824E+00    0.1785457486E+00    0.2233702499E-02
    0.1900000000E+06    0.7176786854E-01    0.7444959730E-02    0.6938357467E+00    0.1828655610E+00    0.2247526702E-02
    0.2100000000E+06    0.7081782371E-01    0.7362182103E-02    0.6938306076E+00    0.1867099745E+00    0.2260037854E-02
    0.2300000000E+06    0.6988532549E-01    0.7279674923E-02    0.6938253445E+00    0.1901692817E+00    0.2271469411E-02
    0.2500000000E+06    0.6897780727E-01    0.7198428231E-02    0.6938200637E+00    0.1933104344E+00    0.2281997203E-02
    0.2700000000E+06    0.6809901176E-01    0.7119010330E-02    0.6938148290E+00    0.1961844272E+00    0.2291757030E-02
    0.2900000000E+06    0.6725051291E-01    0.7041733487E-02    0.6938096786E+00    0.1988309821E+00    0.2300855994E-02
    0.3100000000E+06    0.6643260007E-01    0.6966751888E-02    0.6938046350E+00    0.2012816361E+00    0.2309380086E-02
    0.3300000000E+06    0.6564480488E-01    0.6894121177E-02    0.6937997105E+00    0.2035618401E+00    0.2317399411E-02
    0.3500000000E+06    0.6488622153E-01    0.6823835502E-02    0.6937949111E+00    0.2056924278E+00    0.2324971886E-02
    0.3700000000E+06    0.6415570399E-01    0.6755850975E-02    0.6937902389E+00    0.2076906664E+00    0.2332145928E-02
    0.3900000000E+06    0.6345198850E-01    0.6690100739E-02    0.6937856931E+00    0.2095710252E+00    0.2338962423E-02
    0.4100000000E+06    0.6277376971E-01    0.6626504741E-02    0.6937812714E+00    0.2113457478E+00    0.2345456224E-02
    0.4300000000E+06    0.6211974762E-01    0.6564976101E-02    0.6937769704E+00    0.2130252852E+00    0.2351657282E-02
    0.4500000000E+06    0.6148865607E-01    0.6505425269E-02    0.6937727863E+00    0.2146186290E+00    0.2357591533E-02
    0.4700000000E+06    0.6087927924E-01    0.6447762715E-02    0.6937687147E+00    0.2161335699E+00    0.2363281580E-02
    0.4900000000E+06    0.6029046062E-01    0.6391900653E-02    0.6937647512E+00    0.2175769020E+00    0.2368747250E-02
    0.1000000000E+06    0.7547292520E-01    0.7730557914E-02    0.6938476523E+00    0.1572393958E+00    0.2168886389E-02
    0.3000000000E+06    0.6683774926E-01    0.7003950512E-02    0.6938071425E+00    0.2000790831E+00    0.2305185195E-02
    0.5000000000E+06    0.6000341650E-01    0.6364618123E-02    0.6937628086E+00    0.2182736061E+00    0.2371401490E-02
    0.7000000000E+06    0.5511031535E-01    0.5894894172E-02    0.6937286160E+00    0.2295749810E+00    0.2416043856E-02
    0.9000000000E+06    0.5138566965E-01    0.5532011410E-02    0.6937011164E+00    0.2376200166E+00    0.2449931434E-02
    0.1100000000E+07    0.4841663886E-01    0.5239737632E-02    0.6936781512E+00    0.2437817615E+00    0.2477329140E-02
    0.1300000000E+07    0.4596994448E-01    0.4996961544E-02    0.6936584330E+00    0.2487246110E+00    0.2500369476E-02
    0.1500000000E+07    0.4390314947E-01    0.4790556078E-02    0.6936411487E+00    0.2528191020E+00    0.2520275634E-02
    0.1700000000E+07    0.4212361822E-01    0.4611874706E-02    0.6936257554E+00    0.2562921346E+00    0.2537815830E-02
    0.1900000000E+07    0.4056802991E-01    0.4454949618E-02    0.6936118734E+00    0.2592922368E+00    0.2553504794E-02
    0.2100000000E+07    0.3919134829E-01    0.4315503104E-02    0.6935992272E+00    0.2619216410E+00    0.2567704619E-02
    0.2300000000E+07    0.3796049115E-01    0.4190372432E-02    0.6935876104E+00    0.2642535306E+00    0.2580679883E-02
    0.2500000000E+07    0.3685050007E-01    0.4077158230E-02    0.6935768646E+00    0.2663419755E+00    0.2592629904E-02
    0.2700000000E+07    0.3584211855E-01    0.3974000285E-02    0.6935668656E+00    0.2682279762E+00    0.2603708647E-02
    0.2900000000E+07    0.3492020299E-01    0.3879429401E-02    0.6935575139E+00    0.2699433076E+00    0.2614037560E-02
    0.3100000000E+07    0.3407264676E-01    0.3792266482E-02    0.6935487290E+00    0.2715130557E+00    0.2623714162E-02
    0.3300000000E+07    0.3328963148E-01    0.3711551952E-02    0.6935404444E+00    0.2729573444E+00    0.2632817967E-02
    0.3500000000E+07    0.3256309376E-01    0.3636495234E-02    0.6935326050E+00    0.2742925434E+00    0.2641414674E-02
    0.3700000000E+07    0.3188633733E-01    0.3566437864E-02    0.6935251641E+00    0.2755321321E+00    0.2649559202E-02
    0.3900000000E+07    0.3125374573E-01    0.3500826055E-02    0.6935180822E+00    0.2766873313E+00    0.2657297939E-02
    0.4100000000E+07    0.3066056601E-01    0.3439189980E-02    0.6935113254E+00    0.2777675721E+00    0.2664670427E-02
    0.4300000000E+07    0.3010274351E-01    0.3381127887E-02    0.6935048645E+00    0.2787808504E+00    0.2671710649E-02
    0.4500000000E+07    0.2957679390E-01    0.3326293775E-02    0.6934986739E+00    0.2797339992E+00    0.2678448031E-02
    0.4700000000E+07    0.2907970306E-01    0.3274387703E-02    0.6934927313E+00    0.2806328989E+00    0.2684908225E-02
    0.4900000000E+07    0.2860884764E-01    0.3225148108E-02    0.6934870172E+00    0.2814826437E+00    0.2691113728E-02
    0.1000000000E+07    0.4982411674E-01    0.5378614154E-02    0.6936891619E+00    0.2408851048E+00    0.2464278588E-02
    0.3000000000E+07    0.3448779014E-01    0.3834986393E-02    0.6935530550E+00    0.2707450217E+00    0.2618952064E-02
    0.5000000000E+07    0.2838252941E-01    0.3201455452E-02    0.6934842402E+00    0.2818904928E+00    0.2694127264E-02
    0.7000000000E+07    0.2480182496E-01    0.2824328941E-02    0.6934373624E+00    0.2882955725E+00    0.2744814246E-02
    0.9000000000E+07    0.2235951830E-01    0.2564516311E-02    0.6934016009E+00    0.2926167117E+00    0.2783291613E-02
    0.1100000000E+08    0.2054978214E-01    0.2370537660E-02    0.6933726029E+00    0.2957960617E+00    0.2814400650E-02
    0.1300000000E+08    0.1913605333E-01    0.2218083339E-02    0.6933481690E+00    0.2982672167E+00    0.2840562298E-02
    0.1500000000E+08    0.1799034719E-01    0.2093903980E-02    0.6933270292E+00    0.3002622545E+00    0.2863165287E-02
    0.1700000000E+08    0.1703635205E-01    0.1990052148E-02    0.6933083823E+00    0.3019184741E+00    0.2883081830E-02
    0.1900000000E+08    0.1622527034E-01    0.1901420190E-02    0.6932916897E+00    0.3033231437E+00    0.2900896355E-02
    0.2100000000E+08    0.1552420304E-01    0.1824549558E-02    0.6932765714E+00    0.3045348154E+00    0.2917019992E-02
    0.2300000000E+08    0.1491002994E-01    0.1757000398E-02    0.6932627493E+00    0.3055944743E+00    0.2931753158E-02
    0.2500000000E+08    0.1436594996E-01    0.1696993644E-02    0.6932500135E+00    0.3065318038E+00    0.2945322170E-02
    0.2700000000E+08    0.1387941258E-01    0.1643196219E-02    0.6932382016E+00    0.3073689146E+00    0.2957901849E-02
