  Pressure (Pa) 22mC5-500 (mol/kg) 23mC5-500 (mol/kg) 24mC5-500 (mol/kg) 2mC6-500 (mol/kg) C7-500 (mol/kg)
    0.1000000000E+01    0.1422489321E-04    0.3404981577E-05    0.9949654697E-01    0.6167019617E-05    0.4194675633E-02
    0.3000000000E+01    0.3146314606E-04    0.7513081623E-05    0.2320951279E+00    0.1307691258E-04    0.4245034705E-02
    0.5000000000E+01    0.4127358825E-04    0.9838301314E-05    0.3164396737E+00    0.1669186512E-04    0.4275463119E-02
    0.7000000000E+01    0.4742730517E-04    0.1128984351E-04    0.3748163835E+00    0.1884065780E-04    0.4296569113E-02
    0.9000000000E+01    0.5157526421E-04    0.1226451374E-04    0.4176183199E+00    0.2027083372E-04    0.4312179349E-02
    0.1100000000E+02    0.5453976221E-04    0.1295931113E-04    0.4503451356E+00    0.2132841179E-04    0.4324238606E-02
    0.1300000000E+02    0.5676846918E-04    0.1348111965E-04    0.4761797795E+00    0.2218730424E-04    0.4333860012E-02
    0.1500000000E+02    0.5852168686E-04    0.1389186396E-04    0.4970921581E+00    0.2294013777E-04    0.4341730742E-02
    0.1700000000E+02    0.5995863788E-04    0.1422927755E-04    0.5143667471E+00    0.2363830818E-04    0.4348299290E-02
    0.1900000000E+02    0.6118069953E-04    0.1451728740E-04    0.5288768581E+00    0.2431112914E-04    0.4353871389E-02
    0.2100000000E+02    0.6225453912E-04    0.1477155948E-04    0.5412369694E+00    0.2497557942E-04    0.4358662923E-02
    0.2300000000E+02    0.6322517122E-04    0.1500262171E-04    0.5518920040E+00    0.2564151931E-04    0.4362830846E-02
    0.2500000000E+02    0.6412365848E-04    0.1521770169E-04    0.5611720394E+00    0.2631459792E-04    0.4366492119E-02
    0.2700000000E+02    0.6497182449E-04    0.1542184871E-04    0.5693271173E+00    0.2699792831E-04    0.4369735752E-02
    0.2900000000E+02    0.6578523029E-04    0.1561864069E-04    0.5765501162E+00    0.2769307916E-04    0.4372630740E-02
    0.3100000000E+02    0.6657510605E-04    0.1581064178E-04    0.5829922038E+00    0.2840067503E-04    0.4375231423E-02
    0.3300000000E+02    0.6734963453E-04    0.1599970557E-04    0.5887735342E+00    0.2912076603E-04    0.4377581205E-02
    0.3500000000E+02    0.6811482169E-04    0.1618718029E-04    0.5939908133E+00    0.2985305865E-04    0.4379715200E-02
    0.3700000000E+02    0.6887509816E-04    0.1637405004E-04    0.5987227531E+00    0.3059706106E-04    0.4381662129E-02
    0.3900000000E+02    0.6963374144E-04    0.1656103375E-04    0.6030340703E+00    0.3135217519E-04    0.4383445728E-02
    0.4100000000E+02    0.7039317671E-04    0.1674865537E-04    0.6069784652E+00    0.3211775483E-04    0.4385085793E-02
    0.4300000000E+02    0.7115519371E-04    0.1693729432E-04    0.6106008696E+00    0.3289314220E-04    0.4386598972E-02
    0.4500000000E+02    0.7192110516E-04    0.1712722230E-04    0.6139391667E+00    0.3367769047E-04    0.4387999372E-02
    0.4700000000E+02    0.7269186345E-04    0.1731863014E-04    0.6170255208E+00    0.3447077722E-04    0.4389299031E-02
    0.4900000000E+02    0.7346814756E-04    0.1751164789E-04    0.6198874176E+00    0.3527181209E-04    0.4390508289E-02
    0.1000000000E+02    0.5317159683E-04    0.1263880647E-04    0.4350048633E+00    0.2083272268E-04    0.4318570110E-02
    0.3000000000E+02    0.6618253838E-04    0.1571511038E-04    0.5798606384E+00    0.2804530810E-04    0.4373964936E-02
    0.5000000000E+02    0.7385851559E-04    0.1760878822E-04    0.6212417100E+00    0.3567513531E-04    0.4391081858E-02
    0.7000000000E+02    0.8200527249E-04    0.1964254869E-04    0.6408435519E+00    0.4404413636E-04    0.4399448393E-02
    0.9000000000E+02    0.9074061087E-04    0.2182763436E-04    0.6522782949E+00    0.5278420343E-04    0.4404283390E-02
    0.1100000000E+03    0.9992172835E-04    0.2412407365E-04    0.6597702189E+00    0.6172658869E-04    0.4407294119E-02
    0.1300000000E+03    0.1094334290E-03    0.2650192498E-04    0.6650587414E+00    0.7079249499E-04    0.4409218539E-02
    0.1500000000E+03    0.1191978192E-03    0.2894146531E-04    0.6689912861E+00    0.7994278923E-04    0.4410432847E-02
    0.1700000000E+03    0.1291629139E-03    0.3142972969E-04    0.6720300947E+00    0.8915718982E-04    0.4411151184E-02
    0.1900000000E+03    0.1392934936E-03    0.3395802954E-04    0.6744487454E+00    0.9842501994E-04    0.4411505495E-02
    0.2100000000E+03    0.1495652252E-03    0.3652041546E-04    0.6764194949E+00    0.1077407761E-03    0.4411582085E-02
    0.2300000000E+03    0.1599609915E-03    0.3911273567E-04    0.6780562101E+00    0.1171018628E-03    0.4411440102E-02
    0.2500000000E+03    0.1704685718E-03    0.4173204903E-04    0.6794371764E+00    0.1265073719E-03    0.4411121627E-02
    0.2700000000E+03    0.1810791471E-03    0.4437624978E-04    0.6806179886E+00    0.1359573959E-03    0.4410657534E-02
    0.2900000000E+03    0.1917863113E-03    0.4704382164E-04    0.6816392165E+00    0.1454526282E-03    0.4410071058E-02
    0.3100000000E+03    0.2025854046E-03    0.4973367251E-04    0.6825311598E+00    0.1549941242E-03    0.4409380066E-02
    0.3300000000E+03    0.2134730521E-03    0.5244502116E-04    0.6833169042E+00    0.1645831545E-03    0.4408598554E-02
    0.3500000000E+03    0.2244468404E-03    0.5517731776E-04    0.6840143477E+00    0.1742211146E-03    0.4407737663E-02
    0.3700000000E+03    0.2355050852E-03    0.5793018734E-04    0.6846375805E+00    0.1839094679E-03    0.4406806379E-02
    0.3900000000E+03    0.2466466630E-03    0.6070338875E-04    0.6851978464E+00    0.1936497099E-03    0.4405812045E-02
    0.4100000000E+03    0.2578708865E-03    0.6349678459E-04    0.6857042272E+00    0.2034433460E-03    0.4404760720E-02
    0.4300000000E+03    0.2691774114E-03    0.6631031875E-04    0.6861641380E+00    0.2132918773E-03    0.4403657454E-02
    0.4500000000E+03    0.2805661666E-03    0.6914399951E-04    0.6865836933E+00    0.2231967932E-03    0.4402506489E-02
    0.4700000000E+03    0.2920373003E-03    0.7199788673E-04    0.6869679801E+00    0.2331595660E-03    0.4401311416E-02
    0.4900000000E+03    0.3035911387E-03    0.7487208194E-04    0.6873212646E+00    0.2431816492E-03    0.4400075296E-02
    0.1000000000E+03    0.9528364230E-04    0.2296408862E-04    0.6563776283E+00    0.5723633707E-04    0.4405958349E-02
    0.3000000000E+03    0.1971746035E-03    0.4838601725E-04    0.6820997645E+00    0.1502175176E-03    0.4409737674E-02
    0.5000000000E+03    0.3093992146E-03    0.7631683625E-04    0.6874874299E+00    0.2482153811E-03    0.4399442676E-02
    0.7000000000E+03    0.4300745500E-03    0.1063243390E-03    0.6898218156E+00    0.3523449945E-03    0.4385108211E-02
    0.9000000000E+03    0.5600598491E-03    0.1386335191E-03    0.6911250180E+00    0.4639637300E-03    0.4368208821E-02
    0.1100000000E+04    0.7006336177E-03    0.1735667555E-03    0.6919565025E+00    0.5843934968E-03    0.4349116647E-02
    0.1300000000E+04    0.8533076959E-03    0.2115020313E-03    0.6925330229E+00    0.7150351215E-03    0.4327875656E-02
    0.1500000000E+04    0.1019836245E-02    0.2528765208E-03    0.6929561850E+00    0.8574493937E-03    0.4304381496E-02
    0.1700000000E+04    0.1202264851E-02    0.2981993118E-03    0.6932799444E+00    0.1013425250E-02    0.4278436751E-02
    0.1900000000E+04    0.1402998642E-02    0.3480685668E-03    0.6935356067E+00    0.1185049396E-02    0.4249767838E-02
    0.2100000000E+04    0.1624888537E-02    0.4031930734E-03    0.6937425837E+00    0.1374785910E-02    0.4218026231E-02
    0.2300000000E+04    0.1871339677E-02    0.4644192605E-03    0.6939135513E+00    0.1585572576E-02    0.4182781196E-02
    0.2500000000E+04    0.2146448495E-02    0.5327653044E-03    0.6940571376E+00    0.1820940867E-02    0.4143506313E-02
    0.2700000000E+04    0.2455176974E-02    0.6094644705E-03    0.6941794193E+00    0.2085167573E-02    0.4099560164E-02
    0.2900000000E+04    0.2803575039E-02    0.6960204123E-03    0.6942847995E+00    0.2383467931E-02    0.4050160658E-02
    0.3100000000E+04    0.3199064622E-02    0.7942778071E-03    0.6943765468E+00    0.2722242257E-02    0.3994351969E-02
    0.3300000000E+04    0.3650801428E-02    0.9065123102E-03    0.6944571384E+00    0.3109390255E-02    0.3930962772E-02
    0.3500000000E+04    0.4170131405E-02    0.1035544072E-02    0.6945284860E+00    0.3554708231E-02    0.3858554653E-02
    0.3700000000E+04    0.4771155763E-02    0.1184878266E-02    0.6945920883E+00    0.4070381880E-02    0.3775360434E-02
    0.3900000000E+04    0.5471404639E-02    0.1358872673E-02    0.6946491371E+00    0.4671575996E-02    0.3679214733E-02
    0.4100000000E+04    0.6292582627E-02    0.1562923224E-02    0.6947005916E+00    0.5377091204E-02    0.3567485036E-02
    0.4300000000E+04    0.7261264538E-02    0.1803637301E-02    0.6947472328E+00    0.6209985616E-02    0.3437024021E-02
    0.4500000000E+04    0.8409243557E-02    0.2088920857E-02    0.6947897027E+00    0.7197908360E-02    0.3284188221E-02
    0.4700000000E+04    0.9772902410E-02    0.2427822995E-02    0.6948285344E+00    0.8372606546E-02    0.3105011043E-02
    0.4900000000E+04    0.1139043739E-01    0.2829847215E-02    0.6948641737E+00    0.9767599176E-02    0.2895682860E-02
    0.1000000000E+04    0.6289339537E-03    0.1557497822E-03    0.6915821378E+00    0.5229925929E-03    0.4358929496E-02
    0.3000000000E+04    0.2994906640E-02    0.7435555057E-03    0.6943322070E+00    0.2547341472E-02    0.4023125065E-02
    0.5000000000E+04    0.1230529577E-01    0.3057240583E-02    0.6948809161E+00    0.1055735273E-01    0.2778797646E-02
    0.7000000000E+04    0.3438647781E-01    0.8551142728E-02    0.6951145628E+00    0.2993261295E-01    0.4768181275E-03
    0.9000000000E+04    0.4187850556E-01    0.1042537978E-01    0.6952434060E+00    0.3709294181E-01    0.3384692048E-03
    0.1100000000E+05    0.4720465453E-01    0.1176326975E-01    0.6953247486E+00    0.4250718863E-01    0.3406387967E-03
    0.1300000000E+05    0.5171709848E-01    0.1290025493E-01    0.6953805973E+00    0.4730670964E-01    0.3438071192E-03
    0.1500000000E+05    0.5558803854E-01    0.1387864520E-01    0.6954212029E+00    0.5161240226E-01    0.3465619271E-03
    0.1700000000E+05    0.5893652922E-01    0.1472768349E-01    0.6954519815E+00    0.5550700615E-01    0.3489885099E-03
    0.1900000000E+05    0.6185416821E-01    0.1546988927E-01    0.6954760615E+00    0.5905507948E-01    0.3511582170E-03
    0.2100000000E+05    0.6441265652E-01    0.1612290727E-01    0.6954953755E+00    0.6230789834E-01    0.3531214382E-03
    0.2300000000E+05    0.6666889173E-01    0.1670075274E-01    0.6955111808E+00    0.6530674797E-01    0.3549149597E-03
    0.2500000000E+05    0.6866857565E-01    0.1721469411E-01    0.6955243301E+00    0.6808527414E-01    0.3565664707E-03
    0.2700000000E+05    0.7044881954E-01    0.1767389066E-01    0.6955354223E+00    0.7067119625E-01    0.3580973446E-03
    0.2900000000E+05    0.7204005673E-01    0.1808586093E-01    0.6955448897E+00    0.7308757630E-01    0.3595244312E-03
    0.3100000000E+05    0.7346746808E-01    0.1845683200E-01    0.6955530524E+00    0.7535377289E-01    0.3608612537E-03
    0.3300000000E+05    0.7475205857E-01    0.1879200352E-01    0.6955601521E+00    0.7748616829E-01    0.3621188338E-03
    0.3500000000E+05    0.7591148080E-01    0.1909574966E-01    0.6955663749E+00    0.7949872923E-01    0.3633062748E-03
    0.3700000000E+05    0.7696067170E-01    0.1937177543E-01    0.6955718663E+00    0.8140344459E-01    0.3644311842E-03
    0.3900000000E+05    0.7791235027E-01    0.1962323893E-01    0.6955767415E+00    0.8321067028E-01    0.3654999859E-03
    0.4100000000E+05    0.7877741012E-01    0.1985284779E-01    0.6955810931E+00    0.8492940378E-01    0.3665181541E-03
    0.4300000000E+05    0.7956523202E-01    0.2006293606E-01    0.6955849961E+00    0.8656750458E-01    0.3674903927E-03
    0.4500000000E+05    0.8028393464E-01    0.2025552585E-01    0.6955885122E+00    0.8813187252E-01    0.3684207742E-03
    0.4700000000E+05    0.8094057733E-01    0.2043237727E-01    0.6955916923E+00    0.8962859335E-01    0.3693128475E-03
    0.4900000000E+05    0.8154132524E-01    0.2059502914E-01    0.6955945790E+00    0.9106305822E-01    0.3701697253E-03
    0.1000000000E+05    0.4465923703E-01    0.1112336347E-01    0.6952882260E+00    0.3988858276E-01    0.3389963404E-03
    0.3000000000E+05    0.7277284065E-01    0.1827612493E-01    0.6955491175E+00    0.7423836114E-01    0.3602033857E-03
    0.5000000000E+05    0.8182245456E-01    0.2067145892E-01    0.6955959236E+00    0.9175846414E-01    0.3705858364E-03
    0.7000000000E+05    0.8552542184E-01    0.2170868319E-01    0.6956136888E+00    0.1033237871E+00    0.3775840671E-03
    0.9000000000E+05    0.8710310788E-01    0.2219550977E-01    0.6956222647E+00    0.1119290790E+00    0.3828960041E-03
    0.1100000000E+06    0.8767341230E-01    0.2241563176E-01    0.6956268872E+00    0.1187821130E+00    0.3871905627E-03
    0.1300000000E+06    0.8771432592E-01    0.2249190960E-01    0.6956295023E+00    0.1244809197E+00    0.3908021107E-03
    0.1500000000E+06    0.8745894188E-01    0.2248508868E-01    0.6956309864E+00    0.1293627828E+00    0.3939224094E-03
    0.1700000000E+06    0.8703164217E-01    0.2242807750E-01    0.6956317868E+00    0.1336358981E+00    0.3966718799E-03
    0.1900000000E+06    0.8650324135E-01    0.2233992939E-01    0.6956321524E+00    0.1374375880E+00    0.3991312038E-03
    0.2100000000E+06    0.8591603243E-01    0.2223224117E-01    0.6956322312E+00    0.1408631395E+00    0.4013571343E-03
    0.2300000000E+06    0.8529618972E-01    0.2211234704E-01    0.6956321159E+00    0.1439813694E+00    0.4033911398E-03
    0.2500000000E+06    0.8466033998E-01    0.2198502482E-01    0.6956318664E+00    0.1468436097E+00    0.4052644594E-03
    0.2700000000E+06    0.8401923733E-01    0.2185345848E-01    0.6956315234E+00    0.1494891829E+00    0.4070012233E-03
    0.2900000000E+06    0.8337991176E-01    0.2171980619E-01    0.6956311145E+00    0.1519488905E+00    0.4086204658E-03
    0.3100000000E+06    0.8274697217E-01    0.2158554816E-01    0.6956306593E+00    0.1542473202E+00    0.4101374705E-03
    0.3300000000E+06    0.8212342152E-01    0.2145170661E-01    0.6956301720E+00    0.1564044208E+00    0.4115646992E-03
    0.3500000000E+06    0.8151118034E-01    0.2131898858E-01    0.6956296626E+00    0.1584366072E+00    0.4129124482E-03
    0.3700000000E+06    0.8091143049E-01    0.2118788089E-01    0.6956291388E+00    0.1603575540E+00    0.4141893252E-03
    0.3900000000E+06    0.8032484523E-01    0.2105871456E-01    0.6956286061E+00    0.1621787773E+00    0.4154025999E-03
    0.4100000000E+06    0.7975174582E-01    0.2093170921E-01    0.6956280686E+00    0.1639100703E+00    0.4165584696E-03
    0.4300000000E+06    0.7919220945E-01    0.2080700429E-01    0.6956275296E+00    0.1655598325E+00    0.4176622604E-03
    0.4500000000E+06    0.7864614464E-01    0.2068468111E-01    0.6956269913E+00    0.1671353251E+00    0.4187185840E-03
    0.4700000000E+06    0.7811334434E-01    0.2056477882E-01    0.6956264555E+00    0.1686428687E+00    0.4197314608E-03
    0.4900000000E+06    0.7759352359E-01    0.2044730590E-01    0.6956259237E+00    0.1700880009E+00    0.4207044167E-03
    0.1000000000E+06    0.8747597845E-01    0.2232912421E-01    0.6956249105E+00    0.1155287259E+00    0.3851449068E-03
    0.3000000000E+06    0.8306242561E-01    0.2165268023E-01    0.6956308917E+00    0.1531169243E+00    0.4093909116E-03
    0.5000000000E+06    0.7733837700E-01    0.2038947685E-01    0.6956256595E+00    0.1707887104E+00    0.4211769107E-03
    0.7000000000E+06    0.7282575217E-01    0.1935099897E-01    0.6956207186E+00    0.1824566728E+00    0.4291245584E-03
    0.9000000000E+06    0.6919871083E-01    0.1849866018E-01    0.6956164622E+00    0.1911386900E+00    0.4351582868E-03
    0.1100000000E+07    0.6619463089E-01    0.1778294039E-01    0.6956127819E+00    0.1980228883E+00    0.4400369151E-03
    0.1300000000E+07    0.6364458731E-01    0.1716918184E-01    0.6956095549E+00    0.2037043352E+00    0.4441399199E-03
    0.1500000000E+07    0.6143777619E-01    0.1663374421E-01    0.6956066860E+00    0.2085248065E+00    0.4476849913E-03
    0.1700000000E+07    0.5949853993E-01    0.1616009516E-01    0.6956041050E+00    0.2126990276E+00    0.4508088580E-03
    0.1900000000E+07    0.5777322678E-01    0.1573631314E-01    0.6956017597E+00    0.2163707880E+00    0.4536031396E-03
    0.2100000000E+07    0.5622253363E-01    0.1535355351E-01    0.6955996105E+00    0.2196410950E+00    0.4561322898E-03
    0.2300000000E+07    0.5481686734E-01    0.1500508906E-01    0.6955976269E+00    0.2225836009E+00    0.4584434070E-03
    0.2500000000E+07    0.5353342205E-01    0.1468569188E-01    0.6955957849E+00    0.2252536453E+00    0.4605719736E-03
    0.2700000000E+07    0.5235427057E-01    0.1439122315E-01    0.6955940653E+00    0.2276938446E+00    0.4625453992E-03
    0.2900000000E+07    0.5126507820E-01    0.1411835296E-01    0.6955924527E+00    0.2299377005E+00    0.4643853054E-03
    0.3100000000E+07    0.5025421166E-01    0.1386436423E-01    0.6955909342E+00    0.2320120149E+00    0.4661090542E-03
    0.3300000000E+07    0.4931210664E-01    0.1362701229E-01    0.6955894993E+00    0.2339385554E+00    0.4677308023E-03
    0.3500000000E+07    0.4843080921E-01    0.1340442222E-01    0.6955881390E+00    0.2357352342E+00    0.4692622469E-03
    0.3700000000E+07    0.4760363699E-01    0.1319501259E-01    0.6955868459E+00    0.2374169618E+00    0.4707131666E-03
    0.3900000000E+07    0.4682492449E-01    0.1299743774E-01    0.6955856135E+00    0.2389962776E+00    0.4720918207E-03
    0.4100000000E+07    0.4608982883E-01    0.1281054353E-01    0.6955844361E+00    0.2404838230E+00    0.4734052499E-03
    0.4300000000E+07    0.4539417951E-01    0.1263333297E-01    0.6955833091E+00    0.2418887033E+00    0.4746595053E-03
    0.4500000000E+07    0.4473436080E-01    0.1246493918E-01    0.6955822280E+00    0.2432187666E+00    0.4758598267E-03
    0.4700000000E+07    0.4410721859E-01    0.1230460391E-01    0.6955811894E+00    0.2444808234E+00    0.4770107815E-03
    0.4900000000E+07    0.4350998595E-01    0.1215166030E-01    0.6955801898E+00    0.2456808195E+00    0.4781163760E-03
    0.1000000000E+07    0.6763108229E-01    0.1812620355E-01    0.6956145584E+00    0.1947600724E+00    0.4377129956E-03
    0.3000000000E+07    0.5075049440E-01    0.1398914842E-01    0.6955916824E+00    0.2309945877E+00    0.4652607495E-03
    0.5000000000E+07    0.4322181187E-01    0.1207777346E-01    0.6955797037E+00    0.2462592013E+00    0.4786532838E-03
    0.7000000000E+07    0.3856377874E-01    0.1087533965E-01    0.6955714739E+00    0.2555561320E+00    0.4876844835E-03
    0.9000000000E+07    0.3527582487E-01    0.1001716727E-01    0.6955651707E+00    0.2620674886E+00    0.4945408928E-03
    0.1100000000E+08    0.3277841146E-01    0.9359931908E-02    0.6955600477E+00    0.2669898802E+00    0.5000847333E-03
    0.1300000000E+08    0.3078988709E-01    0.8833164176E-02    0.6955557245E+00    0.2708967124E+00    0.5047472040E-03
    0.1500000000E+08    0.2915340714E-01    0.8397276722E-02    0.6955519800E+00    0.2741044553E+00    0.5087756698E-03
    0.1700000000E+08    0.2777327722E-01    0.8027946551E-02    0.6955486744E+00    0.2768049879E+00    0.5123254997E-03
    0.1900000000E+08    0.2658713360E-01    0.7709229552E-02    0.6955457134E+00    0.2791227754E+00    0.5155008044E-03
    0.2100000000E+08    0.2555225041E-01    0.7430147468E-02    0.6955430302E+00    0.2811427810E+00    0.5183748254E-03
    0.2300000000E+08    0.2463818247E-01    0.7182843207E-02    0.6955405761E+00    0.2829253716E+00    0.5210010830E-03
    0.2500000000E+08    0.2382253558E-01    0.6961514922E-02    0.6955383141E+00    0.2845148449E+00    0.5234198975E-03
    0.2700000000E+08    0.2308840001E-01    0.6761766354E-02    0.6955362155E+00    0.2859445831E+00    0.5256624159E-03
