  Pressure (Pa) 22mC5-500 (mol/kg) 23mC5-500 (mol/kg) 24mC5-500 (mol/kg) 2mC6-500 (mol/kg) C7-500 (mol/kg)
    0.1000000000E+01    0.1493506193E-04    0.7150736821E-06    0.6964620865E-01    0.9706647379E-05    0.4235683378E-02
    0.3000000000E+01    0.3582498787E-04    0.1712079741E-05    0.1740565426E+00    0.2250586968E-04    0.4345871686E-02
    0.5000000000E+01    0.4957234859E-04    0.2365593560E-05    0.2485930313E+00    0.3037230644E-04    0.4424217518E-02
    0.7000000000E+01    0.5911831701E-04    0.2817656781E-05    0.3044729985E+00    0.3551655161E-04    0.4483460848E-02
    0.9000000000E+01    0.6602358702E-04    0.3143488759E-05    0.3479223825E+00    0.3906131913E-04    0.4529987707E-02
    0.1100000000E+02    0.7118717046E-04    0.3386331354E-05    0.3826741134E+00    0.4162538894E-04    0.4567584856E-02
    0.1300000000E+02    0.7515865248E-04    0.3572564276E-05    0.4111024016E+00    0.4356976299E-04    0.4598658500E-02
    0.1500000000E+02    0.7828993518E-04    0.3719042040E-05    0.4347893741E+00    0.4511439024E-04    0.4624814911E-02
    0.1700000000E+02    0.8081490104E-04    0.3836941329E-05    0.4548299686E+00    0.4639792657E-04    0.4647168824E-02
    0.1900000000E+02    0.8289383440E-04    0.3933903789E-05    0.4720060605E+00    0.4751018602E-04    0.4666518831E-02
    0.2100000000E+02    0.8463943527E-04    0.4015289339E-05    0.4868908885E+00    0.4851061973E-04    0.4683452463E-02
    0.2300000000E+02    0.8613268744E-04    0.4084939686E-05    0.4999142955E+00    0.4943925999E-04    0.4698411873E-02
    0.2500000000E+02    0.8743287776E-04    0.4145659797E-05    0.5114049288E+00    0.5032341983E-04    0.4711736368E-02
    0.2700000000E+02    0.8858411282E-04    0.4199530616E-05    0.5216183654E+00    0.5118191165E-04    0.4723690804E-02
    0.2900000000E+02    0.8961966790E-04    0.4248117474E-05    0.5307563511E+00    0.5202776889E-04    0.4734485036E-02
    0.3100000000E+02    0.9056495557E-04    0.4292612145E-05    0.5389802648E+00    0.5287003938E-04    0.4744287568E-02
    0.3300000000E+02    0.9143959282E-04    0.4333931610E-05    0.5464207336E+00    0.5371498891E-04    0.4753235314E-02
    0.3500000000E+02    0.9225886611E-04    0.4372787959E-05    0.5531846256E+00    0.5456692210E-04    0.4761440708E-02
    0.3700000000E+02    0.9303478659E-04    0.4409738652E-05    0.5593602162E+00    0.5542875020E-04    0.4768996979E-02
    0.3900000000E+02    0.9377686075E-04    0.4445223175E-05    0.5650210633E+00    0.5630238870E-04    0.4775982107E-02
    0.4100000000E+02    0.9449266088E-04    0.4479590116E-05    0.5702289520E+00    0.5718903887E-04    0.4782461841E-02
    0.4300000000E+02    0.9518825211E-04    0.4513117417E-05    0.5750361592E+00    0.5808938884E-04    0.4788492022E-02
    0.4500000000E+02    0.9586851560E-04    0.4546027659E-05    0.5794872148E+00    0.5900375852E-04    0.4794120398E-02
    0.4700000000E+02    0.9653739561E-04    0.4578499735E-05    0.5836202858E+00    0.5993220465E-04    0.4799388046E-02
    0.4900000000E+02    0.9719808999E-04    0.4610677828E-05    0.5874682735E+00    0.6087459740E-04    0.4804330513E-02
    0.1000000000E+02    0.6878281475E-04    0.3273349293E-05    0.3662136111E+00    0.4043909135E-04    0.4549728396E-02
    0.3000000000E+02    0.9010225282E-04    0.4270813515E-05    0.5349737745E+00    0.5244890677E-04    0.4739501061E-02
    0.5000000000E+02    0.9752619994E-04    0.4626693946E-05    0.5892944225E+00    0.6135094630E-04    0.4806689625E-02
    0.7000000000E+02    0.1040803624E-03    0.4950206762E-05    0.6161077307E+00    0.7151558870E-04    0.4842541746E-02
    0.9000000000E+02    0.1110232862E-03    0.5296571357E-05    0.6320864478E+00    0.8260007093E-04    0.4865338033E-02
    0.1100000000E+03    0.1184639205E-03    0.5668971805E-05    0.6426936850E+00    0.9427871652E-04    0.4881309897E-02
    0.1300000000E+03    0.1263435647E-03    0.6063651913E-05    0.6502481372E+00    0.1063572433E-03    0.4893202499E-02
    0.1500000000E+03    0.1345890120E-03    0.6476619935E-05    0.6559018208E+00    0.1187214933E-03    0.4902429164E-02
    0.1700000000E+03    0.1431388237E-03    0.6904665140E-05    0.6602918752E+00    0.1313024359E-03    0.4909798761E-02
    0.1900000000E+03    0.1519453922E-03    0.7345351399E-05    0.6637993009E+00    0.1440570012E-03    0.4915811208E-02
    0.2100000000E+03    0.1609725058E-03    0.7796850222E-05    0.6666659195E+00    0.1569576088E-03    0.4920794079E-02
    0.2300000000E+03    0.1701926229E-03    0.8257784236E-05    0.6690526081E+00    0.1699862631E-03    0.4924972122E-02
    0.2500000000E+03    0.1795846672E-03    0.8727107419E-05    0.6710705520E+00    0.1831310964E-03    0.4928505369E-02
    0.2700000000E+03    0.1891323834E-03    0.9204018213E-05    0.6727990553E+00    0.1963842729E-03    0.4931511310E-02
    0.2900000000E+03    0.1988231379E-03    0.9687897234E-05    0.6742962035E+00    0.2097406767E-03    0.4934078441E-02
    0.3100000000E+03    0.2086470468E-03    0.1017826250E-04    0.6756055152E+00    0.2231970670E-03    0.4936274889E-02
    0.3300000000E+03    0.2185963368E-03    0.1067473696E-04    0.6767602387E+00    0.2367515202E-03    0.4938154087E-02
    0.3500000000E+03    0.2286648745E-03    0.1117702467E-04    0.6777862135E+00    0.2504030538E-03    0.4939758632E-02
    0.3700000000E+03    0.2388478139E-03    0.1168489315E-04    0.6787038245E+00    0.2641513680E-03    0.4941122966E-02
    0.3900000000E+03    0.2491413313E-03    0.1219816008E-04    0.6795293692E+00    0.2779966643E-03    0.4942275293E-02
    0.4100000000E+03    0.2595424222E-03    0.1271668323E-04    0.6802760335E+00    0.2919395178E-03    0.4943238964E-02
    0.4300000000E+03    0.2700487457E-03    0.1324035277E-04    0.6809546002E+00    0.3059807843E-03    0.4944033503E-02
    0.4500000000E+03    0.2806585030E-03    0.1376908521E-04    0.6815739727E+00    0.3201215334E-03    0.4944675387E-02
    0.4700000000E+03    0.2913703420E-03    0.1430281874E-04    0.6821415672E+00    0.3343629996E-03    0.4945178625E-02
    0.4900000000E+03    0.3021832817E-03    0.1484150953E-04    0.6826636111E+00    0.3487065452E-03    0.4945555221E-02
    0.1000000000E+03    0.1146840409E-03    0.5479718334E-05    0.6378766949E+00    0.8837970048E-04    0.4873960363E-02
    0.3000000000E+03    0.2037189772E-03    0.9932294797E-05    0.6749720591E+00    0.2164565195E-03    0.4935219369E-02
    0.5000000000E+03    0.3076274442E-03    0.1511270438E-04    0.6829092299E+00    0.3559170518E-03    0.4945699320E-02
    0.7000000000E+03    0.4217793880E-03    0.2079581324E-04    0.6863648834E+00    0.5058814054E-03    0.4943830159E-02
    0.9000000000E+03    0.5463900937E-03    0.2699525793E-04    0.6882976979E+00    0.6680595661E-03    0.4935647439E-02
    0.1100000000E+04    0.6826011548E-03    0.3376911270E-04    0.6895318828E+00    0.8444778915E-03    0.4923059999E-02
    0.1300000000E+04    0.8319905429E-03    0.4119650200E-04    0.6903878498E+00    0.1037436417E-02    0.4906789833E-02
    0.1500000000E+04    0.9965071663E-03    0.4937469457E-04    0.6910161019E+00    0.1249594425E-02    0.4887067839E-02
    0.1700000000E+04    0.1178507434E-02    0.5842106394E-04    0.6914966659E+00    0.1484080457E-02    0.4863861252E-02
    0.1900000000E+04    0.1380836682E-02    0.6847720294E-04    0.6918760173E+00    0.1744624992E-02    0.4836958968E-02
    0.2100000000E+04    0.1606946018E-02    0.7971476705E-04    0.6921829925E+00    0.2035725210E-02    0.4806001540E-02
    0.2300000000E+04    0.1861048457E-02    0.9234325614E-04    0.6924364305E+00    0.2362854689E-02    0.4770484189E-02
    0.2500000000E+04    0.2148324484E-02    0.1066202466E-03    0.6926491588E+00    0.2732734492E-02    0.4729742957E-02
    0.2700000000E+04    0.2475192254E-02    0.1228648335E-03    0.6928302135E+00    0.3153686978E-02    0.4682927184E-02
    0.2900000000E+04    0.2849662965E-02    0.1414753076E-03    0.6929861433E+00    0.3636100037E-02    0.4628958373E-02
    0.3100000000E+04    0.3281807680E-02    0.1629523735E-03    0.6931218099E+00    0.4193036730E-02    0.4566473838E-02
    0.3300000000E+04    0.3784366724E-02    0.1879294622E-03    0.6932408982E+00    0.4841031871E-02    0.4493752840E-02
    0.3500000000E+04    0.4373532934E-02    0.2172116942E-03    0.6933462519E+00    0.5601117837E-02    0.4408623423E-02
    0.3700000000E+04    0.5069925786E-02    0.2518243484E-03    0.6934401004E+00    0.6500104444E-02    0.4308351404E-02
    0.3900000000E+04    0.5899722264E-02    0.2930691487E-03    0.6935242161E+00    0.7572073113E-02    0.4189522115E-02
    0.4100000000E+04    0.6895774325E-02    0.3425799271E-03    0.6936000259E+00    0.8859871782E-02    0.4047947351E-02
    0.4300000000E+04    0.8098228004E-02    0.4023535766E-03    0.6936686911E+00    0.1041599208E-01    0.3878676996E-02
    0.4500000000E+04    0.9553513793E-02    0.4747001284E-03    0.6937311667E+00    0.1230137552E-01    0.3676284981E-02
    0.4700000000E+04    0.1130946245E-01    0.5620003158E-03    0.6937882451E+00    0.1457924365E-01    0.3435742772E-02
    0.4900000000E+04    0.1340297783E-01    0.6660931683E-03    0.6938405892E+00    0.1729930307E-01    0.3154332670E-02
    0.1000000000E+04    0.6129556498E-03    0.3030586145E-04    0.6889761374E+00    0.7543522153E-03    0.4929843270E-02
    0.3000000000E+04    0.3057800623E-02    0.1518194488E-03    0.6930562562E+00    0.3904311680E-02    0.4598878730E-02
    0.5000000000E+04    0.1457939632E-01    0.7245914857E-03    0.6938651640E+00    0.1882993088E-01    0.2998866340E-02
    0.7000000000E+04    0.3431004862E-01    0.1707118953E-02    0.6942067791E+00    0.4510450880E-01    0.1017600125E-02
    0.9000000000E+04    0.4059488181E-01    0.2022216640E-02    0.6943935023E+00    0.5439979222E-01    0.9872418350E-03
    0.1100000000E+05    0.4551236510E-01    0.2269722592E-02    0.6945102961E+00    0.6210583888E-01    0.9980868714E-03
    0.1300000000E+05    0.4963224536E-01    0.2477821782E-02    0.6945897116E+00    0.6890271582E-01    0.1007452505E-02
    0.1500000000E+05    0.5311976446E-01    0.2654627127E-02    0.6946468726E+00    0.7496106779E-01    0.1015537915E-02
    0.1700000000E+05    0.5609676769E-01    0.2806125691E-02    0.6946897486E+00    0.8040813663E-01    0.1022656721E-02
    0.1900000000E+05    0.5865634587E-01    0.2936896528E-02    0.6947229306E+00    0.8534273091E-01    0.1029020358E-02
    0.2100000000E+05    0.6087078792E-01    0.3050499330E-02    0.6947492466E+00    0.8984284522E-01    0.1034777261E-02
    0.2300000000E+05    0.6279703033E-01    0.3149740883E-02    0.6947705314E+00    0.9397092428E-01    0.1040035707E-02
    0.2500000000E+05    0.6448048672E-01    0.3236862429E-02    0.6947880258E+00    0.9777759836E-01    0.1044877153E-02
    0.2700000000E+05    0.6595779134E-01    0.3313673969E-02    0.6948025985E+00    0.1013043856E+00    0.1049364450E-02
    0.2900000000E+05    0.6725879851E-01    0.3381652211E-02    0.6948148750E+00    0.1045856810E+00    0.1053547127E-02
    0.3100000000E+05    0.6840806257E-01    0.3442013105E-02    0.6948253168E+00    0.1076502426E+00    0.1057464925E-02
    0.3300000000E+05    0.6942594875E-01    0.3495766329E-02    0.6948342715E+00    0.1105223182E+00    0.1061150223E-02
    0.3500000000E+05    0.7032947759E-01    0.3543756732E-02    0.6948420059E+00    0.1132225108E+00    0.1064629760E-02
    0.3700000000E+05    0.7113297451E-01    0.3586696230E-02    0.6948487276E+00    0.1157684496E+00    0.1067925875E-02
    0.3900000000E+05    0.7184857459E-01    0.3625188615E-02    0.6948546009E+00    0.1181753178E+00    0.1071057430E-02
    0.4100000000E+05    0.7248661899E-01    0.3659749049E-02    0.6948597571E+00    0.1204562702E+00    0.1074040495E-02
    0.4300000000E+05    0.7305596888E-01    0.3690819506E-02    0.6948643025E+00    0.1226227680E+00    0.1076888876E-02
    0.4500000000E+05    0.7356425622E-01    0.3718781125E-02    0.6948683240E+00    0.1246848479E+00    0.1079614525E-02
    0.4700000000E+05    0.7401808572E-01    0.3743964156E-02    0.6948718933E+00    0.1266513418E+00    0.1082227856E-02
    0.4900000000E+05    0.7442319853E-01    0.3766656037E-02    0.6948750698E+00    0.1285300564E+00    0.1084738003E-02
    0.1000000000E+05    0.4316633687E-01    0.2151534443E-02    0.6944579927E+00    0.5837996995E-01    0.9928012946E-03
    0.3000000000E+05    0.6785103842E-01    0.3412717427E-02    0.6948203013E+00    0.1061434435E+00    0.1055536963E-02
    0.5000000000E+05    0.7460907758E-01    0.3777147562E-02    0.6948765266E+00    0.1294386926E+00    0.1085956937E-02
    0.7000000000E+05    0.7670159719E-01    0.3903060983E-02    0.6948937564E+00    0.1443355046E+00    0.1106454849E-02
    0.9000000000E+05    0.7707429916E-01    0.3938744929E-02    0.6948994731E+00    0.1551366299E+00    0.1122011165E-02
    0.1100000000E+06    0.7670194564E-01    0.3934017655E-02    0.6949006288E+00    0.1635495437E+00    0.1134586834E-02
    0.1300000000E+06    0.7598159168E-01    0.3909519895E-02    0.6948996923E+00    0.1704098337E+00    0.1145161765E-02
    0.1500000000E+06    0.7509678949E-01    0.3874983567E-02    0.6948977202E+00    0.1761842495E+00    0.1154297832E-02
    0.1700000000E+06    0.7413963232E-01    0.3835408073E-02    0.6948952212E+00    0.1811584779E+00    0.1162347828E-02
    0.1900000000E+06    0.7315882565E-01    0.3793515992E-02    0.6948924604E+00    0.1855195008E+00    0.1169548102E-02
    0.2100000000E+06    0.7218091575E-01    0.3750848486E-02    0.6948895834E+00    0.1893961248E+00    0.1176064893E-02
    0.2300000000E+06    0.7122049728E-01    0.3708297798E-02    0.6948866732E+00    0.1928807332E+00    0.1182019662E-02
    0.2500000000E+06    0.7028545369E-01    0.3666383915E-02    0.6948837782E+00    0.1960417785E+00    0.1187503901E-02
    0.2700000000E+06    0.6937978975E-01    0.3625406097E-02    0.6948809263E+00    0.1989313607E+00    0.1192588281E-02
    0.2900000000E+06    0.6850522630E-01    0.3585529468E-02    0.6948781338E+00    0.2015900344E+00    0.1197328547E-02
    0.3100000000E+06    0.6766212794E-01    0.3546836238E-02    0.6948754095E+00    0.2040499748E+00    0.1201769457E-02
    0.3300000000E+06    0.6685005671E-01    0.3509356874E-02    0.6948727577E+00    0.2063371310E+00    0.1205947504E-02
    0.3500000000E+06    0.6606810895E-01    0.3473089496E-02    0.6948701798E+00    0.2084727303E+00    0.1209892839E-02
    0.3700000000E+06    0.6531512328E-01    0.3438012181E-02    0.6948676756E+00    0.2104743551E+00    0.1213630669E-02
    0.3900000000E+06    0.6458980988E-01    0.3404090866E-02    0.6948652435E+00    0.2123567301E+00    0.1217182281E-02
    0.4100000000E+06    0.6389083114E-01    0.3371284478E-02    0.6948628816E+00    0.2141323073E+00    0.1220565822E-02
    0.4300000000E+06    0.6321685153E-01    0.3339548284E-02    0.6948605873E+00    0.2158117102E+00    0.1223796887E-02
    0.4500000000E+06    0.6256656795E-01    0.3308836079E-02    0.6948583581E+00    0.2174040730E+00    0.1226888980E-02
    0.4700000000E+06    0.6193872753E-01    0.3279101604E-02    0.6948561911E+00    0.2189173064E+00    0.1229853873E-02
    0.4900000000E+06    0.6133213736E-01    0.3250299457E-02    0.6948540838E+00    0.2203583053E+00    0.1232701891E-02
    0.1000000000E+06    0.7694908730E-01    0.3939768623E-02    0.6949004161E+00    0.1595772882E+00    0.1128596701E-02
    0.3000000000E+06    0.6807975728E-01    0.3566032082E-02    0.6948767628E+00    0.2028430987E+00    0.1199583973E-02
    0.5000000000E+06    0.6103645590E-01    0.3236234198E-02    0.6948530516E+00    0.2210536355E+00    0.1234084959E-02
    0.7000000000E+06    0.5599925230E-01    0.2994242398E-02    0.6948349419E+00    0.2323098398E+00    0.1257348396E-02
    0.9000000000E+06    0.5216966254E-01    0.2807545465E-02    0.6948204349E+00    0.2402958202E+00    0.1275008862E-02
    0.1100000000E+07    0.4912041481E-01    0.2657356228E-02    0.6948083467E+00    0.2463967269E+00    0.1289287943E-02
    0.1300000000E+07    0.4661011726E-01    0.2532733139E-02    0.6947979822E+00    0.2512807440E+00    0.1301296574E-02
    0.1500000000E+07    0.4449146108E-01    0.2426877759E-02    0.6947889062E+00    0.2553196001E+00    0.1311672032E-02
    0.1700000000E+07    0.4266870545E-01    0.2335315629E-02    0.6947808290E+00    0.2587404551E+00    0.1320814575E-02
    0.1900000000E+07    0.4107645118E-01    0.2254960878E-02    0.6947735490E+00    0.2616917439E+00    0.1328992398E-02
    0.2100000000E+07    0.3966821431E-01    0.2183603186E-02    0.6947669201E+00    0.2642754760E+00    0.1336394177E-02
    0.2300000000E+07    0.3840987072E-01    0.2119609480E-02    0.6947608331E+00    0.2665645750E+00    0.1343157777E-02
    0.2500000000E+07    0.3727569122E-01    0.2061741653E-02    0.6947552042E+00    0.2686128523E+00    0.1349387061E-02
    0.2700000000E+07    0.3624583582E-01    0.2009040393E-02    0.6947499679E+00    0.2704610664E+00    0.1355162261E-02
    0.2900000000E+07    0.3530471037E-01    0.1960748470E-02    0.6947450718E+00    0.2721407725E+00    0.1360546666E-02
    0.3100000000E+07    0.3443985426E-01    0.1916258499E-02    0.6947404733E+00    0.2736768597E+00    0.1365591094E-02
    0.3300000000E+07    0.3364116687E-01    0.1875076427E-02    0.6947361374E+00    0.2750892765E+00    0.1370336984E-02
    0.3500000000E+07    0.3290035673E-01    0.1836795407E-02    0.6947320352E+00    0.2763942367E+00    0.1374818574E-02
    0.3700000000E+07    0.3221054110E-01    0.1801076731E-02    0.6947281420E+00    0.2776050817E+00    0.1379064484E-02
    0.3900000000E+07    0.3156594943E-01    0.1767635660E-02    0.6947244372E+00    0.2787329090E+00    0.1383098891E-02
    0.4100000000E+07    0.3096170030E-01    0.1736230722E-02    0.6947209028E+00    0.2797870401E+00    0.1386942401E-02
    0.4300000000E+07    0.3039363091E-01    0.1706655514E-02    0.6947175235E+00    0.2807753732E+00    0.1390612726E-02
    0.4500000000E+07    0.2985816532E-01    0.1678732336E-02    0.6947142860E+00    0.2817046537E+00    0.1394125202E-02
    0.4700000000E+07    0.2935221114E-01    0.1652307205E-02    0.6947111784E+00    0.2825806833E+00    0.1397493198E-02
    0.4900000000E+07    0.2887307781E-01    0.1627245879E-02    0.6947081905E+00    0.2834084854E+00    0.1400728439E-02
    0.1000000000E+07    0.5056551851E-01    0.2728699054E-02    0.6948141399E+00    0.2435303809E+00    0.1282486197E-02
    0.3000000000E+07    0.3486342791E-01    0.1938061428E-02    0.6947427376E+00    0.2729254220E+00    0.1363108596E-02
    0.5000000000E+07    0.2864282167E-01    0.1615189298E-02    0.6947067385E+00    0.2838056907E+00    0.1402299556E-02
    0.7000000000E+07    0.2500340303E-01    0.1423473567E-02    0.6946822348E+00    0.2900339348E+00    0.1428726319E-02
    0.9000000000E+07    0.2252500897E-01    0.1291611068E-02    0.6946635493E+00    0.2942252463E+00    0.1448788491E-02
    0.1100000000E+08    0.2069066007E-01    0.1193277846E-02    0.6946484014E+00    0.2973034825E+00    0.1465009524E-02
    0.1300000000E+08    0.1925898841E-01    0.1116065216E-02    0.6946356398E+00    0.2996926895E+00    0.1478651361E-02
    0.1500000000E+08    0.1809957938E-01    0.1053219225E-02    0.6946246000E+00    0.3016193802E+00    0.1490437921E-02
    0.1700000000E+08    0.1713475348E-01    0.1000692981E-02    0.6946148629E+00    0.3032173479E+00    0.1500823883E-02
    0.1900000000E+08    0.1631488145E-01    0.9558879521E-03    0.6946061469E+00    0.3045715202E+00    0.1510113918E-02
    0.2100000000E+08    0.1560652812E-01    0.9170459287E-03    0.6945982534E+00    0.3057388154E+00    0.1518522357E-02
    0.2300000000E+08    0.1498621146E-01    0.8829273831E-03    0.6945910371E+00    0.3067590361E+00    0.1526205817E-02
    0.2500000000E+08    0.1443687697E-01    0.8526290115E-03    0.6945843881E+00    0.3076609851E+00    0.1533282287E-02
    0.2700000000E+08    0.1394579114E-01    0.8254743010E-03    0.6945782217E+00    0.3084661007E+00    0.1539842910E-02
