  Pressure (Pa) 22mC5-500 (mol/kg) 23mC5-500 (mol/kg) 24mC5-500 (mol/kg) 2mC6-500 (mol/kg) C7-500 (mol/kg)
    0.1000000000E+01    0.1436430966E-04    0.6879010346E-06    0.9949600107E-01    0.2512067989E-04    0.4169968101E-02
    0.3000000000E+01    0.3176864459E-04    0.1517747076E-05    0.2320937587E+00    0.5330003250E-04    0.4201325632E-02
    0.5000000000E+01    0.4172235185E-04    0.1989886763E-05    0.3164396362E+00    0.6822531550E-04    0.4217221982E-02
    0.7000000000E+01    0.4800989372E-04    0.2286823211E-05    0.3748193172E+00    0.7725516289E-04    0.4227713504E-02
    0.9000000000E+01    0.5228635237E-04    0.2488121468E-05    0.4176251393E+00    0.8339327173E-04    0.4235227516E-02
    0.1100000000E+02    0.5537598556E-04    0.2633278603E-05    0.4503562628E+00    0.8803020142E-04    0.4240871578E-02
    0.1300000000E+02    0.5772759816E-04    0.2743727687E-05    0.4761953413E+00    0.9186535596E-04    0.4245251964E-02
    0.1500000000E+02    0.5960222643E-04    0.2831890081E-05    0.4971121120E+00    0.9527166626E-04    0.4248734246E-02
    0.1700000000E+02    0.6115960420E-04    0.2905337827E-05    0.5143909574E+00    0.9845639521E-04    0.4251553594E-02
    0.1900000000E+02    0.6250148292E-04    0.2968874868E-05    0.5289051411E+00    0.1015380208E-03    0.4253868743E-02
    0.2100000000E+02    0.6369481420E-04    0.3025648481E-05    0.5412691198E+00    0.1045853830E-03    0.4255790962E-02
    0.2300000000E+02    0.6478483492E-04    0.3077775266E-05    0.5519278109E+00    0.1076386428E-03    0.4257400684E-02
    0.2500000000E+02    0.6580278565E-04    0.3126709551E-05    0.5612112947E+00    0.1107209703E-03    0.4258757561E-02
    0.2700000000E+02    0.6677063505E-04    0.3173468380E-05    0.5693696211E+00    0.1138452841E-03    0.4259906808E-02
    0.2900000000E+02    0.6770406443E-04    0.3218773288E-05    0.5765956791E+00    0.1170182439E-03    0.4260883344E-02
    0.3100000000E+02    0.6861440497E-04    0.3263142103E-05    0.5830406479E+00    0.1202426709E-03    0.4261714584E-02
    0.3300000000E+02    0.6950992533E-04    0.3306949797E-05    0.5888246935E+00    0.1235190394E-03    0.4262422360E-02
    0.3500000000E+02    0.7039670528E-04    0.3350469664E-05    0.5940445338E+00    0.1268464104E-03    0.4263024283E-02
    0.3700000000E+02    0.7127923946E-04    0.3393901694E-05    0.5987788915E+00    0.1302230202E-03    0.4263534718E-02
    0.3900000000E+02    0.7216086140E-04    0.3437392442E-05    0.6030924942E+00    0.1336466545E-03    0.4263965510E-02
    0.4100000000E+02    0.7304404564E-04    0.3481049139E-05    0.6070390517E+00    0.1371148852E-03    0.4264326509E-02
    0.4300000000E+02    0.7393062576E-04    0.3524949842E-05    0.6106635049E+00    0.1406252205E-03    0.4264625979E-02
    0.4500000000E+02    0.7482195364E-04    0.3569150821E-05    0.6140037452E+00    0.1441751972E-03    0.4264870907E-02
    0.4700000000E+02    0.7571901687E-04    0.3613691990E-05    0.6170919448E+00    0.1477624377E-03    0.4265067241E-02
    0.4900000000E+02    0.7662252626E-04    0.3658600926E-05    0.6199555961E+00    0.1513846815E-03    0.4265220077E-02
    0.1000000000E+02    0.5394558972E-04    0.2566095526E-05    0.4350138060E+00    0.8584520862E-04    0.4238237829E-02
    0.3000000000E+02    0.6816154407E-04    0.3241048482E-05    0.5799076633E+00    0.1186239524E-03    0.4261315649E-02
    0.5000000000E+02    0.7707686120E-04    0.3681199310E-05    0.6213107338E+00    0.1532082597E-03    0.4265281580E-02
    0.7000000000E+02    0.8655713140E-04    0.4154051356E-05    0.6409259972E+00    0.1910771951E-03    0.4265031464E-02
    0.9000000000E+02    0.9674012638E-04    0.4662841029E-05    0.6523697748E+00    0.2308221204E-03    0.4263114321E-02
    0.1100000000E+03    0.1074939997E-03    0.5200116382E-05    0.6598682282E+00    0.2718035226E-03    0.4260342270E-02
    0.1300000000E+03    0.1187113218E-03    0.5760273904E-05    0.6651617174E+00    0.3137317253E-03    0.4257056632E-02
    0.1500000000E+03    0.1303206104E-03    0.6339686896E-05    0.6690981878E+00    0.3564715001E-03    0.4253426061E-02
    0.1700000000E+03    0.1422756774E-03    0.6936049954E-05    0.6721401922E+00    0.3999611415E-03    0.4249543206E-02
    0.1900000000E+03    0.1545468341E-03    0.7547899880E-05    0.6745615061E+00    0.4441765783E-03    0.4245462842E-02
    0.2100000000E+03    0.1671151971E-03    0.8174317329E-05    0.6765345175E+00    0.4891142281E-03    0.4241219080E-02
    0.2300000000E+03    0.1799691231E-03    0.8814743750E-05    0.6781731841E+00    0.5347822726E-03    0.4236833946E-02
    0.2500000000E+03    0.1931019562E-03    0.9468867252E-05    0.6795558561E+00    0.5811959848E-03    0.4232322000E-02
    0.2700000000E+03    0.2065105768E-03    0.1013654975E-04    0.6807381761E+00    0.6283751239E-03    0.4227692972E-02
    0.2900000000E+03    0.2201944452E-03    0.1081777935E-04    0.6817607497E+00    0.6763424385E-03    0.4222953344E-02
    0.3100000000E+03    0.2341549583E-03    0.1151263847E-04    0.6826539041E+00    0.7251227889E-03    0.4218107342E-02
    0.3300000000E+03    0.2483950093E-03    0.1222128221E-04    0.6834407462E+00    0.7747426270E-03    0.4213157577E-02
    0.3500000000E+03    0.2629186805E-03    0.1294392326E-04    0.6841391913E+00    0.8252296903E-03    0.4208105467E-02
    0.3700000000E+03    0.2777310271E-03    0.1368082141E-04    0.6847633432E+00    0.8766128260E-03    0.4202951537E-02
    0.3900000000E+03    0.2928379229E-03    0.1443227603E-04    0.6853244569E+00    0.9289218977E-03    0.4197695613E-02
    0.4100000000E+03    0.3082459506E-03    0.1519862078E-04    0.6858316230E+00    0.9821877433E-03    0.4192336971E-02
    0.4300000000E+03    0.3239623227E-03    0.1598021983E-04    0.6862922645E+00    0.1036442169E-02    0.4186874439E-02
    0.4500000000E+03    0.3399948260E-03    0.1677746519E-04    0.6867125023E+00    0.1091717964E-02    0.4181306471E-02
    0.4700000000E+03    0.3563517818E-03    0.1759077485E-04    0.6870974285E+00    0.1148048934E-02    0.4175631207E-02
    0.4900000000E+03    0.3730420205E-03    0.1842059161E-04    0.6874513141E+00    0.1205469942E-02    0.4169846508E-02
    0.1000000000E+03    0.1020533680E-03    0.4928322489E-05    0.6564726134E+00    0.2511814504E-03    0.4261807912E-02
    0.3000000000E+03    0.2271399713E-03    0.1116349702E-04    0.6822219186E+00    0.7006293639E-03    0.4220543445E-02
    0.5000000000E+03    0.3815150153E-03    0.1884183510E-04    0.6876177668E+00    0.1234600406E-02    0.4166912385E-02
    0.7000000000E+03    0.5710480071E-03    0.2826200172E-04    0.6899565979E+00    0.1884016456E-02    0.4101777832E-02
    0.9000000000E+03    0.8081742282E-03    0.4004410356E-04    0.6912627733E+00    0.2693885058E-02    0.4021609582E-02
    0.1100000000E+04    0.1111931144E-02    0.5513495811E-04    0.6920964689E+00    0.3730279129E-02    0.3920751607E-02
    0.1300000000E+04    0.1511740887E-02    0.7499697300E-04    0.6926747418E+00    0.5094454263E-02    0.3790557534E-02
    0.1500000000E+04    0.2054230150E-02    0.1019474313E-03    0.6930993530E+00    0.6946680039E-02    0.3617631376E-02
    0.1700000000E+04    0.2814483781E-02    0.1397181589E-03    0.6934243466E+00    0.9545355529E-02    0.3381092285E-02
    0.1900000000E+04    0.3911229139E-02    0.1942110927E-03    0.6936810836E+00    0.1330026699E-01    0.3049569906E-02
    0.2100000000E+04    0.5510437194E-02    0.2736797835E-03    0.6938890124E+00    0.1878783365E-01    0.2583571617E-02
    0.2300000000E+04    0.7746294498E-02    0.3848072435E-03    0.6940608342E+00    0.2648548757E-01    0.1964288703E-02
    0.2500000000E+04    0.1044555872E-01    0.5190102593E-03    0.6942051955E+00    0.3582770995E-01    0.1272769562E-02
    0.2700000000E+04    0.1296356921E-01    0.6442716113E-03    0.6943281866E+00    0.4462207871E-01    0.7087099214E-03
    0.2900000000E+04    0.1480416473E-01    0.7359231854E-03    0.6944342210E+00    0.5115171708E-01    0.3868103175E-03
    0.3100000000E+04    0.1605576785E-01    0.7983355623E-03    0.6945265754E+00    0.5569382695E-01    0.2453919600E-03
    0.3300000000E+04    0.1698575742E-01    0.8447829601E-03    0.6946077334E+00    0.5915199088E-01    0.1910564483E-03
    0.3500000000E+04    0.1776408754E-01    0.8837068911E-03    0.6946796121E+00    0.6210509970E-01    0.1713668433E-03
    0.3700000000E+04    0.1846746070E-01    0.9189177524E-03    0.6947437144E+00    0.6481515380E-01    0.1645074468E-03
    0.3900000000E+04    0.1912707208E-01    0.9519650730E-03    0.6948012355E+00    0.6738853537E-01    0.1622969662E-03
    0.4100000000E+04    0.1975556208E-01    0.9834763309E-03    0.6948531376E+00    0.6986792207E-01    0.1617621538E-03
    0.4300000000E+04    0.2035840168E-01    0.1013722682E-02    0.6949002043E+00    0.7227131744E-01    0.1618280392E-03
    0.4500000000E+04    0.2093831098E-01    0.1042838567E-02    0.6949430797E+00    0.7460726062E-01    0.1621045545E-03
    0.4700000000E+04    0.2149693315E-01    0.1070904927E-02    0.6949822988E+00    0.7688060857E-01    0.1624494474E-03
    0.4900000000E+04    0.2203546736E-01    0.1097980676E-02    0.6950183090E+00    0.7909472791E-01    0.1628107856E-03
    0.1000000000E+04    0.9501903906E-03    0.4709970826E-04    0.6917210698E+00    0.3178481228E-02    0.3974220984E-02
    0.3000000000E+04    0.1548568916E-01    0.7698957913E-03    0.6944819375E+00    0.5361098273E-01    0.3001769557E-03
    0.5000000000E+04    0.2229751781E-01    0.1111162589E-02    0.6950352310E+00    0.8018043966E-01    0.1629911585E-03
    0.7000000000E+04    0.2668529403E-01    0.1332667237E-02    0.6952718639E+00    0.9932705357E-01    0.1660915819E-03
    0.9000000000E+04    0.2984341366E-01    0.1493320881E-02    0.6954029400E+00    0.1146534033E+00    0.1684450615E-03
    0.1100000000E+05    0.3216840366E-01    0.1612603299E-02    0.6954860731E+00    0.1272567106E+00    0.1703449934E-03
    0.1300000000E+05    0.3390780925E-01    0.1702701934E-02    0.6955434202E+00    0.1378448046E+00    0.1719412424E-03
    0.1500000000E+05    0.3522334928E-01    0.1771596734E-02    0.6955853163E+00    0.1468957385E+00    0.1733194550E-03
    0.1700000000E+05    0.3622463347E-01    0.1824708978E-02    0.6956172294E+00    0.1547446140E+00    0.1745332860E-03
    0.1900000000E+05    0.3698825137E-01    0.1865835896E-02    0.6956423228E+00    0.1616336887E+00    0.1756186211E-03
    0.2100000000E+05    0.3756910872E-01    0.1897706416E-02    0.6956625529E+00    0.1677427169E+00    0.1766006698E-03
    0.2300000000E+05    0.3800743538E-01    0.1922325153E-02    0.6956791946E+00    0.1732080753E+00    0.1774978330E-03
    0.2500000000E+05    0.3833326768E-01    0.1941192733E-02    0.6956931139E+00    0.1781352389E+00    0.1783239608E-03
    0.2700000000E+05    0.3856940105E-01    0.1955451115E-02    0.6957049195E+00    0.1826071640E+00    0.1790897444E-03
    0.2900000000E+05    0.3873338527E-01    0.1965981936E-02    0.6957150519E+00    0.1866900674E+00    0.1798036122E-03
    0.3100000000E+05    0.3883890351E-01    0.1973474576E-02    0.6957238374E+00    0.1904375020E+00    0.1804723287E-03
    0.3300000000E+05    0.3889674458E-01    0.1978474219E-02    0.6957315230E+00    0.1938932888E+00    0.1811014069E-03
    0.3500000000E+05    0.3891550073E-01    0.1981416394E-02    0.6957382990E+00    0.1970936647E+00    0.1816954004E-03
    0.3700000000E+05    0.3890207639E-01    0.1982652198E-02    0.6957443144E+00    0.2000688812E+00    0.1822581146E-03
    0.3900000000E+05    0.3886206459E-01    0.1982466990E-02    0.6957496875E+00    0.2028444118E+00    0.1827927628E-03
    0.4100000000E+05    0.3880002898E-01    0.1981094413E-02    0.6957545133E+00    0.2054418757E+00    0.1833020832E-03
    0.4300000000E+05    0.3871971776E-01    0.1978727053E-02    0.6957588693E+00    0.2078797537E+00    0.1837884288E-03
    0.4500000000E+05    0.3862422765E-01    0.1975524620E-02    0.6957628188E+00    0.2101739483E+00    0.1842538366E-03
    0.4700000000E+05    0.3851613086E-01    0.1971620292E-02    0.6957664145E+00    0.2123382270E+00    0.1847000820E-03
    0.4900000000E+05    0.3839757433E-01    0.1967125683E-02    0.6957697004E+00    0.2143845763E+00    0.1851287218E-03
    0.1000000000E+05    0.3109202382E-01    0.1557246631E-02    0.6954486990E+00    0.1212444272E+00    0.1694402562E-03
    0.3000000000E+05    0.3879271977E-01    0.1970071034E-02    0.6957195960E+00    0.1886027797E+00    0.1801432444E-03
    0.5000000000E+05    0.3833494785E-01    0.1964686988E-02    0.6957712390E+00    0.2153668574E+00    0.1853368751E-03
    0.7000000000E+05    0.3684398101E-01    0.1901287052E-02    0.6957922662E+00    0.2307912089E+00    0.1888376516E-03
    0.9000000000E+05    0.3527065955E-01    0.1830172437E-02    0.6958033202E+00    0.2411837541E+00    0.1914949025E-03
    0.1100000000E+06    0.3380552129E-01    0.1762272857E-02    0.6958099475E+00    0.2488193761E+00    0.1936432322E-03
    0.1300000000E+06    0.3248155454E-01    0.1700004065E-02    0.6958142497E+00    0.2547472731E+00    0.1954498989E-03
    0.1500000000E+06    0.3129258533E-01    0.1643508403E-02    0.6958171922E+00    0.2595285241E+00    0.1970108265E-03
    0.1700000000E+06    0.3022326011E-01    0.1592300229E-02    0.6958192782E+00    0.2634946013E+00    0.1983862528E-03
    0.1900000000E+06    0.2925753154E-01    0.1545762273E-02    0.6958207942E+00    0.2668559177E+00    0.1996165371E-03
    0.2100000000E+06    0.2838100789E-01    0.1503301265E-02    0.6958219147E+00    0.2697535004E+00    0.2007300690E-03
    0.2300000000E+06    0.2758140619E-01    0.1464392069E-02    0.6958227514E+00    0.2722859848E+00    0.2017475925E-03
    0.2500000000E+06    0.2684842154E-01    0.1428583868E-02    0.6958233791E+00    0.2745247642E+00    0.2026847342E-03
    0.2700000000E+06    0.2617344517E-01    0.1395493923E-02    0.6958238494E+00    0.2765229930E+00    0.2035535650E-03
    0.2900000000E+06    0.2554927429E-01    0.1364798102E-02    0.6958241990E+00    0.2783211929E+00    0.2043636065E-03
    0.3100000000E+06    0.2496985712E-01    0.1336221453E-02    0.6958244547E+00    0.2799508820E+00    0.2051225042E-03
    0.3300000000E+06    0.2443008142E-01    0.1309529894E-02    0.6958246362E+00    0.2814370026E+00    0.2058364918E-03
    0.3500000000E+06    0.2392560314E-01    0.1284523206E-02    0.6958247586E+00    0.2827995927E+00    0.2065107201E-03
    0.3700000000E+06    0.2345270897E-01    0.1261029281E-02    0.6958248334E+00    0.2840549638E+00    0.2071494948E-03
    0.3900000000E+06    0.2300820609E-01    0.1238899404E-02    0.6958248695E+00    0.2852165501E+00    0.2077564526E-03
    0.4100000000E+06    0.2258933373E-01    0.1218004427E-02    0.6958248741E+00    0.2862955320E+00    0.2083346937E-03
    0.4300000000E+06    0.2219369186E-01    0.1198231642E-02    0.6958248527E+00    0.2873013014E+00    0.2088868823E-03
    0.4500000000E+06    0.2181918341E-01    0.1179482221E-02    0.6958248099E+00    0.2882418146E+00    0.2094153254E-03
    0.4700000000E+06    0.2146396723E-01    0.1161669118E-02    0.6958247493E+00    0.2891238636E+00    0.2099220343E-03
    0.4900000000E+06    0.2112641954E-01    0.1144715341E-02    0.6958246740E+00    0.2899532867E+00    0.2104087727E-03
    0.1000000000E+06    0.3452094348E-01    0.1795581752E-02    0.6958070158E+00    0.2452643064E+00    0.1926199024E-03
    0.3000000000E+06    0.2525431084E-01    0.1350260381E-02    0.6958243372E+00    0.2791554108E+00    0.2047490300E-03
    0.5000000000E+06    0.2096381544E-01    0.1136539029E-02    0.6958246315E+00    0.2903498690E+00    0.2106451463E-03
    0.7000000000E+06    0.1836383488E-01    0.1004969421E-02    0.6958234214E+00    0.2964500774E+00    0.2146211231E-03
    0.9000000000E+06    0.1656665266E-01    0.9130791731E-03    0.6958219994E+00    0.3004305811E+00    0.2176396493E-03
    0.1100000000E+07    0.1522598520E-01    0.8439991062E-03    0.6958206119E+00    0.3032902419E+00    0.2200803245E-03
    0.1300000000E+07    0.1417475793E-01    0.7894977918E-03    0.6958193138E+00    0.3054725351E+00    0.2221329835E-03
    0.1500000000E+07    0.1332095299E-01    0.7450040520E-03    0.6958181120E+00    0.3072085902E+00    0.2239065272E-03
    0.1700000000E+07    0.1260907717E-01    0.7077430667E-03    0.6958170004E+00    0.3086322991E+00    0.2254693557E-03
    0.1900000000E+07    0.1200337009E-01    0.6759170165E-03    0.6958159697E+00    0.3098273057E+00    0.2268673025E-03
    0.2100000000E+07    0.1147958961E-01    0.6483015135E-03    0.6958150105E+00    0.3108489166E+00    0.2281326115E-03
    0.2300000000E+07    0.1102063043E-01    0.6240291458E-03    0.6958141145E+00    0.3117353601E+00    0.2292888443E-03
    0.2500000000E+07    0.1061402475E-01    0.6024654101E-03    0.6958132743E+00    0.3125140197E+00    0.2303537516E-03
    0.2700000000E+07    0.1025043741E-01    0.5831337051E-03    0.6958124836E+00    0.3132050935E+00    0.2313410456E-03
    0.2900000000E+07    0.9922718911E-02    0.5656679534E-03    0.6958117371E+00    0.3138238501E+00    0.2322615427E-03
    0.3100000000E+07    0.9625286871E-02    0.5497815597E-03    0.6958110301E+00    0.3143820748E+00    0.2331239289E-03
    0.3300000000E+07    0.9353709236E-02    0.5352464269E-03    0.6958103587E+00    0.3148890287E+00    0.2339352861E-03
    0.3500000000E+07    0.9104415627E-02    0.5218783862E-03    0.6958097196E+00    0.3153521039E+00    0.2347014663E-03
    0.3700000000E+07    0.8874492712E-02    0.5095268427E-03    0.6958091097E+00    0.3157772820E+00    0.2354273613E-03
    0.3900000000E+07    0.8661536103E-02    0.4980672624E-03    0.6958085264E+00    0.3161694623E+00    0.2361171031E-03
    0.4100000000E+07    0.8463541178E-02    0.4873956237E-03    0.6958079676E+00    0.3165327009E+00    0.2367742140E-03
    0.4300000000E+07    0.8278821283E-02    0.4774242503E-03    0.6958074313E+00    0.3168703891E+00    0.2374017211E-03
    0.4500000000E+07    0.8105945530E-02    0.4680786374E-03    0.6958069156E+00    0.3171853867E+00    0.2380022459E-03
    0.4700000000E+07    0.7943690880E-02    0.4592950018E-03    0.6958064190E+00    0.3174801246E+00    0.2385780733E-03
    0.4900000000E+07    0.7791004774E-02    0.4510183687E-03    0.6958059402E+00    0.3177566843E+00    0.2391312075E-03
    0.1000000000E+07    0.1585216721E-01    0.8763223840E-03    0.6958212960E+00    0.3019656297E+00    0.2189177144E-03
    0.3000000000E+07    0.9770517169E-02    0.5575427684E-03    0.6958113789E+00    0.3141098998E+00    0.2326995244E-03
    0.5000000000E+07    0.7717960236E-02    0.4470550285E-03    0.6958057070E+00    0.3178887178E+00    0.2393998253E-03
    0.7000000000E+07    0.6591046472E-02    0.3855774080E-03    0.6958017319E+00    0.3199037966E+00    0.2439182106E-03
    0.9000000000E+07    0.5851963303E-02    0.3448872406E-03    0.6957986595E+00    0.3212035889E+00    0.2473485648E-03
    0.1100000000E+08    0.5318866202E-02    0.3153321645E-03    0.6957961493E+00    0.3221307259E+00    0.2501222453E-03
    0.1300000000E+08    0.4910689011E-02    0.2925744982E-03    0.6957940237E+00    0.3228348403E+00    0.2524549763E-03
    0.1500000000E+08    0.4585050162E-02    0.2743322804E-03    0.6957921782E+00    0.3233930436E+00    0.2544705127E-03
    0.1700000000E+08    0.4317333904E-02    0.2592732940E-03    0.6957905460E+00    0.3238496397E+00    0.2562465849E-03
    0.1900000000E+08    0.4092127044E-02    0.2465597159E-03    0.6957890820E+00    0.3242321326E+00    0.2578352793E-03
    0.2100000000E+08    0.3899216982E-02    0.2356342974E-03    0.6957877538E+00    0.3245586185E+00    0.2592732385E-03
    0.2300000000E+08    0.3731531255E-02    0.2261098267E-03    0.6957865380E+00    0.3248415560E+00    0.2605872389E-03
    0.2500000000E+08    0.3583994948E-02    0.2177076130E-03    0.6957854164E+00    0.3250898397E+00    0.2617974528E-03
    0.2700000000E+08    0.3452858647E-02    0.2102211886E-03    0.6957843752E+00    0.3253100127E+00    0.2629194632E-03
