  Pressure (Pa) 22mC5-500 (mol/kg) 23mC5-500 (mol/kg) 24mC5-500 (mol/kg) 2mC6-500 (mol/kg) C7-500 (mol/kg)
    0.1000000000E+01    0.1362156370E-04    0.1956352651E-05    0.1266294923E+00    0.1481489796E-04    0.4169464504E-02
    0.3000000000E+01    0.2815423515E-04    0.4032208117E-05    0.2785112501E+00    0.2923271236E-04    0.4197972856E-02
    0.5000000000E+01    0.3553619678E-04    0.5080013018E-05    0.3664089349E+00    0.3600192647E-04    0.4210987006E-02
    0.7000000000E+01    0.3988610246E-04    0.5694688546E-05    0.4237217341E+00    0.3996073685E-04    0.4219061790E-02
    0.9000000000E+01    0.4274573635E-04    0.6097971751E-05    0.4640481669E+00    0.4275212523E-04    0.4224609486E-02
    0.1100000000E+02    0.4480177955E-04    0.6388167385E-05    0.4939656313E+00    0.4503337824E-04    0.4228652474E-02
    0.1300000000E+02    0.4639683516E-04    0.6614081160E-05    0.5170438045E+00    0.4709504902E-04    0.4231718002E-02
    0.1500000000E+02    0.4771615271E-04    0.6801962668E-05    0.5353875065E+00    0.4907374207E-04    0.4234109544E-02
    0.1700000000E+02    0.4886605431E-04    0.6966790222E-05    0.5503181994E+00    0.5103578430E-04    0.4236015288E-02
    0.1900000000E+02    0.4991040147E-04    0.7117502787E-05    0.5627074030E+00    0.5301345820E-04    0.4237558562E-02
    0.2100000000E+02    0.5088892603E-04    0.7259621914E-05    0.5731531766E+00    0.5502186562E-04    0.4238823754E-02
    0.2300000000E+02    0.5182703156E-04    0.7396649158E-05    0.5820795756E+00    0.5706721959E-04    0.4239870654E-02
    0.2500000000E+02    0.5274130342E-04    0.7530849021E-05    0.5897956443E+00    0.5915109512E-04    0.4240742862E-02
    0.2700000000E+02    0.5364273744E-04    0.7663706090E-05    0.5965319323E+00    0.6127267673E-04    0.4241472956E-02
    0.2900000000E+02    0.5453869876E-04    0.7796201339E-05    0.6024639282E+00    0.6342997180E-04    0.4242085786E-02
    0.3100000000E+02    0.5543414582E-04    0.7928984086E-05    0.6077275712E+00    0.6562047279E-04    0.4242600654E-02
    0.3300000000E+02    0.5633241467E-04    0.8062481710E-05    0.6124297986E+00    0.6784151829E-04    0.4243032787E-02
    0.3500000000E+02    0.5723573268E-04    0.8196971181E-05    0.6166558884E+00    0.7009048631E-04    0.4243394369E-02
    0.3700000000E+02    0.5814556133E-04    0.8332626551E-05    0.6204746793E+00    0.7236489331E-04    0.4243695269E-02
    0.3900000000E+02    0.5906282865E-04    0.8469550988E-05    0.6239423493E+00    0.7466243973E-04    0.4243943566E-02
    0.4100000000E+02    0.5998808912E-04    0.8607798680E-05    0.6271051990E+00    0.7698102564E-04    0.4244145945E-02
    0.4300000000E+02    0.6092163500E-04    0.8747389981E-05    0.6300017307E+00    0.7931874988E-04    0.4244307984E-02
    0.4500000000E+02    0.6186357462E-04    0.8888321985E-05    0.6326642243E+00    0.8167390035E-04    0.4244434379E-02
    0.4700000000E+02    0.6281388784E-04    0.9030575969E-05    0.6351199452E+00    0.8404494028E-04    0.4244529108E-02
    0.4900000000E+02    0.6377246577E-04    0.9174122648E-05    0.6373920819E+00    0.8643049273E-04    0.4244595569E-02
    0.1000000000E+02    0.4384771267E-04    0.6253425746E-05    0.4800387395E+00    0.4393322005E-04    0.4226778929E-02
    0.3000000000E+02    0.5498624709E-04    0.7862525845E-05    0.6051720290E+00    0.6452123714E-04    0.4242354432E-02
    0.5000000000E+02    0.6425480289E-04    0.9246369655E-05    0.6384656217E+00    0.8762832073E-04    0.4244619127E-02
    0.7000000000E+02    0.7428109886E-04    0.1074921315E-04    0.6538848783E+00    0.1121097259E-03    0.4244137175E-02
    0.9000000000E+02    0.8487393106E-04    0.1233685148E-04    0.6627781536E+00    0.1372232499E-03    0.4242593247E-02
    0.1100000000E+03    0.9586526019E-04    0.1398315430E-04    0.6685649724E+00    0.1627063988E-03    0.4240513738E-02
    0.1300000000E+03    0.1071561951E-03    0.1567321682E-04    0.6726310148E+00    0.1884596746E-03    0.4238118291E-02
    0.1500000000E+03    0.1186889868E-03    0.1739848600E-04    0.6756444898E+00    0.2144457358E-03    0.4235515230E-02
    0.1700000000E+03    0.1304290981E-03    0.1915391577E-04    0.6779672808E+00    0.2406534904E-03    0.4232764154E-02
    0.1900000000E+03    0.1423554848E-03    0.2093647134E-04    0.6798124334E+00    0.2670837244E-03    0.4229900464E-02
    0.2100000000E+03    0.1544552711E-03    0.2274432331E-04    0.6813135404E+00    0.2937428132E-03    0.4226946393E-02
    0.2300000000E+03    0.1667207219E-03    0.2457639461E-04    0.6825586225E+00    0.3206397868E-03    0.4223916488E-02
    0.2500000000E+03    0.1791474527E-03    0.2643209501E-04    0.6836080333E+00    0.3477848991E-03    0.4220820564E-02
    0.2700000000E+03    0.1917333321E-03    0.2831115944E-04    0.6845045387E+00    0.3751889133E-03    0.4217665384E-02
    0.2900000000E+03    0.2044777870E-03    0.3021354640E-04    0.6852792878E+00    0.4028627442E-03    0.4214455671E-02
    0.3100000000E+03    0.2173813511E-03    0.3213937229E-04    0.6859555071E+00    0.4308172843E-03    0.4211194741E-02
    0.3300000000E+03    0.2304453643E-03    0.3408886784E-04    0.6865508684E+00    0.4590633267E-03    0.4207884912E-02
    0.3500000000E+03    0.2436717674E-03    0.3606234873E-04    0.6870790559E+00    0.4876115406E-03    0.4204527779E-02
    0.3700000000E+03    0.2570629616E-03    0.3806019536E-04    0.6875508307E+00    0.5164724727E-03    0.4201124399E-02
    0.3900000000E+03    0.2706217087E-03    0.4008283872E-04    0.6879747719E+00    0.5456565635E-03    0.4197675422E-02
    0.4100000000E+03    0.2843510607E-03    0.4213075044E-04    0.6883578031E+00    0.5751741711E-03    0.4194181189E-02
    0.4300000000E+03    0.2982543099E-03    0.4420443578E-04    0.6887055730E+00    0.6050355959E-03    0.4190641791E-02
    0.4500000000E+03    0.3123349523E-03    0.4630442849E-04    0.6890227361E+00    0.6352511083E-03    0.4187057127E-02
    0.4700000000E+03    0.3265966616E-03    0.4843128730E-04    0.6893131623E+00    0.6658309742E-03    0.4183426938E-02
    0.4900000000E+03    0.3410432706E-03    0.5058559328E-04    0.6895800955E+00    0.6967854798E-03    0.4179750834E-02
    0.1000000000E+03    0.9032721690E-04    0.1315379697E-04    0.6659484039E+00    0.1499269784E-03    0.4241602890E-02
    0.3000000000E+03    0.2109096128E-03    0.3117351734E-04    0.6856285004E+00    0.4168042482E-03    0.4212831443E-02
    0.5000000000E+03    0.3483371503E-03    0.5167322622E-04    0.6897056252E+00    0.7124064485E-03    0.4177895411E-02
    0.7000000000E+03    0.5049743237E-03    0.7502538139E-04    0.6914678066E+00    0.1047085064E-02    0.4138209051E-02
    0.9000000000E+03    0.6855644509E-03    0.1019423509E-03    0.6924505972E+00    0.1432070898E-02    0.4092924851E-02
    0.1100000000E+04    0.8963101819E-03    0.1333507627E-03    0.6930773764E+00    0.1881014074E-02    0.4040713513E-02
    0.1300000000E+04    0.1145375165E-02    0.1704684992E-03    0.6935118905E+00    0.2411561161E-02    0.3979791539E-02
    0.1500000000E+04    0.1443717554E-02    0.2149296080E-03    0.6938308181E+00    0.3047276607E-02    0.3907777515E-02
    0.1700000000E+04    0.1806322566E-02    0.2689683310E-03    0.6940748496E+00    0.3820342220E-02    0.3821453649E-02
    0.1900000000E+04    0.2254023889E-02    0.3356908392E-03    0.6942675831E+00    0.4775506281E-02    0.3716415283E-02
    0.2100000000E+04    0.2816169918E-02    0.4194729684E-03    0.6944236460E+00    0.5975860740E-02    0.3586575878E-02
    0.2300000000E+04    0.3534365096E-02    0.5265184300E-03    0.6945525878E+00    0.7510973224E-02    0.3423517401E-02
    0.2500000000E+04    0.4467094578E-02    0.6655491505E-03    0.6946609075E+00    0.9507019611E-02    0.3215801852E-02
    0.2700000000E+04    0.5693276679E-02    0.8483366488E-03    0.6947531813E+00    0.1213482486E-01    0.2948791461E-02
    0.2900000000E+04    0.7307409006E-02    0.1088981693E-02    0.6948327253E+00    0.1560022046E-01    0.2606696396E-02
    0.3100000000E+04    0.9387494718E-02    0.1399137507E-02    0.6949020004E+00    0.2007635161E-01    0.2180734760E-02
    0.3300000000E+04    0.1191044571E-01    0.1775400624E-02    0.6949628723E+00    0.2552277640E-01    0.1687383559E-02
    0.3500000000E+04    0.1464552644E-01    0.2183415048E-02    0.6950167801E+00    0.3145438676E-01    0.1186752163E-02
    0.3700000000E+04    0.1719498769E-01    0.2563901857E-02    0.6950648526E+00    0.3702197847E-01    0.7646908254E-03
    0.3900000000E+04    0.1925978321E-01    0.2872256239E-02    0.6951079869E+00    0.4157857599E-01    0.4728785841E-03
    0.4100000000E+04    0.2081167059E-01    0.3104226491E-02    0.6951469054E+00    0.4505389965E-01    0.3014629369E-03
    0.4300000000E+04    0.2198633183E-01    0.3280008647E-02    0.6951821961E+00    0.4773169237E-01    0.2109734301E-03
    0.4500000000E+04    0.2292912503E-01    0.3421257021E-02    0.6952143427E+00    0.4992016126E-01    0.1659600546E-03
    0.4700000000E+04    0.2373871184E-01    0.3542674008E-02    0.6952437464E+00    0.5182957796E-01    0.1442400491E-03
    0.4900000000E+04    0.2447114140E-01    0.3652613252E-02    0.6952707432E+00    0.5357970735E-01    0.1339394770E-03
    0.1000000000E+04    0.7867117692E-03    0.1170170638E-03    0.6927951977E+00    0.1647558312E-02    0.4067784680E-02
    0.3000000000E+04    0.8286884337E-02    0.1235022286E-02    0.6948685182E+00    0.1770646275E-01    0.2404040372E-02
    0.5000000000E+04    0.2481831912E-01    0.3704753829E-02    0.6952834292E+00    0.5441620208E-01    0.1310773647E-03
    0.7000000000E+04    0.3059999976E-01    0.4575416353E-02    0.6954607972E+00    0.6892762782E-01    0.1266045270E-03
    0.9000000000E+04    0.3502839715E-01    0.5245688618E-02    0.6955590168E+00    0.8090443644E-01    0.1283883369E-03
    0.1100000000E+05    0.3850903828E-01    0.5775319039E-02    0.6956212974E+00    0.9105062863E-01    0.1298341723E-03
    0.1300000000E+05    0.4128657872E-01    0.6200358181E-02    0.6956642517E+00    0.9978892879E-01    0.1310492630E-03
    0.1500000000E+05    0.4353019251E-01    0.6545772679E-02    0.6956956275E+00    0.1074185679E+00    0.1320985908E-03
    0.1700000000E+05    0.4536033190E-01    0.6829366916E-02    0.6957195233E+00    0.1141576824E+00    0.1330229001E-03
    0.1900000000E+05    0.4686489647E-01    0.7064154527E-02    0.6957383098E+00    0.1201692727E+00    0.1338494557E-03
    0.2100000000E+05    0.4810939923E-01    0.7259850745E-02    0.6957534531E+00    0.1255777513E+00    0.1345974188E-03
    0.2300000000E+05    0.4914357008E-01    0.7423842617E-02    0.6957659085E+00    0.1304798441E+00    0.1352807795E-03
    0.2500000000E+05    0.5000576776E-01    0.7561837804E-02    0.6957763248E+00    0.1349519744E+00    0.1359100708E-03
    0.2700000000E+05    0.5072600095E-01    0.7678309276E-02    0.6957851582E+00    0.1390553918E+00    0.1364934251E-03
    0.2900000000E+05    0.5132804257E-01    0.7776806799E-02    0.6957927385E+00    0.1428398110E+00    0.1370372544E-03
    0.3100000000E+05    0.5183093807E-01    0.7860179368E-02    0.6957993103E+00    0.1463460453E+00    0.1375467058E-03
    0.3300000000E+05    0.5225010031E-01    0.7930736811E-02    0.6958050586E+00    0.1496079443E+00    0.1380259747E-03
    0.3500000000E+05    0.5259811658E-01    0.7990369043E-02    0.6958101259E+00    0.1526538437E+00    0.1384785266E-03
    0.3700000000E+05    0.5288535204E-01    0.8040635300E-02    0.6958146238E+00    0.1555076634E+00    0.1389072580E-03
    0.3900000000E+05    0.5312040656E-01    0.8082831779E-02    0.6958186408E+00    0.1581897517E+00    0.1393146148E-03
    0.4100000000E+05    0.5331046471E-01    0.8118043508E-02    0.6958222483E+00    0.1607175410E+00    0.1397026816E-03
    0.4300000000E+05    0.5346156677E-01    0.8147184541E-02    0.6958255040E+00    0.1631060626E+00    0.1400732498E-03
    0.4500000000E+05    0.5357882060E-01    0.8171029430E-02    0.6958284555E+00    0.1653683553E+00    0.1404278702E-03
    0.4700000000E+05    0.5366656884E-01    0.8190238070E-02    0.6958311423E+00    0.1675157923E+00    0.1407678947E-03
    0.4900000000E+05    0.5372852189E-01    0.8205375499E-02    0.6958335973E+00    0.1695583449E+00    0.1410945086E-03
    0.1000000000E+05    0.3686971015E-01    0.5525510025E-02    0.6955932995E+00    0.8617638792E-01    0.1291456070E-03
    0.3000000000E+05    0.5159084577E-01    0.7820228271E-02    0.6957961378E+00    0.1446254414E+00    0.1372959958E-03
    0.5000000000E+05    0.5375083854E-01    0.8211572122E-02    0.6958347466E+00    0.1705430761E+00    0.1412531182E-03
    0.7000000000E+05    0.5341792791E-01    0.8209902833E-02    0.6958504442E+00    0.1863994748E+00    0.1439207797E-03
    0.9000000000E+05    0.5238563069E-01    0.8090810351E-02    0.6958586837E+00    0.1975579924E+00    0.1459457821E-03
    0.1100000000E+06    0.5115668324E-01    0.7933846276E-02    0.6958636153E+00    0.2060472478E+00    0.1475830103E-03
    0.1300000000E+06    0.4990314037E-01    0.7767350028E-02    0.6958668105E+00    0.2128335156E+00    0.1489598909E-03
    0.1500000000E+06    0.4868880701E-01    0.7602501829E-02    0.6958689911E+00    0.2184468825E+00    0.1501495100E-03
    0.1700000000E+06    0.4753666947E-01    0.7443818261E-02    0.6958705331E+00    0.2232074147E+00    0.1511977668E-03
    0.1900000000E+06    0.4645302570E-01    0.7292981118E-02    0.6958716503E+00    0.2273222663E+00    0.1521354147E-03
    0.2100000000E+06    0.4543712219E-01    0.7150402504E-02    0.6958724731E+00    0.2309327554E+00    0.1529840873E-03
    0.2300000000E+06    0.4448529500E-01    0.7015917315E-02    0.6958730849E+00    0.2341393464E+00    0.1537595921E-03
    0.2500000000E+06    0.4359283085E-01    0.6889106690E-02    0.6958735414E+00    0.2370158691E+00    0.1544738376E-03
    0.2700000000E+06    0.4275481851E-01    0.6769454220E-02    0.6958738810E+00    0.2396180800E+00    0.1551360225E-03
    0.2900000000E+06    0.4196653200E-01    0.6656422337E-02    0.6958741311E+00    0.2419890573E+00    0.1557534029E-03
    0.3100000000E+06    0.4122359005E-01    0.6549489141E-02    0.6958743116E+00    0.2441627338E+00    0.1563318053E-03
    0.3300000000E+06    0.4052200766E-01    0.6448165134E-02    0.6958744373E+00    0.2461662862E+00    0.1568759806E-03
    0.3500000000E+06    0.3985819590E-01    0.6351999620E-02    0.6958745192E+00    0.2480217969E+00    0.1573898539E-03
    0.3700000000E+06    0.3922893826E-01    0.6260581835E-02    0.6958745661E+00    0.2497474368E+00    0.1578767068E-03
    0.3900000000E+06    0.3863135771E-01    0.6173539452E-02    0.6958745845E+00    0.2513583265E+00    0.1583393108E-03
    0.4100000000E+06    0.3806288137E-01    0.6090535874E-02    0.6958745797E+00    0.2528671741E+00    0.1587800286E-03
    0.4300000000E+06    0.3752120642E-01    0.6011267089E-02    0.6958745558E+00    0.2542847553E+00    0.1592008906E-03
    0.4500000000E+06    0.3700426857E-01    0.5935458463E-02    0.6958745162E+00    0.2556202814E+00    0.1596036552E-03
    0.4700000000E+06    0.3651021381E-01    0.5862861675E-02    0.6958744637E+00    0.2568816835E+00    0.1599898549E-03
    0.4900000000E+06    0.3603737335E-01    0.5793251898E-02    0.6958744003E+00    0.2580758359E+00    0.1603608342E-03
    0.1000000000E+06    0.5178110124E-01    0.8014680731E-02    0.6958614348E+00    0.2020614552E+00    0.1468031317E-03
    0.3000000000E+06    0.4158965147E-01    0.6602224866E-02    0.6958742290E+00    0.2430987236E+00    0.1560471576E-03
    0.5000000000E+06    0.3580843218E-01    0.5759502668E-02    0.6958743652E+00    0.2586495969E+00    0.1605409922E-03
    0.7000000000E+06    0.3204619714E-01    0.5200751465E-02    0.6958734031E+00    0.2677150992E+00    0.1635713938E-03
    0.9000000000E+06    0.2933515576E-01    0.4793367989E-02    0.6958722963E+00    0.2738933966E+00    0.1658720620E-03
    0.1100000000E+07    0.2725431527E-01    0.4477990822E-02    0.6958712236E+00    0.2784732197E+00    0.1677323095E-03
    0.1300000000E+07    0.2558774135E-01    0.4223688056E-02    0.6958702234E+00    0.2820533218E+00    0.1692968212E-03
    0.1500000000E+07    0.2421145559E-01    0.4012506416E-02    0.6958692993E+00    0.2849567957E+00    0.1706485975E-03
    0.1700000000E+07    0.2304833599E-01    0.3833185337E-02    0.6958684457E+00    0.2873761017E+00    0.1718397709E-03
    0.1900000000E+07    0.2204745620E-01    0.3678239441E-02    0.6958676550E+00    0.2894342836E+00    0.1729052746E-03
    0.2100000000E+07    0.2117359755E-01    0.3542463245E-02    0.6958669196E+00    0.2912143107E+00    0.1738696840E-03
    0.2300000000E+07    0.2040149057E-01    0.3422103895E-02    0.6958662331E+00    0.2927745111E+00    0.1747509572E-03
    0.2500000000E+07    0.1971245113E-01    0.3314374903E-02    0.6958655897E+00    0.2941572895E+00    0.1755626236E-03
    0.2700000000E+07    0.1909231449E-01    0.3217155907E-02    0.6958649843E+00    0.2953943378E+00    0.1763151341E-03
    0.2900000000E+07    0.1853011281E-01    0.3128799577E-02    0.6958644130E+00    0.2965098958E+00    0.1770167330E-03
    0.3100000000E+07    0.1801719840E-01    0.3048003110E-02    0.6958638721E+00    0.2975228728E+00    0.1776740404E-03
    0.3300000000E+07    0.1754664522E-01    0.2973720148E-02    0.6958633586E+00    0.2984482716E+00    0.1782924541E-03
    0.3500000000E+07    0.1711282940E-01    0.2905098878E-02    0.6958628697E+00    0.2992981733E+00    0.1788764344E-03
    0.3700000000E+07    0.1671112883E-01    0.2841437539E-02    0.6958624034E+00    0.3000824326E+00    0.1794297098E-03
    0.3900000000E+07    0.1633770357E-01    0.2782151828E-02    0.6958619575E+00    0.3008091819E+00    0.1799554296E-03
    0.4100000000E+07    0.1598933263E-01    0.2726750599E-02    0.6958615303E+00    0.3014852008E+00    0.1804562784E-03
    0.4300000000E+07    0.1566329064E-01    0.2674817466E-02    0.6958611204E+00    0.3021161936E+00    0.1809345635E-03
    0.4500000000E+07    0.1535725342E-01    0.2625996680E-02    0.6958607263E+00    0.3027070001E+00    0.1813922828E-03
    0.4700000000E+07    0.1506922474E-01    0.2579982149E-02    0.6958603468E+00    0.3032617577E+00    0.1818311781E-03
    0.4900000000E+07    0.1479747878E-01    0.2536508812E-02    0.6958599810E+00    0.3037840272E+00    0.1822527768E-03
    0.1000000000E+07    0.2823242360E-01    0.4626528485E-02    0.6958717520E+00    0.2763365126E+00    0.1668461841E-03
    0.3000000000E+07    0.1826796231E-01    0.3087526941E-02    0.6958641390E+00    0.2970281909E+00    0.1773505609E-03
    0.5000000000E+07    0.1466723504E-01    0.2515651759E-02    0.6958598028E+00    0.3040339593E+00    0.1824575172E-03
    0.7000000000E+07    0.1263798251E-01    0.2188853072E-02    0.6958567667E+00    0.3078969864E+00    0.1859014355E-03
    0.9000000000E+07    0.1128669194E-01    0.1969171986E-02    0.6958544211E+00    0.3104386584E+00    0.1885160623E-03
    0.1100000000E+08    0.1030189216E-01    0.1807918719E-02    0.6958525052E+00    0.3122764678E+00    0.1906301745E-03
    0.1300000000E+08    0.9542091793E-02    0.1682784287E-02    0.6958508832E+00    0.3136864015E+00    0.1924081959E-03
    0.1500000000E+08    0.8932328891E-02    0.1581870684E-02    0.6958494750E+00    0.3148130652E+00    0.1939444519E-03
    0.1700000000E+08    0.8428622724E-02    0.1498159255E-02    0.6958482298E+00    0.3157406069E+00    0.1952981882E-03
    0.1900000000E+08    0.8003212606E-02    0.1427199388E-02    0.6958471129E+00    0.3165218022E+00    0.1965091050E-03
    0.2100000000E+08    0.7637582850E-02    0.1366010755E-02    0.6958460998E+00    0.3171916696E+00    0.1976051311E-03
    0.2300000000E+08    0.7318839524E-02    0.1312510581E-02    0.6958451724E+00    0.3177744908E+00    0.1986066754E-03
    0.2500000000E+08    0.7037686313E-02    0.1265192460E-02    0.6958443169E+00    0.3182877094E+00    0.1995291134E-03
    0.2700000000E+08    0.6787226471E-02    0.1222935613E-02    0.6958435228E+00    0.3187442258E+00    0.2003843224E-03
