  Pressure (Pa) 22mC5-500 (mol/kg) 23mC5-500 (mol/kg) 24mC5-500 (mol/kg) 2mC6-500 (mol/kg) C7-500 (mol/kg)
    0.1000000000E+01    0.1423082424E-04    0.5833755857E-06    0.1741053686E+00    0.5207871360E-05    0.4190532403E-02
    0.3000000000E+01    0.2635611692E-04    0.1076685629E-05    0.3481130348E+00    0.9148205167E-05    0.4225557711E-02
    0.5000000000E+01    0.3144760284E-04    0.1282160567E-05    0.4350820901E+00    0.1071385999E-04    0.4242072827E-02
    0.7000000000E+01    0.3420756829E-04    0.1393241297E-05    0.4872532524E+00    0.1166878275E-04    0.4252046898E-02
    0.9000000000E+01    0.3601236188E-04    0.1466141584E-05    0.5220301056E+00    0.1244929489E-04    0.4258789006E-02
    0.1100000000E+02    0.3737887242E-04    0.1521805655E-05    0.5468689646E+00    0.1318921142E-04    0.4263676316E-02
    0.1300000000E+02    0.3853220365E-04    0.1569272895E-05    0.5654972411E+00    0.1393330303E-04    0.4267393460E-02
    0.1500000000E+02    0.3958032389E-04    0.1612833508E-05    0.5799854371E+00    0.1469609828E-04    0.4270321493E-02
    0.1700000000E+02    0.4057849426E-04    0.1654655470E-05    0.5915757323E+00    0.1548104851E-04    0.4272690228E-02
    0.1900000000E+02    0.4155622895E-04    0.1695878102E-05    0.6010585471E+00    0.1628748596E-04    0.4274646910E-02
    0.2100000000E+02    0.4252967479E-04    0.1737111383E-05    0.6089607995E+00    0.1711332374E-04    0.4276290465E-02
    0.2300000000E+02    0.4350771410E-04    0.1778680602E-05    0.6156472627E+00    0.1795613522E-04    0.4277689951E-02
    0.2500000000E+02    0.4449514554E-04    0.1820753002E-05    0.6213784803E+00    0.1881357922E-04    0.4278895123E-02
    0.2700000000E+02    0.4549441708E-04    0.1863406247E-05    0.6263455124E+00    0.1968355166E-04    0.4279942791E-02
    0.2900000000E+02    0.4650660414E-04    0.1906666738E-05    0.6306916505E+00    0.2056422199E-04    0.4280860812E-02
    0.3100000000E+02    0.4753197742E-04    0.1950531626E-05    0.6345264688E+00    0.2145402253E-04    0.4281670678E-02
    0.3300000000E+02    0.4857033977E-04    0.1994981713E-05    0.6379351903E+00    0.2235162078E-04    0.4282389260E-02
    0.3500000000E+02    0.4962122934E-04    0.2039989127E-05    0.6409850953E+00    0.2325588742E-04    0.4283029996E-02
    0.3700000000E+02    0.5068404330E-04    0.2085521902E-05    0.6437300078E+00    0.2416586580E-04    0.4283603734E-02
    0.3900000000E+02    0.5175811349E-04    0.2131546716E-05    0.6462134989E+00    0.2508074470E-04    0.4284119335E-02
    0.4100000000E+02    0.5284275261E-04    0.2178030512E-05    0.6484712176E+00    0.2599983494E-04    0.4284584113E-02
    0.4300000000E+02    0.5393728186E-04    0.2224941416E-05    0.6505326129E+00    0.2692254966E-04    0.4285004165E-02
    0.4500000000E+02    0.5504104721E-04    0.2272249244E-05    0.6524222254E+00    0.2784838789E-04    0.4285384614E-02
    0.4700000000E+02    0.5615342825E-04    0.2319925739E-05    0.6541606693E+00    0.2877692083E-04    0.4285729805E-02
    0.4900000000E+02    0.5727384255E-04    0.2367944646E-05    0.6557653871E+00    0.2970778053E-04    0.4286043443E-02
    0.1000000000E+02    0.3673238604E-04    0.1495402759E-05    0.5354050475E+00    0.1282044354E-04    0.4261411845E-02
    0.3000000000E+02    0.4701764673E-04    0.1928524558E-05    0.6326671639E+00    0.2100806940E-04    0.4281278117E-02
    0.5000000000E+02    0.5783689094E-04    0.2392074843E-05    0.6565223297E+00    0.3017398221E-04    0.4286189443E-02
    0.7000000000E+02    0.6940812346E-04    0.2887732814E-05    0.6673061814E+00    0.3956323514E-04    0.4288033249E-02
    0.9000000000E+02    0.8137199464E-04    0.3399684706E-05    0.6734518152E+00    0.4900172115E-04    0.4288656588E-02
    0.1100000000E+03    0.9356381171E-04    0.3920939137E-05    0.6774219786E+00    0.5844678812E-04    0.4288647460E-02
    0.1300000000E+03    0.1059046250E-03    0.4448209842E-05    0.6801980745E+00    0.6788960779E-04    0.4288258412E-02
    0.1500000000E+03    0.1183539450E-03    0.4979839744E-05    0.6822483589E+00    0.7733152847E-04    0.4287618247E-02
    0.1700000000E+03    0.1308900499E-03    0.5514956060E-05    0.6838245558E+00    0.8677703070E-04    0.4286800489E-02
    0.1900000000E+03    0.1435010653E-03    0.6053092834E-05    0.6850740489E+00    0.9623135985E-04    0.4285850592E-02
    0.2100000000E+03    0.1561805863E-03    0.6594007634E-05    0.6860888671E+00    0.1056996919E-03    0.4284798376E-02
    0.2300000000E+03    0.1689253827E-03    0.7137586324E-05    0.6869294419E+00    0.1151868523E-03    0.4283664328E-02
    0.2500000000E+03    0.1817341294E-03    0.7683790827E-05    0.6876370963E+00    0.1246972456E-03    0.4282463044E-02
    0.2700000000E+03    0.1946066738E-03    0.8232629221E-05    0.6882410439E+00    0.1342348652E-03    0.4281205238E-02
    0.2900000000E+03    0.2075435974E-03    0.8784137994E-05    0.6887625221E+00    0.1438033310E-03    0.4279898967E-02
    0.3100000000E+03    0.2205459457E-03    0.9338371228E-05    0.6892173401E+00    0.1534059355E-03    0.4278550415E-02
    0.3300000000E+03    0.2336150588E-03    0.9895393854E-05    0.6896175092E+00    0.1630456870E-03    0.4277164415E-02
    0.3500000000E+03    0.2467524622E-03    0.1045527738E-04    0.6899723187E+00    0.1727253498E-03    0.4275744793E-02
    0.3700000000E+03    0.2599597966E-03    0.1101809718E-04    0.6902890653E+00    0.1824474791E-03    0.4274294621E-02
    0.3900000000E+03    0.2732387711E-03    0.1158393067E-04    0.6905735605E+00    0.1922144500E-03    0.4272816391E-02
    0.4100000000E+03    0.2865911333E-03    0.1215285624E-04    0.6908304901E+00    0.2020284837E-03    0.4271312142E-02
    0.4300000000E+03    0.3000186489E-03    0.1272495250E-04    0.6910636741E+00    0.2118916684E-03    0.4269783554E-02
    0.4500000000E+03    0.3135230895E-03    0.1330029782E-04    0.6912762578E+00    0.2218059782E-03    0.4268232025E-02
    0.4700000000E+03    0.3271062235E-03    0.1387897009E-04    0.6914708547E+00    0.2317732881E-03    0.4266658717E-02
    0.4900000000E+03    0.3407698120E-03    0.1446104653E-04    0.6916496540E+00    0.2417953877E-03    0.4265064609E-02
    0.1000000000E+03    0.8744559937E-04    0.3659407963E-05    0.6756296279E+00    0.5372436512E-04    0.4288711077E-02
    0.3000000000E+03    0.2140365151E-03    0.9060910190E-05    0.6889974386E+00    0.1486001718E-03    0.4279229647E-02
    0.5000000000E+03    0.3476323240E-03    0.1475338526E-04    0.6917337186E+00    0.2468275225E-03    0.4264260015E-02
    0.7000000000E+03    0.4895285337E-03    0.2079722660E-04    0.6929124854E+00    0.3507361025E-03    0.4247216798E-02
    0.9000000000E+03    0.6414232252E-03    0.2726594402E-04    0.6935687248E+00    0.4618257765E-03    0.4228510541E-02
    0.1100000000E+04    0.8050124610E-03    0.3423221440E-04    0.6939867275E+00    0.5814266311E-03    0.4208153898E-02
    0.1300000000E+04    0.9821053921E-03    0.4177329969E-04    0.6942762262E+00    0.7109048707E-03    0.4186032309E-02
    0.1500000000E+04    0.1174717745E-02    0.4997516854E-04    0.6944885395E+00    0.8517614319E-03    0.4161963372E-02
    0.1700000000E+04    0.1385154186E-02    0.5893605494E-04    0.6946508748E+00    0.1005702667E-02    0.4135711649E-02
    0.1900000000E+04    0.1616093596E-02    0.6877011236E-04    0.6947789992E+00    0.1174707316E-02    0.4106989302E-02
    0.2100000000E+04    0.1870686636E-02    0.7961158107E-04    0.6948826804E+00    0.1361100473E-02    0.4075450273E-02
    0.2300000000E+04    0.2152673405E-02    0.9161980668E-04    0.6949682919E+00    0.1567641577E-02    0.4040680182E-02
    0.2500000000E+04    0.2466529219E-02    0.1049854553E-03    0.6950401695E+00    0.1797632884E-02    0.4002182306E-02
    0.2700000000E+04    0.2817647884E-02    0.1199383253E-03    0.6951013650E+00    0.2055055628E-02    0.3959359283E-02
    0.2900000000E+04    0.3212573896E-02    0.1367572440E-03    0.6951540889E+00    0.2344742499E-02    0.3911489720E-02
    0.3100000000E+04    0.3659297540E-02    0.1557826458E-03    0.6951999815E+00    0.2672596992E-02    0.3857698632E-02
    0.3300000000E+04    0.4167629507E-02    0.1774325397E-03    0.6952402855E+00    0.3045872155E-02    0.3796920445E-02
    0.3500000000E+04    0.4749673183E-02    0.2022226430E-03    0.6952759597E+00    0.3473522584E-02    0.3727853385E-02
    0.3700000000E+04    0.5420411025E-02    0.2307913802E-03    0.6953077556E+00    0.3966642400E-02    0.3648904663E-02
    0.3900000000E+04    0.6198411007E-02    0.2639300083E-03    0.6953362704E+00    0.4538994602E-02    0.3558127643E-02
    0.4100000000E+04    0.7106629460E-02    0.3026168632E-03    0.6953619850E+00    0.5207615797E-02    0.3453156359E-02
    0.4300000000E+04    0.8173216784E-02    0.3480517500E-03    0.6953852906E+00    0.5993429401E-02    0.3331151637E-02
    0.4500000000E+04    0.9432084757E-02    0.4016802105E-03    0.6954065089E+00    0.6921692140E-02    0.3188790614E-02
    0.4700000000E+04    0.1092270909E-01    0.4651852531E-03    0.6954259068E+00    0.8021888666E-02    0.3022363316E-02
    0.4900000000E+04    0.1268815165E-01    0.5404032885E-03    0.6954437078E+00    0.9326326952E-02    0.2828090912E-02
    0.1000000000E+04    0.7216467971E-03    0.3068221685E-04    0.6937985958E+00    0.5204791509E-03    0.4218543747E-02
    0.3000000000E+04    0.3428895524E-02    0.1459700408E-03    0.6951778036E+00    0.2503480840E-02    0.3885396008E-02
    0.5000000000E+04    0.1368713207E-01    0.5829679403E-03    0.6954520694E+00    0.1006510976E-01    0.2719478066E-02
    0.7000000000E+04    0.3992435453E-01    0.1701921626E-02    0.6955686972E+00    0.2976371533E-01    0.3576792563E-03
    0.9000000000E+04    0.4913427179E-01    0.2096729335E-02    0.6956329474E+00    0.3726165442E-01    0.1773592258E-03
    0.1100000000E+05    0.5543598878E-01    0.2368025143E-02    0.6956734759E+00    0.4273280162E-01    0.1770927912E-03
    0.1300000000E+05    0.6077815509E-01    0.2598710051E-02    0.6957012804E+00    0.4758306759E-01    0.1787149546E-03
    0.1500000000E+05    0.6536757620E-01    0.2797497623E-02    0.6957214810E+00    0.5193777931E-01    0.1801437294E-03
    0.1700000000E+05    0.6934295458E-01    0.2970227677E-02    0.6957367816E+00    0.5587944395E-01    0.1814029801E-03
    0.1900000000E+05    0.7281113999E-01    0.3121402944E-02    0.6957487436E+00    0.5947248975E-01    0.1825291875E-03
    0.2100000000E+05    0.7585593040E-01    0.3254558057E-02    0.6957583313E+00    0.6276817466E-01    0.1835483966E-03
    0.2300000000E+05    0.7854393680E-01    0.3372505360E-02    0.6957661715E+00    0.6580783096E-01    0.1844796390E-03
    0.2500000000E+05    0.8092874600E-01    0.3477509475E-02    0.6957726896E+00    0.6862518741E-01    0.1853372472E-03
    0.2700000000E+05    0.8305393328E-01    0.3571413702E-02    0.6957781840E+00    0.7124806466E-01    0.1861322889E-03
    0.2900000000E+05    0.8495527879E-01    0.3655733066E-02    0.6957828702E+00    0.7369963349E-01    0.1868734922E-03
    0.3100000000E+05    0.8666242229E-01    0.3731723814E-02    0.6957869075E+00    0.7599936240E-01    0.1875678645E-03
    0.3300000000E+05    0.8820011513E-01    0.3800436042E-02    0.6957904165E+00    0.7816374086E-01    0.1882211178E-03
    0.3500000000E+05    0.8958917930E-01    0.3862754010E-02    0.6957934898E+00    0.8020683802E-01    0.1888379713E-03
    0.3700000000E+05    0.9084725010E-01    0.3919427396E-02    0.6957961998E+00    0.8214073927E-01    0.1894223695E-03
    0.3900000000E+05    0.9198935731E-01    0.3971095758E-02    0.6957986037E+00    0.8397589068E-01    0.1899776434E-03
    0.4100000000E+05    0.9302838429E-01    0.4018307874E-02    0.6958007478E+00    0.8572137349E-01    0.1905066324E-03
    0.4300000000E+05    0.9397543376E-01    0.4061537154E-02    0.6958026693E+00    0.8738512464E-01    0.1910117765E-03
    0.4500000000E+05    0.9484012167E-01    0.4101194034E-02    0.6958043988E+00    0.8897411552E-01    0.1914951883E-03
    0.4700000000E+05    0.9563081500E-01    0.4137636008E-02    0.6958059618E+00    0.9049449781E-01    0.1919587092E-03
    0.4900000000E+05    0.9635482567E-01    0.4171175818E-02    0.6958073793E+00    0.9195172338E-01    0.1924039543E-03
    0.1000000000E+05    0.5242541936E-01    0.2238313103E-02    0.6956552828E+00    0.4008782795E-01    0.1763881694E-03
    0.3000000000E+05    0.8583147671E-01    0.3694699578E-02    0.6957849617E+00    0.7486738476E-01    0.1872261489E-03
    0.5000000000E+05    0.9669386122E-01    0.4186944582E-02    0.6958080391E+00    0.9265818953E-01    0.1926201752E-03
    0.7000000000E+05    0.1011794038E+00    0.4401684653E-02    0.6958167185E+00    0.1044088457E+00    0.1962569541E-03
    0.9000000000E+05    0.1031167734E+00    0.4503413147E-02    0.6958208596E+00    0.1131517860E+00    0.1990177557E-03
    0.1100000000E+06    0.1038410194E+00    0.4550169691E-02    0.6958230563E+00    0.1201129055E+00    0.2012499499E-03
    0.1300000000E+06    0.1039250134E+00    0.4567172456E-02    0.6958242701E+00    0.1258999374E+00    0.2031272223E-03
    0.1500000000E+06    0.1036489641E+00    0.4566923768E-02    0.6958249329E+00    0.1308558632E+00    0.2047491988E-03
    0.1700000000E+06    0.1031628179E+00    0.4556213223E-02    0.6958252645E+00    0.1351924748E+00    0.2061784491E-03
    0.1900000000E+06    0.1025521843E+00    0.4538981026E-02    0.6958253868E+00    0.1390494962E+00    0.2074568982E-03
    0.2100000000E+06    0.1018683426E+00    0.4517630999E-02    0.6958253722E+00    0.1425238920E+00    0.2086140387E-03
    0.2300000000E+06    0.1011431308E+00    0.4493687096E-02    0.6958252656E+00    0.1456856942E+00    0.2096714215E-03
    0.2500000000E+06    0.1003968465E+00    0.4468144667E-02    0.6958250964E+00    0.1485871420E+00    0.2106452818E-03
    0.2700000000E+06    0.9964267400E-01    0.4441668935E-02    0.6958248839E+00    0.1512682525E+00    0.2115481609E-03
    0.2900000000E+06    0.9888927642E-01    0.4414712266E-02    0.6958246416E+00    0.1537603702E+00    0.2123899517E-03
    0.3100000000E+06    0.9814237049E-01    0.4387586097E-02    0.6958243788E+00    0.1560885154E+00    0.2131785980E-03
    0.3300000000E+06    0.9740571337E-01    0.4360506475E-02    0.6958241022E+00    0.1582729869E+00    0.2139205769E-03
    0.3500000000E+06    0.9668173751E-01    0.4333623669E-02    0.6958238166E+00    0.1603304867E+00    0.2146212404E-03
    0.3700000000E+06    0.9597196827E-01    0.4307041886E-02    0.6958235255E+00    0.1622749275E+00    0.2152850624E-03
    0.3900000000E+06    0.9527730407E-01    0.4280832660E-02    0.6958232316E+00    0.1641180257E+00    0.2159158218E-03
    0.4100000000E+06    0.9459820732E-01    0.4255044109E-02    0.6958229368E+00    0.1658697437E+00    0.2165167398E-03
    0.4300000000E+06    0.9393483648E-01    0.4229707435E-02    0.6958226424E+00    0.1675386261E+00    0.2170905850E-03
    0.4500000000E+06    0.9328713841E-01    0.4204841543E-02    0.6958223496E+00    0.1691320586E+00    0.2176397547E-03
    0.4700000000E+06    0.9265491364E-01    0.4180456368E-02    0.6958220591E+00    0.1706564701E+00    0.2181663385E-03
    0.4900000000E+06    0.9203786286E-01    0.4156555298E-02    0.6958217715E+00    0.1721174925E+00    0.2186721694E-03
    0.1000000000E+06    0.1035847879E+00    0.4531656089E-02    0.6958221221E+00    0.1168084373E+00    0.2001866583E-03
    0.3000000000E+06    0.9851474000E-01    0.4401155037E-02    0.6958245123E+00    0.1549435751E+00    0.2127904832E-03
    0.5000000000E+06    0.9173491529E-01    0.4144786017E-02    0.6958216289E+00    0.1728258068E+00    0.2189178152E-03
    0.7000000000E+06    0.8637022591E-01    0.3933144323E-02    0.6958189844E+00    0.1846102106E+00    0.2230497804E-03
    0.9000000000E+06    0.8205187385E-01    0.3759152882E-02    0.6958167268E+00    0.1933652352E+00    0.2261867549E-03
    0.1100000000E+07    0.7847248355E-01    0.3612929036E-02    0.6958147835E+00    0.2002980845E+00    0.2287232137E-03
    0.1300000000E+07    0.7543279734E-01    0.3487478904E-02    0.6958130840E+00    0.2060129886E+00    0.2308564341E-03
    0.1500000000E+07    0.7280162874E-01    0.3378009288E-02    0.6958115760E+00    0.2108567700E+00    0.2326995879E-03
    0.1700000000E+07    0.7048920296E-01    0.3281159104E-02    0.6958102210E+00    0.2150471950E+00    0.2343237579E-03
    0.1900000000E+07    0.6843176181E-01    0.3194500389E-02    0.6958089910E+00    0.2187300057E+00    0.2357765758E-03
    0.2100000000E+07    0.6658254842E-01    0.3116229585E-02    0.6958078647E+00    0.2220075246E+00    0.2370915506E-03
    0.2300000000E+07    0.6490632908E-01    0.3044973645E-02    0.6958068259E+00    0.2249543234E+00    0.2382931685E-03
    0.2500000000E+07    0.6337593423E-01    0.2979664792E-02    0.6958058617E+00    0.2276264037E+00    0.2393998765E-03
    0.2700000000E+07    0.6196999611E-01    0.2919457217E-02    0.6958049620E+00    0.2300668704E+00    0.2404259250E-03
    0.2900000000E+07    0.6067142225E-01    0.2863670130E-02    0.6958041185E+00    0.2323095935E+00    0.2413825549E-03
    0.3100000000E+07    0.5946633699E-01    0.2811747834E-02    0.6958033246E+00    0.2343816567E+00    0.2422787930E-03
    0.3300000000E+07    0.5834332954E-01    0.2763231114E-02    0.6958025746E+00    0.2363050468E+00    0.2431219992E-03
    0.3500000000E+07    0.5729290845E-01    0.2717736319E-02    0.6958018637E+00    0.2380978486E+00    0.2439182550E-03
    0.3700000000E+07    0.5630709825E-01    0.2674939782E-02    0.6958011882E+00    0.2397751103E+00    0.2446726445E-03
    0.3900000000E+07    0.5537913619E-01    0.2634566051E-02    0.6958005444E+00    0.2413494818E+00    0.2453894617E-03
    0.4100000000E+07    0.5450324084E-01    0.2596378848E-02    0.6957999295E+00    0.2428316941E+00    0.2460723671E-03
    0.4300000000E+07    0.5367443298E-01    0.2560174044E-02    0.6957993410E+00    0.2442309256E+00    0.2467245068E-03
    0.4500000000E+07    0.5288839541E-01    0.2525774138E-02    0.6957987766E+00    0.2455550849E+00    0.2473486049E-03
    0.4700000000E+07    0.5214136194E-01    0.2493023859E-02    0.6957982344E+00    0.2468110321E+00    0.2479470362E-03
    0.4900000000E+07    0.5143002850E-01    0.2461786642E-02    0.6957977127E+00    0.2480047545E+00    0.2485218836E-03
    0.1000000000E+07    0.8018427413E-01    0.3683069617E-02    0.6958157207E+00    0.1970132794E+00    0.2275149764E-03
    0.3000000000E+07    0.6005795728E-01    0.2837256569E-02    0.6958037157E+00    0.2333654799E+00    0.2418377290E-03
    0.5000000000E+07    0.5108682519E-01    0.2446697155E-02    0.6957974590E+00    0.2485799490E+00    0.2488010459E-03
    0.7000000000E+07    0.4554194754E-01    0.2201250060E-02    0.6957931658E+00    0.2578104484E+00    0.2534967999E-03
    0.9000000000E+07    0.4163146695E-01    0.2026232962E-02    0.6957898797E+00    0.2642571745E+00    0.2570618126E-03
    0.1100000000E+08    0.3866344986E-01    0.1892298196E-02    0.6957872099E+00    0.2691200087E+00    0.2599443736E-03
    0.1300000000E+08    0.3630175305E-01    0.1785021738E-02    0.6957849575E+00    0.2729726105E+00    0.2623686756E-03
    0.1500000000E+08    0.3435926960E-01    0.1696304255E-02    0.6957830070E+00    0.2761309926E+00    0.2644633313E-03
    0.1700000000E+08    0.3272189183E-01    0.1621171634E-02    0.6957812854E+00    0.2787864477E+00    0.2663091226E-03
    0.1900000000E+08    0.3131528774E-01    0.1556364671E-02    0.6957797434E+00    0.2810628863E+00    0.2679601804E-03
    0.2100000000E+08    0.3008855238E-01    0.1499640170E-02    0.6957783463E+00    0.2830447873E+00    0.2694545859E-03
    0.2300000000E+08    0.2900542611E-01    0.1449393304E-02    0.6957770685E+00    0.2847921063E+00    0.2708201664E-03
    0.2500000000E+08    0.2803924730E-01    0.1404439463E-02    0.6957758908E+00    0.2863487942E+00    0.2720778863E-03
    0.2700000000E+08    0.2716989069E-01    0.1363881332E-02    0.6957747983E+00    0.2877479413E+00    0.2732439402E-03
