  Pressure (Pa) 22mC5-500 (mol/kg) 23mC5-500 (mol/kg) 24mC5-500 (mol/kg) 2mC6-500 (mol/kg) C7-500 (mol/kg)
    0.1000000000E+01    0.1439321748E-04    0.2361074708E-05    0.1741093164E+00    0.2660345929E-05    0.4168458254E-02
    0.3000000000E+01    0.2670921293E-04    0.4366691837E-05    0.3481286023E+00    0.4696699955E-05    0.4192793073E-02
    0.5000000000E+01    0.3196118239E-04    0.5215838624E-05    0.4351061959E+00    0.5535250708E-05    0.4202273845E-02
    0.7000000000E+01    0.3486759515E-04    0.5685026464E-05    0.4872833206E+00    0.6063594011E-05    0.4207693653E-02
    0.9000000000E+01    0.3681001222E-04    0.5999995080E-05    0.5220645039E+00    0.6501689604E-05    0.4211238891E-02
    0.1100000000E+02    0.3830785306E-04    0.6244950822E-05    0.5469066421E+00    0.6917315889E-05    0.4213741947E-02
    0.1300000000E+02    0.3958769115E-04    0.6456300611E-05    0.5655374917E+00    0.7333363548E-05    0.4215599853E-02
    0.1500000000E+02    0.4075844378E-04    0.6651366277E-05    0.5800277660E+00    0.7757423175E-05    0.4217028346E-02
    0.1700000000E+02    0.4187602979E-04    0.6838931339E-05    0.5916197803E+00    0.8191446725E-05    0.4218155487E-02
    0.1900000000E+02    0.4297044314E-04    0.7023634480E-05    0.6011040452E+00    0.8635265497E-05    0.4219062390E-02
    0.2100000000E+02    0.4405819436E-04    0.7207977341E-05    0.6090075409E+00    0.9087961353E-05    0.4219803070E-02
    0.2300000000E+02    0.4514844993E-04    0.7393309299E-05    0.6156950849E+00    0.9548418973E-05    0.4220414967E-02
    0.2500000000E+02    0.4624623599E-04    0.7580337925E-05    0.6214272531E+00    0.1001554626E-04    0.4220924896E-02
    0.2700000000E+02    0.4735418629E-04    0.7769405408E-05    0.6263951298E+00    0.1048835533E-04    0.4221352590E-02
    0.2900000000E+02    0.4847353047E-04    0.7960643525E-05    0.6307420250E+00    0.1096598417E-04    0.4221712917E-02
    0.3100000000E+02    0.4960466911E-04    0.8154062921E-05    0.6345775272E+00    0.1144769387E-04    0.4222017299E-02
    0.3300000000E+02    0.5074751579E-04    0.8349605604E-05    0.6379868705E+00    0.1193285646E-04    0.4222274670E-02
    0.3500000000E+02    0.5190170403E-04    0.8547176266E-05    0.6410373445E+00    0.1242094029E-04    0.4222492118E-02
    0.3700000000E+02    0.5306671390E-04    0.8746661116E-05    0.6437827803E+00    0.1291149574E-04    0.4222675349E-02
    0.3900000000E+02    0.5424194994E-04    0.8947939209E-05    0.6462667550E+00    0.1340414236E-04    0.4222829008E-02
    0.4100000000E+02    0.5542678899E-04    0.9150889198E-05    0.6485249227E+00    0.1389855779E-04    0.4222956916E-02
    0.4300000000E+02    0.5662060928E-04    0.9355393274E-05    0.6505867363E+00    0.1439446836E-04    0.4223062252E-02
    0.4500000000E+02    0.5782280772E-04    0.9561339350E-05    0.6524767400E+00    0.1489164124E-04    0.4223147677E-02
    0.4700000000E+02    0.5903280972E-04    0.9768622167E-05    0.6542155509E+00    0.1538987792E-04    0.4223215444E-02
    0.4900000000E+02    0.6025007417E-04    0.9977143725E-05    0.6558206141E+00    0.1588900874E-04    0.4223267467E-02
    0.1000000000E+02    0.3759638011E-04    0.6128304673E-05    0.5354411912E+00    0.6710332215E-05    0.4212589900E-02
    0.3000000000E+02    0.4903762239E-04    0.8057083023E-05    0.6327178888E+00    0.1120637059E-04    0.4221871493E-02
    0.5000000000E+02    0.6086127044E-04    0.1008184040E-04    0.6565777219E+00    0.1613886322E-04    0.4223288097E-02
    0.7000000000E+02    0.7336252383E-04    0.1222239576E-04    0.6673641366E+00    0.2115704061E-04    0.4223171906E-02
    0.9000000000E+02    0.8620721008E-04    0.1441976811E-04    0.6735114872E+00    0.2618258504E-04    0.4222468824E-02
    0.1100000000E+03    0.9924297005E-04    0.1664808583E-04    0.6774829245E+00    0.3119845306E-04    0.4221472116E-02
    0.1300000000E+03    0.1123980582E-03    0.1889542688E-04    0.6802600266E+00    0.3620273195E-04    0.4220304678E-02
    0.1500000000E+03    0.1256366422E-03    0.2115595365E-04    0.6823111393E+00    0.4119771223E-04    0.4219027674E-02
    0.1700000000E+03    0.1389402168E-03    0.2342672104E-04    0.6838880384E+00    0.4618674960E-04    0.4217675166E-02
    0.1900000000E+03    0.1522992337E-03    0.2570626007E-04    0.6851381401E+00    0.5117327246E-04    0.4216267684E-02
    0.2100000000E+03    0.1657090270E-03    0.2799389622E-04    0.6861534949E+00    0.5616047030E-04    0.4214818350E-02
    0.2300000000E+03    0.1791676989E-03    0.3028939907E-04    0.6869945492E+00    0.6115121593E-04    0.4213335937E-02
    0.2500000000E+03    0.1926749641E-03    0.3259279278E-04    0.6877026367E+00    0.6614806979E-04    0.4211826520E-02
    0.2700000000E+03    0.2062314922E-03    0.3490424914E-04    0.6883069791E+00    0.7115331091E-04    0.4210294428E-02
    0.2900000000E+03    0.2198385205E-03    0.3722402538E-04    0.6888288200E+00    0.7616897384E-04    0.4208742813E-02
    0.3100000000E+03    0.2334976207E-03    0.3955242706E-04    0.6892839734E+00    0.8119688397E-04    0.4207174016E-02
    0.3300000000E+03    0.2472105556E-03    0.4188978555E-04    0.6896844544E+00    0.8623868873E-04    0.4205589798E-02
    0.3500000000E+03    0.2609791896E-03    0.4423644434E-04    0.6900395553E+00    0.9129588427E-04    0.4203991502E-02
    0.3700000000E+03    0.2748054331E-03    0.4659275055E-04    0.6903565753E+00    0.9636983794E-04    0.4202380160E-02
    0.3900000000E+03    0.2886912074E-03    0.4895904984E-04    0.6906413280E+00    0.1014618072E-03    0.4200756568E-02
    0.4100000000E+03    0.3026384235E-03    0.5133568337E-04    0.6908985010E+00    0.1065729551E-03    0.4199121345E-02
    0.4300000000E+03    0.3166489691E-03    0.5372298613E-04    0.6911319157E+00    0.1117043642E-03    0.4197474971E-02
    0.4500000000E+03    0.3307247012E-03    0.5612128606E-04    0.6913447187E+00    0.1168570467E-03    0.4195817816E-02
    0.4700000000E+03    0.3448674426E-03    0.5853090373E-04    0.6915395245E+00    0.1220319547E-03    0.4194150164E-02
    0.4900000000E+03    0.3590789805E-03    0.6095215240E-04    0.6917185234E+00    0.1272299876E-03    0.4192472232E-02
    0.1000000000E+03    0.9270686610E-04    0.1553100440E-04    0.6756899784E+00    0.2869201139E-04    0.4221997374E-02
    0.3000000000E+03    0.2266614547E-03    0.3838712774E-04    0.6890639074E+00    0.7868129120E-04    0.4207960441E-02
    0.5000000000E+03    0.3662110971E-03    0.6216723431E-04    0.6918026844E+00    0.1298379443E-03    0.4191629463E-02
    0.7000000000E+03    0.5128762238E-03    0.8715096666E-04    0.6929830392E+00    0.1834007855E-03    0.4174252916E-02
    0.9000000000E+03    0.6682617970E-03    0.1136164010E-03    0.6936404469E+00    0.2400820986E-03    0.4155856645E-02
    0.1100000000E+04    0.8338467413E-03    0.1418171879E-03    0.6940593754E+00    0.3004649030E-03    0.4136340445E-02
    0.1300000000E+04    0.1011126123E-02    0.1720088118E-03    0.6943496417E+00    0.3651149978E-03    0.4115567887E-02
    0.1500000000E+04    0.1201700249E-02    0.2044643201E-03    0.6945626113E+00    0.4346283267E-03    0.4093380376E-02
    0.1700000000E+04    0.1407339334E-02    0.2394855376E-03    0.6947255200E+00    0.5096596243E-03    0.4069597799E-02
    0.1900000000E+04    0.1630041022E-02    0.2774129505E-03    0.6948541540E+00    0.5909455447E-03    0.4044015491E-02
    0.2100000000E+04    0.1872089547E-02    0.3186358273E-03    0.6949582938E+00    0.6793273587E-03    0.4016399601E-02
    0.2300000000E+04    0.2136121963E-02    0.3636035256E-03    0.6950443225E+00    0.7757758396E-03    0.3986481231E-02
    0.2500000000E+04    0.2425205758E-02    0.4128387318E-03    0.6951165827E+00    0.8814201710E-03    0.3953949309E-02
    0.2700000000E+04    0.2742932052E-02    0.4669533513E-03    0.6951781318E+00    0.9975825402E-03    0.3918441965E-02
    0.2900000000E+04    0.3093528998E-02    0.5266678409E-03    0.6952311843E+00    0.1125820179E-02    0.3879536070E-02
    0.3100000000E+04    0.3482000706E-02    0.5928348909E-03    0.6952773839E+00    0.1267976869E-02    0.3836734560E-02
    0.3300000000E+04    0.3914297888E-02    0.6664685156E-03    0.6953179761E+00    0.1426246244E-02    0.3789451079E-02
    0.3500000000E+04    0.4397527268E-02    0.7487797533E-03    0.6953539218E+00    0.1603249542E-02    0.3736991459E-02
    0.3700000000E+04    0.4940207224E-02    0.8412202503E-03    0.6953859744E+00    0.1802130666E-02    0.3678531636E-02
    0.3900000000E+04    0.5552576460E-02    0.9455348944E-03    0.6954147327E+00    0.2026671163E-02    0.3613091757E-02
    0.4100000000E+04    0.6246959403E-02    0.1063824127E-02    0.6954406789E+00    0.2281426681E-02    0.3539506777E-02
    0.4300000000E+04    0.7038183792E-02    0.1198615176E-02    0.6954642053E+00    0.2571883488E-02    0.3456394923E-02
    0.4500000000E+04    0.7944028139E-02    0.1352938405E-02    0.6954856346E+00    0.2904627216E-02    0.3362127521E-02
    0.4700000000E+04    0.8985641247E-02    0.1530398962E-02    0.6955052346E+00    0.3287503030E-02    0.3254807615E-02
    0.4900000000E+04    0.1018781022E-01    0.1735222668E-02    0.6955232294E+00    0.3729722347E-02    0.3132271694E-02
    0.1000000000E+04    0.7496875084E-03    0.1274841684E-03    0.6938708046E+00    0.2697757476E-03    0.4146246490E-02
    0.3000000000E+04    0.3282683020E-02    0.5588855840E-03    0.6952550551E+00    0.1195030574E-02    0.3858656621E-02
    0.5000000000E+04    0.1085782822E-01    0.1849383376E-02    0.6955316851E+00    0.3976334816E-02    0.3064559535E-02
    0.7000000000E+04    0.3592322583E-01    0.6122437429E-02    0.6956498879E+00    0.1328381827E-01    0.8178755512E-03
    0.9000000000E+04    0.5101125196E-01    0.8701661811E-02    0.6957153259E+00    0.1913915216E-01    0.1077931951E-03
    0.1100000000E+05    0.5816429849E-01    0.9930638781E-02    0.6957568107E+00    0.2213965066E-01    0.8902200349E-04
    0.1300000000E+05    0.6415182031E-01    0.1096217025E-01    0.6957854170E+00    0.2475596250E-01    0.8938132677E-04
    0.1500000000E+05    0.6936773451E-01    0.1186303286E-01    0.6958063086E+00    0.2712120906E-01    0.9008268498E-04
    0.1700000000E+05    0.7395100045E-01    0.1265663470E-01    0.6958222170E+00    0.2927704187E-01    0.9071199337E-04
    0.1900000000E+05    0.7800592431E-01    0.1336055049E-01    0.6958347219E+00    0.3125476193E-01    0.9127520961E-04
    0.2100000000E+05    0.8161514968E-01    0.1398871582E-01    0.6958448003E+00    0.3307946713E-01    0.9178493319E-04
    0.2300000000E+05    0.8484508206E-01    0.1455233716E-01    0.6958530885E+00    0.3477157385E-01    0.9225066454E-04
    0.2500000000E+05    0.8774968045E-01    0.1506052787E-01    0.6958600188E+00    0.3634787636E-01    0.9267957056E-04
    0.2700000000E+05    0.9037323251E-01    0.1552077394E-01    0.6958658950E+00    0.3782232796E-01    0.9307718628E-04
    0.2900000000E+05    0.9275242021E-01    0.1593928082E-01    0.6958709369E+00    0.3920662679E-01    0.9344787680E-04
    0.3100000000E+05    0.9491787876E-01    0.1632123524E-01    0.6958753073E+00    0.4051066128E-01    0.9379514644E-04
    0.3300000000E+05    0.9689538794E-01    0.1667100544E-01    0.6958791295E+00    0.4174285329E-01    0.9412185195E-04
    0.3500000000E+05    0.9870679313E-01    0.1699229606E-01    0.6958824983E+00    0.4291042530E-01    0.9443035339E-04
    0.3700000000E+05    0.1003707247E+00    0.1728826911E-01    0.6958854881E+00    0.4401961069E-01    0.9472262344E-04
    0.3900000000E+05    0.1019031657E+00    0.1756163952E-01    0.6958881580E+00    0.4507582097E-01    0.9500032804E-04
    0.4100000000E+05    0.1033179033E+00    0.1781475118E-01    0.6958905552E+00    0.4608377973E-01    0.9526488715E-04
    0.4300000000E+05    0.1046268916E+00    0.1804963804E-01    0.6958927183E+00    0.4704763104E-01    0.9551752105E-04
    0.4500000000E+05    0.1058405446E+00    0.1826807346E-01    0.6958946791E+00    0.4797102776E-01    0.9575928627E-04
    0.4700000000E+05    0.1069679752E+00    0.1847161054E-01    0.6958964636E+00    0.4885720389E-01    0.9599110377E-04
    0.4900000000E+05    0.1080171907E+00    0.1866161513E-01    0.6958980939E+00    0.4970903453E-01    0.9621378122E-04
    0.1000000000E+05    0.5480224844E-01    0.9352528773E-02    0.6957381625E+00    0.2071199602E-01    0.9112370454E-04
    0.3000000000E+05    0.9386015251E-01    0.1613453689E-01    0.6958731975E+00    0.3986811978E-01    0.9362424752E-04
    0.5000000000E+05    0.1085147082E+00    0.1875192518E-01    0.6958988571E+00    0.5012288301E-01    0.9632191835E-04
    0.7000000000E+05    0.1156991865E+00    0.2007688162E-01    0.6959092724E+00    0.5709485261E-01    0.9814076139E-04
    0.9000000000E+05    0.1196922139E+00    0.2084189231E-01    0.6959147293E+00    0.6239992082E-01    0.9952151197E-04
    0.1100000000E+06    0.1220596492E+00    0.2131749237E-01    0.6959179886E+00    0.6670458432E-01    0.1006378953E-03
    0.1300000000E+06    0.1235030409E+00    0.2162601876E-01    0.6959200954E+00    0.7034343656E-01    0.1015767747E-03
    0.1500000000E+06    0.1243803850E+00    0.2183049560E-01    0.6959215293E+00    0.7350699779E-01    0.1023879748E-03
    0.1700000000E+06    0.1248918188E+00    0.2196650366E-01    0.6959225400E+00    0.7631372537E-01    0.1031027880E-03
    0.1900000000E+06    0.1251570571E+00    0.2205554356E-01    0.6959232695E+00    0.7884221078E-01    0.1037421818E-03
    0.2100000000E+06    0.1252515382E+00    0.2211130807E-01    0.6959238043E+00    0.8114726097E-01    0.1043209062E-03
    0.2300000000E+06    0.1252248033E+00    0.2214288944E-01    0.6959241997E+00    0.8326863351E-01    0.1048497391E-03
    0.2500000000E+06    0.1251104931E+00    0.2215653370E-01    0.6959244926E+00    0.8523610471E-01    0.1053368002E-03
    0.2700000000E+06    0.1249320883E+00    0.2215665407E-01    0.6959247085E+00    0.8707257105E-01    0.1057883618E-03
    0.2900000000E+06    0.1247063586E+00    0.2214644332E-01    0.6959248655E+00    0.8879603216E-01    0.1062093714E-03
    0.3100000000E+06    0.1244455144E+00    0.2212825817E-01    0.6959249767E+00    0.9042090638E-01    0.1066038019E-03
    0.3300000000E+06    0.1241585928E+00    0.2210386842E-01    0.6959250519E+00    0.9195893125E-01    0.1069748928E-03
    0.3500000000E+06    0.1238523758E+00    0.2207462306E-01    0.6959250985E+00    0.9341979683E-01    0.1073253205E-03
    0.3700000000E+06    0.1235320141E+00    0.2204156376E-01    0.6959251222E+00    0.9481160163E-01    0.1076573228E-03
    0.3900000000E+06    0.1232014584E+00    0.2200550400E-01    0.6959251273E+00    0.9614118773E-01    0.1079727895E-03
    0.4100000000E+06    0.1228637646E+00    0.2196708542E-01    0.6959251172E+00    0.9741439165E-01    0.1082733317E-03
    0.4300000000E+06    0.1225213137E+00    0.2192681851E-01    0.6959250948E+00    0.9863623514E-01    0.1085603338E-03
    0.4500000000E+06    0.1221759706E+00    0.2188511255E-01    0.6959250622E+00    0.9981107251E-01    0.1088349950E-03
    0.4700000000E+06    0.1218292028E+00    0.2184229788E-01    0.6959250212E+00    0.1009427058E+00    0.1090983603E-03
    0.4900000000E+06    0.1214821687E+00    0.2179864267E-01    0.6959249733E+00    0.1020344761E+00    0.1093513465E-03
    0.1000000000E+06    0.1210237443E+00    0.2110623527E-01    0.6959165484E+00    0.6465170120E-01    0.1001061128E-03
    0.3000000000E+06    0.1245796992E+00    0.2213822544E-01    0.6959249261E+00    0.8962000466E-01    0.1064096916E-03
    0.5000000000E+06    0.1213088460E+00    0.2177656987E-01    0.6959249471E+00    0.1025663489E+00    0.1094742037E-03
    0.7000000000E+06    0.1179692434E+00    0.2132703327E-01    0.6959242595E+00    0.1116772867E+00    0.1115407703E-03
    0.9000000000E+06    0.1149774805E+00    0.2089960793E-01    0.6959234868E+00    0.1187968547E+00    0.1131097081E-03
    0.1100000000E+07    0.1123262425E+00    0.2050858510E-01    0.6959227438E+00    0.1246731171E+00    0.1143783063E-03
    0.1300000000E+07    0.1099617993E+00    0.2015248570E-01    0.6959220536E+00    0.1296908583E+00    0.1154452299E-03
    0.1500000000E+07    0.1078339013E+00    0.1982706416E-01    0.6959214174E+00    0.1340764948E+00    0.1163670798E-03
    0.1700000000E+07    0.1059020305E+00    0.1952806553E-01    0.6959208306E+00    0.1379754750E+00    0.1171794072E-03
    0.1900000000E+07    0.1041343918E+00    0.1925180406E-01    0.6959202876E+00    0.1414872219E+00    0.1179060345E-03
    0.2100000000E+07    0.1025059933E+00    0.1899520941E-01    0.6959197831E+00    0.1446829280E+00    0.1185637206E-03
    0.2300000000E+07    0.1009969896E+00    0.1875574656E-01    0.6959193124E+00    0.1476154439E+00    0.1191647120E-03
    0.2500000000E+07    0.9959142460E-01    0.1853131850E-01    0.6959188714E+00    0.1503251544E+00    0.1197182350E-03
    0.2700000000E+07    0.9827630663E-01    0.1832018005E-01    0.6959184568E+00    0.1528436574E+00    0.1202314165E-03
    0.2900000000E+07    0.9704093102E-01    0.1812086771E-01    0.6959180655E+00    0.1551961695E+00    0.1207098788E-03
    0.3100000000E+07    0.9587637989E-01    0.1793214445E-01    0.6959176953E+00    0.1574031544E+00    0.1211581363E-03
    0.3300000000E+07    0.9477514892E-01    0.1775295645E-01    0.6959173438E+00    0.1594814594E+00    0.1215798702E-03
    0.3500000000E+07    0.9373086535E-01    0.1758239926E-01    0.6959170093E+00    0.1614451289E+00    0.1219781220E-03
    0.3700000000E+07    0.9273807219E-01    0.1741969117E-01    0.6959166903E+00    0.1633059997E+00    0.1223554345E-03
    0.3900000000E+07    0.9179206118E-01    0.1726415220E-01    0.6959163853E+00    0.1650741451E+00    0.1227139554E-03
    0.4100000000E+07    0.9088874195E-01    0.1711518721E-01    0.6959160932E+00    0.1667582118E+00    0.1230555153E-03
    0.4300000000E+07    0.9002453847E-01    0.1697227246E-01    0.6959158128E+00    0.1683656797E+00    0.1233816878E-03
    0.4500000000E+07    0.8919630626E-01    0.1683494460E-01    0.6959155434E+00    0.1699030644E+00    0.1236938354E-03
    0.4700000000E+07    0.8840126555E-01    0.1670279176E-01    0.6959152840E+00    0.1713760777E+00    0.1239931457E-03
    0.4900000000E+07    0.8763694692E-01    0.1657544617E-01    0.6959150339E+00    0.1727897556E+00    0.1242806606E-03
    0.1000000000E+07    0.1136125444E+00    0.2069951021E-01    0.6959231093E+00    0.1218612280E+00    0.1137740115E-03
    0.3000000000E+07    0.9645030086E-01    0.1802525217E-01    0.6959178779E+00    0.1563167260E+00    0.1209375361E-03
    0.5000000000E+07    0.8726561040E-01    0.1651347171E-01    0.6959149121E+00    0.1734757585E+00    0.1244202861E-03
    0.7000000000E+07    0.8102301096E-01    0.1546168241E-01    0.6959128376E+00    0.1849397504E+00    0.1267689166E-03
    0.9000000000E+07    0.7632344769E-01    0.1465804174E-01    0.6959112357E+00    0.1935024962E+00    0.1285520044E-03
    0.1100000000E+08    0.7257521356E-01    0.1401012097E-01    0.6959099276E+00    0.2003011621E+00    0.1299937610E-03
    0.1300000000E+08    0.6947165068E-01    0.1346908300E-01    0.6959088203E+00    0.2059141233E+00    0.1312063164E-03
    0.1500000000E+08    0.6683316038E-01    0.1300592404E-01    0.6959078592E+00    0.2106763082E+00    0.1322539967E-03
    0.1700000000E+08    0.6454551063E-01    0.1260199524E-01    0.6959070093E+00    0.2147991377E+00    0.1331772053E-03
    0.1900000000E+08    0.6253157154E-01    0.1224459290E-01    0.6959062471E+00    0.2184245906E+00    0.1340030160E-03
    0.2100000000E+08    0.6073684571E-01    0.1192467393E-01    0.6959055557E+00    0.2216525745E+00    0.1347504752E-03
    0.2300000000E+08    0.5912142612E-01    0.1163557372E-01    0.6959049229E+00    0.2245560164E+00    0.1354335011E-03
    0.2500000000E+08    0.5765523313E-01    0.1137224053E-01    0.6959043392E+00    0.2271897442E+00    0.1360625792E-03
    0.2700000000E+08    0.5631504668E-01    0.1113075514E-01    0.6959037973E+00    0.2295959939E+00    0.1366458092E-03
