  Pressure (Pa) 22mC5-500 (mol/kg) 23mC5-500 (mol/kg) 24mC5-500 (mol/kg) 2mC6-500 (mol/kg) C7-500 (mol/kg)
    0.1000000000E+01    0.1439334464E-04    0.5902743160E-06    0.1741073669E+00    0.1064167701E-04    0.4168219366E-02
    0.3000000000E+01    0.2671071648E-04    0.1091737682E-05    0.3481222072E+00    0.1878931748E-04    0.4192280476E-02
    0.5000000000E+01    0.3196549862E-04    0.1304144251E-05    0.4350977809E+00    0.2214765814E-04    0.4201531499E-02
    0.7000000000E+01    0.3487591235E-04    0.1421611448E-05    0.4872742426E+00    0.2426679364E-04    0.4206741521E-02
    0.9000000000E+01    0.3682338627E-04    0.1500568665E-05    0.5220553925E+00    0.2602641992E-04    0.4210089350E-02
    0.1100000000E+02    0.3832726879E-04    0.1562064517E-05    0.5468977832E+00    0.2769757125E-04    0.4212403716E-02
    0.1300000000E+02    0.3961409005E-04    0.1615198914E-05    0.5655290091E+00    0.2937175896E-04    0.4214079538E-02
    0.1500000000E+02    0.4079273770E-04    0.1664301067E-05    0.5800197049E+00    0.3107930816E-04    0.4215331192E-02
    0.1700000000E+02    0.4191910855E-04    0.1711565923E-05    0.5916121472E+00    0.3282799765E-04    0.4216285792E-02
    0.1900000000E+02    0.4302317917E-04    0.1758152417E-05    0.6010968280E+00    0.3461712900E-04    0.4217023766E-02
    0.2100000000E+02    0.4412144580E-04    0.1804685355E-05    0.6090007185E+00    0.3644300980E-04    0.4217598609E-02
    0.2300000000E+02    0.4522306287E-04    0.1851501567E-05    0.6156886330E+00    0.3830116178E-04    0.4218047355E-02
    0.2500000000E+02    0.4633304609E-04    0.1898777506E-05    0.6214211464E+00    0.4018720178E-04    0.4218396492E-02
    0.2700000000E+02    0.4745402012E-04    0.1946598330E-05    0.6263893437E+00    0.4209716523E-04    0.4218665489E-02
    0.2900000000E+02    0.4858720658E-04    0.1994996645E-05    0.6307365363E+00    0.4402759266E-04    0.4218868994E-02
    0.3100000000E+02    0.4973299888E-04    0.2043974805E-05    0.6345723142E+00    0.4597551810E-04    0.4219018244E-02
    0.3300000000E+02    0.5089130416E-04    0.2093518039E-05    0.6379819135E+00    0.4793842046E-04    0.4219122013E-02
    0.3500000000E+02    0.5206175014E-04    0.2143602275E-05    0.6410326251E+00    0.4991416482E-04    0.4219187258E-02
    0.3700000000E+02    0.5324381167E-04    0.2194198840E-05    0.6437782818E+00    0.5190094519E-04    0.4219219563E-02
    0.3900000000E+02    0.5443688848E-04    0.2245277297E-05    0.6462624624E+00    0.5389723294E-04    0.4219223471E-02
    0.4100000000E+02    0.5564035308E-04    0.2296807122E-05    0.6485208220E+00    0.5590173240E-04    0.4219202713E-02
    0.4300000000E+02    0.5685357972E-04    0.2348758695E-05    0.6505828149E+00    0.5791334323E-04    0.4219160386E-02
    0.4500000000E+02    0.5807596167E-04    0.2401103840E-05    0.6524729864E+00    0.5993112894E-04    0.4219099080E-02
    0.4700000000E+02    0.5930692099E-04    0.2453816098E-05    0.6542119545E+00    0.6195429069E-04    0.4219020981E-02
    0.4900000000E+02    0.6054591351E-04    0.2506870841E-05    0.6558171653E+00    0.6398214555E-04    0.4218927946E-02
    0.1000000000E+02    0.3761265503E-04    0.1532769422E-05    0.5354321832E+00    0.2686514182E-04    0.4211345079E-02
    0.3000000000E+02    0.4915852432E-04    0.2019413877E-05    0.6327125406E+00    0.4499953545E-04    0.4218949803E-02
    0.5000000000E+02    0.6116826197E-04    0.2533519449E-05    0.6565743435E+00    0.6499764667E-04    0.4218876334E-02
    0.7000000000E+02    0.7393245055E-04    0.3079844653E-05    0.6673618164E+00    0.8544982912E-04    0.4217347062E-02
    0.9000000000E+02    0.8711506240E-04    0.3643565436E-05    0.6735098117E+00    0.1060402084E-03    0.4215272325E-02
    0.1100000000E+03    0.1005630236E-03    0.4218183599E-05    0.6774816775E+00    0.1266996493E-03    0.4212927974E-02
    0.1300000000E+03    0.1142045035E-03    0.4800715123E-05    0.6802590821E+00    0.1474204415E-03    0.4210426658E-02
    0.1500000000E+03    0.1280039857E-03    0.5389714149E-05    0.6823104182E+00    0.1682122615E-03    0.4207822820E-02
    0.1700000000E+03    0.1419435623E-03    0.5984469909E-05    0.6838874879E+00    0.1890894485E-03    0.4205145772E-02
    0.1900000000E+03    0.1560144931E-03    0.6584649638E-05    0.6851377233E+00    0.2100669344E-03    0.4202412493E-02
    0.2100000000E+03    0.1702130877E-03    0.7190126283E-05    0.6861531852E+00    0.2311589347E-03    0.4199633342E-02
    0.2300000000E+03    0.1845385616E-03    0.7800889703E-05    0.6869943268E+00    0.2523785965E-03    0.4196814857E-02
    0.2500000000E+03    0.1989918615E-03    0.8416998428E-05    0.6877024866E+00    0.2737379874E-03    0.4193961261E-02
    0.2700000000E+03    0.2135749930E-03    0.9038552337E-05    0.6883068895E+00    0.2952481996E-03    0.4191075300E-02
    0.2900000000E+03    0.2282906238E-03    0.9665676676E-05    0.6888287816E+00    0.3169194833E-03    0.4188158755E-02
    0.3100000000E+03    0.2431418430E-03    0.1029851247E-04    0.6892839788E+00    0.3387613780E-03    0.4185212748E-02
    0.3300000000E+03    0.2581320123E-03    0.1093721069E-04    0.6896844975E+00    0.3607828290E-03    0.4182237943E-02
    0.3500000000E+03    0.2732646729E-03    0.1158192861E-04    0.6900396310E+00    0.3829922895E-03    0.4179234682E-02
    0.3700000000E+03    0.2885434865E-03    0.1223282763E-04    0.6903566796E+00    0.4053978062E-03    0.4176203066E-02
    0.3900000000E+03    0.3039721992E-03    0.1289007186E-04    0.6906414573E+00    0.4280070916E-03    0.4173143024E-02
    0.4100000000E+03    0.3195546176E-03    0.1355382736E-04    0.6908986524E+00    0.4508275860E-03    0.4170054353E-02
    0.4300000000E+03    0.3352945963E-03    0.1422426162E-04    0.6911320866E+00    0.4738665086E-03    0.4166936746E-02
    0.4500000000E+03    0.3511960292E-03    0.1490154340E-04    0.6913449070E+00    0.4971309018E-03    0.4163789822E-02
    0.4700000000E+03    0.3672628463E-03    0.1558584258E-04    0.6915397283E+00    0.5206276690E-03    0.4160613133E-02
    0.4900000000E+03    0.3834990129E-03    0.1627733024E-04    0.6917187411E+00    0.5443636063E-03    0.4157406183E-02
    0.1000000000E+03    0.9381155124E-04    0.3929749446E-05    0.6756885370E+00    0.1163624472E-03    0.4214124802E-02
    0.3000000000E+03    0.2356990798E-03    0.9981371389E-05    0.6890638917E+00    0.3278185325E-03    0.4186689384E-02
    0.5000000000E+03    0.3916818510E-03    0.1662582354E-04    0.6918029085E+00    0.5563233655E-03    0.4155791194E-02
    0.7000000000E+03    0.5652355307E-03    0.2401629539E-04    0.6929833421E+00    0.8097071669E-03    0.4121753907E-02
    0.9000000000E+03    0.7606824599E-03    0.3233803401E-04    0.6936407812E+00    0.1094807586E-02    0.4083907674E-02
    0.1100000000E+04    0.9831264184E-03    0.4180882696E-04    0.6940597223E+00    0.1419276750E-02    0.4041386023E-02
    0.1300000000E+04    0.1238881222E-02    0.5269777019E-04    0.6943499926E+00    0.1792452689E-02    0.3993115394E-02
    0.1500000000E+04    0.1535984860E-02    0.6534730817E-04    0.6945629619E+00    0.2226176157E-02    0.3937743463E-02
    0.1700000000E+04    0.1884875976E-02    0.8020210320E-04    0.6947258680E+00    0.2735808745E-02    0.3873536166E-02
    0.1900000000E+04    0.2299328838E-02    0.9784889158E-04    0.6948544981E+00    0.3341622608E-02    0.3798236110E-02
    0.2100000000E+04    0.2797767945E-02    0.1190725099E-03    0.6949586335E+00    0.4070750189E-02    0.3708868127E-02
    0.2300000000E+04    0.3405111771E-02    0.1449344731E-03    0.6950446573E+00    0.4959921400E-02    0.3601475869E-02
    0.2500000000E+04    0.4155292158E-02    0.1768803656E-03    0.6951169126E+00    0.6059214376E-02    0.3470780511E-02
    0.2700000000E+04    0.5094456613E-02    0.2168763864E-03    0.6951784568E+00    0.7436848910E-02    0.3309787557E-02
    0.2900000000E+04    0.6284292539E-02    0.2675512115E-03    0.6952315044E+00    0.9184229629E-02    0.3109479915E-02
    0.3100000000E+04    0.7803203789E-02    0.3322465920E-03    0.6952776993E+00    0.1141795045E-01    0.2859034975E-02
    0.3300000000E+04    0.9738930556E-02    0.4147037895E-03    0.6953182869E+00    0.1426938216E-01    0.2547660517E-02
    0.3500000000E+04    0.1215921228E-01    0.5178149770E-03    0.6953542282E+00    0.1784207360E-01    0.2170085613E-02
    0.3700000000E+04    0.1504572864E-01    0.6408098969E-03    0.6953862765E+00    0.2211478897E-01    0.1737324796E-02
    0.3900000000E+04    0.1821152116E-01    0.7757363469E-03    0.6954150306E+00    0.2681880415E-01    0.1287777942E-02
    0.4100000000E+04    0.2130489382E-01    0.9076205661E-03    0.6954409728E+00    0.3144039017E-01    0.8814445117E-03
    0.4300000000E+04    0.2398431452E-01    0.1021912148E-02    0.6954644953E+00    0.3547536432E-01    0.5680112005E-03
    0.4500000000E+04    0.2611116289E-01    0.1112696470E-02    0.6954859210E+00    0.3871405789E-01    0.3589107332E-03
    0.4700000000E+04    0.2774985725E-01    0.1182707042E-02    0.6955055174E+00    0.4124542499E-01    0.2338104128E-03
    0.4900000000E+04    0.2904190571E-01    0.1237964647E-02    0.6955235088E+00    0.4327391320E-01    0.1639933378E-03
    0.1000000000E+04    0.8681690004E-03    0.3691441693E-04    0.6938711467E+00    0.1251585986E-02    0.4063292831E-02
    0.3000000000E+04    0.6997155556E-02    0.2979136471E-03    0.6952553728E+00    0.1023215535E-01    0.2991240194E-02
    0.5000000000E+04    0.2959905206E-01    0.1261811219E-02    0.6955319628E+00    0.4415944747E-01    0.1423106044E-03
    0.7000000000E+04    0.3727649089E-01    0.1591489395E-02    0.6956501376E+00    0.5698857514E-01    0.8643973804E-04
    0.9000000000E+04    0.4301472911E-01    0.1839065067E-02    0.6957155549E+00    0.6727821562E-01    0.8755550174E-04
    0.1100000000E+05    0.4761705516E-01    0.2038530968E-02    0.6957570236E+00    0.7608601290E-01    0.8853973516E-04
    0.1300000000E+05    0.5136234957E-01    0.2201622038E-02    0.6957856170E+00    0.8374011930E-01    0.8936735918E-04
    0.1500000000E+05    0.5444652608E-01    0.2336592789E-02    0.6958064979E+00    0.9047565620E-01    0.9008221727E-04
    0.1700000000E+05    0.5701138165E-01    0.2449425788E-02    0.6958223973E+00    0.9646635531E-01    0.9071199541E-04
    0.1900000000E+05    0.5916190844E-01    0.2544556939E-02    0.6958348945E+00    0.1018435483E+00    0.9127523035E-04
    0.2100000000E+05    0.6097738875E-01    0.2625340644E-02    0.6958449660E+00    0.1067084875E+00    0.9178495414E-04
    0.2300000000E+05    0.6251872462E-01    0.2694357349E-02    0.6958532482E+00    0.1111405868E+00    0.9225068489E-04
    0.2500000000E+05    0.6383340884E-01    0.2753622273E-02    0.6958601731E+00    0.1152030796E+00    0.9267959032E-04
    0.2700000000E+05    0.6495897488E-01    0.2804730399E-02    0.6958660445E+00    0.1189469951E+00    0.9307720551E-04
    0.2900000000E+05    0.6592544069E-01    0.2848959251E-02    0.6958710820E+00    0.1224140090E+00    0.9344789554E-04
    0.3100000000E+05    0.6675707146E-01    0.2887343097E-02    0.6958754485E+00    0.1256385256E+00    0.9379516473E-04
    0.3300000000E+05    0.6747367218E-01    0.2920727396E-02    0.6958792670E+00    0.1286492238E+00    0.9412186983E-04
    0.3500000000E+05    0.6809154937E-01    0.2949809353E-02    0.6958826325E+00    0.1314702209E+00    0.9443037090E-04
    0.3700000000E+05    0.6862423639E-01    0.2975168520E-02    0.6958856192E+00    0.1341219620E+00    0.9472264059E-04
    0.3900000000E+05    0.6908304713E-01    0.2997290185E-02    0.6958882861E+00    0.1366219067E+00    0.9500034486E-04
    0.4100000000E+05    0.6947750329E-01    0.3016583432E-02    0.6958906806E+00    0.1389850663E+00    0.9526490366E-04
    0.4300000000E+05    0.6981566776E-01    0.3033395242E-02    0.6958928412E+00    0.1412244273E+00    0.9551753726E-04
    0.4500000000E+05    0.7010440690E-01    0.3048021603E-02    0.6958947996E+00    0.1433512895E+00    0.9575930222E-04
    0.4700000000E+05    0.7034959893E-01    0.3060716343E-02    0.6958965819E+00    0.1453755377E+00    0.9599111946E-04
    0.4900000000E+05    0.7055630074E-01    0.3071698199E-02    0.6958982101E+00    0.1473058616E+00    0.9621379667E-04
    0.1000000000E+05    0.4543804313E-01    0.1943977309E-02    0.6957383829E+00    0.7184414065E-01    0.8807084373E-04
    0.3000000000E+05    0.6635678073E-01    0.2868825065E-02    0.6958733407E+00    0.1240546680E+00    0.9362426603E-04
    0.5000000000E+05    0.7064660715E-01    0.3076606987E-02    0.6958989723E+00    0.1482382358E+00    0.9632193367E-04
    0.7000000000E+05    0.7123096025E-01    0.3119597168E-02    0.6959093718E+00    0.1634185184E+00    0.9814077487E-04
    0.9000000000E+05    0.7061623891E-01    0.3107004851E-02    0.6959148181E+00    0.1743100755E+00    0.9952152419E-04
    0.1100000000E+06    0.6956037920E-01    0.3072590364E-02    0.6959180698E+00    0.1827289896E+00    0.1006379066E-03
    0.1300000000E+06    0.6834739981E-01    0.3029348807E-02    0.6959201707E+00    0.1895510913E+00    0.1015767852E-03
    0.1500000000E+06    0.6709702695E-01    0.2982952465E-02    0.6959215998E+00    0.1952616082E+00    0.1023879847E-03
    0.1700000000E+06    0.6586278636E-01    0.2936063818E-02    0.6959226066E+00    0.2001560233E+00    0.1031027975E-03
    0.1900000000E+06    0.6466876685E-01    0.2889974728E-02    0.6959233328E+00    0.2044270545E+00    0.1037421909E-03
    0.2100000000E+06    0.6352509031E-01    0.2845307143E-02    0.6959238648E+00    0.2082071102E+00    0.1043209149E-03
    0.2300000000E+06    0.6243498753E-01    0.2802339451E-02    0.6959242577E+00    0.2115909511E+00    0.1048497475E-03
    0.2500000000E+06    0.6139823858E-01    0.2761168571E-02    0.6959245484E+00    0.2146486580E+00    0.1053368084E-03
    0.2700000000E+06    0.6041292113E-01    0.2721794477E-02    0.6959247623E+00    0.2174334757E+00    0.1057883697E-03
    0.2900000000E+06    0.5947632598E-01    0.2684165892E-02    0.6959249175E+00    0.2199867793E+00    0.1062093790E-03
    0.3100000000E+06    0.5858544446E-01    0.2648205646E-02    0.6959250272E+00    0.2223413405E+00    0.1066038093E-03
    0.3300000000E+06    0.5773722811E-01    0.2613824963E-02    0.6959251010E+00    0.2245235453E+00    0.1069749000E-03
    0.3500000000E+06    0.5692872436E-01    0.2580931550E-02    0.6959251463E+00    0.2265549428E+00    0.1073253276E-03
    0.3700000000E+06    0.5615714345E-01    0.2549434139E-02    0.6959251687E+00    0.2284533526E+00    0.1076573298E-03
    0.3900000000E+06    0.5541988707E-01    0.2519244960E-02    0.6959251726E+00    0.2302336725E+00    0.1079727963E-03
    0.4100000000E+06    0.5471455571E-01    0.2490281003E-02    0.6959251615E+00    0.2319084807E+00    0.1082733383E-03
    0.4300000000E+06    0.5403894440E-01    0.2462464554E-02    0.6959251381E+00    0.2334884896E+00    0.1085603404E-03
    0.4500000000E+06    0.5339103251E-01    0.2435723327E-02    0.6959251046E+00    0.2349828953E+00    0.1088350014E-03
    0.4700000000E+06    0.5276897072E-01    0.2409990342E-02    0.6959250628E+00    0.2363996480E+00    0.1090983666E-03
    0.4900000000E+06    0.5217106708E-01    0.2385203675E-02    0.6959250140E+00    0.2377456663E+00    0.1093513526E-03
    0.1000000000E+06    0.7011992425E-01    0.3091457340E-02    0.6959166331E+00    0.1787609971E+00    0.1001061245E-03
    0.3000000000E+06    0.5902536264E-01    0.2665982620E-02    0.6959249774E+00    0.2211871247E+00    0.1064096992E-03
    0.5000000000E+06    0.5188068542E-01    0.2373147168E-02    0.6959249875E+00    0.2383940723E+00    0.1094742099E-03
    0.7000000000E+06    0.4702868359E-01    0.2169993546E-02    0.6959242939E+00    0.2487888785E+00    0.1115407756E-03
    0.9000000000E+06    0.4344229693E-01    0.2017874990E-02    0.6959235174E+00    0.2560433298E+00    0.1131097128E-03
    0.1100000000E+07    0.4064009716E-01    0.1897907174E-02    0.6959227716E+00    0.2615156584E+00    0.1143783107E-03
    0.1300000000E+07    0.3836521236E-01    0.1799805380E-02    0.6959220793E+00    0.2658521176E+00    0.1154452340E-03
    0.1500000000E+07    0.3646620609E-01    0.1717424666E-02    0.6959214413E+00    0.2694080423E+00    0.1163670837E-03
    0.1700000000E+07    0.3484699971E-01    0.1646827720E-02    0.6959208532E+00    0.2723983845E+00    0.1171794109E-03
    0.1900000000E+07    0.3344315118E-01    0.1585353047E-02    0.6959203090E+00    0.2749623616E+00    0.1179060380E-03
    0.2100000000E+07    0.3220951910E-01    0.1531124270E-02    0.6959198035E+00    0.2771949009E+00    0.1185637239E-03
    0.2300000000E+07    0.3111336111E-01    0.1482772955E-02    0.6959193319E+00    0.2791633896E+00    0.1191647153E-03
    0.2500000000E+07    0.3013024013E-01    0.1439272931E-02    0.6959188902E+00    0.2809172411E+00    0.1197182381E-03
    0.2700000000E+07    0.2924147764E-01    0.1399836559E-02    0.6959184749E+00    0.2824936694E+00    0.1202314195E-03
    0.2900000000E+07    0.2843250533E-01    0.1363847219E-02    0.6959180830E+00    0.2839213356E+00    0.1207098817E-03
    0.3100000000E+07    0.2769176176E-01    0.1330813902E-02    0.6959177122E+00    0.2852227380E+00    0.1211581391E-03
    0.3300000000E+07    0.2700993263E-01    0.1300339814E-02    0.6959173602E+00    0.2864158297E+00    0.1215798729E-03
    0.3500000000E+07    0.2637941433E-01    0.1272100120E-02    0.6959170253E+00    0.2875151431E+00    0.1219781247E-03
    0.3700000000E+07    0.2579392698E-01    0.1245825832E-02    0.6959167058E+00    0.2885325904E+00    0.1223554372E-03
    0.3900000000E+07    0.2524822988E-01    0.1221291926E-02    0.6959164005E+00    0.2894780456E+00    0.1227139579E-03
    0.4100000000E+07    0.2473790867E-01    0.1198308430E-02    0.6959161080E+00    0.2903597747E+00    0.1230555178E-03
    0.4300000000E+07    0.2425921383E-01    0.1176713636E-02    0.6959158273E+00    0.2911847600E+00    0.1233816903E-03
    0.4500000000E+07    0.2380893618E-01    0.1156368866E-02    0.6959155575E+00    0.2919589469E+00    0.1236938378E-03
    0.4700000000E+07    0.2338431008E-01    0.1137154378E-02    0.6959152978E+00    0.2926874353E+00    0.1239931481E-03
    0.4900000000E+07    0.2298293695E-01    0.1118966137E-02    0.6959150475E+00    0.2933746290E+00    0.1242806629E-03
    0.1000000000E+07    0.4196258556E-01    0.1954645927E-02    0.6959231384E+00    0.2589522468E+00    0.1137740160E-03
    0.3000000000E+07    0.2805423260E-01    0.1346987768E-02    0.6959178951E+00    0.2845866063E+00    0.1209375390E-03
    0.5000000000E+07    0.2279030585E-01    0.1110227999E-02    0.6959149256E+00    0.2937039559E+00    0.1244202884E-03
    0.7000000000E+07    0.1976727931E-01    0.9722970768E-03    0.6959128490E+00    0.2988331763E+00    0.1267689186E-03
    0.9000000000E+07    0.1773143750E-01    0.8785037646E-03    0.6959112458E+00    0.3022483735E+00    0.1285520062E-03
    0.1100000000E+08    0.1623619372E-01    0.8091085912E-03    0.6959099368E+00    0.3047380205E+00    0.1299937626E-03
    0.1300000000E+08    0.1507588313E-01    0.7549382700E-03    0.6959088288E+00    0.3066595990E+00    0.1312063179E-03
    0.1500000000E+08    0.1414046952E-01    0.7110505300E-03    0.6959078671E+00    0.3082023516E+00    0.1322539982E-03
    0.1700000000E+08    0.1336490507E-01    0.6745071202E-03    0.6959070168E+00    0.3094772746E+00    0.1331772067E-03
    0.1900000000E+08    0.1270788228E-01    0.6434331899E-03    0.6959062542E+00    0.3105544249E+00    0.1340030173E-03
    0.2100000000E+08    0.1214171188E-01    0.6165667579E-03    0.6959055625E+00    0.3114805320E+00    0.1347504765E-03
    0.2300000000E+08    0.1164702979E-01    0.5930220403E-03    0.6959049293E+00    0.3122881415E+00    0.1354335023E-03
    0.2500000000E+08    0.1120982382E-01    0.5721559652E-03    0.6959043453E+00    0.3130007224E+00    0.1360625803E-03
    0.2700000000E+08    0.1081966543E-01    0.5534885077E-03    0.6959038032E+00    0.3136356894E+00    0.1366458104E-03
