  Pressure (Pa) 22mC5-500 (mol/kg) 23mC5-500 (mol/kg) 24mC5-500 (mol/kg) 2mC6-500 (mol/kg) C7-500 (mol/kg)
    0.1000000000E+01    0.1792323488E-04    0.4417525329E-05    0.6965116699E-01    0.1363537592E-04    0.4147897681E-02
    0.3000000000E+01    0.4288226676E-04    0.1054913873E-04    0.1740879632E+00    0.3151427079E-04    0.4179227598E-02
    0.5000000000E+01    0.5942021290E-04    0.1459734627E-04    0.2486579551E+00    0.4269241212E-04    0.4191998556E-02
    0.7000000000E+01    0.7101571573E-04    0.1742645213E-04    0.3045715204E+00    0.5018415973E-04    0.4200333842E-02
    0.9000000000E+01    0.7950459226E-04    0.1949159984E-04    0.3480523756E+00    0.5550774542E-04    0.4206415367E-02
    0.1100000000E+02    0.8594311875E-04    0.2105413450E-04    0.3828328655E+00    0.5949867361E-04    0.4211089020E-02
    0.1300000000E+02    0.9097690654E-04    0.2227346279E-04    0.4112872067E+00    0.6264446310E-04    0.4214796582E-02
    0.1500000000E+02    0.9501943470E-04    0.2325145710E-04    0.4349977366E+00    0.6524242961E-04    0.4217803411E-02
    0.1700000000E+02    0.9834563153E-04    0.2405570327E-04    0.4550596594E+00    0.6748028415E-04    0.4220282307E-02
    0.1900000000E+02    0.1011440216E-03    0.2473243952E-04    0.4722551144E+00    0.6947986097E-04    0.4222351999E-02
    0.2100000000E+02    0.1035472552E-03    0.2531412217E-04    0.4871575812E+00    0.7132201163E-04    0.4224097319E-02
    0.2300000000E+02    0.1056507300E-03    0.2582403456E-04    0.5001971146E+00    0.7306135050E-04    0.4225580746E-02
    0.2500000000E+02    0.1075243497E-03    0.2627919349E-04    0.5117025454E+00    0.7473528484E-04    0.4226849434E-02
    0.2700000000E+02    0.1092201728E-03    0.2669223742E-04    0.5219296083E+00    0.7636970429E-04    0.4227939708E-02
    0.2900000000E+02    0.1107775194E-03    0.2707268506E-04    0.5310801846E+00    0.7798265422E-04    0.4228880036E-02
    0.3100000000E+02    0.1122264566E-03    0.2742779356E-04    0.5393157693E+00    0.7958675839E-04    0.4229693069E-02
    0.3300000000E+02    0.1135902271E-03    0.2776315534E-04    0.5467670899E+00    0.8119084657E-04    0.4230397066E-02
    0.3500000000E+02    0.1148869711E-03    0.2808312069E-04    0.5535411005E+00    0.8280106605E-04    0.4231006920E-02
    0.3700000000E+02    0.1161309667E-03    0.2839110170E-04    0.5597261514E+00    0.8442165155E-04    0.4231534901E-02
    0.3900000000E+02    0.1173335363E-03    0.2868979410E-04    0.5653958657E+00    0.8605546523E-04    0.4231991217E-02
    0.4100000000E+02    0.1185037179E-03    0.2898134113E-04    0.5706120852E+00    0.8770437976E-04    0.4232384431E-02
    0.4300000000E+02    0.1196487677E-03    0.2926745622E-04    0.5754271365E+00    0.8936955257E-04    0.4232721780E-02
    0.4500000000E+02    0.1207745407E-03    0.2954951563E-04    0.5798855936E+00    0.9105162385E-04    0.4233009425E-02
    0.4700000000E+02    0.1218857825E-03    0.2982862921E-04    0.5840256618E+00    0.9275086060E-04    0.4233252645E-02
    0.4900000000E+02    0.1229863530E-03    0.3010569491E-04    0.5878802768E+00    0.9446726197E-04    0.4233455989E-02
    0.1000000000E+02    0.8293283887E-04    0.2032400484E-04    0.3663583299E+00    0.5763353948E-04    0.4208894905E-02
    0.3000000000E+02    0.1115139496E-03    0.2725302380E-04    0.5353035518E+00    0.7878518628E-04    0.4229301233E-02
    0.5000000000E+02    0.1235336445E-03    0.3024369308E-04    0.5897096105E+00    0.9533184537E-04    0.4233543960E-02
    0.7000000000E+02    0.1344345603E-03    0.3301381595E-04    0.6165730505E+00    0.1134297567E-03    0.4233937054E-02
    0.9000000000E+02    0.1457628071E-03    0.3591447508E-04    0.6325854462E+00    0.1327259708E-03    0.4232789233E-02
    0.1100000000E+03    0.1576831570E-03    0.3897434703E-04    0.6432172591E+00    0.1528370928E-03    0.4230860351E-02
    0.1300000000E+03    0.1701494294E-03    0.4217656558E-04    0.6507906675E+00    0.1735344673E-03    0.4228474553E-02
    0.1500000000E+03    0.1830911795E-03    0.4550098663E-04    0.6564595649E+00    0.1946864403E-03    0.4225793317E-02
    0.1700000000E+03    0.1964476858E-03    0.4893113440E-04    0.6608621980E+00    0.2162161354E-03    0.4222905879E-02
    0.1900000000E+03    0.2101719757E-03    0.5245457405E-04    0.6643802663E+00    0.2380780628E-03    0.4219865337E-02
    0.2100000000E+03    0.2242288591E-03    0.5606213209E-04    0.6672560562E+00    0.2602453358E-03    0.4216705065E-02
    0.2300000000E+03    0.2385922594E-03    0.5974708719E-04    0.6696507675E+00    0.2827024872E-03    0.4213446923E-02
    0.2500000000E+03    0.2532429590E-03    0.6350453238E-04    0.6716758167E+00    0.3054412924E-03    0.4210105686E-02
    0.2700000000E+03    0.2681668888E-03    0.6733090636E-04    0.6734106790E+00    0.3284582565E-03    0.4206691572E-02
    0.2900000000E+03    0.2833538695E-03    0.7122365572E-04    0.6749135689E+00    0.3517530574E-03    0.4203211769E-02
    0.3100000000E+03    0.2987966932E-03    0.7518099141E-04    0.6762281047E+00    0.3753275550E-03    0.4199671374E-02
    0.3300000000E+03    0.3144904506E-03    0.7920171222E-04    0.6773876135E+00    0.3991851463E-03    0.4196074018E-02
    0.3500000000E+03    0.3304320342E-03    0.8328507551E-04    0.6784179970E+00    0.4233303376E-03    0.4192422267E-02
    0.3700000000E+03    0.3466197685E-03    0.8743070154E-04    0.6793396908E+00    0.4477684552E-03    0.4188717903E-02
    0.3900000000E+03    0.3630531319E-03    0.9163850194E-04    0.6801690340E+00    0.4725054491E-03    0.4184962123E-02
    0.4100000000E+03    0.3797325461E-03    0.9590862571E-04    0.6809192467E+00    0.4975477561E-03    0.4181155672E-02
    0.4300000000E+03    0.3966592141E-03    0.1002414181E-03    0.6816011405E+00    0.5229022062E-03    0.4177298944E-02
    0.4500000000E+03    0.4138349962E-03    0.1046373888E-03    0.6822236430E+00    0.5485759561E-03    0.4173392061E-02
    0.4700000000E+03    0.4312623125E-03    0.1090971878E-03    0.6827941910E+00    0.5745764445E-03    0.4169434920E-02
    0.4900000000E+03    0.4489440682E-03    0.1136215861E-03    0.6833190295E+00    0.6009113604E-03    0.4165427240E-02
    0.1000000000E+03    0.1516504377E-03    0.3742530383E-04    0.6383888482E+00    0.1426968970E-03    0.4231896616E-02
    0.3000000000E+03    0.2910436551E-03    0.7319433742E-04    0.6755920959E+00    0.3635051620E-03    0.4201448890E-02
    0.5000000000E+03    0.4578813863E-03    0.1159082802E-03    0.6835659908E+00    0.6142066946E-03    0.4163404319E-02
    0.7000000000E+03    0.6509989810E-03    0.1652977346E-03    0.6870429526E+00    0.8997363535E-03    0.4120127222E-02
    0.9000000000E+03    0.8754010655E-03    0.2226585199E-03    0.6889905948E+00    0.1229292390E-02    0.4070741347E-02
    0.1100000000E+04    0.1138642573E-02    0.2899287057E-03    0.6902360959E+00    0.1614659658E-02    0.4013786256E-02
    0.1300000000E+04    0.1451016629E-02    0.3697422800E-03    0.6911011938E+00    0.2071261488E-02    0.3947294038E-02
    0.1500000000E+04    0.1826494594E-02    0.4656714505E-03    0.6917370917E+00    0.2619767601E-02    0.3868640278E-02
    0.1700000000E+04    0.2284242900E-02    0.5826151969E-03    0.6922242293E+00    0.3288413588E-02    0.3774290118E-02
    0.1900000000E+04    0.2850874756E-02    0.7273752837E-03    0.6926093448E+00    0.4116364587E-02    0.3659432118E-02
    0.2100000000E+04    0.3563668362E-02    0.9094793180E-03    0.6929214520E+00    0.5158504047E-02    0.3517482897E-02
    0.2300000000E+04    0.4474833674E-02    0.1142272182E-02    0.6931795151E+00    0.6491803664E-02    0.3339494709E-02
    0.2500000000E+04    0.5656071903E-02    0.1444083282E-02    0.6933964529E+00    0.8222218719E-02    0.3113691324E-02
    0.2700000000E+04    0.7199832611E-02    0.1838551855E-02    0.6935813705E+00    0.1048691689E-01    0.2825925062E-02
    0.2900000000E+04    0.9206343329E-02    0.2351319549E-02    0.6937408696E+00    0.1343588982E-01    0.2463149423E-02
    0.3100000000E+04    0.1173383858E-01    0.2997320735E-02    0.6938798537E+00    0.1715967722E-01    0.2023639950E-02
    0.3300000000E+04    0.1469644498E-01    0.3754688625E-02    0.6940020413E+00    0.2153943561E-01    0.1534884650E-02
    0.3500000000E+04    0.1778161141E-01    0.4543627568E-02    0.6941103032E+00    0.2612304600E-01    0.1062939616E-02
    0.3700000000E+04    0.2056627945E-01    0.5256047705E-02    0.6942068913E+00    0.3029089714E-01    0.6828831523E-03
    0.3900000000E+04    0.2279838341E-01    0.5827485247E-02    0.6942935968E+00    0.3366800444E-01    0.4274504301E-03
    0.4100000000E+04    0.2449754331E-01    0.6262880123E-02    0.6943718621E+00    0.3627628065E-01    0.2784045784E-03
    0.4300000000E+04    0.2581524447E-01    0.6600889483E-02    0.6944428620E+00    0.3833322837E-01    0.1989498305E-03
    0.4500000000E+04    0.2689712285E-01    0.6878702015E-02    0.6945075631E+00    0.4005022549E-01    0.1586637834E-03
    0.4700000000E+04    0.2784045176E-01    0.7121163594E-02    0.6945667675E+00    0.4156909455E-01    0.1387639405E-03
    0.4900000000E+04    0.2870113868E-01    0.7342556206E-02    0.6946211470E+00    0.4297153144E-01    0.1290845770E-03
    0.1000000000E+04    0.1001596120E-02    0.2549087968E-03    0.6896750273E+00    0.1414136977E-02    0.4043319856E-02
    0.3000000000E+04    0.1040550063E-01    0.2657797690E-02    0.6938126705E+00    0.1520129933E-01    0.2252182182E-02
    0.5000000000E+04    0.2911056315E-01    0.7447924611E-02    0.6946467078E+00    0.4364381182E-01    0.1263380611E-03
    0.7000000000E+04    0.3597068838E-01    0.9217921177E-02    0.6950047005E+00    0.5535203960E-01    0.1217764122E-03
    0.9000000000E+04    0.4126864562E-01    0.1059139319E-01    0.6952036368E+00    0.6505414363E-01    0.1235012791E-03
    0.1100000000E+05    0.4547096688E-01    0.1168620173E-01    0.6953301951E+00    0.7330801212E-01    0.1248991317E-03
    0.1300000000E+05    0.4885841617E-01    0.1257328038E-01    0.6954177582E+00    0.8044756039E-01    0.1260728779E-03
    0.1500000000E+05    0.5162516444E-01    0.1330175687E-01    0.6954819181E+00    0.8670890719E-01    0.1270858810E-03
    0.1700000000E+05    0.5390956015E-01    0.1390668720E-01    0.6955309333E+00    0.9226408652E-01    0.1279777899E-03
    0.1900000000E+05    0.5581267600E-01    0.1441372087E-01    0.6955695869E+00    0.9724162024E-01    0.1287750949E-03
    0.2100000000E+05    0.5740995356E-01    0.1484203232E-01    0.6956008405E+00    0.1017396079E+00    0.1294963907E-03
    0.2300000000E+05    0.5875875984E-01    0.1520622487E-01    0.6956266257E+00    0.1058343356E+00    0.1301552410E-03
    0.2500000000E+05    0.5990343301E-01    0.1551760308E-01    0.6956482562E+00    0.1095861008E+00    0.1307618500E-03
    0.2700000000E+05    0.6087873665E-01    0.1578504460E-01    0.6956666564E+00    0.1130432543E+00    0.1313240912E-03
    0.2900000000E+05    0.6171227700E-01    0.1601561078E-01    0.6956824955E+00    0.1162450663E+00    0.1318481694E-03
    0.3100000000E+05    0.6242622791E-01    0.1621498279E-01    0.6956962702E+00    0.1192237983E+00    0.1323390630E-03
    0.3300000000E+05    0.6303858334E-01    0.1638777863E-01    0.6957083566E+00    0.1220062292E+00    0.1328008285E-03
    0.3500000000E+05    0.6356408124E-01    0.1653778706E-01    0.6957190447E+00    0.1246147946E+00    0.1332368153E-03
    0.3700000000E+05    0.6401489473E-01    0.1666814291E-01    0.6957285620E+00    0.1270684512E+00    0.1336498224E-03
    0.3900000000E+05    0.6440115593E-01    0.1678145997E-01    0.6957370890E+00    0.1293833406E+00    0.1340422124E-03
    0.4100000000E+05    0.6473135757E-01    0.1687993302E-01    0.6957447712E+00    0.1315733050E+00    0.1344159987E-03
    0.4300000000E+05    0.6501266436E-01    0.1696541695E-01    0.6957517269E+00    0.1336502925E+00    0.1347729109E-03
    0.4500000000E+05    0.6525115668E-01    0.1703948882E-01    0.6957580533E+00    0.1356246783E+00    0.1351144463E-03
    0.4700000000E+05    0.6545202310E-01    0.1710349689E-01    0.6957638311E+00    0.1375055221E+00    0.1354419098E-03
    0.4900000000E+05    0.6561971379E-01    0.1715859971E-01    0.6957691278E+00    0.1393007756E+00    0.1357564454E-03
    0.1000000000E+05    0.4348670304E-01    0.1116856525E-01    0.6952732515E+00    0.6933842182E-01    0.1242335971E-03
    0.3000000000E+05    0.6208299071E-01    0.1611888559E-01    0.6956896151E+00    0.1177605300E+00    0.1320974920E-03
    0.5000000000E+05    0.6569233781E-01    0.1718312971E-01    0.6957716138E+00    0.1401685303E+00    0.1359091852E-03
    0.7000000000E+05    0.6610099188E-01    0.1738892967E-01    0.6958061131E+00    0.1543649961E+00    0.1384777580E-03
    0.9000000000E+05    0.6549660392E-01    0.1731029716E-01    0.6958248954E+00    0.1646488251E+00    0.1404271788E-03
    0.1100000000E+06    0.6452740844E-01    0.1712146710E-01    0.6958365919E+00    0.1726670093E+00    0.1420031307E-03
    0.1300000000E+06    0.6343300938E-01    0.1688877203E-01    0.6958445063E+00    0.1792141081E+00    0.1433283879E-03
    0.1500000000E+06    0.6231320055E-01    0.1664092964E-01    0.6958501723E+00    0.1847314387E+00    0.1444733499E-03
    0.1700000000E+06    0.6121199572E-01    0.1639131978E-01    0.6958543975E+00    0.1894886652E+00    0.1454822208E-03
    0.1900000000E+06    0.6014881913E-01    0.1614638043E-01    0.6958576467E+00    0.1936623280E+00    0.1463846145E-03
    0.2100000000E+06    0.5913152894E-01    0.1590917454E-01    0.6958602060E+00    0.1973741863E+00    0.1472013610E-03
    0.2300000000E+06    0.5816233350E-01    0.1568104296E-01    0.6958622608E+00    0.2007117103E+00    0.1479476795E-03
    0.2500000000E+06    0.5724064899E-01    0.1546242200E-01    0.6958639362E+00    0.2037398272E+00    0.1486350346E-03
    0.2700000000E+06    0.5636454159E-01    0.1525326801E-01    0.6958653200E+00    0.2065080411E+00    0.1492722816E-03
    0.2900000000E+06    0.5553147673E-01    0.1505328609E-01    0.6958664752E+00    0.2090549512E+00    0.1498664056E-03
    0.3100000000E+06    0.5473871404E-01    0.1486205645E-01    0.6958674480E+00    0.2114112297E+00    0.1504230152E-03
    0.3300000000E+06    0.5398351496E-01    0.1467910526E-01    0.6958682736E+00    0.2136016491E+00    0.1509466833E-03
    0.3500000000E+06    0.5326324898E-01    0.1450394455E-01    0.6958689786E+00    0.2156465007E+00    0.1514411882E-03
    0.3700000000E+06    0.5257544411E-01    0.1433609441E-01    0.6958695838E+00    0.2175626114E+00    0.1519096885E-03
    0.3900000000E+06    0.5191780667E-01    0.1417509493E-01    0.6958701057E+00    0.2193640878E+00    0.1523548518E-03
    0.4100000000E+06    0.5128822413E-01    0.1402051213E-01    0.6958705574E+00    0.2210628705E+00    0.1527789520E-03
    0.4300000000E+06    0.5068475908E-01    0.1387194039E-01    0.6958709495E+00    0.2226691546E+00    0.1531839435E-03
    0.4500000000E+06    0.5010563865E-01    0.1372900279E-01    0.6958712906E+00    0.2241917128E+00    0.1535715185E-03
    0.4700000000E+06    0.4954924203E-01    0.1359135036E-01    0.6958715879E+00    0.2256381472E+00    0.1539431523E-03
    0.4900000000E+06    0.4901408751E-01    0.1345866063E-01    0.6958718473E+00    0.2270150875E+00    0.1543001385E-03
    0.1000000000E+06    0.6503769868E-01    0.1722419279E-01    0.6958313606E+00    0.1688798156E+00    0.1412524567E-03
    0.3000000000E+06    0.5513023042E-01    0.1495660616E-01    0.6958669820E+00    0.2102552518E+00    0.1501490928E-03
    0.5000000000E+06    0.4875404790E-01    0.1339408282E-01    0.6958719644E+00    0.2276793430E+00    0.1544735007E-03
    0.7000000000E+06    0.4439493882E-01    0.1230212765E-01    0.6958731746E+00    0.2384152264E+00    0.1573895613E-03
    0.9000000000E+06    0.4115380362E-01    0.1147934868E-01    0.6958733224E+00    0.2460088120E+00    0.1596033917E-03
    0.1100000000E+07    0.3860875207E-01    0.1082707628E-01    0.6958730768E+00    0.2517949817E+00    0.1613934111E-03
    0.1300000000E+07    0.3653389715E-01    0.1029134148E-01    0.6958726680E+00    0.2564170742E+00    0.1628988516E-03
    0.1500000000E+07    0.3479557154E-01    0.9839760727E-02    0.6958721910E+00    0.2602324283E+00    0.1641995845E-03
    0.1700000000E+07    0.3330866677E-01    0.9451502210E-02    0.6958716893E+00    0.2634590283E+00    0.1653457760E-03
    0.1900000000E+07    0.3201590879E-01    0.9112433220E-02    0.6958711841E+00    0.2662390669E+00    0.1663710414E-03
    0.2100000000E+07    0.3087705437E-01    0.8812557110E-02    0.6958706860E+00    0.2686701028E+00    0.1672990289E-03
    0.2300000000E+07    0.2986283145E-01    0.8544561307E-02    0.6958702005E+00    0.2708217710E+00    0.1681470190E-03
    0.2500000000E+07    0.2895133606E-01    0.8302946991E-02    0.6958697300E+00    0.2727453831E+00    0.1689280302E-03
    0.2700000000E+07    0.2812578551E-01    0.8083482729E-02    0.6958692754E+00    0.2744797531E+00    0.1696521191E-03
    0.2900000000E+07    0.2737306078E-01    0.7882848000E-02    0.6958688371E+00    0.2760548943E+00    0.1703272189E-03
    0.3100000000E+07    0.2668272893E-01    0.7698392905E-02    0.6958684145E+00    0.2774944532E+00    0.1709596996E-03
    0.3300000000E+07    0.2604636841E-01    0.7527971604E-02    0.6958680072E+00    0.2788173627E+00    0.1715547555E-03
    0.3500000000E+07    0.2545709182E-01    0.7369824034E-02    0.6958676144E+00    0.2800389963E+00    0.1721166781E-03
    0.3700000000E+07    0.2490920108E-01    0.7222490109E-02    0.6958672354E+00    0.2811719926E+00    0.1726490554E-03
    0.3900000000E+07    0.2439793329E-01    0.7084746317E-02    0.6958668695E+00    0.2822268557E+00    0.1731549178E-03
    0.4100000000E+07    0.2391927045E-01    0.6955558077E-02    0.6958665159E+00    0.2832124021E+00    0.1736368484E-03
    0.4300000000E+07    0.2346979474E-01    0.6834043408E-02    0.6958661739E+00    0.2841360964E+00    0.1740970675E-03
    0.4500000000E+07    0.2304657692E-01    0.6719444843E-02    0.6958658428E+00    0.2850043093E+00    0.1745374976E-03
    0.4700000000E+07    0.2264708923E-01    0.6611107466E-02    0.6958655221E+00    0.2858225171E+00    0.1749598144E-03
    0.4900000000E+07    0.2226913673E-01    0.6508461533E-02    0.6958652111E+00    0.2865954582E+00    0.1753654880E-03
    0.1000000000E+07    0.3981131884E-01    0.1113595379E-01    0.6958732295E+00    0.2490781925E+00    0.1605407401E-03
    0.3000000000E+07    0.2702066287E-01    0.7788742351E-02    0.6958686238E+00    0.2767903433E+00    0.1706484381E-03
    0.5000000000E+07    0.2208762754E-01    0.6459114627E-02    0.6958650590E+00    0.2869662638E+00    0.1755624948E-03
    0.7000000000E+07    0.1922890180E-01    0.5677307499E-02    0.6958624171E+00    0.2927745137E+00    0.1788763224E-03
    0.9000000000E+07    0.1729257198E-01    0.5142535599E-02    0.6958603243E+00    0.2966774490E+00    0.1813921820E-03
    0.1100000000E+08    0.1586451928E-01    0.4745197564E-02    0.6958585902E+00    0.2995414471E+00    0.1834264328E-03
    0.1300000000E+08    0.1475282706E-01    0.4434027270E-02    0.6958571082E+00    0.3017631947E+00    0.1851372882E-03
    0.1500000000E+08    0.1385432720E-01    0.4181268792E-02    0.6958558132E+00    0.3035542372E+00    0.1866155108E-03
    0.1700000000E+08    0.1310780189E-01    0.3970356651E-02    0.6958546623E+00    0.3050393765E+00    0.1879181083E-03
    0.1900000000E+08    0.1247425515E-01    0.3790686868E-02    0.6958536260E+00    0.3062977609E+00    0.1890832813E-03
    0.2100000000E+08    0.1192747859E-01    0.3635102526E-02    0.6958526832E+00    0.3073823979E+00    0.1901379037E-03
    0.2300000000E+08    0.1144910244E-01    0.3498568518E-02    0.6958518178E+00    0.3083303348E+00    0.1911016134E-03
    0.2500000000E+08    0.1102580777E-01    0.3377421979E-02    0.6958510180E+00    0.3091683685E+00    0.1919892052E-03
    0.2700000000E+08    0.1064766471E-01    0.3268923833E-02    0.6958502741E+00    0.3099164367E+00    0.1928121075E-03
