  Pressure (Pa) 22mC5-500 (mol/kg) 23mC5-500 (mol/kg) 24mC5-500 (mol/kg) 2mC6-500 (mol/kg) C7-500 (mol/kg)
    0.1000000000E+01    0.1459720264E-04    0.1197855354E-05    0.1741090159E+00    0.1092503797E-04    0.4146502410E-02
    0.3000000000E+01    0.2714151004E-04    0.2220048288E-05    0.3481289252E+00    0.1938820273E-04    0.4172046041E-02
    0.5000000000E+01    0.3258561086E-04    0.2660934321E-05    0.4351084317E+00    0.2300984167E-04    0.4179069951E-02
    0.7000000000E+01    0.3566844488E-04    0.2910507275E-05    0.4872877643E+00    0.2536885849E-04    0.4182502973E-02
    0.9000000000E+01    0.3777793459E-04    0.3082177185E-05    0.5220710739E+00    0.2735395889E-04    0.4184492256E-02
    0.1100000000E+02    0.3943654618E-04    0.3218305918E-05    0.5469151465E+00    0.2924049745E-04    0.4185737944E-02
    0.1300000000E+02    0.4087260996E-04    0.3337246087E-05    0.5655477218E+00    0.3112247860E-04    0.4186546066E-02
    0.1500000000E+02    0.4219617142E-04    0.3447754384E-05    0.5800395272E+00    0.3303183063E-04    0.4187073743E-02
    0.1700000000E+02    0.4346392740E-04    0.3554288611E-05    0.5916329006E+00    0.3497744021E-04    0.4187410526E-02
    0.1900000000E+02    0.4470643649E-04    0.3659216036E-05    0.6011183759E+00    0.3695941491E-04    0.4187611396E-02
    0.2100000000E+02    0.4594063508E-04    0.3763823623E-05    0.6090229539E+00    0.3897467197E-04    0.4187712052E-02
    0.2300000000E+02    0.4717602060E-04    0.3868814154E-05    0.6157114706E+00    0.4101920839E-04    0.4187736715E-02
    0.2500000000E+02    0.4841788279E-04    0.3974563785E-05    0.6214445170E+00    0.4308902069E-04    0.4187702409E-02
    0.2700000000E+02    0.4966906951E-04    0.4081261784E-05    0.6264131901E+00    0.4518045367E-04    0.4187621457E-02
    0.2900000000E+02    0.5093098733E-04    0.4188989057E-05    0.6307608110E+00    0.4729030430E-04    0.4187503001E-02
    0.3100000000E+02    0.5220418509E-04    0.4297763507E-05    0.6345969769E+00    0.4941582211E-04    0.4187353964E-02
    0.3300000000E+02    0.5348870218E-04    0.4407566816E-05    0.6380069298E+00    0.5155466939E-04    0.4187179687E-02
    0.3500000000E+02    0.5478427998E-04    0.4518360488E-05    0.6410579656E+00    0.5370486892E-04    0.4186984356E-02
    0.3700000000E+02    0.5609049200E-04    0.4630095553E-05    0.6438039208E+00    0.5586475156E-04    0.4186771296E-02
    0.3900000000E+02    0.5740682430E-04    0.4742718461E-05    0.6462883776E+00    0.5803290847E-04    0.4186543181E-02
    0.4100000000E+02    0.5873272548E-04    0.4856174628E-05    0.6485469936E+00    0.6020814958E-04    0.4186302186E-02
    0.4300000000E+02    0.6006763731E-04    0.4970410542E-05    0.6506092257E+00    0.6238946826E-04    0.4186050097E-02
    0.4500000000E+02    0.6141101332E-04    0.5085374966E-05    0.6524996208E+00    0.6457601164E-04    0.4185788395E-02
    0.4700000000E+02    0.6276232965E-04    0.5201019576E-05    0.6542387987E+00    0.6676705597E-04    0.4185518315E-02
    0.4900000000E+02    0.6412109091E-04    0.5317299251E-05    0.6558442068E+00    0.6896198603E-04    0.4185240898E-02
    0.1000000000E+02    0.3864534618E-04    0.3153213268E-05    0.5354487546E+00    0.2830145168E-04    0.4185183878E-02
    0.3000000000E+02    0.5156616479E-04    0.4243245908E-05    0.6327370138E+00    0.4835125999E-04    0.4187431939E-02
    0.5000000000E+02    0.6480311710E-04    0.5375664033E-05    0.6566014794E+00    0.7006074139E-04    0.4185099718E-02
    0.7000000000E+02    0.7873883435E-04    0.6567797898E-05    0.6673904106E+00    0.9214792379E-04    0.4182047246E-02
    0.9000000000E+02    0.9306690506E-04    0.7792513463E-05    0.6735393719E+00    0.1143380688E-03    0.4178766542E-02
    0.1100000000E+03    0.1076487692E-03    0.9038046463E-05    0.6775119463E+00    0.1365822192E-03    0.4175390437E-02
    0.1300000000E+03    0.1224211869E-03    0.1029915822E-04    0.6802899046E+00    0.1588846201E-03    0.4171966427E-02
    0.1500000000E+03    0.1373543444E-03    0.1157344119E-04    0.6823416921E+00    0.1812628932E-03    0.4168513910E-02
    0.1700000000E+03    0.1524344322E-03    0.1285982187E-04    0.6839191414E+00    0.2037370969E-03    0.4165041169E-02
    0.1900000000E+03    0.1676558379E-03    0.1415790031E-04    0.6851697036E+00    0.2263265349E-03    0.4161551549E-02
    0.2100000000E+03    0.1830173730E-03    0.1546763494E-04    0.6861854517E+00    0.2490489271E-03    0.4158046030E-02
    0.2300000000E+03    0.1985203338E-03    0.1678918220E-04    0.6870268477E+00    0.2719203409E-03    0.4154524404E-02
    0.2500000000E+03    0.2141674532E-03    0.1812281093E-04    0.6877352361E+00    0.2949553572E-03    0.4150985855E-02
    0.2700000000E+03    0.2299623132E-03    0.1946885480E-04    0.6883398466E+00    0.3181672905E-03    0.4147429258E-02
    0.2900000000E+03    0.2459090044E-03    0.2082768523E-04    0.6888619287E+00    0.3415684021E-03    0.4143853331E-02
    0.3100000000E+03    0.2620119256E-03    0.2219969558E-04    0.6893173009E+00    0.3651700865E-03    0.4140256727E-02
    0.3300000000E+03    0.2782756643E-03    0.2358529199E-04    0.6897179818E+00    0.3889830293E-03    0.4136638079E-02
    0.3500000000E+03    0.2947049251E-03    0.2498488793E-04    0.6900732665E+00    0.4130173385E-03    0.4132996025E-02
    0.3700000000E+03    0.3113044876E-03    0.2639890121E-04    0.6903904566E+00    0.4372826534E-03    0.4129329223E-02
    0.3900000000E+03    0.3280791823E-03    0.2782775230E-04    0.6906753673E+00    0.4617882350E-03    0.4125636352E-02
    0.4100000000E+03    0.3450338775E-03    0.2927186356E-04    0.6909326877E+00    0.4865430413E-03    0.4121916120E-02
    0.4300000000E+03    0.3621734743E-03    0.3073165903E-04    0.6911662406E+00    0.5115557904E-03    0.4118167260E-02
    0.4500000000E+03    0.3795029051E-03    0.3220756450E-04    0.6913791736E+00    0.5368350136E-03    0.4114388526E-02
    0.4700000000E+03    0.3970271357E-03    0.3370000787E-04    0.6915741020E+00    0.5623891011E-03    0.4110578697E-02
    0.4900000000E+03    0.4147511688E-03    0.3520941954E-04    0.6917532169E+00    0.5882263403E-03    0.4106736566E-02
    0.1000000000E+03    0.1003311628E-03    0.8413098747E-05    0.6757184756E+00    0.1254536721E-03    0.4177086449E-02
    0.3000000000E+03    0.2539406529E-03    0.2151201775E-04    0.6890971280E+00    0.3533434899E-03    0.4142057699E-02
    0.5000000000E+03    0.4236896859E-03    0.3597062380E-04    0.6918374336E+00    0.6012537120E-03    0.4104803016E-02
    0.7000000000E+03    0.6142198457E-03    0.5219443759E-04    0.6930186746E+00    0.8786794922E-03    0.4064149382E-02
    0.9000000000E+03    0.8310220677E-03    0.7065339199E-04    0.6936767032E+00    0.1194146346E-02    0.4018913993E-02
    0.1100000000E+04    0.1080691680E-02    0.9191001483E-04    0.6940961094E+00    0.1557469890E-02    0.3967815574E-02
    0.1300000000E+04    0.1371558869E-02    0.1166741461E-03    0.6943867644E+00    0.1980919901E-02    0.3909318734E-02
    0.1500000000E+04    0.1714455111E-02    0.1458685033E-03    0.6946000618E+00    0.2480406322E-02    0.3841488529E-02
    0.1700000000E+04    0.2123748105E-02    0.1807169532E-03    0.6947632543E+00    0.3077023913E-02    0.3761816104E-02
    0.1900000000E+04    0.2618794788E-02    0.2228683600E-03    0.6948921386E+00    0.3799205265E-02    0.3666988734E-02
    0.2100000000E+04    0.3225987216E-02    0.2745709534E-03    0.6949965026E+00    0.4685751911E-02    0.3552582316E-02
    0.2300000000E+04    0.3981552999E-02    0.3389110390E-03    0.6950827344E+00    0.5789994678E-02    0.3412667327E-02
    0.2500000000E+04    0.4935077646E-02    0.4201133565E-03    0.6951551802E+00    0.7185058116E-02    0.3239370128E-02
    0.2700000000E+04    0.6152944883E-02    0.5238347455E-03    0.6952169003E+00    0.8969088838E-02    0.3022590694E-02
    0.2900000000E+04    0.7718592774E-02    0.6571871096E-03    0.6952701115E+00    0.1126595565E-01    0.2750497681E-02
    0.3100000000E+04    0.9721085534E-02    0.8277658515E-03    0.6953164592E+00    0.1420899749E-01    0.2412302780E-02
    0.3300000000E+04    0.1221554780E-01    0.1040281942E-02    0.6953571901E+00    0.1788355347E-01    0.2005837897E-02
    0.3500000000E+04    0.1514342849E-01    0.1289770324E-02    0.6953932665E+00    0.2220994129E-01    0.1550734357E-02
    0.3700000000E+04    0.1825704196E-01    0.1555155897E-02    0.6954254424E+00    0.2683080955E-01    0.1097506300E-02
    0.3900000000E+04    0.2117827909E-01    0.1804240968E-02    0.6954543177E+00    0.3119354656E-01    0.7111463145E-03
    0.4100000000E+04    0.2361836216E-01    0.2012416645E-02    0.6954803750E+00    0.3487098315E-01    0.4317014528E-03
    0.4300000000E+04    0.2552228268E-01    0.2174975516E-02    0.6955040074E+00    0.3777620679E-01    0.2558044055E-03
    0.4500000000E+04    0.2699921786E-01    0.2301198394E-02    0.6955255379E+00    0.4006426907E-01    0.1552840136E-03
    0.4700000000E+04    0.2819124674E-01    0.2403176484E-02    0.6955452349E+00    0.4194074622E-01    0.1010584495E-03
    0.4900000000E+04    0.2920794262E-01    0.2490238067E-02    0.6955633226E+00    0.4356513579E-01    0.7269121310E-04
    0.1000000000E+04    0.9512764777E-03    0.8089176887E-04    0.6939073134E+00    0.1369129452E-02    0.3994186032E-02
    0.3000000000E+04    0.8660248087E-02    0.7373977329E-03    0.6952940576E+00    0.1264915880E-01    0.2590133695E-02
    0.5000000000E+04    0.2967343764E-01    0.2530124796E-02    0.6955718234E+00    0.4431622551E-01    0.6417304053E-04
    0.7000000000E+04    0.3700638010E-01    0.3160179838E-02    0.6956907812E+00    0.5665294646E-01    0.4320629573E-04
    0.9000000000E+04    0.4265213375E-01    0.3647490301E-02    0.6957567892E+00    0.6681935495E-01    0.4378014158E-04
    0.1100000000E+05    0.4717023840E-01    0.4039265349E-02    0.6957987336E+00    0.7551093808E-01    0.4427236532E-04
    0.1300000000E+05    0.5083976924E-01    0.4358993834E-02    0.6958277258E+00    0.8305662589E-01    0.4468622490E-04
    0.1500000000E+05    0.5385642605E-01    0.4623169470E-02    0.6958489506E+00    0.8969190099E-01    0.4504369515E-04
    0.1700000000E+05    0.5636138854E-01    0.4843707564E-02    0.6958651525E+00    0.9559025276E-01    0.4535862078E-04
    0.1900000000E+05    0.5845889845E-01    0.5029418398E-02    0.6958779199E+00    0.1008825049E+00    0.4564027115E-04
    0.2100000000E+05    0.6022747999E-01    0.5186948213E-02    0.6958882358E+00    0.1056693055E+00    0.4589516299E-04
    0.2300000000E+05    0.6172732446E-01    0.5321399016E-02    0.6958967410E+00    0.1100294521E+00    0.4612805586E-04
    0.2500000000E+05    0.6300528226E-01    0.5436747879E-02    0.6959038712E+00    0.1140255894E+00    0.4634253402E-04
    0.2700000000E+05    0.6409831737E-01    0.5536137355E-02    0.6959099328E+00    0.1177082029E+00    0.4654136530E-04
    0.2900000000E+05    0.6503594808E-01    0.5622080818E-02    0.6959151475E+00    0.1211184756E+00    0.4672673249E-04
    0.3100000000E+05    0.6584200363E-01    0.5696610380E-02    0.6959196798E+00    0.1242903699E+00    0.4690038793E-04
    0.3300000000E+05    0.6653590946E-01    0.5761385210E-02    0.6959236544E+00    0.1272521704E+00    0.4706376016E-04
    0.3500000000E+05    0.6713364189E-01    0.5817772051E-02    0.6959271671E+00    0.1300276438E+00    0.4721802934E-04
    0.3700000000E+05    0.6764844684E-01    0.5866905897E-02    0.6959302933E+00    0.1326369236E+00    0.4736418190E-04
    0.3900000000E+05    0.6809138756E-01    0.5909736271E-02    0.6959330927E+00    0.1350971925E+00    0.4750305092E-04
    0.4100000000E+05    0.6847176690E-01    0.5947062936E-02    0.6959356134E+00    0.1374232153E+00    0.4763534645E-04
    0.4300000000E+05    0.6879745616E-01    0.5979563726E-02    0.6959378944E+00    0.1396277591E+00    0.4776167869E-04
    0.4500000000E+05    0.6907515365E-01    0.6007816452E-02    0.6959399680E+00    0.1417219278E+00    0.4788257599E-04
    0.4700000000E+05    0.6931058979E-01    0.6032316294E-02    0.6959418608E+00    0.1437154311E+00    0.4799849885E-04
    0.4900000000E+05    0.6950869119E-01    0.6053489721E-02    0.6959435951E+00    0.1456168016E+00    0.4810985116E-04
    0.1000000000E+05    0.4503229446E-01    0.3853649943E-02    0.6957798665E+00    0.7132625923E-01    0.4403788982E-04
    0.3000000000E+05    0.6545411798E-01    0.5660660955E-02    0.6959174904E+00    0.1227323343E+00    0.4681492831E-04
    0.5000000000E+05    0.6959509418E-01    0.6062946323E-02    0.6959444088E+00    0.1465353262E+00    0.4816392633E-04
    0.7000000000E+05    0.7014023347E-01    0.6145074451E-02    0.6959556740E+00    0.1615051175E+00    0.4907346020E-04
    0.9000000000E+05    0.6952710075E-01    0.6119619456E-02    0.6959617767E+00    0.1722673715E+00    0.4976392222E-04
    0.1100000000E+06    0.6848967293E-01    0.6052041714E-02    0.6959655587E+00    0.1806016872E+00    0.5032218495E-04
    0.1300000000E+06    0.6730220876E-01    0.5967480068E-02    0.6959681052E+00    0.1873663009E+00    0.5079168500E-04
    0.1500000000E+06    0.6608003684E-01    0.5876888843E-02    0.6959699192E+00    0.1930369250E+00    0.5119733768E-04
    0.1700000000E+06    0.6487457789E-01    0.5785402038E-02    0.6959712650E+00    0.1979034499E+00    0.5155479104E-04
    0.1900000000E+06    0.6370888545E-01    0.5695506564E-02    0.6959722945E+00    0.2021550931E+00    0.5187453003E-04
    0.2100000000E+06    0.6259257719E-01    0.5608396929E-02    0.6959731007E+00    0.2059219626E+00    0.5216393054E-04
    0.2300000000E+06    0.6152865484E-01    0.5524605522E-02    0.6959737443E+00    0.2092972477E+00    0.5242838222E-04
    0.2500000000E+06    0.6051681561E-01    0.5444315389E-02    0.6959742658E+00    0.2123499207E+00    0.5267194539E-04
    0.2700000000E+06    0.5955513273E-01    0.5367523195E-02    0.6959746937E+00    0.2151324239E+00    0.5289775652E-04
    0.2900000000E+06    0.5864093405E-01    0.5294127265E-02    0.6959750484E+00    0.2176855385E+00    0.5310828973E-04
    0.3100000000E+06    0.5777126896E-01    0.5223976392E-02    0.6959753448E+00    0.2200415883E+00    0.5330553173E-04
    0.3300000000E+06    0.5694315643E-01    0.5156897310E-02    0.6959755944E+00    0.2222266163E+00    0.5349110240E-04
    0.3500000000E+06    0.5615371417E-01    0.5092710240E-02    0.6959758056E+00    0.2242619050E+00    0.5366634022E-04
    0.3700000000E+06    0.5540022187E-01    0.5031237595E-02    0.6959759852E+00    0.2261650639E+00    0.5383236410E-04
    0.3900000000E+06    0.5468014785E-01    0.4972308717E-02    0.6959761385E+00    0.2279508246E+00    0.5399011912E-04
    0.4100000000E+06    0.5399115538E-01    0.4915762271E-02    0.6959762697E+00    0.2296316313E+00    0.5414041089E-04
    0.4300000000E+06    0.5333109808E-01    0.4861447272E-02    0.6959763822E+00    0.2312180884E+00    0.5428393181E-04
    0.4500000000E+06    0.5269800952E-01    0.4809223301E-02    0.6959764787E+00    0.2327193038E+00    0.5442128142E-04
    0.4700000000E+06    0.5209009043E-01    0.4758960266E-02    0.6959765615E+00    0.2341431558E+00    0.5455298236E-04
    0.4900000000E+06    0.5150569484E-01    0.4710537912E-02    0.6959766325E+00    0.2354965031E+00    0.5467949303E-04
    0.1000000000E+06    0.6903869087E-01    0.6089028848E-02    0.6959638694E+00    0.1766717710E+00    0.5005625973E-04
    0.3000000000E+06    0.5820072234E-01    0.5258656734E-02    0.6959752031E+00    0.2188864420E+00    0.5320846343E-04
    0.5000000000E+06    0.5122184258E-01    0.4686981949E-02    0.6959766641E+00    0.2361486440E+00    0.5474093025E-04
    0.7000000000E+06    0.4647567231E-01    0.4289766753E-02    0.6959769484E+00    0.2466218712E+00    0.5577435907E-04
    0.9000000000E+06    0.4296311953E-01    0.3991943363E-02    0.6959769141E+00    0.2539524257E+00    0.5655894033E-04
    0.1100000000E+07    0.4021572993E-01    0.3756807865E-02    0.6959767682E+00    0.2594942922E+00    0.5719333146E-04
    0.1300000000E+07    0.3798336168E-01    0.3564351884E-02    0.6959765803E+00    0.2638935104E+00    0.5772687143E-04
    0.1500000000E+07    0.3611842647E-01    0.3402609746E-02    0.6959763783E+00    0.2675060851E+00    0.5818786456E-04
    0.1700000000E+07    0.3452721512E-01    0.3263908057E-02    0.6959761741E+00    0.2705477674E+00    0.5859408878E-04
    0.1900000000E+07    0.3314683015E-01    0.3143055844E-02    0.6959759734E+00    0.2731585094E+00    0.5895745688E-04
    0.2100000000E+07    0.3193318335E-01    0.3036390860E-02    0.6959757788E+00    0.2754338681E+00    0.5928634955E-04
    0.2300000000E+07    0.3085427710E-01    0.2941240532E-02    0.6959755913E+00    0.2774417583E+00    0.5958689085E-04
    0.2500000000E+07    0.2988621699E-01    0.2855599559E-02    0.6959754112E+00    0.2792320329E+00    0.5986369451E-04
    0.2700000000E+07    0.2901072999E-01    0.2777927940E-02    0.6959752384E+00    0.2808422730E+00    0.6012032456E-04
    0.2900000000E+07    0.2821355729E-01    0.2707019445E-02    0.6959750726E+00    0.2823014471E+00    0.6035959246E-04
    0.3100000000E+07    0.2748337815E-01    0.2641913129E-02    0.6959749136E+00    0.2836323133E+00    0.6058375581E-04
    0.3300000000E+07    0.2681106842E-01    0.2581832096E-02    0.6959747609E+00    0.2848530449E+00    0.6079465541E-04
    0.3500000000E+07    0.2618917685E-01    0.2526140081E-02    0.6959746142E+00    0.2859783626E+00    0.6099381228E-04
    0.3700000000E+07    0.2561154720E-01    0.2474310013E-02    0.6959744730E+00    0.2870203407E+00    0.6118249795E-04
    0.3900000000E+07    0.2507304019E-01    0.2425900812E-02    0.6959743370E+00    0.2879889931E+00    0.6136178640E-04
    0.4100000000E+07    0.2456932556E-01    0.2380539978E-02    0.6959742059E+00    0.2888927078E+00    0.6153259315E-04
    0.4300000000E+07    0.2409672402E-01    0.2337910333E-02    0.6959740794E+00    0.2897385737E+00    0.6169570505E-04
    0.4500000000E+07    0.2365208570E-01    0.2297739788E-02    0.6959739571E+00    0.2905326298E+00    0.6185180344E-04
    0.4700000000E+07    0.2323269523E-01    0.2259793341E-02    0.6959738388E+00    0.2912800587E+00    0.6200148227E-04
    0.4900000000E+07    0.2283619710E-01    0.2223866764E-02    0.6959737243E+00    0.2919853377E+00    0.6214526248E-04
    0.1000000000E+07    0.4151267805E-01    0.3868044371E-02    0.6959768492E+00    0.2568969829E+00    0.5689114008E-04
    0.3000000000E+07    0.2784070828E-01    0.2673793306E-02    0.6959749923E+00    0.2829816906E+00    0.6047343868E-04
    0.5000000000E+07    0.2264588004E-01    0.2206604256E-02    0.6959736684E+00    0.2923234072E+00    0.6221508633E-04
    0.7000000000E+07    0.1965695976E-01    0.1933910337E-02    0.6959727014E+00    0.2975952341E+00    0.6338958982E-04
    0.9000000000E+07    0.1764169718E-01    0.1748253143E-02    0.6959719405E+00    0.3011122954E+00    0.6428127902E-04
    0.1100000000E+08    0.1616031113E-01    0.1610771315E-02    0.6959713125E+00    0.3036798231E+00    0.6500227627E-04
    0.1300000000E+08    0.1501000707E-01    0.1503380985E-02    0.6959707772E+00    0.3056636672E+00    0.6560865507E-04
    0.1500000000E+08    0.1408217844E-01    0.1416329325E-02    0.6959703103E+00    0.3072578051E+00    0.6613258335E-04
    0.1700000000E+08    0.1331257277E-01    0.1343813510E-02    0.6959698960E+00    0.3085761518E+00    0.6659426586E-04
    0.1900000000E+08    0.1266036170E-01    0.1282128420E-02    0.6959695234E+00    0.3096906797E+00    0.6700724161E-04
    0.2100000000E+08    0.1209816238E-01    0.1228778726E-02    0.6959691847E+00    0.3106494376E+00    0.6738103536E-04
    0.2300000000E+08    0.1160681622E-01    0.1182012121E-02    0.6959688742E+00    0.3114859148E+00    0.6772260723E-04
    0.2500000000E+08    0.1117245410E-01    0.1140555919E-02    0.6959685873E+00    0.3122242768E+00    0.6803720077E-04
    0.2700000000E+08    0.1078475031E-01    0.1103459768E-02    0.6959683206E+00    0.3128824651E+00    0.6832886657E-04
