  Pressure (Pa) 22mC5-500 (mol/kg) 23mC5-500 (mol/kg) 24mC5-500 (mol/kg) 2mC6-500 (mol/kg) C7-500 (mol/kg)
    0.1000000000E+01    0.1568378021E-04    0.6432866351E-06    0.1266263158E+00    0.8672106629E-05    0.4202696556E-02
    0.3000000000E+01    0.3239042705E-04    0.1324706796E-05    0.2784950469E+00    0.1706456390E-04    0.4255737158E-02
    0.5000000000E+01    0.4079155262E-04    0.1665012961E-05    0.3663797210E+00    0.2090640350E-04    0.4285582113E-02
    0.7000000000E+01    0.4567211433E-04    0.1861656945E-05    0.4236813811E+00    0.2307940548E-04    0.4305228313E-02
    0.9000000000E+01    0.4882435657E-04    0.1988274983E-05    0.4639984779E+00    0.2456256986E-04    0.4319241486E-02
    0.1100000000E+02    0.5104622065E-04    0.2077500086E-05    0.4939080862E+00    0.2574696266E-04    0.4329786592E-02
    0.1300000000E+02    0.5273554706E-04    0.2145521778E-05    0.5169795824E+00    0.2680499225E-04    0.4338035286E-02
    0.1500000000E+02    0.5410725325E-04    0.2201038725E-05    0.5353175473E+00    0.2781737970E-04    0.4344679997E-02
    0.1700000000E+02    0.5528454453E-04    0.2249008194E-05    0.5502432586E+00    0.2882306208E-04    0.4350157362E-02
    0.1900000000E+02    0.5634131600E-04    0.2292383974E-05    0.5626280950E+00    0.2984078392E-04    0.4354756909E-02
    0.2100000000E+02    0.5732346010E-04    0.2332987017E-05    0.5730700070E+00    0.3087913409E-04    0.4358678510E-02
    0.2300000000E+02    0.5826025489E-04    0.2371969270E-05    0.5819929649E+00    0.3194147270E-04    0.4362064780E-02
    0.2500000000E+02    0.5917076321E-04    0.2410073408E-05    0.5897059460E+00    0.3302845141E-04    0.4365020332E-02
    0.2700000000E+02    0.6006758019E-04    0.2447784400E-05    0.5964394462E+00    0.3413934218E-04    0.4367623723E-02
    0.2900000000E+02    0.6095910542E-04    0.2485421052E-05    0.6023689109E+00    0.3527275184E-04    0.4369935153E-02
    0.3100000000E+02    0.6185096171E-04    0.2523192934E-05    0.6076302440E+00    0.3642700996E-04    0.4372001567E-02
    0.3300000000E+02    0.6274690349E-04    0.2561236669E-05    0.6123303536E+00    0.3760037866E-04    0.4373860146E-02
    0.3500000000E+02    0.6364941114E-04    0.2599639569E-05    0.6165544938E+00    0.3879116356E-04    0.4375540738E-02
    0.3700000000E+02    0.6456008726E-04    0.2638455307E-05    0.6203714828E+00    0.3999776941E-04    0.4377067603E-02
    0.3900000000E+02    0.6547992496E-04    0.2677714474E-05    0.6238374817E+00    0.4121872451E-04    0.4378460671E-02
    0.4100000000E+02    0.6640949227E-04    0.2717431787E-05    0.6269987764E+00    0.4245268787E-04    0.4379736478E-02
    0.4300000000E+02    0.6734906020E-04    0.2757611065E-05    0.6298938569E+00    0.4369844685E-04    0.4380908867E-02
    0.4500000000E+02    0.6829869271E-04    0.2798248693E-05    0.6325549924E+00    0.4495491000E-04    0.4381989522E-02
    0.4700000000E+02    0.6925831032E-04    0.2839336054E-05    0.6350094391E+00    0.4622109761E-04    0.4382988376E-02
    0.4900000000E+02    0.7022773551E-04    0.2880861247E-05    0.6372803772E+00    0.4749613150E-04    0.4383913934E-02
    0.1000000000E+02    0.5002081288E-04    0.2036307533E-05    0.4799849576E+00    0.2517827496E-04    0.4324859188E-02
    0.3000000000E+02    0.6140472190E-04    0.2504280165E-05    0.6050758311E+00    0.3584738353E-04    0.4370996467E-02
    0.5000000000E+02    0.7071605185E-04    0.2901783719E-05    0.6383533441E+00    0.4813671664E-04    0.4384351556E-02
    0.7000000000E+02    0.8092469538E-04    0.3339508906E-05    0.6537638033E+00    0.6126113469E-04    0.4390596017E-02
    0.9000000000E+02    0.9177679402E-04    0.3804748236E-05    0.6626513714E+00    0.7474349860E-04    0.4393992241E-02
    0.1100000000E+03    0.1030609330E-03    0.4288139465E-05    0.6684341053E+00    0.8841033108E-04    0.4395913954E-02
    0.1300000000E+03    0.1146523084E-03    0.4784314022E-05    0.6724970309E+00    0.1021920739E-03    0.4396952584E-02
    0.1500000000E+03    0.1264769565E-03    0.5290141078E-05    0.6755080195E+00    0.1160593970E-03    0.4397409636E-02
    0.1700000000E+03    0.1384895365E-03    0.5803724220E-05    0.6778287607E+00    0.1300003139E-03    0.4397457027E-02
    0.1900000000E+03    0.1506613577E-03    0.6323875977E-05    0.6796721802E+00    0.1440109029E-03    0.4397200936E-02
    0.2100000000E+03    0.1629738226E-03    0.6849834581E-05    0.6811717929E+00    0.1580911771E-03    0.4396710990E-02
    0.2300000000E+03    0.1754146935E-03    0.7381104399E-05    0.6824155657E+00    0.1722431143E-03    0.4396035024E-02
    0.2500000000E+03    0.1879758778E-03    0.7917362073E-05    0.6834638145E+00    0.1864696681E-03    0.4395207144E-02
    0.2700000000E+03    0.2006520651E-03    0.8458399160E-05    0.6843592771E+00    0.2007742538E-03    0.4394252418E-02
    0.2900000000E+03    0.2134398610E-03    0.9004085875E-05    0.6851330818E+00    0.2151604747E-03    0.4393189736E-02
    0.3100000000E+03    0.2263372203E-03    0.9554347505E-05    0.6858084390E+00    0.2296319773E-03    0.4392033639E-02
    0.3300000000E+03    0.2393430668E-03    0.1010914868E-04    0.6864030081E+00    0.2441923743E-03    0.4390795519E-02
    0.3500000000E+03    0.2524570332E-03    0.1066848262E-04    0.6869304632E+00    0.2588452071E-03    0.4389484441E-02
    0.3700000000E+03    0.2656792790E-03    0.1123236370E-04    0.6874015574E+00    0.2735939292E-03    0.4388107711E-02
    0.3900000000E+03    0.2790103612E-03    0.1180082216E-04    0.6878248633E+00    0.2884419019E-03    0.4386671287E-02
    0.4100000000E+03    0.2924511416E-03    0.1237390034E-04    0.6882072989E+00    0.3033923967E-03    0.4385180074E-02
    0.4300000000E+03    0.3060027187E-03    0.1295164991E-04    0.6885545083E+00    0.3184486012E-03    0.4383638145E-02
    0.4500000000E+03    0.3196663776E-03    0.1353412989E-04    0.6888711425E+00    0.3336136266E-03    0.4382048906E-02
    0.4700000000E+03    0.3334435527E-03    0.1412140512E-04    0.6891610680E+00    0.3488905164E-03    0.4380415226E-02
    0.4900000000E+03    0.3473357998E-03    0.1471354518E-04    0.6894275258E+00    0.3642822543E-03    0.4378739530E-02
    0.1000000000E+03    0.9737420955E-04    0.4044579388E-05    0.6658194280E+00    0.8155957906E-04    0.4395090564E-02
    0.3000000000E+03    0.2198749317E-03    0.9278647813E-05    0.6854818539E+00    0.2223853387E-03    0.4392622590E-02
    0.5000000000E+03    0.3543255893E-03    0.1501146234E-04    0.6895528266E+00    0.3720221094E-03    0.4377886583E-02
    0.7000000000E+03    0.5006092420E-03    0.2124479199E-04    0.6913113215E+00    0.5335478573E-03    0.4358985021E-02
    0.9000000000E+03    0.6606952002E-03    0.2806432678E-04    0.6922914805E+00    0.7097946048E-03    0.4337009391E-02
    0.1100000000E+04    0.8369995858E-03    0.3557368751E-04    0.6929162106E+00    0.9036596523E-03    0.4312101397E-02
    0.1300000000E+04    0.1032375455E-02    0.4389474383E-04    0.6933490447E+00    0.1118396621E-02    0.4284087275E-02
    0.1500000000E+04    0.1250233375E-02    0.5317296395E-04    0.6936665468E+00    0.1357826775E-02    0.4252617401E-02
    0.1700000000E+04    0.1494707840E-02    0.6358458389E-04    0.6939093391E+00    0.1626550399E-02    0.4217198136E-02
    0.1900000000E+04    0.1770872580E-02    0.7534581611E-04    0.6941009758E+00    0.1930196894E-02    0.4177186569E-02
    0.2100000000E+04    0.2085022164E-02    0.8872486581E-04    0.6942560542E+00    0.2275742835E-02    0.4131765475E-02
    0.2300000000E+04    0.2445044976E-02    0.1040578344E-03    0.6943841025E+00    0.2671929437E-02    0.4079902220E-02
    0.2500000000E+04    0.2860921224E-02    0.1217699486E-03    0.6944916038E+00    0.3129818480E-02    0.4020290526E-02
    0.2700000000E+04    0.3345389745E-02    0.1424039829E-03    0.6945831226E+00    0.3663536555E-02    0.3951271707E-02
    0.2900000000E+04    0.3914837169E-02    0.1666581634E-03    0.6946619653E+00    0.4291268598E-02    0.3870730940E-02
    0.3100000000E+04    0.4590465885E-02    0.1954359612E-03    0.6947305858E+00    0.5036565677E-02    0.3775964965E-02
    0.3300000000E+04    0.5399774948E-02    0.2299092406E-03    0.6947908436E+00    0.5930008837E-02    0.3663522783E-02
    0.3500000000E+04    0.6378295689E-02    0.2715922971E-03    0.6948441730E+00    0.7011171123E-02    0.3529036883E-02
    0.3700000000E+04    0.7571259101E-02    0.3224130493E-03    0.6948916988E+00    0.8330530466E-02    0.3367102759E-02
    0.3900000000E+04    0.9034227414E-02    0.3847401990E-03    0.6949343146E+00    0.9950276375E-02    0.3171354735E-02
    0.4100000000E+04    0.1083036573E-01    0.4612673734E-03    0.6949727401E+00    0.1194145085E-01    0.2935062219E-02
    0.4300000000E+04    0.1301976133E-01    0.5545585853E-03    0.6950075608E+00    0.1437233235E-01    0.2652834753E-02
    0.4500000000E+04    0.1563422256E-01    0.6659750053E-03    0.6950392583E+00    0.1728071189E-01    0.2324168099E-02
    0.4700000000E+04    0.1863492654E-01    0.7938704212E-03    0.6950682319E+00    0.2062691723E-01    0.1958810949E-02
    0.4900000000E+04    0.2187037393E-01    0.9317983222E-03    0.6950948160E+00    0.2424655754E-01    0.1581117668E-02
    0.1000000000E+04    0.7466531750E-03    0.3172564274E-04    0.6926350003E+00    0.8043324409E-03    0.4324927888E-02
    0.3000000000E+04    0.4237827217E-02    0.1804154892E-03    0.6946974255E+00    0.4647496882E-02    0.3825322255E-02
    0.5000000000E+04    0.2349775809E-01    0.1001187396E-02    0.6951073018E+00    0.2607286608E-01    0.1398745804E-02
    0.7000000000E+04    0.3931860938E-01    0.1677383775E-02    0.6952813154E+00    0.4452451262E-01    0.3239517973E-03
    0.9000000000E+04    0.4591542618E-01    0.1961241704E-02    0.6953770018E+00    0.5305133657E-01    0.3209332721E-03
    0.1100000000E+05    0.5127848634E-01    0.2192885917E-02    0.6954372399E+00    0.6038107950E-01    0.3245049076E-03
    0.1300000000E+05    0.5574021821E-01    0.2386335311E-02    0.6954784793E+00    0.6682123393E-01    0.3275408025E-03
    0.1500000000E+05    0.5949261665E-01    0.2549672305E-02    0.6955083751E+00    0.7254251617E-01    0.3301628033E-03
    0.1700000000E+05    0.6267752314E-01    0.2688874616E-02    0.6955309677E+00    0.7767318872E-01    0.3324724089E-03
    0.1900000000E+05    0.6540208584E-01    0.2808463069E-02    0.6955485890E+00    0.8231184978E-01    0.3345377469E-03
    0.2100000000E+05    0.6774867364E-01    0.2911917058E-02    0.6955626782E+00    0.8653563119E-01    0.3364066976E-03
    0.2300000000E+05    0.6978158624E-01    0.3001955916E-02    0.6955741706E+00    0.9040580519E-01    0.3381142202E-03
    0.2500000000E+05    0.7155170532E-01    0.3080734083E-02    0.6955837003E+00    0.9397171185E-01    0.3396866350E-03
    0.2700000000E+05    0.7309978600E-01    0.3149979306E-02    0.6955917117E+00    0.9727356774E-01    0.3411442630E-03
    0.2900000000E+05    0.7445882954E-01    0.3211092329E-02    0.6955985258E+00    0.1003445120E+00    0.3425031270E-03
    0.3100000000E+05    0.7565582237E-01    0.3265220013E-02    0.6956043798E+00    0.1032121217E+00    0.3437760883E-03
    0.3300000000E+05    0.7671302979E-01    0.3313309762E-02    0.6956094528E+00    0.1058995508E+00    0.3449736305E-03
    0.3500000000E+05    0.7764897159E-01    0.3356150602E-02    0.6956138825E+00    0.1084263985E+00    0.3461044134E-03
    0.3700000000E+05    0.7847916682E-01    0.3394404556E-02    0.6956177763E+00    0.1108093787E+00    0.3471756746E-03
    0.3900000000E+05    0.7921670893E-01    0.3428630894E-02    0.6956212194E+00    0.1130628422E+00    0.3481935260E-03
    0.4100000000E+05    0.7987271437E-01    0.3459305060E-02    0.6956242800E+00    0.1151991890E+00    0.3491631764E-03
    0.4300000000E+05    0.8045667597E-01    0.3486833591E-02    0.6956270136E+00    0.1172291957E+00    0.3500891022E-03
    0.4500000000E+05    0.8097674375E-01    0.3511565981E-02    0.6956294654E+00    0.1191622788E+00    0.3509751786E-03
    0.4700000000E+05    0.8143994988E-01    0.3533804192E-02    0.6956316731E+00    0.1210067077E+00    0.3518247834E-03
    0.4900000000E+05    0.8185239021E-01    0.3553810339E-02    0.6956336677E+00    0.1227697782E+00    0.3526408789E-03
    0.1000000000E+05    0.4872423070E-01    0.2082452795E-02    0.6954102144E+00    0.5684029113E-01    0.3227875429E-03
    0.3000000000E+05    0.7507609280E-01    0.3238965987E-02    0.6956015605E+00    0.1018021942E+00    0.3431496419E-03
    0.5000000000E+05    0.8204125905E-01    0.3563048965E-02    0.6956345936E+00    0.1236228536E+00    0.3530371891E-03
    0.7000000000E+05    0.8413686803E-01    0.3673096991E-02    0.6956465312E+00    0.1376531401E+00    0.3597027114E-03
    0.9000000000E+05    0.8446611882E-01    0.3703315543E-02    0.6956519158E+00    0.1478951680E+00    0.3647624143E-03
    0.1100000000E+06    0.8403804612E-01    0.3698056731E-02    0.6956545386E+00    0.1559244260E+00    0.3688531893E-03
    0.1300000000E+06    0.8325940729E-01    0.3675528569E-02    0.6956557917E+00    0.1625103658E+00    0.3722934402E-03
    0.1500000000E+06    0.8231689034E-01    0.3644266839E-02    0.6956562941E+00    0.1680830248E+00    0.3752657880E-03
    0.1700000000E+06    0.8130363383E-01    0.3608639680E-02    0.6956563570E+00    0.1729060762E+00    0.3778849205E-03
    0.1900000000E+06    0.8026864792E-01    0.3571019481E-02    0.6956561512E+00    0.1771524937E+00    0.3802276811E-03
    0.2100000000E+06    0.7923850634E-01    0.3532746494E-02    0.6956557763E+00    0.1809417422E+00    0.3823481250E-03
    0.2300000000E+06    0.7822772765E-01    0.3494595421E-02    0.6956552935E+00    0.1843597347E+00    0.3842857500E-03
    0.2500000000E+06    0.7724408467E-01    0.3457017120E-02    0.6956547418E+00    0.1874703010E+00    0.3860703114E-03
    0.2700000000E+06    0.7629146485E-01    0.3420270684E-02    0.6956541467E+00    0.1903221519E+00    0.3877247935E-03
    0.2900000000E+06    0.7537147621E-01    0.3384498796E-02    0.6956535252E+00    0.1929533013E+00    0.3892673270E-03
    0.3100000000E+06    0.7448437913E-01    0.3349772235E-02    0.6956528891E+00    0.1953939844E+00    0.3907124702E-03
    0.3300000000E+06    0.7362964085E-01    0.3316116937E-02    0.6956522464E+00    0.1976686442E+00    0.3920720934E-03
    0.3500000000E+06    0.7280627219E-01    0.3283530822E-02    0.6956516028E+00    0.1997973226E+00    0.3933560047E-03
    0.3700000000E+06    0.7201303461E-01    0.3251994453E-02    0.6956509622E+00    0.2017966567E+00    0.3945724030E-03
    0.3900000000E+06    0.7124856870E-01    0.3221477888E-02    0.6956503274E+00    0.2036806094E+00    0.3957282137E-03
    0.4100000000E+06    0.7051147385E-01    0.3191945122E-02    0.6956497002E+00    0.2054610132E+00    0.3968293398E-03
    0.4300000000E+06    0.6980035736E-01    0.3163356990E-02    0.6956490819E+00    0.2071479821E+00    0.3978808550E-03
    0.4500000000E+06    0.6911386403E-01    0.3135673059E-02    0.6956484735E+00    0.2087502297E+00    0.3988871524E-03
    0.4700000000E+06    0.6845069342E-01    0.3108852860E-02    0.6956478755E+00    0.2102753155E+00    0.3998520616E-03
    0.4900000000E+06    0.6780960895E-01    0.3082856670E-02    0.6956472882E+00    0.2117298403E+00    0.4007789415E-03
    0.1000000000E+06    0.8431372497E-01    0.3703650248E-02    0.6956534579E+00    0.1521271565E+00    0.3669045895E-03
    0.3000000000E+06    0.7492383567E-01    0.3367002412E-02    0.6956532084E+00    0.1941958063E+00    0.3900012758E-03
    0.5000000000E+06    0.6749698115E-01    0.3070155495E-02    0.6956469987E+00    0.2124324818E+00    0.4012290601E-03
    0.7000000000E+06    0.6215646232E-01    0.2850957709E-02    0.6956417558E+00    0.2238792237E+00    0.4088003669E-03
    0.9000000000E+06    0.5807569660E-01    0.2680909735E-02    0.6956373983E+00    0.2320848009E+00    0.4145484122E-03
    0.1100000000E+07    0.5481236041E-01    0.2543478757E-02    0.6956336969E+00    0.2384021587E+00    0.4191960628E-03
    0.1300000000E+07    0.5211583274E-01    0.2428993451E-02    0.6956304856E+00    0.2434905910E+00    0.4231048195E-03
    0.1500000000E+07    0.4983267466E-01    0.2331419778E-02    0.6956276509E+00    0.2477198235E+00    0.4264820621E-03
    0.1700000000E+07    0.4786284606E-01    0.2246771494E-02    0.6956251136E+00    0.2513172863E+00    0.4294580440E-03
    0.1900000000E+07    0.4613780878E-01    0.2172290110E-02    0.6956228168E+00    0.2544324258E+00    0.4321200458E-03
    0.2100000000E+07    0.4460871423E-01    0.2105993719E-02    0.6956207181E+00    0.2571684470E+00    0.4345294693E-03
    0.2300000000E+07    0.4323961148E-01    0.2046413903E-02    0.6956187858E+00    0.2595994447E+00    0.4367311826E-03
    0.2500000000E+07    0.4200333032E-01    0.1992434521E-02    0.6956169949E+00    0.2617803039E+00    0.4387589882E-03
    0.2700000000E+07    0.4087887398E-01    0.1943188716E-02    0.6956153257E+00    0.2637527400E+00    0.4406389975E-03
    0.2900000000E+07    0.3984970561E-01    0.1897990738E-02    0.6956137624E+00    0.2655491499E+00    0.4423918087E-03
    0.3100000000E+07    0.3890258632E-01    0.1856289416E-02    0.6956122922E+00    0.2671951599E+00    0.4440339617E-03
    0.3300000000E+07    0.3802676563E-01    0.1817635569E-02    0.6956109043E+00    0.2687113639E+00    0.4455789428E-03
    0.3500000000E+07    0.3721340393E-01    0.1781658645E-02    0.6956095898E+00    0.2701145411E+00    0.4470378955E-03
    0.3700000000E+07    0.3645515196E-01    0.1748049640E-02    0.6956083412E+00    0.2714185290E+00    0.4484201355E-03
    0.3900000000E+07    0.3574583897E-01    0.1716548375E-02    0.6956071520E+00    0.2726348627E+00    0.4497335309E-03
    0.4100000000E+07    0.3508023768E-01    0.1686933880E-02    0.6956060166E+00    0.2737732503E+00    0.4509847892E-03
    0.4300000000E+07    0.3445388448E-01    0.1659017010E-02    0.6956049304E+00    0.2748419328E+00    0.4521796749E-03
    0.4500000000E+07    0.3386294019E-01    0.1632634712E-02    0.6956038890E+00    0.2758479606E+00    0.4533231798E-03
    0.4700000000E+07    0.3330408080E-01    0.1607645508E-02    0.6956028890E+00    0.2767974083E+00    0.4544196551E-03
    0.4900000000E+07    0.3277441093E-01    0.1583925917E-02    0.6956019270E+00    0.2776955432E+00    0.4554729174E-03
    0.1000000000E+07    0.5636054322E-01    0.2608833628E-02    0.6956354774E+00    0.2354287921E+00    0.4169821674E-03
    0.3000000000E+07    0.3936661238E-01    0.1876733149E-02    0.6956130164E+00    0.2663895661E+00    0.4432258125E-03
    0.5000000000E+07    0.3251971712E-01    0.1572507839E-02    0.6956014593E+00    0.2781268274E+00    0.4559844113E-03
    0.7000000000E+07    0.2848079739E-01    0.1390330313E-02    0.6955935532E+00    0.2849178293E+00    0.4645881366E-03
    0.9000000000E+07    0.2571580906E-01    0.1264348705E-02    0.6955875100E+00    0.2895183917E+00    0.4711200191E-03
    0.1100000000E+08    0.2366157141E-01    0.1170035564E-02    0.6955826043E+00    0.2929131631E+00    0.4764014641E-03
    0.1300000000E+08    0.2205361117E-01    0.1095758757E-02    0.6955784676E+00    0.2955575081E+00    0.4808432586E-03
    0.1500000000E+08    0.2074840023E-01    0.1035158031E-02    0.6955748867E+00    0.2976960305E+00    0.4846810582E-03
    0.1700000000E+08    0.1966014876E-01    0.9844085439E-03    0.6955717269E+00    0.2994738451E+00    0.4880628775E-03
    0.1900000000E+08    0.1873388755E-01    0.9410470011E-03    0.6955688973E+00    0.3009833970E+00    0.4910878988E-03
    0.2100000000E+08    0.1793249369E-01    0.9034024870E-03    0.6955663340E+00    0.3022868295E+00    0.4938258970E-03
    0.2300000000E+08    0.1722984036E-01    0.8702944584E-03    0.6955639900E+00    0.3034277115E+00    0.4963278589E-03
    0.2500000000E+08    0.1660691745E-01    0.8408609644E-03    0.6955618298E+00    0.3044376419E+00    0.4986321963E-03
    0.2700000000E+08    0.1604950825E-01    0.8144553795E-03    0.6955598261E+00    0.3053401869E+00    0.5007685821E-03
