  Pressure (Pa) 22mC5-500 (mol/kg) 23mC5-500 (mol/kg) 24mC5-500 (mol/kg) 2mC6-500 (mol/kg) C7-500 (mol/kg)
    0.1000000000E+01    0.1755664709E-04    0.7206938562E-06    0.6964813922E-01    0.1968914029E-04    0.4196045556E-02
    0.3000000000E+01    0.4209519815E-04    0.1724784757E-05    0.1740692303E+00    0.4563364426E-04    0.4254101369E-02
    0.5000000000E+01    0.5827941790E-04    0.2384476374E-05    0.2486200619E+00    0.6166719129E-04    0.4293498776E-02
    0.7000000000E+01    0.6955231849E-04    0.2842305543E-05    0.3045150954E+00    0.7223597505E-04    0.4322981437E-02
    0.9000000000E+01    0.7773840873E-04    0.3173649053E-05    0.3479791749E+00    0.7959344226E-04    0.4345996233E-02
    0.1100000000E+02    0.8388838609E-04    0.3421827495E-05    0.3827448165E+00    0.8498114374E-04    0.4364502511E-02
    0.1300000000E+02    0.8864455325E-04    0.3613268203E-05    0.4111861001E+00    0.8912347314E-04    0.4379727303E-02
    0.1500000000E+02    0.9241821468E-04    0.3764857648E-05    0.4348851440E+00    0.9246191314E-04    0.4392484157E-02
    0.1700000000E+02    0.9548277184E-04    0.3887795381E-05    0.4549369300E+00    0.9527489632E-04    0.4403335515E-02
    0.1900000000E+02    0.9802562607E-04    0.3989740152E-05    0.4721233975E+00    0.9774287978E-04    0.4412683335E-02
    0.2100000000E+02    0.1001785721E-03    0.4076065079E-05    0.4870178548E+00    0.9998539957E-04    0.4420822845E-02
    0.2300000000E+02    0.1020363376E-03    0.4150622327E-05    0.5000502129E+00    0.1020830175E-03    0.4427975947E-02
    0.2500000000E+02    0.1036682899E-03    0.4216225299E-05    0.5115491826E+00    0.1040907580E-03    0.4434312760E-02
    0.2700000000E+02    0.1051260501E-03    0.4274961869E-05    0.5217703992E+00    0.1060465707E-03    0.4439965972E-02
    0.2900000000E+02    0.1064485758E-03    0.4328403138E-05    0.5309156606E+00    0.1079767911E-03    0.4445040643E-02
    0.3100000000E+02    0.1076656298E-03    0.4377745738E-05    0.5391463924E+00    0.1098997403E-03    0.4449621082E-02
    0.3300000000E+02    0.1088001964E-03    0.4423910788E-05    0.5465932638E+00    0.1118281409E-03    0.4453775755E-02
    0.3500000000E+02    0.1098701940E-03    0.4467613938E-05    0.5533631797E+00    0.1137707657E-03    0.4457560859E-02
    0.3700000000E+02    0.1108897084E-03    0.4509415731E-05    0.5595444487E+00    0.1157335786E-03    0.4461022972E-02
    0.3900000000E+02    0.1118698945E-03    0.4549758346E-05    0.5652106582E+00    0.1177205339E-03    0.4464201033E-02
    0.4100000000E+02    0.1128196424E-03    0.4588992743E-05    0.5704236196E+00    0.1197341423E-03    0.4467127863E-02
    0.4300000000E+02    0.1137460779E-03    0.4627398958E-05    0.5752356333E+00    0.1217758756E-03    0.4469831324E-02
    0.4500000000E+02    0.1146549399E-03    0.4665201441E-05    0.5796912505E+00    0.1238464588E-03    0.4472335231E-02
    0.4700000000E+02    0.1155508695E-03    0.4702580756E-05    0.5838286571E+00    0.1259460815E-03    0.4474660066E-02
    0.4900000000E+02    0.1164376332E-03    0.4739682593E-05    0.5876807713E+00    0.1280745525E-03    0.4476823542E-02
    0.1000000000E+02    0.8102084294E-04    0.3306196013E-05    0.3662774693E+00    0.8247963977E-04    0.4355723910E-02
    0.3000000000E+02    0.1070687142E-03    0.4353523679E-05    0.5351365475E+00    0.1089382705E-03    0.4447388038E-02
    0.5000000000E+02    0.1168785591E-03    0.4758167201E-05    0.5895089101E+00    0.1291494707E-03    0.4477849665E-02
    0.7000000000E+02    0.1257142981E-03    0.5132188189E-05    0.6163540836E+00    0.1519857075E-03    0.4492759414E-02
    0.9000000000E+02    0.1350658159E-03    0.5531717820E-05    0.6323546923E+00    0.1768031977E-03    0.4501214503E-02
    0.1100000000E+03    0.1450710468E-03    0.5960397892E-05    0.6429780773E+00    0.2029719208E-03    0.4506303215E-02
    0.1300000000E+03    0.1556684145E-03    0.6414764630E-05    0.6505450460E+00    0.2301172558E-03    0.4509380227E-02
    0.1500000000E+03    0.1667776621E-03    0.6891044608E-05    0.6562087914E+00    0.2580215122E-03    0.4511139759E-02
    0.1700000000E+03    0.1783313759E-03    0.7386208078E-05    0.6606071623E+00    0.2865555815E-03    0.4511977110E-02
    0.1900000000E+03    0.1902778033E-03    0.7897979876E-05    0.6641216143E+00    0.3156413810E-03    0.4512135232E-02
    0.2100000000E+03    0.2025782281E-03    0.8424681565E-05    0.6669942749E+00    0.3452313259E-03    0.4511772332E-02
    0.2300000000E+03    0.2152039126E-03    0.8965080108E-05    0.6693862351E+00    0.3752967567E-03    0.4510996206E-02
    0.2500000000E+03    0.2281336012E-03    0.9518271288E-05    0.6714088346E+00    0.4058211717E-03    0.4509883007E-02
    0.2700000000E+03    0.2413516508E-03    0.1008359487E-04    0.6731414922E+00    0.4367961314E-03    0.4508488149E-02
    0.2900000000E+03    0.2548466645E-03    0.1066057371E-04    0.6746423801E+00    0.4682186990E-03    0.4506852949E-02
    0.3100000000E+03    0.2686104977E-03    0.1124887000E-04    0.6759550842E+00    0.5000897987E-03    0.4505008844E-02
    0.3300000000E+03    0.2826375309E-03    0.1184825349E-04    0.6771129058E+00    0.5324131349E-03    0.4502980158E-02
    0.3500000000E+03    0.2969241329E-03    0.1245857831E-04    0.6781417265E+00    0.5651944683E-03    0.4500785986E-02
    0.3700000000E+03    0.3114682617E-03    0.1307976572E-04    0.6790619654E+00    0.5984411212E-03    0.4498441487E-02
    0.3900000000E+03    0.3262691637E-03    0.1371179128E-04    0.6798899482E+00    0.6321616353E-03    0.4495958814E-02
    0.4100000000E+03    0.3413271459E-03    0.1435467509E-04    0.6806388839E+00    0.6663655316E-03    0.4493347786E-02
    0.4300000000E+03    0.3566434008E-03    0.1500847435E-04    0.6813195748E+00    0.7010631422E-03    0.4490616376E-02
    0.4500000000E+03    0.3722198718E-03    0.1567327772E-04    0.6819409405E+00    0.7362654900E-03    0.4487771088E-02
    0.4700000000E+03    0.3880591485E-03    0.1634920084E-04    0.6825104112E+00    0.7719842046E-03    0.4484817233E-02
    0.4900000000E+03    0.4041643849E-03    0.1703638291E-04    0.6830342260E+00    0.8082314626E-03    0.4481759150E-02
    0.1000000000E+03    0.1399893220E-03    0.5742594617E-05    0.6381535688E+00    0.1897468310E-03    0.4504072610E-02
    0.3000000000E+03    0.2616953820E-03    0.1095332378E-04    0.6753199717E+00    0.4840980062E-03    0.4505955348E-02
    0.5000000000E+03    0.4123178619E-03    0.1738424533E-04    0.6832806942E+00    0.8265572399E-03    0.4480192154E-02
    0.7000000000E+03    0.5904838926E-03    0.2498176278E-04    0.6867496940E+00    0.1224206114E-02    0.4443927561E-02
    0.9000000000E+03    0.8019273963E-03    0.3399300957E-04    0.6886916432E+00    0.1692534598E-02    0.4398465028E-02
    0.1100000000E+04    0.1055702961E-02    0.4480497578E-04    0.6899327163E+00    0.2252615314E-02    0.4342719306E-02
    0.1300000000E+04    0.1364714184E-02    0.5796797848E-04    0.6907941913E+00    0.2933452535E-02    0.4274356333E-02
    0.1500000000E+04    0.1747346812E-02    0.7426559205E-04    0.6914270231E+00    0.3775944576E-02    0.4189764651E-02
    0.1700000000E+04    0.2230209462E-02    0.9483157765E-04    0.6919115025E+00    0.4839098233E-02    0.4083631106E-02
    0.1900000000E+04    0.2852475417E-02    0.1213349877E-03    0.6922942714E+00    0.6209751919E-02    0.3948184359E-02
    0.2100000000E+04    0.3672480225E-02    0.1562614397E-03    0.6926042778E+00    0.8017348762E-02    0.3772071913E-02
    0.2300000000E+04    0.4776632633E-02    0.2032931611E-03    0.6928604388E+00    0.1045401701E-01    0.3539010570E-02
    0.2500000000E+04    0.6286927143E-02    0.2676299779E-03    0.6930756386E+00    0.1379199533E-01    0.3227248100E-02
    0.2700000000E+04    0.8349405012E-02    0.3554996527E-03    0.6932589560E+00    0.1835972755E-01    0.2813793843E-02
    0.2900000000E+04    0.1105421784E-01    0.4707552771E-03    0.6934169723E+00    0.2436735063E-01    0.2293014276E-02
    0.3100000000E+04    0.1424081630E-01    0.6065761004E-03    0.6935545746E+00    0.3147566070E-01    0.1714814807E-02
    0.3300000000E+04    0.1737756267E-01    0.7403283090E-03    0.6936754684E+00    0.3852075797E-01    0.1196735465E-02
    0.3500000000E+04    0.1991655462E-01    0.8486663204E-03    0.6937825139E+00    0.4428673984E-01    0.8386673278E-03
    0.3700000000E+04    0.2174569038E-01    0.9267968155E-03    0.6938779541E+00    0.4851064820E-01    0.6410018177E-03
    0.3900000000E+04    0.2306960068E-01    0.9834228872E-03    0.6939635727E+00    0.5163308138E-01    0.5466982633E-03
    0.4100000000E+04    0.2410811024E-01    0.1027902666E-02    0.6940408061E+00    0.5413482683E-01    0.5051865701E-03
    0.4300000000E+04    0.2499652209E-01    0.1065997959E-02    0.6941108235E+00    0.5631338044E-01    0.4878253873E-03
    0.4500000000E+04    0.2580327776E-01    0.1100623722E-02    0.6941745870E+00    0.5831958402E-01    0.4810066249E-03
    0.4700000000E+04    0.2656062193E-01    0.1133153223E-02    0.6942328947E+00    0.6022447298E-01    0.4787054835E-03
    0.4900000000E+04    0.2728356573E-01    0.1164225564E-02    0.6942864148E+00    0.6206095086E-01    0.4783229448E-03
    0.1000000000E+04    0.9228219197E-03    0.3914395978E-04    0.6893737394E+00    0.1959516873E-02    0.4371996267E-02
    0.3000000000E+04    0.1261313324E-01    0.5371946016E-03    0.6934880705E+00    0.2784005016E-01    0.2004841232E-02
    0.5000000000E+04    0.2763454887E-01    0.1179317892E-02    0.6943115591E+00    0.6295876160E-01    0.4784727244E-03
    0.7000000000E+04    0.3360087653E-01    0.1436618365E-02    0.6946626086E+00    0.7889774180E-01    0.4868471361E-03
    0.9000000000E+04    0.3807087270E-01    0.1630550057E-02    0.6948563431E+00    0.9191564843E-01    0.4937727081E-03
    0.1100000000E+05    0.4149543035E-01    0.1780085380E-02    0.6949787315E+00    0.1028072433E+00    0.4993587947E-03
    0.1300000000E+05    0.4416293097E-01    0.1897378143E-02    0.6950628094E+00    0.1120930397E+00    0.5040492065E-03
    0.1500000000E+05    0.4626751667E-01    0.1990625322E-02    0.6951239720E+00    0.1201331251E+00    0.5080972395E-03
    0.1700000000E+05    0.4794426365E-01    0.2065540680E-02    0.6951703559E+00    0.1271849989E+00    0.5116613468E-03
    0.1900000000E+05    0.4928978160E-01    0.2126218648E-02    0.6952066629E+00    0.1334379858E+00    0.5148473937E-03
    0.2100000000E+05    0.5037480701E-01    0.2175662983E-02    0.6952357979E+00    0.1390346137E+00    0.5177296901E-03
    0.2300000000E+05    0.5125218693E-01    0.2216122273E-02    0.6952596515E+00    0.1440843869E+00    0.5203624414E-03
    0.2500000000E+05    0.5196210072E-01    0.2249309603E-02    0.6952795061E+00    0.1486729400E+00    0.5227864267E-03
    0.2700000000E+05    0.5253556887E-01    0.2276550325E-02    0.6952962626E+00    0.1528682902E+00    0.5250331104E-03
    0.2900000000E+05    0.5299686757E-01    0.2298883856E-02    0.6953105715E+00    0.1567252105E+00    0.5271272889E-03
    0.3100000000E+05    0.5336522525E-01    0.2317135287E-02    0.6953229144E+00    0.1602883520E+00    0.5290888571E-03
    0.3300000000E+05    0.5365603709E-01    0.2331966698E-02    0.6953336552E+00    0.1635945172E+00    0.5309340251E-03
    0.3500000000E+05    0.5388174917E-01    0.2343914566E-02    0.6953430741E+00    0.1666743413E+00    0.5326761789E-03
    0.3700000000E+05    0.5405251177E-01    0.2353417434E-02    0.6953513899E+00    0.1695535560E+00    0.5343265030E-03
    0.3900000000E+05    0.5417666871E-01    0.2360836662E-02    0.6953587765E+00    0.1722539517E+00    0.5358944395E-03
    0.4100000000E+05    0.5426112859E-01    0.2366472187E-02    0.6953653730E+00    0.1747941194E+00    0.5373880337E-03
    0.4300000000E+05    0.5431164940E-01    0.2370574623E-02    0.6953712927E+00    0.1771900297E+00    0.5388141981E-03
    0.4500000000E+05    0.5433305924E-01    0.2373354655E-02    0.6953766283E+00    0.1794554887E+00    0.5401789159E-03
    0.4700000000E+05    0.5432942895E-01    0.2374990396E-02    0.6953814567E+00    0.1816025013E+00    0.5414874012E-03
    0.4900000000E+05    0.5430420838E-01    0.2375633202E-02    0.6953858419E+00    0.1836415626E+00    0.5427442261E-03
    0.1000000000E+05    0.3989304231E-01    0.1709991611E-02    0.6949237706E+00    0.9759003467E-01    0.4966992276E-03
    0.3000000000E+05    0.5319162369E-01    0.2308475128E-02    0.6953169636E+00    0.1585410416E+00    0.5281235613E-03
    0.5000000000E+05    0.5428443719E-01    0.2375623397E-02    0.6953878855E+00    0.1846235374E+00    0.5433545446E-03
    0.7000000000E+05    0.5327804936E-01    0.2346415691E-02    0.6954149599E+00    0.2003391908E+00    0.5536179588E-03
    0.9000000000E+05    0.5179290376E-01    0.2292759771E-02    0.6954281242E+00    0.2112869515E+00    0.5614072589E-03
    0.1100000000E+06    0.5024245044E-01    0.2233771179E-02    0.6954352884E+00    0.2195497670E+00    0.5677042082E-03
    0.1300000000E+06    0.4875126282E-01    0.2175600736E-02    0.6954393972E+00    0.2261108113E+00    0.5729994136E-03
    0.1500000000E+06    0.4735591382E-01    0.2120315867E-02    0.6954417793E+00    0.2315061439E+00    0.5775741889E-03
    0.1700000000E+06    0.4606270878E-01    0.2068511031E-02    0.6954431136E+00    0.2360579070E+00    0.5816051706E-03
    0.1900000000E+06    0.4486716857E-01    0.2020213732E-02    0.6954437790E+00    0.2399737668E+00    0.5852106934E-03
    0.2100000000E+06    0.4376127072E-01    0.1975234049E-02    0.6954440013E+00    0.2433948876E+00    0.5884739912E-03
    0.2300000000E+06    0.4273627277E-01    0.1933308456E-02    0.6954439218E+00    0.2464212962E+00    0.5914558778E-03
    0.2500000000E+06    0.4178380807E-01    0.1894160671E-02    0.6954436325E+00    0.2491262760E+00    0.5942021637E-03
    0.2700000000E+06    0.4089627188E-01    0.1857526996E-02    0.6954431957E+00    0.2515650099E+00    0.5967482333E-03
    0.2900000000E+06    0.4006691032E-01    0.1823165888E-02    0.6954426540E+00    0.2537800143E+00    0.5991219975E-03
    0.3100000000E+06    0.3928978761E-01    0.1790860430E-02    0.6954420377E+00    0.2558046903E+00    0.6013458671E-03
    0.3300000000E+06    0.3855970822E-01    0.1760417681E-02    0.6954413687E+00    0.2576657201E+00    0.6034381143E-03
    0.3500000000E+06    0.3787212752E-01    0.1731666737E-02    0.6954406627E+00    0.2593847307E+00    0.6054138365E-03
    0.3700000000E+06    0.3722306530E-01    0.1704456386E-02    0.6954399315E+00    0.2609794760E+00    0.6072856541E-03
    0.3900000000E+06    0.3660902750E-01    0.1678652763E-02    0.6954391838E+00    0.2624646951E+00    0.6090642263E-03
    0.4100000000E+06    0.3602693798E-01    0.1654137161E-02    0.6954384263E+00    0.2638527481E+00    0.6107586393E-03
    0.4300000000E+06    0.3547407975E-01    0.1630804080E-02    0.6954376639E+00    0.2651540930E+00    0.6123767021E-03
    0.4500000000E+06    0.3494804504E-01    0.1608559516E-02    0.6954369004E+00    0.2663776508E+00    0.6139251763E-03
    0.4700000000E+06    0.3444669291E-01    0.1587319478E-02    0.6954361387E+00    0.2675310870E+00    0.6154099562E-03
    0.4900000000E+06    0.3396811330E-01    0.1567008705E-02    0.6954353810E+00    0.2686210327E+00    0.6168362114E-03
    0.1000000000E+06    0.5101481525E-01    0.2263399207E-02    0.6954322150E+00    0.2156776968E+00    0.5647047882E-03
    0.3000000000E+06    0.3967216014E-01    0.1806768804E-02    0.6954423536E+00    0.2548143406E+00    0.6002514430E-03
    0.5000000000E+06    0.3373682185E-01    0.1557180388E-02    0.6954350042E+00    0.2691440297E+00    0.6175288383E-03
    0.7000000000E+06    0.2997335256E-01    0.1396134939E-02    0.6954279126E+00    0.2773462219E+00    0.6291791191E-03
    0.9000000000E+06    0.2730135467E-01    0.1280510104E-02    0.6954217638E+00    0.2828682078E+00    0.6380236714E-03
    0.1100000000E+07    0.2527103413E-01    0.1191925058E-02    0.6954164302E+00    0.2869248073E+00    0.6451749334E-03
    0.1300000000E+07    0.2365702010E-01    0.1121042352E-02    0.6954117444E+00    0.2900736837E+00    0.6511892069E-03
    0.1500000000E+07    0.2233190679E-01    0.1062531715E-02    0.6954075734E+00    0.2926129130E+00    0.6563856132E-03
    0.1700000000E+07    0.2121733720E-01    0.1013090137E-02    0.6954038174E+00    0.2947186765E+00    0.6609645869E-03
    0.1900000000E+07    0.2026202671E-01    0.9705424785E-03    0.6954004020E+00    0.2965028748E+00    0.6650604336E-03
    0.2100000000E+07    0.1943076351E-01    0.9333875397E-03    0.6953972704E+00    0.2980405398E+00    0.6687676362E-03
    0.2300000000E+07    0.1869843452E-01    0.9005498588E-03    0.6953943788E+00    0.2993841615E+00    0.6721552355E-03
    0.2500000000E+07    0.1804656628E-01    0.8712351883E-03    0.6953916925E+00    0.3005717355E+00    0.6752752446E-03
    0.2700000000E+07    0.1746121595E-01    0.8448419560E-03    0.6953891841E+00    0.3016315485E+00    0.6781678424E-03
    0.2900000000E+07    0.1693162960E-01    0.8209047006E-03    0.6953868309E+00    0.3025851613E+00    0.6808647233E-03
    0.3100000000E+07    0.1644935764E-01    0.7990566391E-03    0.6953846147E+00    0.3034493398E+00    0.6833913377E-03
    0.3300000000E+07    0.1600765372E-01    0.7790041428E-03    0.6953825200E+00    0.3042373485E+00    0.6857684371E-03
    0.3500000000E+07    0.1560105530E-01    0.7605088750E-03    0.6953805340E+00    0.3049598402E+00    0.6880131680E-03
    0.3700000000E+07    0.1522508435E-01    0.7433750069E-03    0.6953786456E+00    0.3056254836E+00    0.6901398642E-03
    0.3900000000E+07    0.1487602935E-01    0.7274398836E-03    0.6953768456E+00    0.3062414161E+00    0.6921606328E-03
    0.4100000000E+07    0.1455078373E-01    0.7125670891E-03    0.6953751258E+00    0.3068135753E+00    0.6940857941E-03
    0.4300000000E+07    0.1424672419E-01    0.6986412113E-03    0.6953734793E+00    0.3073469475E+00    0.6959242181E-03
    0.4500000000E+07    0.1396161773E-01    0.6855638344E-03    0.6953718998E+00    0.3078457554E+00    0.6976835853E-03
    0.4700000000E+07    0.1369354971E-01    0.6732504317E-03    0.6953703821E+00    0.3083136026E+00    0.6993705910E-03
    0.4900000000E+07    0.1344086755E-01    0.6616279286E-03    0.6953689214E+00    0.3087535858E+00    0.7009911077E-03
    0.1000000000E+07    0.2622325608E-01    0.1233550927E-02    0.6954190062E+00    0.2850361485E+00    0.6417684608E-03
    0.3000000000E+07    0.1668503526E-01    0.8097393478E-03    0.6953857067E+00    0.3030275307E+00    0.6821479213E-03
    0.5000000000E+07    0.1331984023E-01    0.6560555760E-03    0.6953682111E+00    0.3089639796E+00    0.7017780753E-03
    0.7000000000E+07    0.1144075524E-01    0.5690564304E-03    0.6953561797E+00    0.3122026282E+00    0.7150153899E-03
    0.9000000000E+07    0.1019620324E-01    0.5108951381E-03    0.6953469606E+00    0.3143197628E+00    0.7250649427E-03
    0.1100000000E+08    0.9292523077E-02    0.4683626523E-03    0.6953394655E+00    0.3158437127E+00    0.7331905779E-03
    0.1300000000E+08    0.8597202732E-02    0.4354483518E-03    0.6953331392E+00    0.3170088894E+00    0.7400243412E-03
    0.1500000000E+08    0.8040368922E-02    0.4089621982E-03    0.6953276591E+00    0.3179374642E+00    0.7459288144E-03
    0.1700000000E+08    0.7581173800E-02    0.3870293466E-03    0.6953228206E+00    0.3187002379E+00    0.7511317326E-03
    0.1900000000E+08    0.7193907989E-02    0.3684644408E-03    0.6953184861E+00    0.3193414675E+00    0.7557856970E-03
    0.2100000000E+08    0.6861464373E-02    0.3524756382E-03    0.6953145582E+00    0.3198904377E+00    0.7599980618E-03
    0.2300000000E+08    0.6571953563E-02    0.3385106963E-03    0.6953109652E+00    0.3203674067E+00    0.7638472743E-03
    0.2500000000E+08    0.6316818109E-02    0.3261708959E-03    0.6953076533E+00    0.3207868975E+00    0.7673924339E-03
    0.2700000000E+08    0.6089718833E-02    0.3151600386E-03    0.6953045806E+00    0.3211596317E+00    0.7706791941E-03
