  Pressure (Pa) 22mC5-500 (mol/kg) 23mC5-500 (mol/kg) 24mC5-500 (mol/kg) 2mC6-500 (mol/kg) C7-500 (mol/kg)
    0.1000000000E+01    0.1862778055E-04    0.3824802993E-05    0.3665864804E-01    0.1051188463E-04    0.4198058576E-02
    0.3000000000E+01    0.4918657032E-04    0.1008754426E-04    0.9947616559E-01    0.2713005375E-04    0.4266949807E-02
    0.5000000000E+01    0.7334570862E-04    0.1502854499E-04    0.1513447926E+00    0.3978847957E-04    0.4321201118E-02
    0.7000000000E+01    0.9281764680E-04    0.1900300933E-04    0.1948980880E+00    0.4964299440E-04    0.4366607791E-02
    0.9000000000E+01    0.1087551740E-03    0.2224971375E-04    0.2319876501E+00    0.5744803480E-04    0.4405352885E-02
    0.1100000000E+02    0.1219715881E-03    0.2493694089E-04    0.2639532925E+00    0.6372416093E-04    0.4438860184E-02
    0.1300000000E+02    0.1330571120E-03    0.2718669653E-04    0.2917884415E+00    0.6884130149E-04    0.4468153540E-02
    0.1500000000E+02    0.1424497043E-03    0.2908942362E-04    0.3162452846E+00    0.7306821974E-04    0.4493999213E-02
    0.1700000000E+02    0.1504804622E-03    0.3071342974E-04    0.3379038081E+00    0.7660375918E-04    0.4516985178E-02
    0.1900000000E+02    0.1574037581E-03    0.3211114098E-04    0.3572184093E+00    0.7959732576E-04    0.4537571213E-02
    0.2100000000E+02    0.1634177941E-03    0.3332336488E-04    0.3745501461E+00    0.8216269408E-04    0.4556122493E-02
    0.2300000000E+02    0.1686789447E-03    0.3438226354E-04    0.3901895336E+00    0.8438752906E-04    0.4572932956E-02
    0.2500000000E+02    0.1733119654E-03    0.3531346845E-04    0.4043729709E+00    0.8634008252E-04    0.4588241988E-02
    0.2700000000E+02    0.1774173860E-03    0.3613761137E-04    0.4172947816E+00    0.8807398441E-04    0.4602246596E-02
    0.2900000000E+02    0.1810769502E-03    0.3687144988E-04    0.4291161768E+00    0.8963172319E-04    0.4615110437E-02
    0.3100000000E+02    0.1843576726E-03    0.3752870651E-04    0.4399720199E+00    0.9104720876E-04    0.4626970624E-02
    0.3300000000E+02    0.1873149051E-03    0.3812070244E-04    0.4499759987E+00    0.9234768315E-04    0.4637942922E-02
    0.3500000000E+02    0.1899946795E-03    0.3865684151E-04    0.4592246246E+00    0.9355516091E-04    0.4648125769E-02
    0.3700000000E+02    0.1924355180E-03    0.3914498391E-04    0.4678003586E+00    0.9468752617E-04    0.4657603414E-02
    0.3900000000E+02    0.1946698451E-03    0.3959173745E-04    0.4757740787E+00    0.9575937592E-04    0.4666448398E-02
    0.4100000000E+02    0.1967250984E-03    0.4000268662E-04    0.4832070447E+00    0.9678267393E-04    0.4674723525E-02
    0.4300000000E+02    0.1986246108E-03    0.4038257435E-04    0.4901524764E+00    0.9776726180E-04    0.4682483458E-02
    0.4500000000E+02    0.2003883152E-03    0.4073544714E-04    0.4966568307E+00    0.9872126132E-04    0.4689775997E-02
    0.4700000000E+02    0.2020333130E-03    0.4106477194E-04    0.5027608428E+00    0.9965139336E-04    0.4696643131E-02
    0.4900000000E+02    0.2035743342E-03    0.4137353089E-04    0.5085003810E+00    0.1005632323E-03    0.4703121898E-02
    0.1000000000E+02    0.1156623906E-03    0.2365475728E-04    0.2485422064E+00    0.6075125496E-04    0.4422690009E-02
    0.3000000000E+02    0.1827609642E-03    0.3720889337E-04    0.4346572423E+00    0.9035540754E-04    0.4621158304E-02
    0.5000000000E+02    0.2043099023E-03    0.4152101680E-04    0.5112435267E+00    0.1010137715E-03    0.4706226044E-02
    0.7000000000E+02    0.2158848810E-03    0.4385921242E-04    0.5530138174E+00    0.1098430346E-03    0.4754193305E-02
    0.9000000000E+02    0.2247122265E-03    0.4567774561E-04    0.5793148824E+00    0.1191554360E-03    0.4785198811E-02
    0.1100000000E+03    0.2328723168E-03    0.4738724861E-04    0.5973985511E+00    0.1292460649E-03    0.4806939169E-02
    0.1300000000E+03    0.2410679664E-03    0.4912255781E-04    0.6105961439E+00    0.1400523771E-03    0.4823017306E-02
    0.1500000000E+03    0.2495490958E-03    0.5092928684E-04    0.6206525272E+00    0.1514611231E-03    0.4835355302E-02
    0.1700000000E+03    0.2583979935E-03    0.5282073705E-04    0.6285700659E+00    0.1633707884E-03    0.4845077271E-02
    0.1900000000E+03    0.2676310194E-03    0.5479791100E-04    0.6349656163E+00    0.1757010911E-03    0.4852887191E-02
    0.2100000000E+03    0.2772384817E-03    0.5685722266E-04    0.6402396118E+00    0.1883907628E-03    0.4859249925E-02
    0.2300000000E+03    0.2872012331E-03    0.5899363010E-04    0.6446633282E+00    0.2013934587E-03    0.4864485692E-02
    0.2500000000E+03    0.2974977760E-03    0.6120192923E-04    0.6484270749E+00    0.2146741017E-03    0.4868822824E-02
    0.2700000000E+03    0.3081072776E-03    0.6347726981E-04    0.6516683058E+00    0.2282060444E-03    0.4872428879E-02
    0.2900000000E+03    0.3190107572E-03    0.6581533327E-04    0.6544887790E+00    0.2419689606E-03    0.4875429836E-02
    0.3100000000E+03    0.3301914494E-03    0.6821236332E-04    0.6569654383E+00    0.2559473000E-03    0.4877922398E-02
    0.3300000000E+03    0.3416347967E-03    0.7066513495E-04    0.6591575429E+00    0.2701291548E-03    0.4879982139E-02
    0.3500000000E+03    0.3533282891E-03    0.7317090086E-04    0.6611114724E+00    0.2845054242E-03    0.4881669053E-02
    0.3700000000E+03    0.3652612497E-03    0.7572733305E-04    0.6628640457E+00    0.2990691937E-03    0.4883031426E-02
    0.3900000000E+03    0.3774246139E-03    0.7833246703E-04    0.6644448641E+00    0.3138152691E-03    0.4884108594E-02
    0.4100000000E+03    0.3898107225E-03    0.8098465180E-04    0.6658779970E+00    0.3287398244E-03    0.4884932953E-02
    0.4300000000E+03    0.4024131362E-03    0.8368250624E-04    0.6671832171E+00    0.3438401325E-03    0.4885531439E-02
    0.4500000000E+03    0.4152264747E-03    0.8642488175E-04    0.6683769177E+00    0.3591143568E-03    0.4885926650E-02
    0.4700000000E+03    0.4282462769E-03    0.8921083048E-04    0.6694728055E+00    0.3745613907E-03    0.4886137687E-02
    0.4900000000E+03    0.4414688819E-03    0.9203957849E-04    0.6704824293E+00    0.3901807303E-03    0.4886180811E-02
    0.1000000000E+03    0.2288154517E-03    0.4653446762E-04    0.5891227426E+00    0.1241046898E-03    0.4796946150E-02
    0.3000000000E+03    0.3245674119E-03    0.6700669091E-04    0.6557660323E+00    0.2489320210E-03    0.4876734523E-02
    0.5000000000E+03    0.4481552849E-03    0.9346980226E-04    0.6709580136E+00    0.3980549973E-03    0.4886143840E-02
    0.7000000000E+03    0.5921087849E-03    0.1242339344E-03    0.6776882386E+00    0.5647884854E-03    0.4879109657E-02
    0.9000000000E+03    0.7557628425E-03    0.1591665652E-03    0.6814861005E+00    0.7505831766E-03    0.4863572110E-02
    0.1100000000E+04    0.9409721014E-03    0.1986708729E-03    0.6839249819E+00    0.9585239529E-03    0.4841768974E-02
    0.1300000000E+04    0.1150946949E-02    0.2434358491E-03    0.6856234221E+00    0.1192699501E-02    0.4814319452E-02
    0.1500000000E+04    0.1390074724E-02    0.2943993046E-03    0.6868740429E+00    0.1458269014E-02    0.4781141430E-02
    0.1700000000E+04    0.1664059511E-02    0.3527784047E-03    0.6878332275E+00    0.1761729359E-02    0.4741721987E-02
    0.1900000000E+04    0.1980243118E-02    0.4201384874E-03    0.6885921418E+00    0.2111324033E-02    0.4695189379E-02
    0.2100000000E+04    0.2348097033E-02    0.4984981291E-03    0.6892075215E+00    0.2517616804E-02    0.4640299680E-02
    0.2300000000E+04    0.2779922133E-02    0.5904783877E-03    0.6897165235E+00    0.2994285012E-02    0.4575370390E-02
    0.2500000000E+04    0.3291821143E-02    0.6995101234E-03    0.6901445006E+00    0.3559211751E-02    0.4498167973E-02
    0.2700000000E+04    0.3905027632E-02    0.8301173008E-03    0.6905093438E+00    0.4235974975E-02    0.4405747549E-02
    0.2900000000E+04    0.4647670673E-02    0.9882931896E-03    0.6908240391E+00    0.5055827004E-02    0.4294243825E-02
    0.3100000000E+04    0.5556975708E-02    0.1181969682E-02    0.6910982406E+00    0.6060173710E-02    0.4158627983E-02
    0.3300000000E+04    0.6681617872E-02    0.1421519450E-02    0.6913392748E+00    0.7303253315E-02    0.3992494527E-02
    0.3500000000E+04    0.8083152805E-02    0.1720062206E-02    0.6915528017E+00    0.8853846307E-02    0.3788066817E-02
    0.3700000000E+04    0.9833593174E-02    0.2092950869E-02    0.6917432634E+00    0.1079279694E-01    0.3536879816E-02
    0.3900000000E+04    0.1200275103E-01    0.2555078701E-02    0.6919141951E+00    0.1319928932E-01    0.3232049143E-02
    0.4100000000E+04    0.1462551304E-01    0.3113911723E-02    0.6920684446E+00    0.1611489667E-01    0.2873342535E-02
    0.4300000000E+04    0.1764521471E-01    0.3757425690E-02    0.6922083324E+00    0.1948081615E-01    0.2474987120E-02
    0.4500000000E+04    0.2086267939E-01    0.4443238986E-02    0.6923357678E+00    0.2308045848E-01    0.2071060297E-02
    0.4700000000E+04    0.2396596931E-01    0.5104927445E-02    0.6924523361E+00    0.2657046611E-01    0.1707917085E-02
    0.4900000000E+04    0.2667175444E-01    0.5682122439E-02    0.6925593650E+00    0.2963589706E-01    0.1422064099E-02
    0.1000000000E+04    0.8454998932E-03    0.1783099931E-03    0.6828253654E+00    0.8515527373E-03    0.4853393044E-02
    0.3000000000E+04    0.5078742264E-02    0.1080108255E-02    0.6909656981E+00    0.5531878963E-02    0.4229816264E-02
    0.5000000000E+04    0.2783072626E-01    0.5929466715E-02    0.6926096591E+00    0.3095862975E-01    0.1312162309E-02
    0.7000000000E+04    0.3822884084E-01    0.8156490556E-02    0.6933126398E+00    0.4350627783E-01    0.9368735041E-03
    0.9000000000E+04    0.4434362557E-01    0.9473709744E-02    0.6937013777E+00    0.5155502695E-01    0.9490720550E-03
    0.1100000000E+05    0.4930778175E-01    0.1054736549E-01    0.6939473483E+00    0.5848375110E-01    0.9599149254E-03
    0.1300000000E+05    0.5340315350E-01    0.1143678435E-01    0.6941165582E+00    0.6454386498E-01    0.9690069135E-03
    0.1500000000E+05    0.5682227359E-01    0.1218251921E-01    0.6942398051E+00    0.6990836303E-01    0.9768434823E-03
    0.1700000000E+05    0.5970565820E-01    0.1281420289E-01    0.6943333824E+00    0.7470587463E-01    0.9837365275E-03
    0.1900000000E+05    0.6215816441E-01    0.1335397577E-01    0.6944067129E+00    0.7903420023E-01    0.9898937858E-03
    0.2100000000E+05    0.6425954132E-01    0.1381869794E-01    0.6944656223E+00    0.8296912752E-01    0.9954607138E-03
    0.2300000000E+05    0.6607145886E-01    0.1422142397E-01    0.6945139044E+00    0.8657037024E-01    0.1000543208E-02
    0.2500000000E+05    0.6764231051E-01    0.1457241125E-01    0.6945541348E+00    0.8988567187E-01    0.1005220808E-02
    0.2700000000E+05    0.6901056920E-01    0.1487982509E-01    0.6945881230E+00    0.9295370535E-01    0.1009554806E-02
    0.2900000000E+05    0.7020717910E-01    0.1515024160E-01    0.6946171768E+00    0.9580616310E-01    0.1013593450E-02
    0.3100000000E+05    0.7125729084E-01    0.1538901283E-01    0.6946422647E+00    0.9846929036E-01    0.1017375415E-02
    0.3300000000E+05    0.7218154060E-01    0.1560053607E-01    0.6946641190E+00    0.1009650281E+00    0.1020932188E-02
    0.3500000000E+05    0.7299700658E-01    0.1578845541E-01    0.6946833036E+00    0.1033118776E+00    0.1024289752E-02
    0.3700000000E+05    0.7371793371E-01    0.1595581461E-01    0.6947002594E+00    0.1055255621E+00    0.1027469800E-02
    0.3900000000E+05    0.7435628933E-01    0.1610517430E-01    0.6947153362E+00    0.1076195410E+00    0.1030490641E-02
    0.4100000000E+05    0.7492219388E-01    0.1623870299E-01    0.6947288149E+00    0.1096054116E+00    0.1033367864E-02
    0.4300000000E+05    0.7542425821E-01    0.1635824836E-01    0.6947409237E+00    0.1114932282E+00    0.1036114857E-02
    0.4500000000E+05    0.7586985008E-01    0.1646539362E-01    0.6947518498E+00    0.1132917567E+00    0.1038743206E-02
    0.4700000000E+05    0.7626530658E-01    0.1656150250E-01    0.6947617481E+00    0.1150086794E+00    0.1041263002E-02
    0.4900000000E+05    0.7661610486E-01    0.1664775538E-01    0.6947707481E+00    0.1166507624E+00    0.1043683092E-02
    0.1000000000E+05    0.4694899806E-01    0.1003666058E-01    0.6938368461E+00    0.5514103203E-01    0.9547533600E-03
    0.3000000000E+05    0.7074916420E-01    0.1527328831E-01    0.6946301661E+00    0.9715993212E-01    0.1015514404E-02
    0.5000000000E+05    0.7677626818E-01    0.1668751189E-01    0.6947749459E+00    0.1174456369E+00    0.1044858220E-02
    0.7000000000E+05    0.7851211304E-01    0.1715506811E-01    0.6948308700E+00    0.1305592575E+00    0.1064613338E-02
    0.9000000000E+05    0.7872140162E-01    0.1727546916E-01    0.6948584478E+00    0.1401949759E+00    0.1079599757E-02
    0.1100000000E+06    0.7828563847E-01    0.1724326351E-01    0.6948737301E+00    0.1477957427E+00    0.1091711854E-02
    0.1300000000E+06    0.7755572955E-01    0.1713744989E-01    0.6948827147E+00    0.1540649773E+00    0.1101895405E-02
    0.1500000000E+06    0.7669117499E-01    0.1699477866E-01    0.6948881174E+00    0.1593960429E+00    0.1110692402E-02
    0.1700000000E+06    0.7577086174E-01    0.1683394249E-01    0.6948913316E+00    0.1640305348E+00    0.1118443025E-02
    0.1900000000E+06    0.7483593279E-01    0.1666503904E-01    0.6948931378E+00    0.1681272934E+00    0.1125375107E-02
    0.2100000000E+06    0.7390846549E-01    0.1649374262E-01    0.6948940028E+00    0.1717962887E+00    0.1131648866E-02
    0.2300000000E+06    0.7300035640E-01    0.1632331383E-01    0.6948942201E+00    0.1751168033E+00    0.1137381340E-02
    0.2500000000E+06    0.7211784104E-01    0.1615563645E-01    0.6948939822E+00    0.1781478878E+00    0.1142660682E-02
    0.2700000000E+06    0.7126391684E-01    0.1599178197E-01    0.6948934190E+00    0.1809347154E+00    0.1147554974E-02
    0.2900000000E+06    0.7043969700E-01    0.1583233061E-01    0.6948926210E+00    0.1835126228E+00    0.1152117914E-02
    0.3100000000E+06    0.6964519214E-01    0.1567756046E-01    0.6948916523E+00    0.1859097796E+00    0.1156392613E-02
    0.3300000000E+06    0.6887977307E-01    0.1552756206E-01    0.6948905593E+00    0.1881490092E+00    0.1160414220E-02
    0.3500000000E+06    0.6814245014E-01    0.1538230951E-01    0.6948893762E+00    0.1902490643E+00    0.1164211773E-02
    0.3700000000E+06    0.6743204387E-01    0.1524170535E-01    0.6948881284E+00    0.1922255439E+00    0.1167809545E-02
    0.3900000000E+06    0.6674729001E-01    0.1510560934E-01    0.6948868350E+00    0.1940915644E+00    0.1171228038E-02
    0.4100000000E+06    0.6608690392E-01    0.1497385702E-01    0.6948855106E+00    0.1958582620E+00    0.1174484726E-02
    0.4300000000E+06    0.6544961976E-01    0.1484627181E-01    0.6948841663E+00    0.1975351724E+00    0.1177594625E-02
    0.4500000000E+06    0.6483421361E-01    0.1472267284E-01    0.6948828107E+00    0.1991305251E+00    0.1180570739E-02
    0.4700000000E+06    0.6423951645E-01    0.1460288003E-01    0.6948814504E+00    0.2006514714E+00    0.1183424402E-02
    0.4900000000E+06    0.6366442061E-01    0.1448671729E-01    0.6948800905E+00    0.2021042658E+00    0.1186165555E-02
    0.1000000000E+06    0.7855558546E-01    0.1727204744E-01    0.6948671349E+00    0.1441955738E+00    0.1085942811E-02
    0.3000000000E+06    0.7003875847E-01    0.1575435132E-01    0.6948921547E+00    0.1847322603E+00    0.1154288935E-02
    0.5000000000E+06    0.6338389448E-01    0.1442994375E-01    0.6948794120E+00    0.2028068514E+00    0.1187496720E-02
    0.7000000000E+06    0.5858216319E-01    0.1344787983E-01    0.6948664581E+00    0.2143258003E+00    0.1209886603E-02
    0.9000000000E+06    0.5489815600E-01    0.1268258889E-01    0.6948550545E+00    0.2226708364E+00    0.1226883367E-02
    0.1100000000E+07    0.5194099828E-01    0.1206157899E-01    0.6948450890E+00    0.2291477780E+00    0.1240625573E-02
    0.1300000000E+07    0.4948923493E-01    0.1154240111E-01    0.6948362943E+00    0.2343990182E+00    0.1252182562E-02
    0.1500000000E+07    0.4740708296E-01    0.1109851355E-01    0.6948284420E+00    0.2387875632E+00    0.1262167722E-02
    0.1700000000E+07    0.4560584075E-01    0.1071233944E-01    0.6948213555E+00    0.2425381447E+00    0.1270966293E-02
    0.1900000000E+07    0.4402461163E-01    0.1037168572E-01    0.6948149007E+00    0.2457992536E+00    0.1278836407E-02
    0.2100000000E+07    0.4261990300E-01    0.1006777119E-01    0.6948089744E+00    0.2486739350E+00    0.1285959652E-02
    0.2300000000E+07    0.4135964105E-01    0.9794075039E-02    0.6948034962E+00    0.2512364901E+00    0.1292468715E-02
    0.2500000000E+07    0.4021953875E-01    0.9545630205E-02    0.6947984026E+00    0.2535421728E+00    0.1298463558E-02
    0.2700000000E+07    0.3918079268E-01    0.9318571176E-02    0.6947936425E+00    0.2556331285E+00    0.1304021396E-02
    0.2900000000E+07    0.3822856735E-01    0.9109834178E-02    0.6947891741E+00    0.2575421956E+00    0.1309203139E-02
    0.3100000000E+07    0.3735096610E-01    0.8916952258E-02    0.6947849633E+00    0.2592954277E+00    0.1314057696E-02
    0.3300000000E+07    0.3653831296E-01    0.8737911512E-02    0.6947809815E+00    0.2609138209E+00    0.1318624946E-02
    0.3500000000E+07    0.3578263981E-01    0.8571047873E-02    0.6947772044E+00    0.2624145265E+00    0.1322937840E-02
    0.3700000000E+07    0.3507731238E-01    0.8414971524E-02    0.6947736117E+00    0.2638117239E+00    0.1327023924E-02
    0.3900000000E+07    0.3441675262E-01    0.8268510546E-02    0.6947701859E+00    0.2651172599E+00    0.1330906462E-02
    0.4100000000E+07    0.3379622909E-01    0.8130668233E-02    0.6947669117E+00    0.2663411266E+00    0.1334605287E-02
    0.4300000000E+07    0.3321169652E-01    0.8000590294E-02    0.6947637760E+00    0.2674918236E+00    0.1338137445E-02
    0.4500000000E+07    0.3265967138E-01    0.7877539341E-02    0.6947607673E+00    0.2685766365E+00    0.1341517694E-02
    0.4700000000E+07    0.3213713409E-01    0.7760874791E-02    0.6947578755E+00    0.2696018537E+00    0.1344758901E-02
    0.4900000000E+07    0.3164145156E-01    0.7650036883E-02    0.6947550915E+00    0.2705729381E+00    0.1347872349E-02
    0.1000000000E+07    0.5334523328E-01    0.1235719182E-01    0.6948499090E+00    0.2260935205E+00    0.1234079588E-02
    0.3000000000E+07    0.3778108870E-01    0.9011546451E-02    0.6947870385E+00    0.2584368764E+00    0.1311668640E-02
    0.5000000000E+07    0.3140294811E-01    0.7596646883E-02    0.6947537375E+00    0.2710396958E+00    0.1349384320E-02
    0.7000000000E+07    0.2760723349E-01    0.6741660677E-02    0.6947307842E+00    0.2784280310E+00    0.1374816192E-02
    0.9000000000E+07    0.2499357807E-01    0.6146872893E-02    0.6947131751E+00    0.2834761089E+00    0.1394123057E-02
    0.1100000000E+08    0.2304347775E-01    0.5699651559E-02    0.6946988484E+00    0.2872243073E+00    0.1409733389E-02
    0.1300000000E+08    0.2151195798E-01    0.5346242603E-02    0.6946867494E+00    0.2901580829E+00    0.1422861628E-02
    0.1500000000E+08    0.2026544842E-01    0.5057110934E-02    0.6946762646E+00    0.2925399808E+00    0.1434204440E-02
    0.1700000000E+08    0.1922380812E-01    0.4814425251E-02    0.6946670047E+00    0.2945266100E+00    0.1444199387E-02
    0.1900000000E+08    0.1833552471E-01    0.4606664083E-02    0.6946587072E+00    0.2962181901E+00    0.1453139669E-02
    0.2100000000E+08    0.1756571570E-01    0.4425990264E-02    0.6946511864E+00    0.2976823501E+00    0.1461231548E-02
    0.2300000000E+08    0.1688977342E-01    0.4266853200E-02    0.6946443059E+00    0.2989666637E+00    0.1468625745E-02
    0.2500000000E+08    0.1628975604E-01    0.4125191570E-02    0.6946379627E+00    0.3001057358E+00    0.1475435804E-02
    0.2700000000E+08    0.1575222102E-01    0.3997952824E-02    0.6946320768E+00    0.3011254420E+00    0.1481749440E-02
