  Pressure (Pa) 22mC5-500 (mol/kg) 23mC5-500 (mol/kg) 24mC5-500 (mol/kg) 2mC6-500 (mol/kg) C7-500 (mol/kg)
    0.1000000000E+01    0.2123678881E-04    0.1526051547E-05    0.3665790940E-01    0.1395267106E-04    0.4208833236E-02
    0.3000000000E+01    0.5609596212E-04    0.4026313690E-05    0.9947077841E-01    0.3603241954E-04    0.4292903891E-02
    0.5000000000E+01    0.8364961540E-04    0.5998504514E-05    0.1513324359E+00    0.5284349159E-04    0.4360352984E-02
    0.7000000000E+01    0.1058506722E-03    0.7584394636E-05    0.1948777730E+00    0.6592149836E-04    0.4416981127E-02
    0.9000000000E+01    0.1240154369E-03    0.8879406854E-05    0.2319591032E+00    0.7627069469E-04    0.4465358744E-02
    0.1100000000E+02    0.1390728278E-03    0.9950811701E-05    0.2639166241E+00    0.8458434117E-04    0.4507223096E-02
    0.1300000000E+02    0.1516970271E-03    0.1084738458E-04    0.2917439630E+00    0.9135516802E-04    0.4543837960E-02
    0.1500000000E+02    0.1623882969E-03    0.1160528304E-04    0.3161934046E+00    0.9694116977E-04    0.4576153807E-02
    0.1700000000E+02    0.1715248280E-03    0.1225181473E-04    0.3378449741E+00    0.1016072026E-03    0.4604901768E-02
    0.1900000000E+02    0.1793971632E-03    0.1280793752E-04    0.3571530751E+00    0.1055522638E-03    0.4630654373E-02
    0.2100000000E+02    0.1862316784E-03    0.1328996398E-04    0.3744787528E+00    0.1089278825E-03    0.4653866744E-02
    0.2300000000E+02    0.1922069682E-03    0.1371075011E-04    0.3901125004E+00    0.1118508057E-03    0.4674905428E-02
    0.2500000000E+02    0.1974655088E-03    0.1408054099E-04    0.4042906902E+00    0.1144119190E-03    0.4694069067E-02
    0.2700000000E+02    0.2021221040E-03    0.1440758286E-04    0.4172076177E+00    0.1166826311E-03    0.4711603502E-02
    0.2900000000E+02    0.2062700996E-03    0.1469857315E-04    0.4290244658E+00    0.1187195096E-03    0.4727713004E-02
    0.3100000000E+02    0.2099860181E-03    0.1495899604E-04    0.4398760710E+00    0.1205676964E-03    0.4742568738E-02
    0.3300000000E+02    0.2133330612E-03    0.1519337577E-04    0.4498760959E+00    0.1222634526E-03    0.4756315242E-02
    0.3500000000E+02    0.2163637867E-03    0.1540547016E-04    0.4591210281E+00    0.1238360774E-03    0.4769075431E-02
    0.3700000000E+02    0.2191221756E-03    0.1559842003E-04    0.4676933072E+00    0.1253093696E-03    0.4780954512E-02
    0.3900000000E+02    0.2216452452E-03    0.1577486561E-04    0.4756637913E+00    0.1267027511E-03    0.4792043079E-02
    0.4100000000E+02    0.2239643182E-03    0.1593703816E-04    0.4830937223E+00    0.1280321375E-03    0.4802419573E-02
    0.4300000000E+02    0.2261060296E-03    0.1608683256E-04    0.4900363035E+00    0.1293106190E-03    0.4812152265E-02
    0.4500000000E+02    0.2280931325E-03    0.1622586537E-04    0.4965379769E+00    0.1305489963E-03    0.4821300864E-02
    0.4700000000E+02    0.2299451464E-03    0.1635552157E-04    0.5026394644E+00    0.1317562054E-03    0.4829917817E-02
    0.4900000000E+02    0.2316788833E-03    0.1647699236E-04    0.5083766220E+00    0.1329396560E-03    0.4838049395E-02
    0.1000000000E+02    0.1318855742E-03    0.9439660230E-05    0.2485095692E+00    0.8064738851E-04    0.4487017324E-02
    0.3000000000E+02    0.2081778409E-03    0.1483230277E-04    0.4345633753E+00    0.1196647401E-03    0.4735287999E-02
    0.5000000000E+02    0.2325060187E-03    0.1653498522E-04    0.5111186278E+00    0.1335244382E-03    0.4841946158E-02
    0.7000000000E+02    0.2454893780E-03    0.1745209092E-04    0.5528714764E+00    0.1450072525E-03    0.4902236754E-02
    0.9000000000E+02    0.2553736256E-03    0.1816437440E-04    0.5791615811E+00    0.1571831010E-03    0.4941319736E-02
    0.1100000000E+03    0.2645307024E-03    0.1883567495E-04    0.5972377704E+00    0.1704398027E-03    0.4968813301E-02
    0.1300000000E+03    0.2737609913E-03    0.1951971924E-04    0.6104299369E+00    0.1846911340E-03    0.4989220865E-02
    0.1500000000E+03    0.2833485924E-03    0.2023464106E-04    0.6204821949E+00    0.1997845869E-03    0.5004945369E-02
    0.1700000000E+03    0.2933867335E-03    0.2098570130E-04    0.6283964801E+00    0.2155840294E-03    0.5017392421E-02
    0.1900000000E+03    0.3038937221E-03    0.2177327268E-04    0.6347893885E+00    0.2319820897E-03    0.5027442446E-02
    0.2100000000E+03    0.3148583708E-03    0.2259591305E-04    0.6400611863E+00    0.2488970495E-03    0.5035676913E-02
    0.2300000000E+03    0.3262588816E-03    0.2345161232E-04    0.6444830383E+00    0.2662673061E-03    0.5042496432E-02
    0.2500000000E+03    0.3380709160E-03    0.2433830628E-04    0.6482451765E+00    0.2840464449E-03    0.5048186692E-02
    0.2700000000E+03    0.3502710076E-03    0.2525408058E-04    0.6514850004E+00    0.3021994214E-03    0.5052957364E-02
    0.2900000000E+03    0.3628378991E-03    0.2619724036E-04    0.6543042278E+00    0.3206997276E-03    0.5056966100E-02
    0.3100000000E+03    0.3757529410E-03    0.2716632135E-04    0.6567797726E+00    0.3395273148E-03    0.5060333921E-02
    0.3300000000E+03    0.3890000747E-03    0.2816007674E-04    0.6589708712E+00    0.3586670719E-03    0.5063155403E-02
    0.3500000000E+03    0.4025656401E-03    0.2917745521E-04    0.6609238854E+00    0.3781077027E-03    0.5065505619E-02
    0.3700000000E+03    0.4164381267E-03    0.3021757716E-04    0.6626756201E+00    0.3978408928E-03    0.5067444981E-02
    0.3900000000E+03    0.4306079163E-03    0.3127971212E-04    0.6642556654E+00    0.4178606838E-03    0.5069022693E-02
    0.4100000000E+03    0.4450670440E-03    0.3236325855E-04    0.6656880819E+00    0.4381630009E-03    0.5070279263E-02
    0.4300000000E+03    0.4598089852E-03    0.3346772622E-04    0.6669926347E+00    0.4587452908E-03    0.5071248362E-02
    0.4500000000E+03    0.4748284687E-03    0.3459272115E-04    0.6681857112E+00    0.4796062436E-03    0.5071958217E-02
    0.4700000000E+03    0.4901213169E-03    0.3573793291E-04    0.6692810131E+00    0.5007455767E-03    0.5072432670E-02
    0.4900000000E+03    0.5056843093E-03    0.3690312374E-04    0.6702900846E+00    0.5221638653E-03    0.5072692006E-02
    0.1000000000E+03    0.2599744482E-03    0.1850050027E-04    0.5889653780E+00    0.1636781876E-03    0.4956164005E-02
    0.3000000000E+03    0.3692529639E-03    0.2667862349E-04    0.6555809091E+00    0.3300736564E-03    0.5058723688E-02
    0.5000000000E+03    0.5135663359E-03    0.3749315463E-04    0.6707654043E+00    0.5329779989E-03    0.5072746529E-02
    0.7000000000E+03    0.6851795354E-03    0.5032803585E-04    0.6774914645E+00    0.7645268124E-03    0.5065673594E-02
    0.9000000000E+03    0.8846092253E-03    0.6522544767E-04    0.6812864259E+00    0.1028302879E-02    0.5047314157E-02
    0.1100000000E+04    0.1115783018E-02    0.8248144858E-04    0.6837230661E+00    0.1330751526E-02    0.5020255329E-02
    0.1300000000E+04    0.1384901066E-02    0.1025603308E-03    0.6854196704E+00    0.1680589639E-02    0.4984954618E-02
    0.1500000000E+04    0.1700535432E-02    0.1261024706E-03    0.6866687304E+00    0.2089288250E-02    0.4940850883E-02
    0.1700000000E+04    0.2074248923E-02    0.1539707765E-03    0.6876265540E+00    0.2572023947E-02    0.4886643989E-02
    0.1900000000E+04    0.2521652776E-02    0.1873297387E-03    0.6883842594E+00    0.3149120847E-02    0.4820295957E-02
    0.2100000000E+04    0.3064006387E-02    0.2277648362E-03    0.6889985500E+00    0.3848164243E-02    0.4738882553E-02
    0.2300000000E+04    0.3730557670E-02    0.2774571630E-03    0.6895065600E+00    0.4707065863E-02    0.4638320279E-02
    0.2500000000E+04    0.4561866475E-02    0.3394313983E-03    0.6899336255E+00    0.5778412550E-02    0.4512966946E-02
    0.2700000000E+04    0.5614231615E-02    0.4178861977E-03    0.6902976247E+00    0.7135279012E-02    0.4355116811E-02
    0.2900000000E+04    0.6964649303E-02    0.5185644865E-03    0.6906115340E+00    0.8877807556E-02    0.4154534663E-02
    0.3100000000E+04    0.8713365826E-02    0.6489449187E-03    0.6908849996E+00    0.1113682973E-01    0.3898551709E-02
    0.3300000000E+04    0.1097479270E-01    0.8175664982E-03    0.6911253415E+00    0.1406268400E-01    0.3574162239E-02
    0.3500000000E+04    0.1383596688E-01    0.1030934123E-02    0.6913382148E+00    0.1777228613E-01    0.3175017310E-02
    0.3700000000E+04    0.1725884095E-01    0.1286234748E-02    0.6915280574E+00    0.2222319173E-01    0.2715751257E-02
    0.3900000000E+04    0.2096383928E-01    0.1562649679E-02    0.6916984006E+00    0.2706143775E-01    0.2245903705E-02
    0.4100000000E+04    0.2446822971E-01    0.1824200030E-02    0.6918520894E+00    0.3166675079E-01    0.1837801909E-02
    0.4300000000E+04    0.2737265845E-01    0.2041099586E-02    0.6919914416E+00    0.3551986352E-01    0.1541576000E-02
    0.4500000000E+04    0.2958902656E-01    0.2206754836E-02    0.6921183641E+00    0.3849985580E-01    0.1357591008E-02
    0.4700000000E+04    0.3126062530E-01    0.2331827538E-02    0.6922344406E+00    0.4078578240E-01    0.1255415294E-02
    0.4900000000E+04    0.3257670339E-01    0.2430415391E-02    0.6923409968E+00    0.4261876402E-01    0.1202697453E-02
    0.1000000000E+04    0.9958918834E-03    0.7353340729E-04    0.6826245080E+00    0.1174204643E-02    0.5034813267E-02
    0.3000000000E+04    0.7782142625E-02    0.5795138283E-03    0.6907528192E+00    0.9933491847E-02    0.4034322225E-02
    0.5000000000E+04    0.3314844401E-01    0.2473281512E-02    0.6923910613E+00    0.4342565595E-01    0.1187451651E-02
    0.7000000000E+04    0.4131023284E-01    0.3087262701E-02    0.6930901710E+00    0.5554607424E-01    0.1169171736E-02
    0.9000000000E+04    0.4742325937E-01    0.3549420279E-02    0.6934759575E+00    0.6531784936E-01    0.1185970183E-02
    0.1100000000E+05    0.5227933405E-01    0.3918339863E-02    0.6937195330E+00    0.7363743800E-01    0.1199522561E-02
    0.1300000000E+05    0.5619910902E-01    0.4217649612E-02    0.6938867224E+00    0.8083847401E-01    0.1210880883E-02
    0.1500000000E+05    0.5940456163E-01    0.4463729630E-02    0.6940082194E+00    0.8715692871E-01    0.1220670738E-02
    0.1700000000E+05    0.6205415344E-01    0.4668290203E-02    0.6941002512E+00    0.9276499886E-01    0.1229281837E-02
    0.1900000000E+05    0.6426383817E-01    0.4839913076E-02    0.6941721969E+00    0.9779149783E-01    0.1236973713E-02
    0.2100000000E+05    0.6612028557E-01    0.4985022416E-02    0.6942298509E+00    0.1023348579E+00    0.1243928092E-02
    0.2300000000E+05    0.6768948144E-01    0.5108516782E-02    0.6942769842E+00    0.1064716973E+00    0.1250277273E-02
    0.2500000000E+05    0.6902248074E-01    0.5214192244E-02    0.6943161554E+00    0.1102626266E+00    0.1256120626E-02
    0.2700000000E+05    0.7015935239E-01    0.5305032759E-02    0.6943491604E+00    0.1137562826E+00    0.1261534724E-02
    0.2900000000E+05    0.7113194376E-01    0.5383413838E-02    0.6943772966E+00    0.1169921929E+00    0.1266579845E-02
    0.3100000000E+05    0.7196585581E-01    0.5451248187E-02    0.6944015241E+00    0.1200028489E+00    0.1271304305E-02
    0.3300000000E+05    0.7268187895E-01    0.5510091676E-02    0.6944225683E+00    0.1228152334E+00    0.1275747440E-02
    0.3500000000E+05    0.7329705319E-01    0.5561221653E-02    0.6944409873E+00    0.1254519630E+00    0.1279941709E-02
    0.3700000000E+05    0.7382546202E-01    0.5605695640E-02    0.6944572172E+00    0.1279321548E+00    0.1283914218E-02
    0.3900000000E+05    0.7427883459E-01    0.5644395893E-02    0.6944716039E+00    0.1302720929E+00    0.1287687836E-02
    0.4100000000E+05    0.7466700775E-01    0.5678063632E-02    0.6944844247E+00    0.1324857460E+00    0.1291282038E-02
    0.4300000000E+05    0.7499828452E-01    0.5707325613E-02    0.6944959049E+00    0.1345851750E+00    0.1294713552E-02
    0.4500000000E+05    0.7527971482E-01    0.5732714963E-02    0.6945062292E+00    0.1365808556E+00    0.1297996849E-02
    0.4700000000E+05    0.7551731743E-01    0.5754687669E-02    0.6945155501E+00    0.1384819374E+00    0.1301144538E-02
    0.4900000000E+05    0.7571625691E-01    0.5773635729E-02    0.6945239951E+00    0.1402964531E+00    0.1304167670E-02
    0.1000000000E+05    0.4998550465E-01    0.3743847293E-02    0.6936101726E+00    0.6963548727E-01    0.1193073900E-02
    0.3000000000E+05    0.7156483650E-01    0.5418544778E-02    0.6943898490E+00    0.1185238771E+00    0.1268979516E-02
    0.5000000000E+05    0.7580264390E-01    0.5782083167E-02    0.6945279234E+00    0.1411734959E+00    0.1305635616E-02
    0.7000000000E+05    0.7631146840E-01    0.5854132272E-02    0.6945793054E+00    0.1555187246E+00    0.1330313123E-02
    0.9000000000E+05    0.7563374026E-01    0.5829166310E-02    0.6946034258E+00    0.1659046115E+00    0.1349033475E-02
    0.1100000000E+06    0.7452571731E-01    0.5766421502E-02    0.6946159075E+00    0.1739976095E+00    0.1364163211E-02
    0.1300000000E+06    0.7326790437E-01    0.5688515969E-02    0.6946225336E+00    0.1806020025E+00    0.1376883818E-02
    0.1500000000E+06    0.7197758695E-01    0.5605271681E-02    0.6946258965E+00    0.1861645740E+00    0.1387872363E-02
    0.1700000000E+06    0.7070676266E-01    0.5521281375E-02    0.6946273118E+00    0.1909583320E+00    0.1397553801E-02
    0.1900000000E+06    0.6947856892E-01    0.5438765850E-02    0.6946275077E+00    0.1951619947E+00    0.1406212743E-02
    0.2100000000E+06    0.6830252439E-01    0.5358789916E-02    0.6946269144E+00    0.1988988109E+00    0.1414049329E-02
    0.2300000000E+06    0.6718146771E-01    0.5281826896E-02    0.6946257985E+00    0.2022573090E+00    0.1421209765E-02
    0.2500000000E+06    0.6611491691E-01    0.5208038312E-02    0.6946243321E+00    0.2053031922E+00    0.1427804169E-02
    0.2700000000E+06    0.6510076958E-01    0.5137419453E-02    0.6946226296E+00    0.2080865483E+00    0.1433917588E-02
    0.2900000000E+06    0.6413618915E-01    0.5069877955E-02    0.6946207689E+00    0.2106464255E+00    0.1439617100E-02
    0.3100000000E+06    0.6321807422E-01    0.5005277337E-02    0.6946188044E+00    0.2130138473E+00    0.1444956558E-02
    0.3300000000E+06    0.6234330677E-01    0.4943461503E-02    0.6946167742E+00    0.2152138657E+00    0.1449979867E-02
    0.3500000000E+06    0.6150888056E-01    0.4884268604E-02    0.6946147059E+00    0.2172669976E+00    0.1454723304E-02
    0.3700000000E+06    0.6071196319E-01    0.4827538795E-02    0.6946126193E+00    0.2191902541E+00    0.1459217188E-02
    0.3900000000E+06    0.5994992153E-01    0.4773118455E-02    0.6946105287E+00    0.2209978934E+00    0.1463487129E-02
    0.4100000000E+06    0.5922032690E-01    0.4720862328E-02    0.6946084446E+00    0.2227019827E+00    0.1467554955E-02
    0.4300000000E+06    0.5852094935E-01    0.4670634434E-02    0.6946063748E+00    0.2243128234E+00    0.1471439423E-02
    0.4500000000E+06    0.5784974639E-01    0.4622308260E-02    0.6946043247E+00    0.2258392783E+00    0.1475156778E-02
    0.4700000000E+06    0.5720484924E-01    0.4575766553E-02    0.6946022984E+00    0.2272890259E+00    0.1478721176E-02
    0.4900000000E+06    0.5658454838E-01    0.4530900874E-02    0.6946002987E+00    0.2286687618E+00    0.1482145036E-02
    0.1000000000E+06    0.7511022987E-01    0.5800654516E-02    0.6946106468E+00    0.1701756681E+00    0.1356956870E-02
    0.3000000000E+06    0.6367151991E-01    0.5037219533E-02    0.6946197969E+00    0.2118525068E+00    0.1442328889E-02
    0.5000000000E+06    0.5628312734E-01    0.4509064935E-02    0.6945993094E+00    0.2293342390E+00    0.1483807738E-02
    0.7000000000E+06    0.5122998085E-01    0.4139809490E-02    0.6945811254E+00    0.2400777629E+00    0.1511773754E-02
    0.9000000000E+06    0.4747300065E-01    0.3861591340E-02    0.6945657480E+00    0.2476618190E+00    0.1533003237E-02
    0.1100000000E+07    0.4452342375E-01    0.3641068928E-02    0.6945525676E+00    0.2534315329E+00    0.1550167504E-02
    0.1300000000E+07    0.4211931352E-01    0.3459986502E-02    0.6945410682E+00    0.2580343137E+00    0.1564602275E-02
    0.1500000000E+07    0.4010560312E-01    0.3307384578E-02    0.6945308782E+00    0.2618293414E+00    0.1577073732E-02
    0.1700000000E+07    0.3838353832E-01    0.3176211470E-02    0.6945217314E+00    0.2650354958E+00    0.1588063074E-02
    0.1900000000E+07    0.3688665668E-01    0.3061682710E-02    0.6945134332E+00    0.2677954198E+00    0.1597892727E-02
    0.2100000000E+07    0.3556825825E-01    0.2960413978E-02    0.6945058382E+00    0.2702068978E+00    0.1606789508E-02
    0.2300000000E+07    0.3439437564E-01    0.2869929705E-02    0.6944988350E+00    0.2723396715E+00    0.1614919155E-02
    0.2500000000E+07    0.3333959293E-01    0.2788368444E-02    0.6944923366E+00    0.2742450937E+00    0.1622406523E-02
    0.2700000000E+07    0.3238443814E-01    0.2714297895E-02    0.6944862739E+00    0.2759619839E+00    0.1629348060E-02
    0.2900000000E+07    0.3151369140E-01    0.2646594190E-02    0.6944805911E+00    0.2775203408E+00    0.1635819845E-02
    0.3100000000E+07    0.3071525020E-01    0.2584360528E-02    0.6944752424E+00    0.2789437854E+00    0.1641882969E-02
    0.3300000000E+07    0.2997934634E-01    0.2526870771E-02    0.6944701898E+00    0.2802512200E+00    0.1647587243E-02
    0.3500000000E+07    0.2929799192E-01    0.2473529386E-02    0.6944654017E+00    0.2814579852E+00    0.1652973822E-02
    0.3700000000E+07    0.2866457904E-01    0.2423842393E-02    0.6944608510E+00    0.2825766862E+00    0.1658077113E-02
    0.3900000000E+07    0.2807358492E-01    0.2377395894E-02    0.6944565148E+00    0.2836177949E+00    0.1662926175E-02
    0.4100000000E+07    0.2752035103E-01    0.2333839943E-02    0.6944523733E+00    0.2845900963E+00    0.1667545779E-02
    0.4300000000E+07    0.2700091506E-01    0.2292876237E-02    0.6944484094E+00    0.2855010257E+00    0.1671957215E-02
    0.4500000000E+07    0.2651188147E-01    0.2254248619E-02    0.6944446080E+00    0.2863569259E+00    0.1676178918E-02
    0.4700000000E+07    0.2605032046E-01    0.2217735630E-02    0.6944409561E+00    0.2871632471E+00    0.1680226957E-02
    0.4900000000E+07    0.2561368817E-01    0.2183144634E-02    0.6944374420E+00    0.2879247037E+00    0.1684115427E-02
    0.1000000000E+07    0.4591705617E-01    0.3745489444E-02    0.6945589192E+00    0.2507235058E+00    0.1541991468E-02
    0.3000000000E+07    0.3110609044E-01    0.2614842454E-02    0.6944778775E+00    0.2782476507E+00    0.1638899147E-02
    0.5000000000E+07    0.2540401499E-01    0.2166516388E-02    0.6944357334E+00    0.2882899106E+00    0.1686003766E-02
    0.7000000000E+07    0.2210319920E-01    0.1903194104E-02    0.6944068147E+00    0.2940026121E+00    0.1717765999E-02
    0.9000000000E+07    0.1986911861E-01    0.1723214645E-02    0.6943846759E+00    0.2978325226E+00    0.1741878276E-02
    0.1100000000E+08    0.1822242195E-01    0.1589567079E-02    0.6943666862E+00    0.3006380407E+00    0.1761373747E-02
    0.1300000000E+08    0.1694111203E-01    0.1484951433E-02    0.6943515064E+00    0.3028113800E+00    0.1777769223E-02
    0.1500000000E+08    0.1590591606E-01    0.1400006596E-02    0.6943383595E+00    0.3045613576E+00    0.1791934820E-02
    0.1700000000E+08    0.1504609265E-01    0.1329148230E-02    0.6943267537E+00    0.3060109996E+00    0.1804417036E-02
    0.1900000000E+08    0.1431659711E-01    0.1268803098E-02    0.6943163579E+00    0.3072382386E+00    0.1815582064E-02
    0.2100000000E+08    0.1368716626E-01    0.1216560370E-02    0.6943069377E+00    0.3082952158E+00    0.1825687511E-02
    0.2300000000E+08    0.1313659473E-01    0.1170724484E-02    0.6942983216E+00    0.3092183412E+00    0.1834921620E-02
    0.2500000000E+08    0.1264951186E-01    0.1130062317E-02    0.6942903798E+00    0.3100339297E+00    0.1843426202E-02
    0.2700000000E+08    0.1221446091E-01    0.1093651977E-02    0.6942830118E+00    0.3107615468E+00    0.1851310803E-02
