  Pressure (Pa) 22mC5-500 (mol/kg) 23mC5-500 (mol/kg) 24mC5-500 (mol/kg) 2mC6-500 (mol/kg) C7-500 (mol/kg)
    0.1000000000E+01    0.2048370859E-04    0.2945019368E-05    0.6965062581E-01    0.1704435392E-04    0.4147763492E-02
    0.3000000000E+01    0.4900854658E-04    0.7032799706E-05    0.1740847688E+00    0.3939390888E-04    0.4178947928E-02
    0.5000000000E+01    0.6790995475E-04    0.9731742846E-05    0.2486517775E+00    0.5336864482E-04    0.4191598184E-02
    0.7000000000E+01    0.8116363999E-04    0.1161806776E-04    0.3045627076E+00    0.6273654142E-04    0.4199823833E-02
    0.9000000000E+01    0.9086765571E-04    0.1299519979E-04    0.3480414010E+00    0.6939532260E-04    0.4205802536E-02
    0.1100000000E+02    0.9822912337E-04    0.1403736137E-04    0.3828201705E+00    0.7438929462E-04    0.4210378144E-02
    0.1300000000E+02    0.1039858347E-03    0.1485081629E-04    0.4112731634E+00    0.7832779337E-04    0.4213991256E-02
    0.1500000000E+02    0.1086102955E-03    0.1550347339E-04    0.4349826471E+00    0.8158241455E-04    0.4216906470E-02
    0.1700000000E+02    0.1124166767E-03    0.1604038506E-04    0.4550437654E+00    0.8438775936E-04    0.4219296056E-02
    0.1900000000E+02    0.1156204089E-03    0.1649237300E-04    0.4722386082E+00    0.8689609173E-04    0.4221278363E-02
    0.2100000000E+02    0.1183730722E-03    0.1688107180E-04    0.4871406159E+00    0.8920845375E-04    0.4222937930E-02
    0.2300000000E+02    0.1207836764E-03    0.1722200133E-04    0.5001798121E+00    0.9139309582E-04    0.4224337011E-02
    0.2500000000E+02    0.1229320987E-03    0.1752650427E-04    0.5116850032E+00    0.9349676307E-04    0.4225522579E-02
    0.2700000000E+02    0.1248778243E-03    0.1780300476E-04    0.5219119045E+00    0.9555180626E-04    0.4226530810E-02
    0.2900000000E+02    0.1266657820E-03    0.1805784740E-04    0.5310623819E+00    0.9758077292E-04    0.4227390052E-02
    0.3100000000E+02    0.1283303275E-03    0.1829586930E-04    0.5392979181E+00    0.9959943512E-04    0.4228122854E-02
    0.3300000000E+02    0.1298980182E-03    0.1852079791E-04    0.5467492309E+00    0.1016188238E-03    0.4228747388E-02
    0.3500000000E+02    0.1313895812E-03    0.1873553275E-04    0.5535232665E+00    0.1036466176E-03    0.4229278471E-02
    0.3700000000E+02    0.1328213303E-03    0.1894234797E-04    0.5597083689E+00    0.1056881055E-03    0.4229728310E-02
    0.3900000000E+02    0.1342062022E-03    0.1914304024E-04    0.5653781560E+00    0.1077468613E-03    0.4230107057E-02
    0.4100000000E+02    0.1355545230E-03    0.1933903798E-04    0.5705944655E+00    0.1098252225E-03    0.4230423223E-02
    0.4300000000E+02    0.1368745832E-03    0.1953148312E-04    0.5754096205E+00    0.1119246332E-03    0.4230684001E-02
    0.4500000000E+02    0.1381730724E-03    0.1972129289E-04    0.5798681921E+00    0.1140458910E-03    0.4230895515E-02
    0.4700000000E+02    0.1394554122E-03    0.1990920692E-04    0.5840083836E+00    0.1161893276E-03    0.4231063007E-02
    0.4900000000E+02    0.1407260126E-03    0.2009582363E-04    0.5878631285E+00    0.1183549402E-03    0.4231190995E-02
    0.1000000000E+02    0.9478714232E-04    0.1355035973E-04    0.3663464441E+00    0.7205509871E-04    0.4208232542E-02
    0.3000000000E+02    0.1275116649E-03    0.1817870573E-04    0.5352857192E+00    0.9859061031E-04    0.4227771033E-02
    0.5000000000E+02    0.1413580621E-03    0.2018880095E-04    0.5896925291E+00    0.1194459945E-03    0.4231241419E-02
    0.7000000000E+02    0.1539714662E-03    0.2205865630E-04    0.6165573996E+00    0.1423124383E-03    0.4230897314E-02
    0.9000000000E+02    0.1671183305E-03    0.2402224986E-04    0.6325711275E+00    0.1667481545E-03    0.4229028198E-02
    0.1100000000E+03    0.1809872331E-03    0.2609873962E-04    0.6432040762E+00    0.1922743837E-03    0.4226384526E-02
    0.1300000000E+03    0.1955260532E-03    0.2827697956E-04    0.6507784406E+00    0.2186063784E-03    0.4223284874E-02
    0.1500000000E+03    0.2106551920E-03    0.3054367586E-04    0.6564481466E+00    0.2455810368E-03    0.4219887003E-02
    0.1700000000E+03    0.2263063491E-03    0.3288800801E-04    0.6608514701E+00    0.2731040240E-03    0.4216277455E-02
    0.1900000000E+03    0.2424270886E-03    0.3530187201E-04    0.6643701340E+00    0.3011204792E-03    0.4212507256E-02
    0.2100000000E+03    0.2589785701E-03    0.3777935742E-04    0.6672464431E+00    0.3295990013E-03    0.4208608098E-02
    0.2300000000E+03    0.2759324852E-03    0.4031620592E-04    0.6696416109E+00    0.3585226497E-03    0.4204600424E-02
    0.2500000000E+03    0.2932684727E-03    0.4290938491E-04    0.6716670651E+00    0.3878837088E-03    0.4200497775E-02
    0.2700000000E+03    0.3109721585E-03    0.4555677428E-04    0.6734022891E+00    0.4176805397E-03    0.4196309263E-02
    0.2900000000E+03    0.3290337142E-03    0.4825694079E-04    0.6749055044E+00    0.4479156291E-03    0.4192041059E-02
    0.3100000000E+03    0.3474468065E-03    0.5100897551E-04    0.6762203347E+00    0.4785943492E-03    0.4187697313E-02
    0.3300000000E+03    0.3662078277E-03    0.5381237613E-04    0.6773801113E+00    0.5097241507E-03    0.4183280751E-02
    0.3500000000E+03    0.3853153285E-03    0.5666696084E-04    0.6784107396E+00    0.5413140295E-03    0.4178793071E-02
    0.3700000000E+03    0.4047695974E-03    0.5957280482E-04    0.6793326583E+00    0.5733741680E-03    0.4174235207E-02
    0.3900000000E+03    0.4245723445E-03    0.6253019283E-04    0.6801622087E+00    0.6059156920E-03    0.4169607520E-02
    0.4100000000E+03    0.4447264631E-03    0.6553958357E-04    0.6809126133E+00    0.6389505047E-03    0.4164909927E-02
    0.4300000000E+03    0.4652358480E-03    0.6860158272E-04    0.6815946851E+00    0.6724911732E-03    0.4160141998E-02
    0.4500000000E+03    0.4861052567E-03    0.7171692230E-04    0.6822173535E+00    0.7065508523E-03    0.4155303022E-02
    0.4700000000E+03    0.5073402024E-03    0.7488644495E-04    0.6827880564E+00    0.7411432336E-03    0.4150392059E-02
    0.4900000000E+03    0.5289468715E-03    0.7811109179E-04    0.6833130400E+00    0.7762825127E-03    0.4145407980E-02
    0.1000000000E+03    0.1739641713E-03    0.2504690721E-04    0.6383751217E+00    0.1793964347E-03    0.4227777780E-02
    0.3000000000E+03    0.3381966002E-03    0.4962651441E-04    0.6755841823E+00    0.4631991111E-03    0.4189878430E-02
    0.5000000000E+03    0.5398917037E-03    0.7974440549E-04    0.6835600705E+00    0.7940618081E-03    0.4142888123E-02
    0.7000000000E+03    0.7802768938E-03    0.1156022546E-03    0.6870380762E+00    0.1182245614E-02    0.4088263306E-02
    0.9000000000E+03    0.1069000771E-02    0.1586494748E-03    0.6889863758E+00    0.1645534706E-02    0.4024103957E-02
    0.1100000000E+04    0.1420693802E-02    0.2110717659E-03    0.6902323359E+00    0.2208261937E-02    0.3947531878E-02
    0.1300000000E+04    0.1856365691E-02    0.2760032102E-03    0.6910977758E+00    0.2904528382E-02    0.3854514609E-02
    0.1500000000E+04    0.2406415392E-02    0.3579764252E-03    0.6917339403E+00    0.3783336483E-02    0.3739353092E-02
    0.1700000000E+04    0.3115460137E-02    0.4636432359E-03    0.6922212929E+00    0.4916498865E-02    0.3593888565E-02
    0.1900000000E+04    0.4049537287E-02    0.6028491573E-03    0.6926065862E+00    0.6410372368E-02    0.3406406206E-02
    0.2100000000E+04    0.5305351175E-02    0.7900135378E-03    0.6929188435E+00    0.8421022455E-02    0.3160459827E-02
    0.2300000000E+04    0.7016453328E-02    0.1045054613E-02    0.6931770353E+00    0.1116482128E-01    0.2834875303E-02
    0.2500000000E+04    0.9335162216E-02    0.1390701938E-02    0.6933940851E+00    0.1489073606E-01    0.2409205786E-02
    0.2700000000E+04    0.1233753122E-01    0.1838340885E-02    0.6935791011E+00    0.1972950625E-01    0.1883654064E-02
    0.2900000000E+04    0.1581962989E-01    0.2357644004E-02    0.6937386876E+00    0.2536614353E-01    0.1314390510E-02
    0.3100000000E+04    0.1921209415E-01    0.2863792847E-02    0.6938777501E+00    0.3089550397E-01    0.8155833720E-03
    0.3300000000E+04    0.2197294125E-01    0.3275981823E-02    0.6940000082E+00    0.3544432628E-01    0.4743534088E-03
    0.3500000000E+04    0.2400634821E-01    0.3579864725E-02    0.6941083342E+00    0.3884773864E-01    0.2849497840E-03
    0.3700000000E+04    0.2551975953E-01    0.3806312014E-02    0.6942049808E+00    0.4142983174E-01    0.1929086670E-03
    0.3900000000E+04    0.2673327747E-01    0.3988107564E-02    0.6942917399E+00    0.4353970608E-01    0.1511606763E-03
    0.4100000000E+04    0.2778458162E-01    0.4145764870E-02    0.6943700546E+00    0.4539685596E-01    0.1328377768E-03
    0.4300000000E+04    0.2874495874E-01    0.4289906611E-02    0.6944411003E+00    0.4711517491E-01    0.1249555979E-03
    0.4500000000E+04    0.2964884525E-01    0.4425664002E-02    0.6945058438E+00    0.4874964116E-01    0.1216529627E-03
    0.4700000000E+04    0.3051268272E-01    0.4555486090E-02    0.6945650879E+00    0.5032636265E-01    0.1203508718E-03
    0.4900000000E+04    0.3134453591E-01    0.4680573158E-02    0.6946195043E+00    0.5185797495E-01    0.1199224663E-03
    0.1000000000E+04    0.1235840257E-02    0.1835192370E-03    0.6896710562E+00    0.1912615462E-02    0.3987589745E-02
    0.3000000000E+04    0.1756892196E-01    0.2618601036E-02    0.6938105287E+00    0.2821131440E-01    0.1048753839E-02
    0.5000000000E+04    0.3174987095E-01    0.4741549520E-02    0.6946450828E+00    0.5260901414E-01    0.1198686623E-03
    0.7000000000E+04    0.3869030003E-01    0.5788492144E-02    0.6950033402E+00    0.6600771088E-01    0.1217681208E-03
    0.9000000000E+04    0.4393846634E-01    0.6584640764E-02    0.6952024434E+00    0.7700106808E-01    0.1235010575E-03
    0.1100000000E+05    0.4799957651E-01    0.7204402520E-02    0.6953291188E+00    0.8623958757E-01    0.1248989455E-03
    0.1300000000E+05    0.5119850178E-01    0.7695701432E-02    0.6954167700E+00    0.9415183918E-01    0.1260727054E-03
    0.1500000000E+05    0.5375407300E-01    0.8090874541E-02    0.6954809990E+00    0.1010341025E+00    0.1270857193E-03
    0.1700000000E+05    0.5581871036E-01    0.8412485018E-02    0.6955300703E+00    0.1070981897E+00    0.1279776370E-03
    0.1900000000E+05    0.5750159380E-01    0.8676724169E-02    0.6955687708E+00    0.1124998398E+00    0.1287749495E-03
    0.2100000000E+05    0.5888281278E-01    0.8895490993E-02    0.6956000641E+00    0.1173563289E+00    0.1294962516E-03
    0.2300000000E+05    0.6002233115E-01    0.9077711045E-02    0.6956258837E+00    0.1217578016E+00    0.1301551073E-03
    0.2500000000E+05    0.6096584916E-01    0.9230199702E-02    0.6956475443E+00    0.1257747960E+00    0.1307617212E-03
    0.2700000000E+05    0.6174874291E-01    0.9358242890E-02    0.6956659710E+00    0.1294633794E+00    0.1313239666E-03
    0.2900000000E+05    0.6239877591E-01    0.9465997239E-02    0.6956818338E+00    0.1328687387E+00    0.1318480487E-03
    0.3100000000E+05    0.6293800550E-01    0.9556771697E-02    0.6956956299E+00    0.1360277444E+00    0.1323389458E-03
    0.3300000000E+05    0.6338414848E-01    0.9633229506E-02    0.6957077356E+00    0.1389708150E+00    0.1328007144E-03
    0.3500000000E+05    0.6375157624E-01    0.9697535502E-02    0.6957184413E+00    0.1417232984E+00    0.1332367041E-03
    0.3700000000E+05    0.6405205067E-01    0.9751465208E-02    0.6957279747E+00    0.1443065076E+00    0.1336497138E-03
    0.3900000000E+05    0.6429527625E-01    0.9796486728E-02    0.6957365167E+00    0.1467385117E+00    0.1340421063E-03
    0.4100000000E+05    0.6448931911E-01    0.9833823011E-02    0.6957442126E+00    0.1490347444E+00    0.1344158948E-03
    0.4300000000E+05    0.6464092907E-01    0.9864499731E-02    0.6957511811E+00    0.1512084799E+00    0.1347728091E-03
    0.4500000000E+05    0.6475578948E-01    0.9889382490E-02    0.6957575194E+00    0.1532712070E+00    0.1351143466E-03
    0.4700000000E+05    0.6483871305E-01    0.9909206007E-02    0.6957633084E+00    0.1552329280E+00    0.1354418119E-03
    0.4900000000E+05    0.6489379676E-01    0.9924597229E-02    0.6957686155E+00    0.1571023984E+00    0.1357563492E-03
    0.1000000000E+05    0.4609398612E-01    0.6913117417E-02    0.6952721213E+00    0.8180904464E-01    0.1242334015E-03
    0.3000000000E+05    0.6268104525E-01    0.9513327314E-02    0.6956889643E+00    0.1344770015E+00    0.1320973731E-03
    0.5000000000E+05    0.6491201415E-01    0.9930801799E-02    0.6957711065E+00    0.1580049831E+00    0.1359090898E-03
    0.7000000000E+05    0.6444408414E-01    0.9919200388E-02    0.6958056816E+00    0.1726735997E+00    0.1384776754E-03
    0.9000000000E+05    0.6323956801E-01    0.9781787713E-02    0.6958245126E+00    0.1831797727E+00    0.1404271045E-03
    0.1100000000E+06    0.6183561194E-01    0.9604357331E-02    0.6958362439E+00    0.1912957116E+00    0.1420030623E-03
    0.1300000000E+06    0.6041322527E-01    0.9417160772E-02    0.6958441847E+00    0.1978694945E+00    0.1433283242E-03
    0.1500000000E+06    0.5903852231E-01    0.9232057585E-02    0.6958498716E+00    0.2033696429E+00    0.1444732899E-03
    0.1700000000E+06    0.5773474944E-01    0.9053813908E-02    0.6958541140E+00    0.2080812522E+00    0.1454821638E-03
    0.1900000000E+06    0.5650779434E-01    0.8884191166E-02    0.6958573776E+00    0.2121902944E+00    0.1463845600E-03
    0.2100000000E+06    0.5535629238E-01    0.8723608831E-02    0.6958599492E+00    0.2158246108E+00    0.1472013088E-03
    0.2300000000E+06    0.5427593857E-01    0.8571877659E-02    0.6958620147E+00    0.2190757525E+00    0.1479476292E-03
    0.2500000000E+06    0.5326141110E-01    0.8428541426E-02    0.6958636995E+00    0.2220114698E+00    0.1486349859E-03
    0.2700000000E+06    0.5230724322E-01    0.8293041745E-02    0.6958650917E+00    0.2246832663E+00    0.1492722345E-03
    0.2900000000E+06    0.5140821017E-01    0.8164798586E-02    0.6958662542E+00    0.2271311836E+00    0.1498663598E-03
    0.3100000000E+06    0.5055948581E-01    0.8043249076E-02    0.6958672339E+00    0.2293869493E+00    0.1504229706E-03
    0.3300000000E+06    0.4975668903E-01    0.7927865110E-02    0.6958680655E+00    0.2314761167E+00    0.1509466399E-03
    0.3500000000E+06    0.4899587801E-01    0.7818160091E-02    0.6958687761E+00    0.2334195592E+00    0.1514411459E-03
    0.3700000000E+06    0.4827352123E-01    0.7713690096E-02    0.6958693865E+00    0.2352345396E+00    0.1519096471E-03
    0.3900000000E+06    0.4758645967E-01    0.7614052284E-02    0.6958699131E+00    0.2369354918E+00    0.1523548112E-03
    0.4100000000E+06    0.4693186735E-01    0.7518882026E-02    0.6958703692E+00    0.2385346019E+00    0.1527789122E-03
    0.4300000000E+06    0.4630721349E-01    0.7427849567E-02    0.6958707654E+00    0.2400422479E+00    0.1531839045E-03
    0.4500000000E+06    0.4571022791E-01    0.7340656622E-02    0.6958711104E+00    0.2414673382E+00    0.1535714803E-03
    0.4700000000E+06    0.4513887007E-01    0.7257033128E-02    0.6958714113E+00    0.2428175732E+00    0.1539431147E-03
    0.4900000000E+06    0.4459130168E-01    0.7176734235E-02    0.6958716740E+00    0.2440996528E+00    0.1543001016E-03
    0.1000000000E+06    0.6254706916E-01    0.9695528017E-02    0.6958309965E+00    0.1874709716E+00    0.1412523856E-03
    0.3000000000E+06    0.5097784375E-01    0.8103221062E-02    0.6958667645E+00    0.2282813636E+00    0.1501490477E-03
    0.5000000000E+06    0.4432591342E-01    0.7137761220E-02    0.6958717927E+00    0.2447169955E+00    0.1544734641E-03
    0.7000000000E+06    0.3993878431E-01    0.6488464274E-02    0.6958730276E+00    0.2545891662E+00    0.1573895293E-03
    0.9000000000E+06    0.3674521094E-01    0.6010010300E-02    0.6958731915E+00    0.2614495057E+00    0.1596033628E-03
    0.1100000000E+07    0.3427440621E-01    0.5636534276E-02    0.6958729573E+00    0.2666075735E+00    0.1613933844E-03
    0.1300000000E+07    0.3228265931E-01    0.5333359278E-02    0.6958725573E+00    0.2706843551E+00    0.1628988266E-03
    0.1500000000E+07    0.3062893440E-01    0.5080184319E-02    0.6958720874E+00    0.2740202360E+00    0.1641995610E-03
    0.1700000000E+07    0.2922490019E-01    0.4864182862E-02    0.6958715914E+00    0.2768205599E+00    0.1653457536E-03
    0.1900000000E+07    0.2801188201E-01    0.4676774546E-02    0.6958710911E+00    0.2792179992E+00    0.1663710200E-03
    0.2100000000E+07    0.2694909053E-01    0.4511959310E-02    0.6958705972E+00    0.2813028242E+00    0.1672990083E-03
    0.2300000000E+07    0.2600712314E-01    0.4365390197E-02    0.6958701152E+00    0.2831389941E+00    0.1681469991E-03
    0.2500000000E+07    0.2516414886E-01    0.4233825398E-02    0.6958696479E+00    0.2847733285E+00    0.1689280110E-03
    0.2700000000E+07    0.2440355476E-01    0.4114788282E-02    0.6958691962E+00    0.2862410337E+00    0.1696521006E-03
    0.2900000000E+07    0.2371243301E-01    0.4006347789E-02    0.6958687603E+00    0.2875691868E+00    0.1703272008E-03
    0.3100000000E+07    0.2308057427E-01    0.3906971683E-02    0.6958683401E+00    0.2887790158E+00    0.1709596821E-03
    0.3300000000E+07    0.2249977796E-01    0.3815425598E-02    0.6958679348E+00    0.2898874404E+00    0.1715547383E-03
    0.3500000000E+07    0.2196336743E-01    0.3730701849E-02    0.6958675440E+00    0.2909081420E+00    0.1721166614E-03
    0.3700000000E+07    0.2146584158E-01    0.3651968098E-02    0.6958671668E+00    0.2918523242E+00    0.1726490390E-03
    0.3900000000E+07    0.2100261961E-01    0.3578529637E-02    0.6958668025E+00    0.2927292654E+00    0.1731549017E-03
    0.4100000000E+07    0.2056985068E-01    0.3509801195E-02    0.6958664503E+00    0.2935467261E+00    0.1736368327E-03
    0.4300000000E+07    0.2016426986E-01    0.3445285530E-02    0.6958661097E+00    0.2943112569E+00    0.1740970521E-03
    0.4500000000E+07    0.1978308744E-01    0.3384556960E-02    0.6958657800E+00    0.2950284311E+00    0.1745374824E-03
    0.4700000000E+07    0.1942390301E-01    0.3327248535E-02    0.6958654605E+00    0.2957030264E+00    0.1749597995E-03
    0.4900000000E+07    0.1908463774E-01    0.3273041920E-02    0.6958651506E+00    0.2963391656E+00    0.1753654734E-03
    0.1000000000E+07    0.3543799793E-01    0.5812777291E-02    0.6958731047E+00    0.2641932222E+00    0.1605407124E-03
    0.3000000000E+07    0.2338964890E-01    0.3955609866E-02    0.6958685483E+00    0.2881877477E+00    0.1706484203E-03
    0.5000000000E+07    0.1892189965E-01    0.3247013591E-02    0.6958649992E+00    0.2966439515E+00    0.1755624802E-03
    0.7000000000E+07    0.1637507439E-01    0.2837328063E-02    0.6958623657E+00    0.3013849672E+00    0.1788763097E-03
    0.9000000000E+07    0.1466714776E-01    0.2559942078E-02    0.6958602784E+00    0.3045357831E+00    0.1813921705E-03
    0.1100000000E+08    0.1341627419E-01    0.2355302718E-02    0.6958585483E+00    0.3068299727E+00    0.1834264222E-03
    0.1300000000E+08    0.1244758660E-01    0.2195895267E-02    0.6958570694E+00    0.3085992430E+00    0.1851372783E-03
    0.1500000000E+08    0.1166788935E-01    0.2066955316E-02    0.6958557768E+00    0.3100188688E+00    0.1866155014E-03
    0.1700000000E+08    0.1102224999E-01    0.1959731653E-02    0.6958546279E+00    0.3111915142E+00    0.1879180994E-03
    0.1900000000E+08    0.1047586444E-01    0.1868653491E-02    0.6958535934E+00    0.3121819084E+00    0.1890832727E-03
    0.2100000000E+08    0.1000544618E-01    0.1789978305E-02    0.6958526519E+00    0.3130331905E+00    0.1901378955E-03
    0.2300000000E+08    0.9594735485E-02    0.1721083440E-02    0.6958517879E+00    0.3137753853E+00    0.1911016055E-03
    0.2500000000E+08    0.9231982064E-02    0.1660067475E-02    0.6958509891E+00    0.3144301312E+00    0.1919891975E-03
    0.2700000000E+08    0.8908450815E-02    0.1605512761E-02    0.6958502463E+00    0.3150134767E+00    0.1928121000E-03
