  Pressure (Pa) 22mC5-500 (mol/kg) 23mC5-500 (mol/kg) 24mC5-500 (mol/kg) 2mC6-500 (mol/kg) C7-500 (mol/kg)
    0.1000000000E+01    0.1915232505E-04    0.6878976858E-06    0.9949634168E-01    0.1884028753E-04    0.4170075007E-02
    0.3000000000E+01    0.4235741731E-04    0.1517717858E-05    0.2320952556E+00    0.3997331460E-04    0.4201555350E-02
    0.5000000000E+01    0.5562760572E-04    0.1989804473E-05    0.3164418685E+00    0.5116448560E-04    0.4217555051E-02
    0.7000000000E+01    0.6400891216E-04    0.2286663354E-05    0.3748218062E+00    0.5793291988E-04    0.4228141118E-02
    0.9000000000E+01    0.6970818494E-04    0.2487862195E-05    0.4176275592E+00    0.6253149614E-04    0.4235744252E-02
    0.1100000000E+02    0.7382448326E-04    0.2632899849E-05    0.4503584178E+00    0.6600320067E-04    0.4241473645E-02
    0.1300000000E+02    0.7695624507E-04    0.2743210534E-05    0.4761971220E+00    0.6887262887E-04    0.4245936521E-02
    0.1500000000E+02    0.7945153939E-04    0.2831216364E-05    0.4971134635E+00    0.7141950722E-04    0.4249499064E-02
    0.1700000000E+02    0.8152335863E-04    0.2904489892E-05    0.5143918584E+00    0.7379930275E-04    0.4252396866E-02
    0.1900000000E+02    0.8330738126E-04    0.2967835422E-05    0.5289055904E+00    0.7610088872E-04    0.4254788970E-02
    0.2100000000E+02    0.8489288333E-04    0.3024400497E-05    0.5412691283E+00    0.7837590645E-04    0.4256786877E-02
    0.2300000000E+02    0.8634018613E-04    0.3076301916E-05    0.5519273962E+00    0.8065448577E-04    0.4258471200E-02
    0.2500000000E+02    0.8769094801E-04    0.3124994167E-05    0.5612104782E+00    0.8295401177E-04    0.4259901737E-02
    0.2700000000E+02    0.8897446397E-04    0.3171494418E-05    0.5693684254E+00    0.8528417946E-04    0.4261123820E-02
    0.2900000000E+02    0.9021164517E-04    0.3216524310E-05    0.5765941274E+00    0.8764998905E-04    0.4262172465E-02
    0.3100000000E+02    0.9141760219E-04    0.3260601755E-05    0.5830387629E+00    0.9005356078E-04    0.4263075169E-02
    0.3300000000E+02    0.9260336181E-04    0.3304101796E-05    0.5888224972E+00    0.9249525426E-04    0.4263853834E-02
    0.3500000000E+02    0.9377703201E-04    0.3347297790E-05    0.5940420467E+00    0.9497436843E-04    0.4264526129E-02
    0.3700000000E+02    0.9494460703E-04    0.3390389776E-05    0.5987761333E+00    0.9748958338E-04    0.4265106474E-02
    0.3900000000E+02    0.9611053270E-04    0.3433524352E-05    0.6030894832E+00    0.1000392407E-03    0.4265606756E-02
    0.4100000000E+02    0.9727810935E-04    0.3476808784E-05    0.6070358049E+00    0.1026215214E-03    0.4266036867E-02
    0.4300000000E+02    0.9844978256E-04    0.3520321160E-05    0.6106600381E+00    0.1052345582E-03    0.4266405106E-02
    0.4500000000E+02    0.9962735547E-04    0.3564117775E-05    0.6140000732E+00    0.1078765052E-03    0.4266718492E-02
    0.4700000000E+02    0.1008121454E-03    0.3608238560E-05    0.6170880812E+00    0.1105455801E-03    0.4266983002E-02
    0.4900000000E+02    0.1020051005E-03    0.3652711108E-05    0.6199515535E+00    0.1132400887E-03    0.4267203756E-02
    0.1000000000E+02    0.7191896039E-04    0.2565778938E-05    0.4350161117E+00    0.6436757279E-04    0.4238797635E-02
    0.3000000000E+02    0.9081775760E-04    0.3238655858E-05    0.5799059422E+00    0.8884700068E-04    0.4262640578E-02
    0.5000000000E+02    0.1026048573E-03    0.3675085300E-05    0.6213066061E+00    0.1145963782E-03    0.4267299130E-02
    0.7000000000E+02    0.1151022103E-03    0.4142613916E-05    0.6409206423E+00    0.1427272541E-03    0.4267717609E-02
    0.9000000000E+02    0.1284933515E-03    0.4644472211E-05    0.6523637619E+00    0.1721828870E-03    0.4266460747E-02
    0.1100000000E+03    0.1426017724E-03    0.5173181677E-05    0.6598618522E+00    0.2024822681E-03    0.4264348494E-02
    0.1300000000E+03    0.1572831771E-03    0.5723099438E-05    0.6651551432E+00    0.2334060942E-03    0.4261726930E-02
    0.1500000000E+03    0.1724409534E-03    0.6290550249E-05    0.6690915128E+00    0.2648504236E-03    0.4258767977E-02
    0.1700000000E+03    0.1880120192E-03    0.6873172881E-05    0.6721334764E+00    0.2967660834E-03    0.4255566729E-02
    0.1900000000E+03    0.2039551249E-03    0.7469442100E-05    0.6745547875E+00    0.3291318083E-03    0.4252179917E-02
    0.2100000000E+03    0.2202432777E-03    0.8078370923E-05    0.6765278207E+00    0.3619414132E-03    0.4248643298E-02
    0.2300000000E+03    0.2368589968E-03    0.8699327905E-05    0.6781665254E+00    0.3951972670E-03    0.4244980348E-02
    0.2500000000E+03    0.2537913155E-03    0.9331923187E-05    0.6795492460E+00    0.4289067967E-03    0.4241206940E-02
    0.2700000000E+03    0.2710338473E-03    0.9975935707E-05    0.6807316214E+00    0.4630805368E-03    0.4237334026E-02
    0.2900000000E+03    0.2885835107E-03    0.1063126556E-04    0.6817542548E+00    0.4977310060E-03    0.4233369255E-02
    0.3100000000E+03    0.3064396699E-03    0.1129790208E-04    0.6826474715E+00    0.5328720446E-03    0.4229317984E-02
    0.3300000000E+03    0.3246035440E-03    0.1197590205E-04    0.6834343773E+00    0.5685184185E-03    0.4225183932E-02
    0.3500000000E+03    0.3430777938E-03    0.1266537450E-04    0.6841328865E+00    0.6046855815E-03    0.4220969623E-02
    0.3700000000E+03    0.3618662279E-03    0.1336646999E-04    0.6847571024E+00    0.6413895335E-03    0.4216676684E-02
    0.3900000000E+03    0.3809735921E-03    0.1407937289E-04    0.6853182794E+00    0.6786467396E-03    0.4212306059E-02
    0.4100000000E+03    0.4004054160E-03    0.1480429588E-04    0.6858255081E+00    0.7164740860E-03    0.4207858156E-02
    0.4300000000E+03    0.4201679008E-03    0.1554147586E-04    0.6862862111E+00    0.7548888611E-03    0.4203332962E-02
    0.4500000000E+03    0.4402678368E-03    0.1629117102E-04    0.6867065092E+00    0.7939087528E-03    0.4198730115E-02
    0.4700000000E+03    0.4607125432E-03    0.1705365865E-04    0.6870914944E+00    0.8335518553E-03    0.4194048973E-02
    0.4900000000E+03    0.4815098244E-03    0.1782923364E-04    0.6874454377E+00    0.8738366845E-03    0.4189288652E-02
    0.1000000000E+03    0.1354681811E-03    0.4905877257E-05    0.6564663923E+00    0.1872446155E-03    0.4265483953E-02
    0.3000000000E+03    0.2974732400E-03    0.1096316831E-04    0.6822154546E+00    0.5152392996E-03    0.4231354168E-02
    0.5000000000E+03    0.4920432438E-03    0.1822202555E-04    0.6876119187E+00    0.8942256528E-03    0.4186878467E-02
    0.7000000000E+03    0.7234937975E-03    0.2685031557E-04    0.6899512472E+00    0.1340645323E-02    0.4134159996E-02
    0.9000000000E+03    0.1002578918E-02    0.3725104596E-04    0.6912578108E+00    0.1877044763E-02    0.4071348042E-02
    0.1100000000E+04    0.1344918894E-02    0.5000722434E-04    0.6920918168E+00    0.2534174225E-02    0.3995396195E-02
    0.1300000000E+04    0.1773057060E-02    0.6595940625E-04    0.6926703448E+00    0.3355788898E-02    0.3901881512E-02
    0.1500000000E+04    0.2320176722E-02    0.8634452810E-04    0.6930951703E+00    0.4406073828E-02    0.3784376698E-02
    0.1700000000E+04    0.3036115733E-02    0.1130202612E-03    0.6934203473E+00    0.5781409794E-02    0.3633423865E-02
    0.1900000000E+04    0.3996629457E-02    0.1488105097E-03    0.6936772437E+00    0.7628480600E-02    0.3435046652E-02
    0.2100000000E+04    0.5315659429E-02    0.1979632333E-03    0.6938853127E+00    0.1016844404E-01    0.3169080411E-02
    0.2300000000E+04    0.7153012722E-02    0.2664379572E-03    0.6940572592E+00    0.1371286204E-01    0.2809238665E-02
    0.2500000000E+04    0.9683359256E-02    0.3607529014E-03    0.6942017324E+00    0.1860604062E-01    0.2331950078E-02
    0.2700000000E+04    0.1294407399E-01    0.4823170968E-03    0.6943248246E+00    0.2493379718E-01    0.1748213637E-02
    0.2900000000E+04    0.1655962962E-01    0.6171551335E-03    0.6944309511E+00    0.3198842209E-01    0.1150341183E-02
    0.3100000000E+04    0.1979660859E-01    0.7379407435E-03    0.6945233898E+00    0.3836073934E-01    0.6808275932E-03
    0.3300000000E+04    0.2221730789E-01    0.8283475711E-03    0.6946046254E+00    0.4319448825E-01    0.4006249871E-03
    0.3500000000E+04    0.2393390263E-01    0.8925380578E-03    0.6946765757E+00    0.4669082045E-01    0.2636690757E-03
    0.3700000000E+04    0.2522972740E-01    0.9410616562E-03    0.6947407446E+00    0.4938806320E-01    0.2036819510E-03
    0.3900000000E+04    0.2630661009E-01    0.9814366523E-03    0.6947983277E+00    0.5167272685E-01    0.1787352850E-03
    0.4100000000E+04    0.2726916042E-01    0.1017560636E-02    0.6948502878E+00    0.5374581365E-01    0.1686598374E-03
    0.4300000000E+04    0.2816577736E-01    0.1051236901E-02    0.6948974088E+00    0.5570035112E-01    0.1647362180E-03
    0.4500000000E+04    0.2901823913E-01    0.1083276655E-02    0.6949403354E+00    0.5757802156E-01    0.1633389731E-03
    0.4700000000E+04    0.2983656556E-01    0.1114052831E-02    0.6949796026E+00    0.5939776286E-01    0.1629773134E-03
    0.4900000000E+04    0.3062569035E-01    0.1143748771E-02    0.6950156583E+00    0.6116866020E-01    0.1630381770E-03
    0.1000000000E+04    0.1164629925E-02    0.4328949901E-04    0.6917162706E+00    0.2188158995E-02    0.4035253169E-02
    0.3000000000E+04    0.1826759991E-01    0.6808761799E-03    0.6944787106E+00    0.3534163729E-01    0.8925156290E-03
    0.5000000000E+04    0.3101020124E-01    0.1158224989E-02    0.6950326023E+00    0.6203738748E-01    0.1631407807E-03
    0.7000000000E+04    0.3754813095E-01    0.1405107281E-02    0.6952695777E+00    0.7748177056E-01    0.1660911120E-03
    0.9000000000E+04    0.4241139486E-01    0.1589907999E-02    0.6954008840E+00    0.9004717585E-01    0.1684445827E-03
    0.1100000000E+05    0.4611388770E-01    0.1731552239E-02    0.6954841861E+00    0.1005290623E+00    0.1703445490E-03
    0.1300000000E+05    0.4898293055E-01    0.1842116123E-02    0.6955416643E+00    0.1094482533E+00    0.1719408250E-03
    0.1500000000E+05    0.5123654964E-01    0.1929658779E-02    0.6955836660E+00    0.1171616476E+00    0.1733190596E-03
    0.1700000000E+05    0.5302511560E-01    0.1999749349E-02    0.6956156668E+00    0.1239225157E+00    0.1745329090E-03
    0.1900000000E+05    0.5445539107E-01    0.2056349796E-02    0.6956408344E+00    0.1299159096E+00    0.1756182598E-03
    0.2100000000E+05    0.5560506134E-01    0.2102348904E-02    0.6956611286E+00    0.1352804206E+00    0.1766003221E-03
    0.2300000000E+05    0.5653185555E-01    0.2139897850E-02    0.6956778263E+00    0.1401220693E+00    0.1774974972E-03
    0.2500000000E+05    0.5727946197E-01    0.2170628074E-02    0.6956917950E+00    0.1445234661E+00    0.1783236357E-03
    0.2700000000E+05    0.5788147381E-01    0.2195796768E-02    0.6957036448E+00    0.1485500259E+00    0.1790894288E-03
    0.2900000000E+05    0.5836408697E-01    0.2216386471E-02    0.6957138169E+00    0.1522542893E+00    0.1798033053E-03
    0.3100000000E+05    0.5874798480E-01    0.2233174727E-02    0.6957226385E+00    0.1556789940E+00    0.1804720296E-03
    0.3300000000E+05    0.5904968073E-01    0.2246783766E-02    0.6957303570E+00    0.1588592992E+00    0.1811011150E-03
    0.3500000000E+05    0.5928249106E-01    0.2257716543E-02    0.6957371631E+00    0.1618244258E+00    0.1816951151E-03
    0.3700000000E+05    0.5945725100E-01    0.2266383305E-02    0.6957432064E+00    0.1645988846E+00    0.1822578355E-03
    0.3900000000E+05    0.5958284903E-01    0.2273121427E-02    0.6957486052E+00    0.1672034080E+00    0.1827924893E-03
    0.4100000000E+05    0.5966663088E-01    0.2278210446E-02    0.6957534550E+00    0.1696556675E+00    0.1833018150E-03
    0.4300000000E+05    0.5971470838E-01    0.2281883551E-02    0.6957578333E+00    0.1719708313E+00    0.1837881656E-03
    0.4500000000E+05    0.5973219827E-01    0.2284336494E-02    0.6957618037E+00    0.1741620032E+00    0.1842535780E-03
    0.4700000000E+05    0.5972340851E-01    0.2285734543E-02    0.6957654191E+00    0.1762405708E+00    0.1846998278E-03
    0.4900000000E+05    0.5969198508E-01    0.2286217965E-02    0.6957687234E+00    0.1782164850E+00    0.1851284718E-03
    0.1000000000E+05    0.4438405488E-01    0.1665251448E-02    0.6954467334E+00    0.9551121219E-01    0.1694397957E-03
    0.3000000000E+05    0.5856725836E-01    0.2225213728E-02    0.6957183795E+00    0.1539992330E+00    0.1801429414E-03
    0.5000000000E+05    0.5966877328E-01    0.2286154783E-02    0.6957702708E+00    0.1791687204E+00    0.1853366270E-03
    0.7000000000E+05    0.5856675699E-01    0.2258237503E-02    0.6957914343E+00    0.1944761250E+00    0.1888374344E-03
    0.9000000000E+05    0.5696848124E-01    0.2207925416E-02    0.6958025777E+00    0.2052284769E+00    0.1914947059E-03
    0.1100000000E+06    0.5530580871E-01    0.2152768222E-02    0.6958092698E+00    0.2134014182E+00    0.1936430507E-03
    0.1300000000E+06    0.5370804896E-01    0.2098396114E-02    0.6958136216E+00    0.2199304032E+00    0.1954497292E-03
    0.1500000000E+06    0.5221281419E-01    0.2046698579E-02    0.6958166038E+00    0.2253274388E+00    0.1970106662E-03
    0.1700000000E+06    0.5082630259E-01    0.1998218055E-02    0.6958187225E+00    0.2299014394E+00    0.1983861004E-03
    0.1900000000E+06    0.4954357062E-01    0.1952978820E-02    0.6958202661E+00    0.2338523196E+00    0.1996163913E-03
    0.2100000000E+06    0.4835604587E-01    0.1910806413E-02    0.6958214102E+00    0.2373164800E+00    0.2007299290E-03
    0.2300000000E+06    0.4725444781E-01    0.1871459011E-02    0.6958222675E+00    0.2403909123E+00    0.2017474575E-03
    0.2500000000E+06    0.4622991656E-01    0.1834683035E-02    0.6958229134E+00    0.2431469111E+00    0.2026846037E-03
    0.2700000000E+06    0.4527440721E-01    0.1800236325E-02    0.6958233999E+00    0.2456383289E+00    0.2035534385E-03
    0.2900000000E+06    0.4438077746E-01    0.1767896918E-02    0.6958237640E+00    0.2479067786E+00    0.2043634836E-03
    0.3100000000E+06    0.4354275003E-01    0.1737465337E-02    0.6958240328E+00    0.2499850414E+00    0.2051223846E-03
    0.3300000000E+06    0.4275482925E-01    0.1708764011E-02    0.6958242263E+00    0.2518993725E+00    0.2058363752E-03
    0.3500000000E+06    0.4201220626E-01    0.1681635530E-02    0.6958243596E+00    0.2536711045E+00    0.2065106062E-03
    0.3700000000E+06    0.4131066750E-01    0.1655940514E-02    0.6958244445E+00    0.2553177905E+00    0.2071493834E-03
    0.3900000000E+06    0.4064651229E-01    0.1631555472E-02    0.6958244899E+00    0.2568540350E+00    0.2077563436E-03
    0.4100000000E+06    0.4001648082E-01    0.1608370814E-02    0.6958245031E+00    0.2582921102E+00    0.2083345868E-03
    0.4300000000E+06    0.3941769228E-01    0.1586289070E-02    0.6958244898E+00    0.2596424209E+00    0.2088867775E-03
    0.4500000000E+06    0.3884759229E-01    0.1565223325E-02    0.6958244545E+00    0.2609138590E+00    0.2094152225E-03
    0.4700000000E+06    0.3830390822E-01    0.1545095863E-02    0.6958244010E+00    0.2621140789E+00    0.2099219332E-03
    0.4900000000E+06    0.3778461140E-01    0.1525837001E-02    0.6958243323E+00    0.2632497136E+00    0.2104086733E-03
    0.1000000000E+06    0.5613373274E-01    0.2180464499E-02    0.6958063080E+00    0.2095648717E+00    0.1926197139E-03
    0.3000000000E+06    0.4395517414E-01    0.1752454244E-02    0.6958239089E+00    0.2489679109E+00    0.2047489088E-03
    0.5000000000E+06    0.3753353295E-01    0.1516513464E-02    0.6958242930E+00    0.2637951476E+00    0.2106450478E-03
    0.7000000000E+06    0.3343780293E-01    0.1363336549E-02    0.6958231316E+00    0.2723937433E+00    0.2146210371E-03
    0.9000000000E+06    0.3051761950E-01    0.1252878667E-02    0.6958217413E+00    0.2782312081E+00    0.2176395716E-03
    0.1100000000E+07    0.2829156345E-01    0.1167970402E-02    0.6958203767E+00    0.2825454469E+00    0.2200802529E-03
    0.1300000000E+07    0.2651740337E-01    0.1099849901E-02    0.6958190961E+00    0.2859098387E+00    0.2221329166E-03
    0.1500000000E+07    0.2505773143E-01    0.1043497116E-02    0.6958179083E+00    0.2886329494E+00    0.2239064642E-03
    0.1700000000E+07    0.2382779641E-01    0.9957918020E-03    0.6958168082E+00    0.2908981536E+00    0.2254692958E-03
    0.1900000000E+07    0.2277199277E-01    0.9546738752E-03    0.6958157871E+00    0.2928224446E+00    0.2268672452E-03
    0.2100000000E+07    0.2185206084E-01    0.9187183691E-03    0.6958148363E+00    0.2944845678E+00    0.2281325565E-03
    0.2300000000E+07    0.2104066285E-01    0.8869024398E-03    0.6958139474E+00    0.2959397922E+00    0.2292887913E-03
    0.2500000000E+07    0.2031765548E-01    0.8584693896E-03    0.6958131136E+00    0.2972282402E+00    0.2303537004E-03
    0.2700000000E+07    0.1966781292E-01    0.8328451974E-03    0.6958123285E+00    0.2983798582E+00    0.2313409960E-03
    0.2900000000E+07    0.1907937592E-01    0.8095850965E-03    0.6958115871E+00    0.2994175238E+00    0.2322614946E-03
    0.3100000000E+07    0.1854309368E-01    0.7883381651E-03    0.6958108847E+00    0.3003590641E+00    0.2331238820E-03
    0.3300000000E+07    0.1805157183E-01    0.7688231444E-03    0.6958102175E+00    0.3012186090E+00    0.2339352404E-03
    0.3500000000E+07    0.1759881699E-01    0.7508114937E-03    0.6958095821E+00    0.3020075261E+00    0.2347014216E-03
    0.3700000000E+07    0.1717991124E-01    0.7341152468E-03    0.6958089757E+00    0.3027350803E+00    0.2354273177E-03
    0.3900000000E+07    0.1679077486E-01    0.7185781363E-03    0.6958083957E+00    0.3034089109E+00    0.2361170604E-03
    0.4100000000E+07    0.1642799029E-01    0.7040689907E-03    0.6958078399E+00    0.3040353817E+00    0.2367741722E-03
    0.4300000000E+07    0.1608866936E-01    0.6904767462E-03    0.6958073064E+00    0.3046198437E+00    0.2374016801E-03
    0.4500000000E+07    0.1577035185E-01    0.6777066239E-03    0.6958067933E+00    0.3051668335E+00    0.2380022056E-03
    0.4700000000E+07    0.1547092686E-01    0.6656771632E-03    0.6958062992E+00    0.3056802272E+00    0.2385780337E-03
    0.4900000000E+07    0.1518857122E-01    0.6543178934E-03    0.6958058226E+00    0.3061633587E+00    0.2391311686E-03
    0.1000000000E+07    0.2933636918E-01    0.1207899409E-02    0.6958210502E+00    0.2805340653E+00    0.2189176401E-03
    0.3000000000E+07    0.1880521501E-01    0.7987289693E-03    0.6958112312E+00    0.2998993524E+00    0.2326994769E-03
    0.5000000000E+07    0.1505329113E-01    0.6488701002E-03    0.6958055906E+00    0.3063944935E+00    0.2393997868E-03
    0.7000000000E+07    0.1294956562E-01    0.5636769109E-03    0.6958016323E+00    0.3099613080E+00    0.2439181770E-03
    0.9000000000E+07    0.1155273068E-01    0.5065770593E-03    0.6957985709E+00    0.3123021052E+00    0.2473485345E-03
    0.1100000000E+08    0.1053670837E-01    0.4647465725E-03    0.6957960686E+00    0.3139915881E+00    0.2501222174E-03
    0.1300000000E+08    0.9753927579E-02    0.4323324389E-03    0.6957939491E+00    0.3152859150E+00    0.2524549502E-03
    0.1500000000E+08    0.9126408789E-02    0.4062214636E-03    0.6957921084E+00    0.3163190319E+00    0.2544704881E-03
    0.1700000000E+08    0.8608490116E-02    0.3845808624E-03    0.6957904802E+00    0.3171687605E+00    0.2562465616E-03
    0.1900000000E+08    0.8171394028E-02    0.3662502861E-03    0.6957890194E+00    0.3178838455E+00    0.2578352570E-03
    0.2100000000E+08    0.7795950683E-02    0.3504537168E-03    0.6957876942E+00    0.3184965958E+00    0.2592732171E-03
    0.2300000000E+08    0.7468824594E-02    0.3366494259E-03    0.6957864807E+00    0.3190293936E+00    0.2605872182E-03
    0.2500000000E+08    0.7180409689E-02    0.3244459590E-03    0.6957853614E+00    0.3194983043E+00    0.2617974328E-03
    0.2700000000E+08    0.6923584933E-02    0.3135523028E-03    0.6957843221E+00    0.3199152008E+00    0.2629194439E-03
