  Pressure (Pa) 22mC5-500 (mol/kg) 23mC5-500 (mol/kg) 24mC5-500 (mol/kg) 2mC6-500 (mol/kg) C7-500 (mol/kg)
    0.1000000000E+01    0.2136121463E-04    0.4605879521E-05    0.3665915683E-01    0.7051850366E-05    0.4186295519E-02
    0.3000000000E+01    0.5637320931E-04    0.1214069387E-04    0.9947988797E-01    0.1818347945E-04    0.4240575020E-02
    0.5000000000E+01    0.8405903898E-04    0.1808667657E-04    0.1513533566E+00    0.2666753251E-04    0.4281702977E-02
    0.7000000000E+01    0.1063822535E-03    0.2287151630E-04    0.1949122094E+00    0.3327864336E-04    0.4315894009E-02
    0.9000000000E+01    0.1246622642E-03    0.2678217875E-04    0.2320075509E+00    0.3852103071E-04    0.4344990679E-02
    0.1100000000E+02    0.1398294878E-03    0.3002081221E-04    0.2639789268E+00    0.4274234836E-04    0.4370115920E-02
    0.1300000000E+02    0.1525590253E-03    0.3273394921E-04    0.2918196215E+00    0.4618958206E-04    0.4392058419E-02
    0.1500000000E+02    0.1633517832E-03    0.3503020682E-04    0.3162817513E+00    0.4904215358E-04    0.4411402377E-02
    0.1700000000E+02    0.1725864397E-03    0.3699161704E-04    0.3379452721E+00    0.5143280318E-04    0.4428593698E-02
    0.1900000000E+02    0.1805539236E-03    0.3868113973E-04    0.3572645741E+00    0.5346126980E-04    0.4443979999E-02
    0.2100000000E+02    0.1874809254E-03    0.4014778269E-04    0.3746007209E+00    0.5520350904E-04    0.4457836841E-02
    0.2300000000E+02    0.1935463007E-03    0.4143017206E-04    0.3902442406E+00    0.5671804934E-04    0.4470385745E-02
    0.2500000000E+02    0.1988927452E-03    0.4255909190E-04    0.4044315484E+00    0.5805046170E-04    0.4481806956E-02
    0.2700000000E+02    0.2036352497E-03    0.4355932244E-04    0.4173569859E+00    0.5923655747E-04    0.4492248711E-02
    0.2900000000E+02    0.2078673201E-03    0.4445099157E-04    0.4291817818E+00    0.6030471120E-04    0.4501834092E-02
    0.3100000000E+02    0.2116656174E-03    0.4525058249E-04    0.4400408171E+00    0.6127757109E-04    0.4510666176E-02
    0.3300000000E+02    0.2150934636E-03    0.4597169458E-04    0.4500477958E+00    0.6217333426E-04    0.4518831963E-02
    0.3500000000E+02    0.2182035216E-03    0.4662562465E-04    0.4592992447E+00    0.6300670803E-04    0.4526405413E-02
    0.3700000000E+02    0.2210398649E-03    0.4722181560E-04    0.4678776389E+00    0.6378964210E-04    0.4533449812E-02
    0.3900000000E+02    0.2236395924E-03    0.4776820620E-04    0.4758538694E+00    0.6453189150E-04    0.4540019637E-02
    0.4100000000E+02    0.2260340991E-03    0.4827150622E-04    0.4832892077E+00    0.6524145295E-04    0.4546162051E-02
    0.4300000000E+02    0.2282500847E-03    0.4873741458E-04    0.4902368845E+00    0.6592490605E-04    0.4551918094E-02
    0.4500000000E+02    0.2303103596E-03    0.4917079372E-04    0.4967433665E+00    0.6658768184E-04    0.4557323647E-02
    0.4700000000E+02    0.2322344953E-03    0.4957580997E-04    0.5028493979E+00    0.6723427570E-04    0.4562410230E-02
    0.4900000000E+02    0.2340393502E-03    0.4995604725E-04    0.5085908551E+00    0.6786841720E-04    0.4567205642E-02
    0.1000000000E+02    0.1325879285E-03    0.2847528437E-04    0.2485649907E+00    0.4074199180E-04    0.4357994592E-02
    0.3000000000E+02    0.2098164550E-03    0.4486138681E-04    0.4347244684E+00    0.6080182379E-04    0.4506338521E-02
    0.5000000000E+02    0.2349016814E-03    0.5013785768E-04    0.5113349250E+00    0.6818180849E-04    0.4569501963E-02
    0.7000000000E+02    0.2485445984E-03    0.5303596046E-04    0.5531199065E+00    0.7431751556E-04    0.4604849182E-02
    0.9000000000E+02    0.2590183064E-03    0.5530401161E-04    0.5794309523E+00    0.8075832184E-04    0.4627490096E-02
    0.1100000000E+03    0.2687070698E-03    0.5743625057E-04    0.5975219552E+00    0.8770459888E-04    0.4643195313E-02
    0.1300000000E+03    0.2784177821E-03    0.5959529505E-04    0.6107252445E+00    0.9511666779E-04    0.4654664660E-02
    0.1500000000E+03    0.2884383090E-03    0.6183637796E-04    0.6207862340E+00    0.1029202683E-03    0.4663337675E-02
    0.1700000000E+03    0.2988641542E-03    0.6417578422E-04    0.6287076117E+00    0.1110485354E-03    0.4670055815E-02
    0.1900000000E+03    0.3097150044E-03    0.6661493599E-04    0.6351064369E+00    0.1194484987E-03    0.4675345766E-02
    0.2100000000E+03    0.3209804681E-03    0.6914968176E-04    0.6403832776E+00    0.1280796938E-03    0.4679555122E-02
    0.2300000000E+03    0.3326391399E-03    0.7177407676E-04    0.6448095027E+00    0.1369114875E-03    0.4682923188E-02
    0.2500000000E+03    0.3446667791E-03    0.7448194854E-04    0.6485754881E+00    0.1459206729E-03    0.4685620500E-02
    0.2700000000E+03    0.3570397930E-03    0.7726752461E-04    0.6518187372E+00    0.1550895990E-03    0.4687772125E-02
    0.2900000000E+03    0.3697366212E-03    0.8012565149E-04    0.6546410452E+00    0.1644047792E-03    0.4689472037E-02
    0.3100000000E+03    0.3827381663E-03    0.8305183542E-04    0.6571193848E+00    0.1738558712E-03    0.4690792327E-02
    0.3300000000E+03    0.3960278001E-03    0.8604220794E-04    0.6593130376E+00    0.1834349283E-03    0.4691789293E-02
    0.3500000000E+03    0.4095911884E-03    0.8909346375E-04    0.6612684016E+00    0.1931358481E-03    0.4692507599E-02
    0.3700000000E+03    0.4234160534E-03    0.9220279207E-04    0.6630223102E+00    0.2029539624E-03    0.4692983164E-02
    0.3900000000E+03    0.4374919265E-03    0.9536781089E-04    0.6646043769E+00    0.2128857299E-03    0.4693245228E-02
    0.4100000000E+03    0.4518099159E-03    0.9858650788E-04    0.6660386812E+00    0.2229285036E-03    0.4693317854E-02
    0.4300000000E+03    0.4663624978E-03    0.1018571887E-03    0.6673450042E+00    0.2330803526E-03    0.4693221035E-02
    0.4500000000E+03    0.4811433348E-03    0.1051784328E-03    0.6685397464E+00    0.2433399257E-03    0.4692971526E-02
    0.4700000000E+03    0.4961471182E-03    0.1085490555E-03    0.6696366207E+00    0.2537063444E-03    0.4692583480E-02
    0.4900000000E+03    0.5113694333E-03    0.1119680763E-03    0.6706471809E+00    0.2641791196E-03    0.4692068932E-02
    0.1000000000E+03    0.2638917005E-03    0.5637305683E-04    0.5892427323E+00    0.8416893791E-04    0.4635999083E-02
    0.3000000000E+03    0.3762003997E-03    0.8158049210E-04    0.6559191565E+00    0.1691138818E-03    0.4690175802E-02
    0.5000000000E+03    0.5190613767E-03    0.1136954788E-03    0.6711232162E+00    0.2694553281E-03    0.4691767500E-02
    0.7000000000E+03    0.6838196446E-03    0.1506636405E-03    0.6778606823E+00    0.3806509649E-03    0.4680957775E-02
    0.9000000000E+03    0.8693661400E-03    0.1922478292E-03    0.6816636587E+00    0.5034399779E-03    0.4663597425E-02
    0.1100000000E+04    0.1077301140E-02    0.2388156740E-03    0.6841064686E+00    0.6395422443E-03    0.4641305497E-02
    0.1300000000E+04    0.1310572330E-02    0.2910326052E-03    0.6858080855E+00    0.7912166992E-03    0.4614507840E-02
    0.1500000000E+04    0.1573204970E-02    0.3498028023E-03    0.6870613655E+00    0.9612631167E-03    0.4583119047E-02
    0.1700000000E+04    0.1870361933E-02    0.4162835241E-03    0.6880228329E+00    0.1153135474E-02    0.4546745975E-02
    0.1900000000E+04    0.2208565045E-02    0.4919351368E-03    0.6887837442E+00    0.1371120148E-02    0.4504746656E-02
    0.2100000000E+04    0.2596046689E-02    0.5786000673E-03    0.6894008970E+00    0.1620581531E-02    0.4456229531E-02
    0.2300000000E+04    0.3043245603E-02    0.6786138989E-03    0.6899114922E+00    0.1908293269E-02    0.4400018333E-02
    0.2500000000E+04    0.3563483305E-02    0.7949568206E-03    0.6903409149E+00    0.2242883005E-02    0.4334589505E-02
    0.2700000000E+04    0.4173872788E-02    0.9314570215E-03    0.6907070805E+00    0.2635426572E-02    0.4257982251E-02
    0.2900000000E+04    0.4896517969E-02    0.1093059157E-02    0.6910229939E+00    0.3100231612E-02    0.4167679549E-02
    0.3100000000E+04    0.5760046252E-02    0.1286167414E-02    0.6912983243E+00    0.3655840656E-02    0.4060461544E-02
    0.3300000000E+04    0.6801437659E-02    0.1519055079E-02    0.6915404098E+00    0.4326234114E-02    0.3932245127E-02
    0.3500000000E+04    0.8067880110E-02    0.1802280281E-02    0.6917549204E+00    0.5142064860E-02    0.3777956021E-02
    0.3700000000E+04    0.9617800489E-02    0.2148917880E-02    0.6919463062E+00    0.6141384738E-02    0.3591553847E-02
    0.3900000000E+04    0.1151897194E-01    0.2574138180E-02    0.6921181089E+00    0.7368518659E-02    0.3366478559E-02
    0.4100000000E+04    0.1383939546E-01    0.3093170368E-02    0.6922731823E+00    0.8868313585E-02    0.3097022740E-02
    0.4300000000E+04    0.1662426057E-01    0.3716152621E-02    0.6924138513E+00    0.1067141138E-01    0.2781324658E-02
    0.4500000000E+04    0.1985426746E-01    0.4438811335E-02    0.6925420296E+00    0.1276738634E-01    0.2426234869E-02
    0.4700000000E+04    0.2339714304E-01    0.5231611157E-02    0.6926593059E+00    0.1507316151E-01    0.2052132295E-02
    0.4900000000E+04    0.2699673601E-01    0.6037299638E-02    0.6927670110E+00    0.1742519775E-01    0.1692210604E-02
    0.1000000000E+04    0.9703768890E-03    0.2148729628E-03    0.6830050023E+00    0.5696976337E-03    0.4653025167E-02
    0.3000000000E+04    0.5308579043E-02    0.1185206855E-02    0.6911652278E+00    0.3365329372E-02    0.4116418080E-02
    0.5000000000E+04    0.2872084812E-01    0.6423296624E-02    0.6928176322E+00    0.1855617214E-01    0.1528905840E-02
    0.7000000000E+04    0.4461709031E-01    0.9991599905E-02    0.6935259915E+00    0.2943309187E-01    0.7073101352E-03
    0.9000000000E+04    0.5204519234E-01    0.1166942774E-01    0.6939186749E+00    0.3502119975E-01    0.7120431494E-03
    0.1100000000E+05    0.5811689959E-01    0.1304583574E-01    0.6941677604E+00    0.3983925270E-01    0.7201516967E-03
    0.1300000000E+05    0.6318779789E-01    0.1419953530E-01    0.6943395438E+00    0.4407819764E-01    0.7269749345E-03
    0.1500000000E+05    0.6747384876E-01    0.1517828325E-01    0.6944649833E+00    0.4785121440E-01    0.7328562664E-03
    0.1700000000E+05    0.7113355590E-01    0.1601716846E-01    0.6945604708E+00    0.5124276094E-01    0.7380295033E-03
    0.1900000000E+05    0.7428597339E-01    0.1674257619E-01    0.6946354938E+00    0.5431736582E-01    0.7426505433E-03
    0.2100000000E+05    0.7702219939E-01    0.1737471887E-01    0.6946959228E+00    0.5712525208E-01    0.7468285485E-03
    0.2300000000E+05    0.7941308211E-01    0.1792933395E-01    0.6947455838E+00    0.5970614640E-01    0.7506429920E-03
    0.2500000000E+05    0.8151451729E-01    0.1841885179E-01    0.6947870765E+00    0.6209192501E-01    0.7541535672E-03
    0.2700000000E+05    0.8337117033E-01    0.1885321684E-01    0.6948222286E+00    0.6430849214E-01    0.7574062721E-03
    0.2900000000E+05    0.8501914286E-01    0.1924047626E-01    0.6948523622E+00    0.6637713964E-01    0.7604373164E-03
    0.3100000000E+05    0.8648791650E-01    0.1958720937E-01    0.6948784574E+00    0.6831554845E-01    0.7632757253E-03
    0.3300000000E+05    0.8780179213E-01    0.1989884570E-01    0.6949012557E+00    0.7013853763E-01    0.7659451289E-03
    0.3500000000E+05    0.8898097068E-01    0.2017990415E-01    0.6949213284E+00    0.7185863273E-01    0.7684650269E-03
    0.3700000000E+05    0.9004237530E-01    0.2043417492E-01    0.6949391229E+00    0.7348650253E-01    0.7708517012E-03
    0.3900000000E+05    0.9100028415E-01    0.2066485970E-01    0.6949549941E+00    0.7503129859E-01    0.7731188903E-03
    0.4100000000E+05    0.9186682270E-01    0.2087468078E-01    0.6949692275E+00    0.7650092214E-01    0.7752782947E-03
    0.4300000000E+05    0.9265235053E-01    0.2106596682E-01    0.6949820551E+00    0.7790223586E-01    0.7773399624E-03
    0.4500000000E+05    0.9336576800E-01    0.2124072097E-01    0.6949936673E+00    0.7924123356E-01    0.7793125876E-03
    0.4700000000E+05    0.9401476157E-01    0.2140067529E-01    0.6950042221E+00    0.8052317716E-01    0.7812037441E-03
    0.4900000000E+05    0.9460600140E-01    0.2154733474E-01    0.6950138513E+00    0.8175270825E-01    0.7830200710E-03
    0.1000000000E+05    0.5522263177E-01    0.1238911362E-01    0.6940557822E+00    0.3751118192E-01    0.7162803932E-03
    0.3000000000E+05    0.8577430345E-01    0.1941854544E-01    0.6948658636E+00    0.6736163802E-01    0.7618790138E-03
    0.5000000000E+05    0.9488181033E-01    0.2161609600E-01    0.6950183541E+00    0.8234912283E-01    0.7839020294E-03
    0.7000000000E+05    0.9844659188E-01    0.2253807260E-01    0.6950793672E+00    0.9231477241E-01    0.7987287329E-03
    0.9000000000E+05    0.9988934570E-01    0.2296031689E-01    0.6951107603E+00    0.9980733452E-01    0.8099765019E-03
    0.1100000000E+06    0.1003495086E+00    0.2314498358E-01    0.6951291012E+00    0.1058345774E+00    0.8190670648E-03
    0.1300000000E+06    0.1003023550E+00    0.2320309111E-01    0.6951406420E+00    0.1108923195E+00    0.8267102270E-03
    0.1500000000E+06    0.9997569714E-01    0.2318873406E-01    0.6951482427E+00    0.1152599911E+00    0.8333127568E-03
    0.1700000000E+06    0.9948950716E-01    0.2313091892E-01    0.6951533861E+00    0.1191104082E+00    0.8391299626E-03
    0.1900000000E+06    0.9891134613E-01    0.2304631281E-01    0.6951569123E+00    0.1225579242E+00    0.8443328352E-03
    0.2100000000E+06    0.9828117227E-01    0.2294500087E-01    0.6951593297E+00    0.1256821919E+00    0.8490416192E-03
    0.2300000000E+06    0.9762348543E-01    0.2283333133E-01    0.6951609624E+00    0.1285409717E+00    0.8533441549E-03
    0.2500000000E+06    0.9695370101E-01    0.2271542346E-01    0.6951620253E+00    0.1311775259E+00    0.8573066021E-03
    0.2700000000E+06    0.9628168659E-01    0.2259401305E-01    0.6951626659E+00    0.1336251300E+00    0.8609800578E-03
    0.2900000000E+06    0.9561381519E-01    0.2247094869E-01    0.6951629884E+00    0.1359099518E+00    0.8644048225E-03
    0.3100000000E+06    0.9495420296E-01    0.2234749448E-01    0.6951630679E+00    0.1380529593E+00    0.8676132528E-03
    0.3300000000E+06    0.9430547904E-01    0.2222452074E-01    0.6951629598E+00    0.1400712267E+00    0.8706317281E-03
    0.3500000000E+06    0.9366927734E-01    0.2210262738E-01    0.6951627056E+00    0.1419788518E+00    0.8734820428E-03
    0.3700000000E+06    0.9304655782E-01    0.2198222588E-01    0.6951623369E+00    0.1437876183E+00    0.8761824148E-03
    0.3900000000E+06    0.9243782040E-01    0.2186359455E-01    0.6951618780E+00    0.1455074813E+00    0.8787482304E-03
    0.4100000000E+06    0.9184324981E-01    0.2174691678E-01    0.6951613479E+00    0.1471469316E+00    0.8811926041E-03
    0.4300000000E+06    0.9126281489E-01    0.2163230768E-01    0.6951607614E+00    0.1487132730E+00    0.8835268073E-03
    0.4500000000E+06    0.9069633761E-01    0.2151983301E-01    0.6951601304E+00    0.1502128367E+00    0.8857605987E-03
    0.4700000000E+06    0.9014354129E-01    0.2140952276E-01    0.6951594644E+00    0.1516511483E+00    0.8879024853E-03
    0.4900000000E+06    0.8960408468E-01    0.2130138100E-01    0.6951587710E+00    0.1530330611E+00    0.8899599277E-03
    0.1000000000E+06    0.1002040662E+00    0.2307346559E-01    0.6951210517E+00    0.1029660386E+00    0.8147371844E-03
    0.3000000000E+06    0.9528278430E-01    0.2240920839E-01    0.6951630547E+00    0.1369980362E+00    0.8660343092E-03
    0.5000000000E+06    0.8933924056E-01    0.2124811929E-01    0.6951584160E+00    0.1537042272E+00    0.8909590693E-03
    0.7000000000E+06    0.8464403386E-01    0.2028805222E-01    0.6951508884E+00    0.1649875155E+00    0.9077645039E-03
    0.9000000000E+06    0.8084792765E-01    0.1949391505E-01    0.6951435877E+00    0.1735164912E+00    0.9205221078E-03
    0.1100000000E+07    0.7768424202E-01    0.1882211325E-01    0.6951369303E+00    0.1803621101E+00    0.9308369655E-03
    0.1300000000E+07    0.7498286389E-01    0.1824212347E-01    0.6951309123E+00    0.1860682052E+00    0.9395116706E-03
    0.1500000000E+07    0.7263232639E-01    0.1773305483E-01    0.6951254552E+00    0.1909505589E+00    0.9470066047E-03
    0.1700000000E+07    0.7055641761E-01    0.1728023773E-01    0.6951204768E+00    0.1952093884E+00    0.9536109141E-03
    0.1900000000E+07    0.6870096799E-01    0.1687304898E-01    0.6951159056E+00    0.1989798317E+00    0.9595183423E-03
    0.2100000000E+07    0.6702618664E-01    0.1650357421E-01    0.6951116827E+00    0.2023574841E+00    0.9648651832E-03
    0.2300000000E+07    0.6550202600E-01    0.1616576934E-01    0.6951077600E+00    0.2054124909E+00    0.9697510282E-03
    0.2500000000E+07    0.6410526151E-01    0.1585491910E-01    0.6951040979E+00    0.2081978580E+00    0.9742509050E-03
    0.2700000000E+07    0.6281758311E-01    0.1556727660E-01    0.6951006642E+00    0.2107546193E+00    0.9784227698E-03
    0.2900000000E+07    0.6162430757E-01    0.1529981654E-01    0.6950974319E+00    0.2131151893E+00    0.9823123400E-03
    0.3100000000E+07    0.6051348515E-01    0.1505006198E-01    0.6950943786E+00    0.2153056171E+00    0.9859563261E-03
    0.3300000000E+07    0.5947526440E-01    0.1481595998E-01    0.6950914853E+00    0.2173471484E+00    0.9893846604E-03
    0.3500000000E+07    0.5850143080E-01    0.1459579046E-01    0.6950887357E+00    0.2192573352E+00    0.9926220749E-03
    0.3700000000E+07    0.5758506528E-01    0.1438809824E-01    0.6950861162E+00    0.2210508433E+00    0.9956892450E-03
    0.3900000000E+07    0.5672028704E-01    0.1419164156E-01    0.6950836147E+00    0.2227400494E+00    0.9986036335E-03
    0.4100000000E+07    0.5590205706E-01    0.1400535246E-01    0.6950812209E+00    0.2243354927E+00    0.1001380126E-02
    0.4300000000E+07    0.5512602581E-01    0.1382830598E-01    0.6950789257E+00    0.2258462193E+00    0.1004031517E-02
    0.4500000000E+07    0.5438841383E-01    0.1365969581E-01    0.6950767211E+00    0.2272800505E+00    0.1006568884E-02
    0.4700000000E+07    0.5368591699E-01    0.1349881498E-01    0.6950746001E+00    0.2286437929E+00    0.1009001884E-02
    0.4900000000E+07    0.5301563060E-01    0.1334504023E-01    0.6950725565E+00    0.2299434058E+00    0.1011338988E-02
    0.1000000000E+07    0.7919941064E-01    0.1914490497E-01    0.6951401754E+00    0.1771083315E+00    0.9259235585E-03
    0.3000000000E+07    0.6105924852E-01    0.1517286312E-01    0.6950958842E+00    0.2142302453E+00    0.9841630225E-03
    0.5000000000E+07    0.5269175248E-01    0.1327064260E-01    0.6950715620E+00    0.2305708278E+00    0.1012473948E-02
    0.7000000000E+07    0.4741446142E-01    0.1204969749E-01    0.6950546497E+00    0.2407495371E+00    0.1031564518E-02
    0.9000000000E+07    0.4363973913E-01    0.1116623109E-01    0.6950416209E+00    0.2479865602E+00    0.1046057520E-02
    0.1100000000E+08    0.4074380642E-01    0.1048258306E-01    0.6950309943E+00    0.2535189724E+00    0.1057775788E-02
    0.1300000000E+08    0.3841957375E-01    0.9930126252E-02    0.6950220052E+00    0.2579487288E+00    0.1067630902E-02
    0.1500000000E+08    0.3649425574E-01    0.9469882399E-02    0.6950142059E+00    0.2616120575E+00    0.1076145796E-02
    0.1700000000E+08    0.3486152411E-01    0.9077684276E-02    0.6950073115E+00    0.2647148233E+00    0.1083648917E-02
    0.1900000000E+08    0.3345157672E-01    0.8737567239E-02    0.6950011293E+00    0.2673916704E+00    0.1090360350E-02
    0.2100000000E+08    0.3221628701E-01    0.8438465215E-02    0.6949955224E+00    0.2697351668E+00    0.1096434922E-02
    0.2300000000E+08    0.3112116907E-01    0.8172411597E-02    0.6949903904E+00    0.2718114935E+00    0.1101985771E-02
    0.2500000000E+08    0.3014072962E-01    0.7933492828E-02    0.6949856572E+00    0.2736694836E+00    0.1107098129E-02
    0.2700000000E+08    0.2925563227E-01    0.7717206896E-02    0.6949812638E+00    0.2753461199E+00    0.1111837838E-02
