  Pressure (Pa) 22mC5-500 (mol/kg) 23mC5-500 (mol/kg) 24mC5-500 (mol/kg) 2mC6-500 (mol/kg) C7-500 (mol/kg)
    0.1000000000E+01    0.1633600844E-04    0.5860575686E-06    0.1741066022E+00    0.5251779878E-05    0.4180617890E-02
    0.3000000000E+01    0.3027997088E-04    0.1082579678E-05    0.3481182241E+00    0.9244670013E-05    0.4209455336E-02
    0.5000000000E+01    0.3617230044E-04    0.1290784032E-05    0.4350905122E+00    0.1085499931E-04    0.4222243065E-02
    0.7000000000E+01    0.3939410702E-04    0.1404374096E-05    0.4872641403E+00    0.1185101907E-04    0.4229823630E-02
    0.9000000000E+01    0.4152063620E-04    0.1479648140E-05    0.5220429176E+00    0.1267042925E-04    0.4234883499E-02
    0.1100000000E+02    0.4314372390E-04    0.1537591452E-05    0.5468833224E+00    0.1344771254E-04    0.4238510370E-02
    0.1300000000E+02    0.4452127415E-04    0.1587267271E-05    0.5655128725E+00    0.1422802692E-04    0.4241238349E-02
    0.1500000000E+02    0.4577709422E-04    0.1632981201E-05    0.5800021403E+00    0.1502615081E-04    0.4243362613E-02
    0.1700000000E+02    0.4697462699E-04    0.1676911887E-05    0.5915933531E+00    0.1584570855E-04    0.4245060342E-02
    0.1900000000E+02    0.4814781234E-04    0.1720206418E-05    0.6010769652E+00    0.1668615843E-04    0.4246444669E-02
    0.2100000000E+02    0.4931526229E-04    0.1763480658E-05    0.6089799186E+00    0.1754550900E-04    0.4247591396E-02
    0.2300000000E+02    0.5048725167E-04    0.1807064484E-05    0.6156670047E+00    0.1842140813E-04    0.4248553322E-02
    0.2500000000E+02    0.5166936345E-04    0.1851128805E-05    0.6213987806E+00    0.1931157420E-04    0.4249368413E-02
    0.2700000000E+02    0.5286447585E-04    0.1895754276E-05    0.6263663169E+00    0.2021395168E-04    0.4250064710E-02
    0.2900000000E+02    0.5407388466E-04    0.1940969775E-05    0.6307129137E+00    0.2112675027E-04    0.4250663401E-02
    0.3100000000E+02    0.5529795535E-04    0.1986774535E-05    0.6345481515E+00    0.2204843619E-04    0.4251180811E-02
    0.3300000000E+02    0.5653651034E-04    0.2033151131E-05    0.6379572588E+00    0.2297770575E-04    0.4251629735E-02
    0.3500000000E+02    0.5778906285E-04    0.2080073213E-05    0.6410075204E+00    0.2391345443E-04    0.4252020353E-02
    0.3700000000E+02    0.5905495957E-04    0.2127510140E-05    0.6437527636E+00    0.2485474713E-04    0.4252360874E-02
    0.3900000000E+02    0.6033346808E-04    0.2175429747E-05    0.6462365629E+00    0.2580079148E-04    0.4252657992E-02
    0.4100000000E+02    0.6162383035E-04    0.2223799996E-05    0.6484945696E+00    0.2675091492E-04    0.4252917230E-02
    0.4300000000E+02    0.6292529505E-04    0.2272589921E-05    0.6505562349E+00    0.2770454535E-04    0.4253143183E-02
    0.4500000000E+02    0.6423713646E-04    0.2321770146E-05    0.6524461014E+00    0.2866119499E-04    0.4253339712E-02
    0.4700000000E+02    0.6555866509E-04    0.2371313138E-05    0.6541847847E+00    0.2962044687E-04    0.4253510084E-02
    0.4900000000E+02    0.6688923294E-04    0.2421193298E-05    0.6557897288E+00    0.3058194371E-04    0.4253657083E-02
    0.1000000000E+02    0.4237447271E-04    0.1510058996E-05    0.5354186720E+00    0.1306042420E-04    0.4236834873E-02
    0.3000000000E+02    0.5468408894E-04    0.1963799306E-05    0.6326886414E+00    0.2158656883E-04    0.4250931396E-02
    0.5000000000E+02    0.6755771594E-04    0.2446252343E-05    0.6565467800E+00    0.3106343635E-04    0.4253722579E-02
    0.7000000000E+02    0.8127773052E-04    0.2960330866E-05    0.6673323390E+00    0.4075615558E-04    0.4254240253E-02
    0.9000000000E+02    0.9544416068E-04    0.3490618904E-05    0.6734791317E+00    0.5049711504E-04    0.4253867011E-02
    0.1100000000E+03    0.1098740502E-03    0.4030320563E-05    0.6774501566E+00    0.6024686131E-04    0.4253037963E-02
    0.1300000000E+03    0.1244803015E-03    0.4576265848E-05    0.6802269309E+00    0.6999847228E-04    0.4251937908E-02
    0.1500000000E+03    0.1392187335E-03    0.5126875426E-05    0.6822777709E+00    0.7975457342E-04    0.4250660032E-02
    0.1700000000E+03    0.1540660400E-03    0.5681332935E-05    0.6838544360E+00    0.8952057439E-04    0.4249256909E-02
    0.1900000000E+03    0.1690098227E-03    0.6239215980E-05    0.6851043321E+00    0.9930243987E-04    0.4247760652E-02
    0.2100000000E+03    0.1840437117E-03    0.6800317447E-05    0.6861195035E+00    0.1091059306E-03    0.4246192064E-02
    0.2300000000E+03    0.1991648166E-03    0.7364552979E-05    0.6869603918E+00    0.1189363668E-03    0.4244565247E-02
    0.2500000000E+03    0.2143723207E-03    0.7931910444E-05    0.6876683277E+00    0.1287985852E-03    0.4242890108E-02
    0.2700000000E+03    0.2296666737E-03    0.8502421130E-05    0.6882725304E+00    0.1386969669E-03    0.4241173810E-02
    0.2900000000E+03    0.2450491109E-03    0.9076142754E-05    0.6887942417E+00    0.1486354878E-03    0.4239421650E-02
    0.3100000000E+03    0.2605213588E-03    0.9653149173E-05    0.6892492741E+00    0.1586177724E-03    0.4237637628E-02
    0.3300000000E+03    0.2760854515E-03    0.1023352402E-04    0.6896496416E+00    0.1686471440E-03    0.4235824803E-02
    0.3500000000E+03    0.2917436137E-03    0.1081735672E-04    0.6900046354E+00    0.1787266692E-03    0.4233985549E-02
    0.3700000000E+03    0.3074981859E-03    0.1140473994E-04    0.6903215543E+00    0.1888591962E-03    0.4232121727E-02
    0.3900000000E+03    0.3233515758E-03    0.1199576805E-04    0.6906062111E+00    0.1990473866E-03    0.4230234804E-02
    0.4100000000E+03    0.3393062269E-03    0.1259053603E-04    0.6908632927E+00    0.2092937435E-03    0.4228325945E-02
    0.4300000000E+03    0.3553645986E-03    0.1318913893E-04    0.6910966203E+00    0.2196006345E-03    0.4226396076E-02
    0.4500000000E+03    0.3715291537E-03    0.1379167144E-04    0.6913093400E+00    0.2299703111E-03    0.4224445936E-02
    0.4700000000E+03    0.3878023508E-03    0.1439822773E-04    0.6915040659E+00    0.2404049258E-03    0.4222476110E-02
    0.4900000000E+03    0.4041866399E-03    0.1500890132E-04    0.6916829881E+00    0.2509065462E-03    0.4220487061E-02
    0.1000000000E+03    0.1026330186E-03    0.3759543419E-05    0.6756574034E+00    0.5537168414E-04    0.4253494780E-02
    0.3000000000E+03    0.2527738870E-03    0.9364230311E-05    0.6890292675E+00    0.1536209454E-03    0.4238533412E-02
    0.5000000000E+03    0.4124212068E-03    0.1531581115E-04    0.6917671119E+00    0.2561831095E-03    0.4219485446E-02
    0.7000000000E+03    0.5835374018E-03    0.2169261479E-04    0.6929468405E+00    0.3656916921E-03    0.4198493872E-02
    0.9000000000E+03    0.7685384475E-03    0.2858585567E-04    0.6936037719E+00    0.4839496590E-03    0.4175658230E-02
    0.1100000000E+04    0.9699254042E-03    0.3608917503E-04    0.6940223141E+00    0.6126471699E-03    0.4150817765E-02
    0.1300000000E+04    0.1190457657E-02    0.4430561086E-04    0.6943122546E+00    0.7535938231E-03    0.4123715327E-02
    0.1500000000E+04    0.1433301633E-02    0.5335327986E-04    0.6945249420E+00    0.9088441151E-03    0.4094024616E-02
    0.1700000000E+04    0.1702176511E-02    0.6337085840E-04    0.6946876015E+00    0.1080801351E-02    0.4061349045E-02
    0.1900000000E+04    0.2001518596E-02    0.7452373134E-04    0.6948160121E+00    0.1272327825E-02    0.4025210375E-02
    0.2100000000E+04    0.2336681169E-02    0.8701145263E-04    0.6949199493E+00    0.1486875892E-02    0.3985030823E-02
    0.2300000000E+04    0.2714186394E-02    0.1010771427E-03    0.6950057926E+00    0.1728651974E-02    0.3940108893E-02
    0.2500000000E+04    0.3142048512E-02    0.1170195415E-03    0.6950778818E+00    0.2002826507E-02    0.3889587847E-02
    0.2700000000E+04    0.3630191833E-02    0.1352085972E-03    0.6951392720E+00    0.2315805433E-02    0.3832415123E-02
    0.2900000000E+04    0.4190992141E-02    0.1561056561E-03    0.6951921763E+00    0.2675582132E-02    0.3767290550E-02
    0.3100000000E+04    0.4839974113E-02    0.1802894745E-03    0.6952382370E+00    0.3092191442E-02    0.3692601207E-02
    0.3300000000E+04    0.5596695938E-02    0.2084892157E-03    0.6952786982E+00    0.3578286820E-02    0.3606341632E-02
    0.3500000000E+04    0.6485835312E-02    0.2416249669E-03    0.6953145202E+00    0.4149851262E-02    0.3506021026E-02
    0.3700000000E+04    0.7538436025E-02    0.2808542648E-03    0.6953464555E+00    0.4827017972E-02    0.3388566659E-02
    0.3900000000E+04    0.8793135224E-02    0.3276179332E-03    0.6953751022E+00    0.5634888179E-02    0.3250249774E-02
    0.4100000000E+04    0.1029688090E-01    0.3836669708E-03    0.6954009420E+00    0.6604034517E-02    0.3086695588E-02
    0.4300000000E+04    0.1210402918E-01    0.4510291139E-03    0.6954243667E+00    0.7769978904E-02    0.2893104866E-02
    0.4500000000E+04    0.1427165039E-01    0.5318341615E-03    0.6954456987E+00    0.9170246622E-02    0.2664917966E-02
    0.4700000000E+04    0.1684755839E-01    0.6278680896E-03    0.6954652054E+00    0.1083673640E-01    0.2399258788E-02
    0.4900000000E+04    0.1984738536E-01    0.7397187155E-03    0.6954831104E+00    0.1278098836E-01    0.2097438919E-02
    0.1000000000E+04    0.8670191020E-03    0.3225510614E-04    0.6938339274E+00    0.5468848496E-03    0.4163502955E-02
    0.3000000000E+04    0.4503344322E-02    0.1677451113E-03    0.6952159766E+00    0.2876060924E-02    0.3731256581E-02
    0.5000000000E+04    0.2149428777E-01    0.8011306460E-03    0.6954915225E+00    0.1385009667E-01    0.1935328126E-02
    0.7000000000E+04    0.4598395236E-01    0.1715707648E-02    0.6956089900E+00    0.3013989264E-01    0.1677472789E-03
    0.9000000000E+04    0.5441923665E-01    0.2032712754E-02    0.6956738678E+00    0.3632490818E-01    0.1316652962E-03
    0.1100000000E+05    0.6112056981E-01    0.2285450060E-02    0.6957148985E+00    0.4150634630E-01    0.1328060678E-03
    0.1300000000E+05    0.6677566734E-01    0.2499423642E-02    0.6957431222E+00    0.4609145274E-01    0.1340433948E-03
    0.1500000000E+05    0.7160100031E-01    0.2682607091E-02    0.6957636828E+00    0.5019277371E-01    0.1351154999E-03
    0.1700000000E+05    0.7575563339E-01    0.2840863790E-02    0.6957792993E+00    0.5389385969E-01    0.1360600594E-03
    0.1900000000E+05    0.7936092711E-01    0.2978671793E-02    0.6957915428E+00    0.5725944684E-01    0.1369048158E-03
    0.2100000000E+05    0.8251105316E-01    0.3099509462E-02    0.6958013843E+00    0.6034055005E-01    0.1376693141E-03
    0.2300000000E+05    0.8528016186E-01    0.3206118458E-02    0.6958094560E+00    0.6317796109E-01    0.1383678298E-03
    0.2500000000E+05    0.8772740205E-01    0.3300688035E-02    0.6958161867E+00    0.6580472193E-01    0.1390111135E-03
    0.2700000000E+05    0.8990050736E-01    0.3384986783E-02    0.6958218778E+00    0.6824790856E-01    0.1396074668E-03
    0.2900000000E+05    0.9183840403E-01    0.3460458480E-02    0.6958267470E+00    0.7052994037E-01    0.1401634369E-03
    0.3100000000E+05    0.9357313752E-01    0.3528292956E-02    0.6958309556E+00    0.7266955667E-01    0.1406842795E-03
    0.3300000000E+05    0.9513131653E-01    0.3589479222E-02    0.6958346255E+00    0.7468255539E-01    0.1411742794E-03
    0.3500000000E+05    0.9653520933E-01    0.3644845853E-02    0.6958378504E+00    0.7658235919E-01    0.1416369762E-03
    0.3700000000E+05    0.9780358629E-01    0.3695092021E-02    0.6958407039E+00    0.7838045457E-01    0.1420753287E-03
    0.3900000000E+05    0.9895237424E-01    0.3740811626E-02    0.6958432441E+00    0.8008673604E-01    0.1424918354E-03
    0.4100000000E+05    0.9999516999E-01    0.3782512237E-02    0.6958455178E+00    0.8170977875E-01    0.1428886261E-03
    0.4300000000E+05    0.1009436469E+00    0.3820630099E-02    0.6958475630E+00    0.8325705626E-01    0.1432675311E-03
    0.4500000000E+05    0.1018078798E+00    0.3855542133E-02    0.6958494108E+00    0.8473511620E-01    0.1436301349E-03
    0.4700000000E+05    0.1025966061E+00    0.3887575594E-02    0.6958510870E+00    0.8614972285E-01    0.1439778188E-03
    0.4900000000E+05    0.1033174382E+00    0.3917015919E-02    0.6958526133E+00    0.8750597396E-01    0.1443117942E-03
    0.1000000000E+05    0.5791779545E-01    0.2164557306E-02    0.6956964667E+00    0.3899911495E-01    0.1321344454E-03
    0.3000000000E+05    0.9272938999E-01    0.3495264377E-02    0.6958289255E+00    0.7161650150E-01    0.1404279616E-03
    0.5000000000E+05    0.1036545085E+00    0.3930843019E-02    0.6958533259E+00    0.8816365099E-01    0.1444739801E-03
    0.7000000000E+05    0.1080771110E+00    0.4118108390E-02    0.6958628904E+00    0.9912529573E-01    0.1472019075E-03
    0.9000000000E+05    0.1099470884E+00    0.4205875599E-02    0.6958677005E+00    0.1073200744E+00    0.1492727730E-03
    0.1100000000E+06    0.1106149988E+00    0.4245681998E-02    0.6958704365E+00    0.1138758400E+00    0.1509471348E-03
    0.1300000000E+06    0.1106535475E+00    0.4259679481E-02    0.6958721029E+00    0.1193496786E+00    0.1523552726E-03
    0.1500000000E+06    0.1103405911E+00    0.4258773235E-02    0.6958731561E+00    0.1240557372E+00    0.1535719147E-03
    0.1700000000E+06    0.1098239095E+00    0.4248856576E-02    0.6958738312E+00    0.1281881175E+00    0.1546439943E-03
    0.1900000000E+06    0.1091874573E+00    0.4233337367E-02    0.6958742605E+00    0.1318750396E+00    0.1556029586E-03
    0.2100000000E+06    0.1084813070E+00    0.4214289051E-02    0.6958745234E+00    0.1352056325E+00    0.1564709302E-03
    0.2300000000E+06    0.1077364234E+00    0.4193023365E-02    0.6958746704E+00    0.1382443866E+00    0.1572640739E-03
    0.2500000000E+06    0.1069724701E+00    0.4170395611E-02    0.6958747344E+00    0.1410394985E+00    0.1579945678E-03
    0.2700000000E+06    0.1062021670E+00    0.4146976623E-02    0.6958747380E+00    0.1436279579E+00    0.1586718190E-03
    0.2900000000E+06    0.1054338331E+00    0.4123154121E-02    0.6958746971E+00    0.1460387923E+00    0.1593032480E-03
    0.3100000000E+06    0.1046729279E+00    0.4099194761E-02    0.6958746229E+00    0.1482952139E+00    0.1598948136E-03
    0.3300000000E+06    0.1039230140E+00    0.4075283343E-02    0.6958745236E+00    0.1504160872E+00    0.1604513741E-03
    0.3500000000E+06    0.1031863754E+00    0.4051548282E-02    0.6958744055E+00    0.1524169602E+00    0.1609769440E-03
    0.3700000000E+06    0.1024644233E+00    0.4028078537E-02    0.6958742730E+00    0.1543108051E+00    0.1614748792E-03
    0.3900000000E+06    0.1017579674E+00    0.4004935101E-02    0.6958741297E+00    0.1561085630E+00    0.1619480142E-03
    0.4100000000E+06    0.1010674009E+00    0.3982158940E-02    0.6958739782E+00    0.1578195507E+00    0.1623987653E-03
    0.4300000000E+06    0.1003928277E+00    0.3959776554E-02    0.6958738208E+00    0.1594517703E+00    0.1628292091E-03
    0.4500000000E+06    0.9973415150E-01    0.3937803938E-02    0.6958736590E+00    0.1610121479E+00    0.1632411437E-03
    0.4700000000E+06    0.9909113859E-01    0.3916249427E-02    0.6958734941E+00    0.1625067203E+00    0.1636361368E-03
    0.4900000000E+06    0.9846346223E-01    0.3895115766E-02    0.6958733271E+00    0.1639407825E+00    0.1640155632E-03
    0.1000000000E+06    0.1103854530E+00    0.4230007197E-02    0.6958692456E+00    0.1107600645E+00    0.1501495629E-03
    0.3000000000E+06    0.1050521933E+00    0.4111178430E-02    0.6958746636E+00    0.1471850376E+00    0.1596036877E-03
    0.5000000000E+06    0.9815525576E-01    0.3884706464E-02    0.6958732431E+00    0.1646366035E+00    0.1641998234E-03
    0.7000000000E+06    0.9269039203E-01    0.3697154629E-02    0.6958715828E+00    0.1762686479E+00    0.1672992364E-03
    0.9000000000E+06    0.8827792949E-01    0.3542358979E-02    0.6958700715E+00    0.1849788215E+00    0.1696523059E-03
    0.1100000000E+07    0.8460905405E-01    0.3411786825E-02    0.6958687309E+00    0.1919181475E+00    0.1715549272E-03
    0.1300000000E+07    0.8148421426E-01    0.3299391387E-02    0.6958675382E+00    0.1976667693E+00    0.1731550779E-03
    0.1500000000E+07    0.7877203344E-01    0.3201019492E-02    0.6958664676E+00    0.2025595359E+00    0.1745376484E-03
    0.1700000000E+07    0.7638251899E-01    0.3113752079E-02    0.6958654981E+00    0.2068076739E+00    0.1757559580E-03
    0.1900000000E+07    0.7425167094E-01    0.3035475651E-02    0.6958646127E+00    0.2105531166E+00    0.1768457354E-03
    0.2100000000E+07    0.7233248395E-01    0.2964616775E-02    0.6958637983E+00    0.2138958661E+00    0.1778321157E-03
    0.2300000000E+07    0.7058948165E-01    0.2899975071E-02    0.6958630443E+00    0.2169090348E+00    0.1787334661E-03
    0.2500000000E+07    0.6899526457E-01    0.2840615171E-02    0.6958623425E+00    0.2196476873E+00    0.1795636240E-03
    0.2700000000E+07    0.6752825102E-01    0.2785794739E-02    0.6958616860E+00    0.2221543194E+00    0.1803332785E-03
    0.2900000000E+07    0.6617115162E-01    0.2734915188E-02    0.6958610692E+00    0.2244624038E+00    0.1810508615E-03
    0.3100000000E+07    0.6490991047E-01    0.2687487081E-02    0.6958604876E+00    0.2265987676E+00    0.1817231440E-03
    0.3300000000E+07    0.6373295242E-01    0.2643105297E-02    0.6958599373E+00    0.2285852353E+00    0.1823556469E-03
    0.3500000000E+07    0.6263063626E-01    0.2601430845E-02    0.6958594151E+00    0.2304397940E+00    0.1829529318E-03
    0.3700000000E+07    0.6159485015E-01    0.2562177314E-02    0.6958589182E+00    0.2321774386E+00    0.1835188123E-03
    0.3900000000E+07    0.6061870707E-01    0.2525100608E-02    0.6958584442E+00    0.2338107961E+00    0.1840565095E-03
    0.4100000000E+07    0.5969631221E-01    0.2489991060E-02    0.6958579910E+00    0.2353505966E+00    0.1845687690E-03
    0.4300000000E+07    0.5882258279E-01    0.2456667295E-02    0.6958575569E+00    0.2368060319E+00    0.1850579508E-03
    0.4500000000E+07    0.5799310685E-01    0.2424971397E-02    0.6958571403E+00    0.2381850343E+00    0.1855260984E-03
    0.4700000000E+07    0.5720403133E-01    0.2394765063E-02    0.6958567398E+00    0.2394944944E+00    0.1859749929E-03
    0.4900000000E+07    0.5645197242E-01    0.2365926509E-02    0.6958563541E+00    0.2407404344E+00    0.1864061969E-03
    0.1000000000E+07    0.8636503366E-01    0.3474476631E-02    0.6958693811E+00    0.1886256051E+00    0.1706486168E-03
    0.3000000000E+07    0.6552932312E-01    0.2710796761E-02    0.6958607743E+00    0.2255505850E+00    0.1813922949E-03
    0.5000000000E+07    0.5608887693E-01    0.2351985982E-02    0.6958561665E+00    0.2413412636E+00    0.1866156020E-03
    0.7000000000E+07    0.5020024543E-01    0.2124325186E-02    0.6958529845E+00    0.2510259151E+00    0.1901379829E-03
    0.9000000000E+07    0.4602125420E-01    0.1960932412E-02    0.6958505417E+00    0.2578386637E+00    0.1928121788E-03
    0.1100000000E+08    0.4283452477E-01    0.1835284987E-02    0.6958485537E+00    0.2630049211E+00    0.1949744568E-03
    0.1300000000E+08    0.4028936582E-01    0.1734259989E-02    0.6958468744E+00    0.2671149443E+00    0.1967929868E-03
    0.1500000000E+08    0.3818960118E-01    0.1650449786E-02    0.6958454191E+00    0.2704957771E+00    0.1983642430E-03
    0.1700000000E+08    0.3641510112E-01    0.1579285349E-02    0.6958441338E+00    0.2733463246E+00    0.1997488213E-03
    0.1900000000E+08    0.3488733842E-01    0.1517761931E-02    0.6958429821E+00    0.2757959380E+00    0.2009873260E-03
    0.2100000000E+08    0.3355237331E-01    0.1463804939E-02    0.6958419381E+00    0.2779331054E+00    0.2021083226E-03
    0.2300000000E+08    0.3237168298E-01    0.1415926059E-02    0.6958409830E+00    0.2798208139E+00    0.2031326848E-03
    0.2500000000E+08    0.3131687523E-01    0.1373023989E-02    0.6958401025E+00    0.2815053577E+00    0.2040761383E-03
    0.2700000000E+08    0.3036647336E-01    0.1334262680E-02    0.6958392855E+00    0.2830216728E+00    0.2049508311E-03
