  Pressure (Pa) 22mC5-500 (mol/kg) 23mC5-500 (mol/kg) 24mC5-500 (mol/kg) 2mC6-500 (mol/kg) C7-500 (mol/kg)
    0.1000000000E+01    0.2006471363E-04    0.7206928457E-06    0.6964826885E-01    0.1640754864E-04    0.4196088588E-02
    0.3000000000E+01    0.4810855197E-04    0.1724775349E-05    0.1740699334E+00    0.3802750012E-04    0.4254196559E-02
    0.5000000000E+01    0.6660428289E-04    0.2384447402E-05    0.2486213041E+00    0.5138785760E-04    0.4293638417E-02
    0.7000000000E+01    0.7948677196E-04    0.2842245692E-05    0.3045167044E+00    0.6019380407E-04    0.4323161926E-02
    0.9000000000E+01    0.8884119451E-04    0.3173547845E-05    0.3479809818E+00    0.6632324568E-04    0.4346215299E-02
    0.1100000000E+02    0.9586837101E-04    0.3421675307E-05    0.3827466868E+00    0.7081083651E-04    0.4364758546E-02
    0.1300000000E+02    0.1013023804E-03    0.3613056097E-05    0.4111879342E+00    0.7426025897E-04    0.4380019091E-02
    0.1500000000E+02    0.1056132991E-03    0.3764577200E-05    0.4348868712E+00    0.7703943039E-04    0.4392810741E-02
    0.1700000000E+02    0.1091135961E-03    0.3887438543E-05    0.4549385018E+00    0.7938038882E-04    0.4403696117E-02
    0.1900000000E+02    0.1120174520E-03    0.3989299149E-05    0.4721247815E+00    0.8143352312E-04    0.4413077309E-02
    0.2100000000E+02    0.1144754951E-03    0.4075532343E-05    0.4870190306E+00    0.8329845260E-04    0.4421249645E-02
    0.2300000000E+02    0.1165959896E-03    0.4149990439E-05    0.5000511688E+00    0.8504231661E-04    0.4428435104E-02
    0.2500000000E+02    0.1184582157E-03    0.4215486959E-05    0.5115499132E+00    0.8671097238E-04    0.4434803870E-02
    0.2700000000E+02    0.1201211714E-03    0.4274109864E-05    0.5217709032E+00    0.8833604736E-04    0.4440488678E-02
    0.2900000000E+02    0.1216293816E-03    0.4327430324E-05    0.5309159401E+00    0.8993949018E-04    0.4445594631E-02
    0.3100000000E+02    0.1230168624E-03    0.4376645026E-05    0.5391464516E+00    0.9153657021E-04    0.4450206073E-02
    0.3300000000E+02    0.1243098827E-03    0.4422675135E-05    0.5465931083E+00    0.9313789117E-04    0.4454391500E-02
    0.3500000000E+02    0.1255289217E-03    0.4466236334E-05    0.5533628161E+00    0.9475076512E-04    0.4458207133E-02
    0.3700000000E+02    0.1266900784E-03    0.4507889197E-05    0.5595438843E+00    0.9638016309E-04    0.4461699571E-02
    0.3900000000E+02    0.1278061016E-03    0.4548075925E-05    0.5652099005E+00    0.9802938124E-04    0.4464907774E-02
    0.4100000000E+02    0.1288871522E-03    0.4587147499E-05    0.5704226764E+00    0.9970051266E-04    0.4467864580E-02
    0.4300000000E+02    0.1299413743E-03    0.4625383971E-05    0.5752345123E+00    0.1013947846E-03    0.4470597864E-02
    0.4500000000E+02    0.1309753270E-03    0.4663009804E-05    0.5796899593E+00    0.1031128019E-03    0.4473131456E-02
    0.4700000000E+02    0.1319943147E-03    0.4700205575E-05    0.5838272030E+00    0.1048547229E-03    0.4475485847E-02
    0.4900000000E+02    0.1330026422E-03    0.4737116979E-05    0.5876791617E+00    0.1066203888E-03    0.4477678764E-02
    0.1000000000E+02    0.9259189456E-04    0.3306070471E-05    0.3662793224E+00    0.6872737602E-04    0.4355961633E-02
    0.3000000000E+02    0.1223364159E-03    0.4352487800E-05    0.5351367162E+00    0.9073807205E-04    0.4447957561E-02
    0.5000000000E+02    0.1335039300E-03    0.4755503792E-05    0.5895072254E+00    0.1075120135E-03    0.4478719567E-02
    0.7000000000E+02    0.1435396871E-03    0.5127208288E-05    0.6163512104E+00    0.1264439491E-03    0.4493918713E-02
    0.9000000000E+02    0.1541464351E-03    0.5523733365E-05    0.6323510648E+00    0.1469974764E-03    0.4502658653E-02
    0.1100000000E+03    0.1654816294E-03    0.5948714031E-05    0.6429739595E+00    0.1686473106E-03    0.4508030837E-02
    0.1300000000E+03    0.1774745921E-03    0.6398675157E-05    0.6505406026E+00    0.1910807876E-03    0.4511391843E-02
    0.1500000000E+03    0.1900332079E-03    0.6869828687E-05    0.6562041290E+00    0.2141158700E-03    0.4513437173E-02
    0.1700000000E+03    0.2030799711E-03    0.7359127670E-05    0.6606023525E+00    0.2376442247E-03    0.4514563073E-02
    0.1900000000E+03    0.2165552169E-03    0.7864277606E-05    0.6641167062E+00    0.2615999473E-03    0.4515013232E-02
    0.2100000000E+03    0.2304141291E-03    0.8383578854E-05    0.6669893034E+00    0.2859424675E-03    0.4514946464E-02
    0.2300000000E+03    0.2446232505E-03    0.8915775484E-05    0.6693812252E+00    0.3106469129E-03    0.4514471080E-02
    0.2500000000E+03    0.2591576322E-03    0.9459938804E-05    0.6714038047E+00    0.3356984754E-03    0.4513663688E-02
    0.2700000000E+03    0.2739986991E-03    0.1001538259E-04    0.6731364556E+00    0.3610889999E-03    0.4512580114E-02
    0.2900000000E+03    0.2891326894E-03    0.1058160225E-04    0.6746373471E+00    0.3868148541E-03    0.4511262057E-02
    0.3100000000E+03    0.3045495193E-03    0.1115823104E-04    0.6759500622E+00    0.4128755604E-03    0.4509741312E-02
    0.3300000000E+03    0.3202419512E-03    0.1174500836E-04    0.6771079006E+00    0.4392728958E-03    0.4508042548E-02
    0.3500000000E+03    0.3362049812E-03    0.1234175649E-04    0.6781367424E+00    0.4660102879E-03    0.4506185192E-02
    0.3700000000E+03    0.3524353813E-03    0.1294836338E-04    0.6790570057E+00    0.4930924015E-03    0.4504184731E-02
    0.3900000000E+03    0.3689313554E-03    0.1356476975E-04    0.6798850153E+00    0.5205248523E-03    0.4502053640E-02
    0.4100000000E+03    0.3856922776E-03    0.1419095928E-04    0.6806339796E+00    0.5483140054E-03    0.4499802058E-02
    0.4300000000E+03    0.4027184912E-03    0.1482695120E-04    0.6813147003E+00    0.5764668328E-03    0.4497438283E-02
    0.4500000000E+03    0.4200111535E-03    0.1547279452E-04    0.6819360968E+00    0.6049908111E-03    0.4494969140E-02
    0.4700000000E+03    0.4375721146E-03    0.1612856352E-04    0.6825055990E+00    0.6338938495E-03    0.4492400270E-02
    0.4900000000E+03    0.4554038223E-03    0.1679435432E-04    0.6830294457E+00    0.6631842367E-03    0.4489736342E-02
    0.1000000000E+03    0.1597259700E-03    0.5732847937E-05    0.6381496707E+00    0.1577088610E-03    0.4505658532E-02
    0.3000000000E+03    0.2968062604E-03    0.1086863397E-04    0.6753149434E+00    0.3998032843E-03    0.4510525337E-02
    0.5000000000E+03    0.4644221156E-03    0.1713104319E-04    0.6832759298E+00    0.6779773710E-03    0.4488369969E-02
    0.7000000000E+03    0.6599697100E-03    0.2442791449E-04    0.6867452403E+00    0.9964695484E-03    0.4456687306E-02
    0.9000000000E+03    0.8884258256E-03    0.3294763870E-04    0.6886874596E+00    0.1365655118E-02    0.4417183956E-02
    0.1100000000E+04    0.1157747849E-02    0.4298810783E-04    0.6899287607E+00    0.1799250169E-02    0.4369333965E-02
    0.1300000000E+04    0.1479012211E-02    0.5496283621E-04    0.6907904292E+00    0.2315516917E-02    0.4311618108E-02
    0.1500000000E+04    0.1867507089E-02    0.6944204310E-04    0.6914234273E+00    0.2939313517E-02    0.4241643106E-02
    0.1700000000E+04    0.2344579901E-02    0.8722167718E-04    0.6919080513E+00    0.3705189507E-02    0.4155949816E-02
    0.1900000000E+04    0.2940501733E-02    0.1094302916E-03    0.6922909475E+00    0.4662076887E-02    0.4049616147E-02
    0.2100000000E+04    0.3698797458E-02    0.1376905647E-03    0.6926010670E+00    0.5880353130E-02    0.3915640162E-02
    0.2300000000E+04    0.4682487376E-02    0.1743521527E-03    0.6928573293E+00    0.7462044160E-02    0.3744091516E-02
    0.2500000000E+04    0.5981909195E-02    0.2227836452E-03    0.6930726207E+00    0.9553714976E-02    0.3521193592E-02
    0.2700000000E+04    0.7720210085E-02    0.2875780771E-03    0.6932560214E+00    0.1235589017E-01    0.3229173773E-02
    0.2900000000E+04    0.1004116357E-01    0.3741002805E-03    0.6934141137E+00    0.1610445328E-01    0.2849641642E-02
    0.3100000000E+04    0.1304043160E-01    0.4859266692E-03    0.6935517861E+00    0.2096120594E-01    0.2376626330E-02
    0.3300000000E+04    0.1660141308E-01    0.6187266120E-03    0.6936727446E+00    0.2674922962E-01    0.1843168056E-02
    0.3500000000E+04    0.2025587420E-01    0.7550604099E-03    0.6937798501E+00    0.3272316264E-01    0.1336736661E-02
    0.3700000000E+04    0.2340674798E-01    0.8726722824E-03    0.6938753461E+00    0.3792010230E-01    0.9513669655E-03
    0.3900000000E+04    0.2578911048E-01    0.9616733985E-03    0.6939610169E+00    0.4190310639E-01    0.7138321387E-03
    0.4100000000E+04    0.2752635858E-01    0.1026648801E-02    0.6940382992E+00    0.4486090487E-01    0.5881725141E-03
    0.4300000000E+04    0.2885461067E-01    0.1076391573E-02    0.6941083626E+00    0.4716849286E-01    0.5274881742E-03
    0.4500000000E+04    0.2995299278E-01    0.1117575398E-02    0.6941721694E+00    0.4911247718E-01    0.4996834842E-03
    0.4700000000E+04    0.3092445472E-01    0.1154036682E-02    0.6942305180E+00    0.5085816270E-01    0.4874692765E-03
    0.4900000000E+04    0.3182191959E-01    0.1187747750E-02    0.6942840769E+00    0.5249064282E-01    0.4824423675E-03
    0.1000000000E+04    0.1017368838E-02    0.3775500191E-04    0.6893696746E+00    0.1573386536E-02    0.4394377469E-02
    0.3000000000E+04    0.1145583183E-01    0.4268429793E-03    0.6934852477E+00    0.1839338621E-01    0.2624035915E-02
    0.5000000000E+04    0.3225169787E-01    0.1203899690E-02    0.6943092398E+00    0.5327855782E-01    0.4813011226E-03
    0.7000000000E+04    0.3948177613E-01    0.1476376365E-02    0.6946605828E+00    0.6709901429E-01    0.4868478897E-03
    0.9000000000E+04    0.4497088008E-01    0.1684368335E-02    0.6948545165E+00    0.7845451852E-01    0.4937714631E-03
    0.1100000000E+05    0.4924388076E-01    0.1847207378E-02    0.6949770519E+00    0.8802603828E-01    0.4993576344E-03
    0.1300000000E+05    0.5262661774E-01    0.1976905272E-02    0.6950612443E+00    0.9624061531E-01    0.5040481152E-03
    0.1500000000E+05    0.5534070405E-01    0.2081645085E-02    0.6951224994E+00    0.1033960299E+00    0.5080962045E-03
    0.1700000000E+05    0.5754174933E-01    0.2167182421E-02    0.6951689602E+00    0.1097066801E+00    0.5116603591E-03
    0.1900000000E+05    0.5934198066E-01    0.2237675434E-02    0.6952053326E+00    0.1153311297E+00    0.5148464464E-03
    0.2100000000E+05    0.6082420430E-01    0.2296197598E-02    0.6952345241E+00    0.1203893646E+00    0.5177287779E-03
    0.2300000000E+05    0.6205073189E-01    0.2345065841E-02    0.6952584270E+00    0.1249739914E+00    0.5203615601E-03
    0.2500000000E+05    0.6306926296E-01    0.2386057006E-02    0.6952783254E+00    0.1291577263E+00    0.5227855729E-03
    0.2700000000E+05    0.6391686511E-01    0.2420554453E-02    0.6952951209E+00    0.1329985396E+00    0.5250322814E-03
    0.2900000000E+05    0.6462273006E-01    0.2449649676E-02    0.6953094650E+00    0.1365432709E+00    0.5271264822E-03
    0.3100000000E+05    0.6521012162E-01    0.2474214195E-02    0.6953218398E+00    0.1398302222E+00    0.5290880707E-03
    0.3300000000E+05    0.6569777775E-01    0.2494951356E-02    0.6953326098E+00    0.1428910533E+00    0.5309332574E-03
    0.3500000000E+05    0.6610093650E-01    0.2512434276E-02    0.6953420555E+00    0.1457521888E+00    0.5326754285E-03
    0.3700000000E+05    0.6643209774E-01    0.2527134042E-02    0.6953503961E+00    0.1484358789E+00    0.5343257685E-03
    0.3900000000E+05    0.6670159646E-01    0.2539440961E-02    0.6953578055E+00    0.1509610102E+00    0.5358937198E-03
    0.4100000000E+05    0.6691803946E-01    0.2549680759E-02    0.6953644233E+00    0.1533437317E+00    0.5373873279E-03
    0.4300000000E+05    0.6708864180E-01    0.2558127084E-02    0.6953703628E+00    0.1555979456E+00    0.5388135052E-03
    0.4500000000E+05    0.6721948860E-01    0.2565011230E-02    0.6953757170E+00    0.1577356938E+00    0.5401782351E-03
    0.4700000000E+05    0.6731574071E-01    0.2570529806E-02    0.6953805629E+00    0.1597674675E+00    0.5414867318E-03
    0.4900000000E+05    0.6738179773E-01    0.2574850802E-02    0.6953849645E+00    0.1617024551E+00    0.5427435675E-03
    0.1000000000E+05    0.4723598387E-01    0.1770569452E-02    0.6949220224E+00    0.8343283944E-01    0.4966980264E-03
    0.3000000000E+05    0.6492997136E-01    0.2462450873E-02    0.6953158735E+00    0.1382168531E+00    0.5281227650E-03
    0.5000000000E+05    0.6740470239E-01    0.2576608095E-02    0.6953870160E+00    0.1626362197E+00    0.5433538911E-03
    0.7000000000E+05    0.6695573066E-01    0.2574956354E-02    0.6954142118E+00    0.1777643530E+00    0.5536173860E-03
    0.9000000000E+05    0.6569819336E-01    0.2539028962E-02    0.6954274561E+00    0.1885354202E+00    0.5614067401E-03
    0.1100000000E+06    0.6421694818E-01    0.2492090438E-02    0.6954346782E+00    0.1968131037E+00    0.5677037291E-03
    0.1300000000E+06    0.6271061724E-01    0.2442388718E-02    0.6954388315E+00    0.2034879849E+00    0.5729989652E-03
    0.1500000000E+06    0.6125240232E-01    0.2393172712E-02    0.6954412491E+00    0.2090509628E+00    0.5775737654E-03
    0.1700000000E+06    0.5986845396E-01    0.2345755973E-02    0.6954426128E+00    0.2138000018E+00    0.5816047678E-03
    0.1900000000E+06    0.5856576044E-01    0.2300629583E-02    0.6954433030E+00    0.2179289749E+00    0.5852103080E-03
    0.2100000000E+06    0.5734324357E-01    0.2257916064E-02    0.6954435465E+00    0.2215708232E+00    0.5884736210E-03
    0.2300000000E+06    0.5619651294E-01    0.2217570033E-02    0.6954434854E+00    0.2248205233E+00    0.5914555209E-03
    0.2500000000E+06    0.5511999739E-01    0.2179471959E-02    0.6954432125E+00    0.2277481997E+00    0.5942018184E-03
    0.2700000000E+06    0.5410791759E-01    0.2143473487E-02    0.6954427902E+00    0.2304070462E+00    0.5967478986E-03
    0.2900000000E+06    0.5315472218E-01    0.2109419666E-02    0.6954422615E+00    0.2328383331E+00    0.5991216723E-03
    0.3100000000E+06    0.5225526821E-01    0.2077159704E-02    0.6954416571E+00    0.2350746984E+00    0.6013455505E-03
    0.3300000000E+06    0.5140487823E-01    0.2046551898E-02    0.6954409988E+00    0.2371423796E+00    0.6034378056E-03
    0.3500000000E+06    0.5059933860E-01    0.2017465559E-02    0.6954403026E+00    0.2390627717E+00    0.6054135350E-03
    0.3700000000E+06    0.4983487118E-01    0.1989781389E-02    0.6954395805E+00    0.2408535390E+00    0.6072853592E-03
    0.3900000000E+06    0.4910809448E-01    0.1963391097E-02    0.6954388412E+00    0.2425294277E+00    0.6090639377E-03
    0.4100000000E+06    0.4841598245E-01    0.1938196649E-02    0.6954380915E+00    0.2441028685E+00    0.6107583564E-03
    0.4300000000E+06    0.4775582456E-01    0.1914109384E-02    0.6954373363E+00    0.2455844325E+00    0.6123764246E-03
    0.4500000000E+06    0.4712518916E-01    0.1891049107E-02    0.6954365796E+00    0.2469831809E+00    0.6139249039E-03
    0.4700000000E+06    0.4652189047E-01    0.1868943218E-02    0.6954358243E+00    0.2483069361E+00    0.6154096885E-03
    0.4900000000E+06    0.4594395949E-01    0.1847725906E-02    0.6954350725E+00    0.2495624950E+00    0.6168359482E-03
    0.1000000000E+06    0.6496861192E-01    0.2516242542E-02    0.6954315779E+00    0.1929170598E+00    0.5647042906E-03
    0.3000000000E+06    0.5269858093E-01    0.2093074555E-02    0.6954419672E+00    0.2339791120E+00    0.6002511221E-03
    0.5000000000E+06    0.4566394447E-01    0.1837431576E-02    0.6954346986E+00    0.2501665871E+00    0.6175285772E-03
    0.7000000000E+06    0.4104393349E-01    0.1666275777E-02    0.6954276508E+00    0.2597837857E+00    0.6291788913E-03
    0.9000000000E+06    0.3769218672E-01    0.1540600010E-02    0.6954215307E+00    0.2664181133E+00    0.6380234657E-03
    0.1100000000E+07    0.3510607306E-01    0.1442776632E-02    0.6954162178E+00    0.2713791070E+00    0.6451747438E-03
    0.1300000000E+07    0.3302607552E-01    0.1363552295E-02    0.6954115478E+00    0.2752832709E+00    0.6511890297E-03
    0.1500000000E+07    0.3130237205E-01    0.1297524021E-02    0.6954073893E+00    0.2784666302E+00    0.6563854461E-03
    0.1700000000E+07    0.2984133039E-01    0.1241286013E-02    0.6954036437E+00    0.2811309619E+00    0.6609644281E-03
    0.1900000000E+07    0.2858087422E-01    0.1192564623E-02    0.6954002370E+00    0.2834061259E+00    0.6650602819E-03
    0.2100000000E+07    0.2747792397E-01    0.1149772845E-02    0.6953971129E+00    0.2853801817E+00    0.6687674904E-03
    0.2300000000E+07    0.2650147448E-01    0.1111762808E-02    0.6953942278E+00    0.2871153376E+00    0.6721550951E-03
    0.2500000000E+07    0.2562853753E-01    0.1077679745E-02    0.6953915473E+00    0.2886570124E+00    0.6752751089E-03
    0.2700000000E+07    0.2484164216E-01    0.1046871529E-02    0.6953890439E+00    0.2900392786E+00    0.6781677109E-03
    0.2900000000E+07    0.2412723002E-01    0.1018830324E-02    0.6953866953E+00    0.2912882855E+00    0.6808645956E-03
    0.3100000000E+07    0.2347458904E-01    0.9931536363E-03    0.6953844832E+00    0.2924244936E+00    0.6833912134E-03
    0.3300000000E+07    0.2287512354E-01    0.9695175656E-03    0.6953823923E+00    0.2934641820E+00    0.6857683159E-03
    0.3500000000E+07    0.2232184184E-01    0.9476579521E-03    0.6953804097E+00    0.2944204925E+00    0.6880130497E-03
    0.3700000000E+07    0.2180898837E-01    0.9273568044E-03    0.6953785245E+00    0.2953041703E+00    0.6901397486E-03
    0.3900000000E+07    0.2133177440E-01    0.9084323336E-03    0.6953767274E+00    0.2961241011E+00    0.6921605197E-03
    0.4100000000E+07    0.2088617745E-01    0.8907315113E-03    0.6953750103E+00    0.2968877079E+00    0.6940856832E-03
    0.4300000000E+07    0.2046878952E-01    0.8741244255E-03    0.6953733663E+00    0.2976012477E+00    0.6959241093E-03
    0.4500000000E+07    0.2007670073E-01    0.8584999405E-03    0.6953717893E+00    0.2982700384E+00    0.6976834786E-03
    0.4700000000E+07    0.1970740886E-01    0.8437623186E-03    0.6953702738E+00    0.2988986335E+00    0.6993704862E-03
    0.4900000000E+07    0.1935874832E-01    0.8298285604E-03    0.6953688151E+00    0.2994909581E+00    0.7009910047E-03
    0.1000000000E+07    0.3632317780E-01    0.1488908410E-02    0.6954187842E+00    0.2690599394E+00    0.6417682637E-03
    0.3000000000E+07    0.2379376812E-01    0.1005718249E-02    0.6953855732E+00    0.2918693879E+00    0.6821477953E-03
    0.5000000000E+07    0.1919155597E-01    0.8231401460E-03    0.6953681058E+00    0.2997746009E+00    0.7017779731E-03
    0.7000000000E+07    0.1657949639E-01    0.7180487513E-03    0.6953560897E+00    0.3041739706E+00    0.7150153009E-03
    0.9000000000E+07    0.1483260419E-01    0.6470925546E-03    0.6953468805E+00    0.3070841648E+00    0.7250648624E-03
    0.1100000000E+08    0.1355567201E-01    0.5948485862E-03    0.6953393926E+00    0.3091961180E+00    0.7331905039E-03
    0.1300000000E+08    0.1256826352E-01    0.5542134104E-03    0.6953330717E+00    0.3108206954E+00    0.7400242721E-03
    0.1500000000E+08    0.1177443213E-01    0.5213841864E-03    0.6953275959E+00    0.3121215500E+00    0.7459287493E-03
    0.1700000000E+08    0.1111772463E-01    0.4941110091E-03    0.6953227611E+00    0.3131942579E+00    0.7511316707E-03
    0.1900000000E+08    0.1056242545E-01    0.4709637948E-03    0.6953184296E+00    0.3140989351E+00    0.7557856378E-03
    0.2100000000E+08    0.1008466750E-01    0.4509830029E-03    0.6953145042E+00    0.3148755651E+00    0.7599980050E-03
    0.2300000000E+08    0.9667803119E-02    0.4334969401E-03    0.6953109135E+00    0.3155519277E+00    0.7638472196E-03
    0.2500000000E+08    0.9299812701E-02    0.4180190866E-03    0.6953076035E+00    0.3161480131E+00    0.7673923811E-03
    0.2700000000E+08    0.8971768115E-02    0.4041870069E-03    0.6953045326E+00    0.3166786273E+00    0.7706791429E-03
