  Pressure (Pa) 22mC5-500 (mol/kg) 23mC5-500 (mol/kg) 24mC5-500 (mol/kg) 2mC6-500 (mol/kg) C7-500 (mol/kg)
    0.1000000000E+01    0.2119673024E-04    0.2284613561E-05    0.3665785362E-01    0.6951960687E-05    0.4219326722E-02
    0.3000000000E+01    0.5600538167E-04    0.6029377339E-05    0.9947025335E-01    0.1796112479E-04    0.4319128824E-02
    0.5000000000E+01    0.8351445964E-04    0.8982697469E-05    0.1513309707E+00    0.2633963271E-04    0.4400045235E-02
    0.7000000000E+01    0.1056732211E-03    0.1135682129E-04    0.1948749520E+00    0.3285305337E-04    0.4468113313E-02
    0.9000000000E+01    0.1237968621E-03    0.1329475943E-04    0.2319545833E+00    0.3800282917E-04    0.4526319974E-02
    0.1100000000E+02    0.1388137962E-03    0.1489736130E-04    0.2639101332E+00    0.4213527146E-04    0.4576725038E-02
    0.1300000000E+02    0.1513979283E-03    0.1623775901E-04    0.2917352917E+00    0.4549656571E-04    0.4620836260E-02
    0.1500000000E+02    0.1620493496E-03    0.1737016971E-04    0.3161823971E+00    0.4826559533E-04    0.4659790544E-02
    0.1700000000E+02    0.1711461357E-03    0.1833554196E-04    0.3378315188E+00    0.5057471009E-04    0.4694463571E-02
    0.1900000000E+02    0.1789787467E-03    0.1916530326E-04    0.3571370958E+00    0.5252335126E-04    0.4725541573E-02
    0.2100000000E+02    0.1857734957E-03    0.1988391540E-04    0.3744602023E+00    0.5418723962E-04    0.4753570310E-02
    0.2300000000E+02    0.1917089278E-03    0.2051065681E-04    0.3900913544E+00    0.5562471372E-04    0.4778989467E-02
    0.2500000000E+02    0.1969274788E-03    0.2106089055E-04    0.4042669427E+00    0.5688118815E-04    0.4802157355E-02
    0.2700000000E+02    0.2015439186E-03    0.2154698217E-04    0.4171812771E+00    0.5799234348E-04    0.4823368983E-02
    0.2900000000E+02    0.2056515640E-03    0.2197897456E-04    0.4289955517E+00    0.5898644361E-04    0.4842869506E-02
    0.3100000000E+02    0.2093269124E-03    0.2236509115E-04    0.4398446118E+00    0.5988604223E-04    0.4860864372E-02
    0.3300000000E+02    0.2126331435E-03    0.2271211582E-04    0.4498421266E+00    0.6070925496E-04    0.4877527082E-02
    0.3500000000E+02    0.2156227953E-03    0.2302568311E-04    0.4590845889E+00    0.6147071836E-04    0.4893005191E-02
    0.3700000000E+02    0.2183398313E-03    0.2331050225E-04    0.4676544420E+00    0.6218232034E-04    0.4907425006E-02
    0.3900000000E+02    0.2208212529E-03    0.2357053183E-04    0.4756225467E+00    0.6285376150E-04    0.4920895296E-02
    0.4100000000E+02    0.2230983683E-03    0.2380911711E-04    0.4830501467E+00    0.6349299050E-04    0.4933510244E-02
    0.4300000000E+02    0.2251977996E-03    0.2402909894E-04    0.4899904466E+00    0.6410654424E-04    0.4945351827E-02
    0.4500000000E+02    0.2271422878E-03    0.2423290085E-04    0.4964898891E+00    0.6469981561E-04    0.4956491740E-02
    0.4700000000E+02    0.2289513414E-03    0.2442259903E-04    0.5025891961E+00    0.6527726581E-04    0.4966992967E-02
    0.4900000000E+02    0.2306417623E-03    0.2459997919E-04    0.5083242235E+00    0.6584259363E-04    0.4976911071E-02
    0.1000000000E+02    0.1316467084E-03    0.1413287975E-04    0.2485040937E+00    0.4017894373E-04    0.4552393133E-02
    0.3000000000E+02    0.2075390492E-03    0.2217731337E-04    0.4345331847E+00    0.5944683190E-04    0.4852043631E-02
    0.5000000000E+02    0.2314471032E-03    0.2468454016E-04    0.5110651831E+00    0.6612169305E-04    0.4981667054E-02
    0.7000000000E+02    0.2439739470E-03    0.2600931922E-04    0.5527995620E+00    0.7158335815E-04    0.5055585889E-02
    0.9000000000E+02    0.2533586099E-03    0.2702203899E-04    0.5790751279E+00    0.7736292455E-04    0.5104019182E-02
    0.1100000000E+03    0.2619692651E-03    0.2796804068E-04    0.5971396869E+00    0.8365224088E-04    0.5138523517E-02
    0.1300000000E+03    0.2706037583E-03    0.2892763322E-04    0.6103223656E+00    0.9040681119E-04    0.5164512027E-02
    0.1500000000E+03    0.2795442294E-03    0.2992780004E-04    0.6203667400E+00    0.9754928638E-04    0.5184874332E-02
    0.1700000000E+03    0.2888822334E-03    0.3097624673E-04    0.6282743676E+00    0.1050106356E-03    0.5201301564E-02
    0.1900000000E+03    0.2986345468E-03    0.3207336218E-04    0.6346615734E+00    0.1127362647E-03    0.5214853584E-02
    0.2100000000E+03    0.3087885186E-03    0.3321682019E-04    0.6399284267E+00    0.1206844270E-03    0.5226230816E-02
    0.2300000000E+03    0.3193209115E-03    0.3440344524E-04    0.6443459453E+00    0.1288234336E-03    0.5235916168E-02
    0.2500000000E+03    0.3302059465E-03    0.3562998034E-04    0.6481042505E+00    0.1371291790E-03    0.5244254302E-02
    0.2700000000E+03    0.3414187006E-03    0.3689339141E-04    0.6513406557E+00    0.1455832248E-03    0.5251498402E-02
    0.2900000000E+03    0.3529364328E-03    0.3819097050E-04    0.6541568119E+00    0.1541713788E-03    0.5257839039E-02
    0.3100000000E+03    0.3647389769E-03    0.3952035180E-04    0.6566295796E+00    0.1628826531E-03    0.5263422678E-02
    0.3300000000E+03    0.3768087186E-03    0.4087949133E-04    0.6588181525E+00    0.1717085012E-03    0.5268363939E-02
    0.3500000000E+03    0.3891304006E-03    0.4226663363E-04    0.6607688575E+00    0.1806422551E-03    0.5272753944E-02
    0.3700000000E+03    0.4016908697E-03    0.4368027577E-04    0.6625184712E+00    0.1896787072E-03    0.5276666151E-02
    0.3900000000E+03    0.4144788181E-03    0.4511913322E-04    0.6640965599E+00    0.1988137965E-03    0.5280160512E-02
    0.4100000000E+03    0.4274845419E-03    0.4658210926E-04    0.6655271643E+00    0.2080443708E-03    0.5283286499E-02
    0.4300000000E+03    0.4406997256E-03    0.4806826839E-04    0.6668300329E+00    0.2173680051E-03    0.5286085340E-02
    0.4500000000E+03    0.4541172544E-03    0.4957681361E-04    0.6680215390E+00    0.2267828615E-03    0.5288591703E-02
    0.4700000000E+03    0.4677310522E-03    0.5110706698E-04    0.6691153719E+00    0.2362875798E-03    0.5290834972E-02
    0.4900000000E+03    0.4815359431E-03    0.5265845333E-04    0.6701230656E+00    0.2458811920E-03    0.5292840239E-02
    0.1000000000E+03    0.2576922535E-03    0.2749642832E-04    0.5888728002E+00    0.8044488127E-04    0.5122590386E-02
    0.3000000000E+03    0.3588032623E-03    0.3885182080E-04    0.6554320707E+00    0.1585122099E-03    0.5260717686E-02
    0.5000000000E+03    0.4885086480E-03    0.5344191627E-04    0.6705977277E+00    0.2507111211E-03    0.5293760483E-02
    0.7000000000E+03    0.6372540674E-03    0.7013931781E-04    0.6773137656E+00    0.3519457731E-03    0.5303604673E-02
    0.9000000000E+03    0.8031277151E-03    0.8873579695E-04    0.6811022539E+00    0.4624463178E-03    0.5302763626E-02
    0.1100000000E+04    0.9867909247E-03    0.1093102495E-03    0.6835342432E+00    0.5833337250E-03    0.5295167976E-02
    0.1300000000E+04    0.1190025216E-02    0.1320650583E-03    0.6852272742E+00    0.7161213542E-03    0.5282388417E-02
    0.1500000000E+04    0.1415374123E-02    0.1572866964E-03    0.6864734602E+00    0.8626602756E-03    0.5265070646E-02
    0.1700000000E+04    0.1666093234E-02    0.1853405942E-03    0.6874288944E+00    0.1025181853E-02    0.5243398600E-02
    0.1900000000E+04    0.1946225172E-02    0.2166797875E-03    0.6881845630E+00    0.1206381518E-02    0.5217271643E-02
    0.2100000000E+04    0.2260752384E-02    0.2518621584E-03    0.6887970834E+00    0.1409535894E-02    0.5186374761E-02
    0.2300000000E+04    0.2615821045E-02    0.2915755736E-03    0.6893035311E+00    0.1638658043E-02    0.5150199838E-02
    0.2500000000E+04    0.3019046128E-02    0.3366720681E-03    0.6897292001E+00    0.1898701416E-02    0.5108039273E-02
    0.2700000000E+04    0.3479918041E-02    0.3882133751E-03    0.6900919381E+00    0.2195827769E-02    0.5058959733E-02
    0.2900000000E+04    0.4010339883E-02    0.4475310621E-03    0.6904046981E+00    0.2537759143E-02    0.5001758170E-02
    0.3100000000E+04    0.4625331921E-02    0.5163053750E-03    0.6906771087E+00    0.2934238602E-02    0.4934899605E-02
    0.3300000000E+04    0.5343943294E-02    0.5966672798E-03    0.6909164761E+00    0.3397626798E-02    0.4856435493E-02
    0.3500000000E+04    0.6190401797E-02    0.6913271667E-03    0.6911284439E+00    0.3943655910E-02    0.4763903051E-02
    0.3700000000E+04    0.7195489989E-02    0.8037289286E-03    0.6913174412E+00    0.4592335788E-02    0.4654212025E-02
    0.3900000000E+04    0.8398014295E-02    0.9382145410E-03    0.6914869918E+00    0.5368929787E-02    0.4523540841E-02
    0.4100000000E+04    0.9845941098E-02    0.1100151554E-02    0.6916399347E+00    0.6304730136E-02    0.4367298533E-02
    0.4300000000E+04    0.1159614792E-01    0.1295905922E-02    0.6917785825E+00    0.7436959227E-02    0.4180277764E-02
    0.4500000000E+04    0.1371057597E-01    0.1532412628E-02    0.6919048378E+00    0.8806369925E-02    0.3957243138E-02
    0.4700000000E+04    0.1624490775E-01    0.1815910496E-02    0.6920202804E+00    0.1045003058E-01    0.3694348360E-02
    0.4900000000E+04    0.1922496990E-01    0.2149303904E-02    0.6921262330E+00    0.1238614723E-01    0.3391796168E-02
    0.1000000000E+04    0.8926440289E-03    0.9876530272E-04    0.6824378418E+00    0.5215048883E-03    0.5299681300E-02
    0.3000000000E+04    0.4306180751E-02    0.4806148918E-03    0.6905454451E+00    0.2728477205E-02    0.4969647011E-02
    0.5000000000E+04    0.2087314206E-01    0.2333710147E-02    0.6921760061E+00    0.1345863569E-01    0.3227742223E-02
    0.7000000000E+04    0.4534273816E-01    0.5075740502E-02    0.6928703671E+00    0.2978551527E-01    0.1437107666E-02
    0.9000000000E+04    0.5345984031E-01    0.5991437660E-02    0.6932527019E+00    0.3579025076E-01    0.1422997907E-02
    0.1100000000E+05    0.5989748736E-01    0.6720354792E-02    0.6934935580E+00    0.4082090413E-01    0.1438988289E-02
    0.1300000000E+05    0.6530645756E-01    0.7334882184E-02    0.6936584994E+00    0.4526143212E-01    0.1452607048E-02
    0.1500000000E+05    0.6990382588E-01    0.7859014855E-02    0.6937780775E+00    0.4922519370E-01    0.1464347487E-02
    0.1700000000E+05    0.7384861125E-01    0.8310345117E-02    0.6938684337E+00    0.5279623318E-01    0.1474674305E-02
    0.1900000000E+05    0.7726136158E-01    0.8702223200E-02    0.6939388908E+00    0.5603929004E-01    0.1483898722E-02
    0.2100000000E+05    0.8023508089E-01    0.9044959890E-02    0.6939952048E+00    0.5900511848E-01    0.1492238676E-02
    0.2300000000E+05    0.8284262685E-01    0.9346641121E-02    0.6940411190E+00    0.6173411903E-01    0.1499852833E-02
    0.2500000000E+05    0.8514185260E-01    0.9613694525E-02    0.6940791714E+00    0.6425888736E-01    0.1506860365E-02
    0.2700000000E+05    0.8717925521E-01    0.9851291669E-02    0.6941111424E+00    0.6660604062E-01    0.1513353105E-02
    0.2900000000E+05    0.8899261249E-01    0.1006363894E-01    0.6941383169E+00    0.6879755014E-01    0.1519403343E-02
    0.3100000000E+05    0.9061292023E-01    0.1025419139E-01    0.6941616455E+00    0.7085173014E-01    0.1525069022E-02
    0.3300000000E+05    0.9206583683E-01    0.1042581230E-01    0.6941818455E+00    0.7278398222E-01    0.1530397320E-02
    0.3500000000E+05    0.9337277520E-01    0.1058089386E-01    0.6941994687E+00    0.7460736348E-01    0.1535427164E-02
    0.3700000000E+05    0.9455173821E-01    0.1072144958E-01    0.6942149457E+00    0.7633302538E-01    0.1540191059E-02
    0.3900000000E+05    0.9561796522E-01    0.1084918580E-01    0.6942286178E+00    0.7797055672E-01    0.1544716431E-02
    0.4100000000E+05    0.9658443752E-01    0.1096555770E-01    0.6942407587E+00    0.7952825423E-01    0.1549026639E-02
    0.4300000000E+05    0.9746227730E-01    0.1107181349E-01    0.6942515903E+00    0.8101333827E-01    0.1553141742E-02
    0.4500000000E+05    0.9826106532E-01    0.1116902964E-01    0.6942612944E+00    0.8243212623E-01    0.1557079097E-02
    0.4700000000E+05    0.9898909596E-01    0.1125813917E-01    0.6942700211E+00    0.8379017303E-01    0.1560853823E-02
    0.4900000000E+05    0.9965358351E-01    0.1133995453E-01    0.6942778958E+00    0.8509238584E-01    0.1564479173E-02
    0.1000000000E+05    0.5682429932E-01    0.6372079673E-02    0.6933854861E+00    0.3838826678E-01    0.1431278050E-02
    0.3000000000E+05    0.8982518305E-01    0.1016144827E-01    0.6941504126E+00    0.6984078285E-01    0.1522281085E-02
    0.5000000000E+05    0.9996399976E-01    0.1137835251E-01    0.6942815472E+00    0.8572393444E-01    0.1566239538E-02
    0.7000000000E+05    0.1040118829E+00    0.1189622427E-01    0.6943282842E+00    0.9626062807E-01    0.1595832672E-02
    0.9000000000E+05    0.1056936419E+00    0.1213663774E-01    0.6943488890E+00    0.1041559595E+00    0.1618281775E-02
    0.1100000000E+06    0.1062689645E+00    0.1224408511E-01    0.6943585329E+00    0.1104867039E+00    0.1636424922E-02
    0.1300000000E+06    0.1062683317E+00    0.1228028365E-01    0.6943627745E+00    0.1157837494E+00    0.1651679001E-02
    0.1500000000E+06    0.1059478119E+00    0.1227548452E-01    0.6943640785E+00    0.1203463570E+00    0.1664855976E-02
    0.1700000000E+06    0.1054430365E+00    0.1224598216E-01    0.6943636802E+00    0.1243594872E+00    0.1676465465E-02
    0.1900000000E+06    0.1048307789E+00    0.1220117382E-01    0.6943622544E+00    0.1279454007E+00    0.1686848779E-02
    0.2100000000E+06    0.1041566706E+00    0.1214676387E-01    0.6943601934E+00    0.1311891526E+00    0.1696245931E-02
    0.2300000000E+06    0.1034488317E+00    0.1208635356E-01    0.6943577366E+00    0.1341523401E+00    0.1704832252E-02
    0.2500000000E+06    0.1027250531E+00    0.1202228630E-01    0.6943550353E+00    0.1368810392E+00    0.1712739797E-02
    0.2700000000E+06    0.1019967947E+00    0.1195612292E-01    0.6943521880E+00    0.1394106438E+00    0.1720070555E-02
    0.2900000000E+06    0.1012715143E+00    0.1188892132E-01    0.6943492601E+00    0.1417689533E+00    0.1726904964E-02
    0.3100000000E+06    0.1005540754E+00    0.1182140737E-01    0.6943462956E+00    0.1439782167E+00    0.1733307607E-02
    0.3300000000E+06    0.9984762549E-01    0.1175408277E-01    0.6943433248E+00    0.1460565308E+00    0.1739331135E-02
    0.3500000000E+06    0.9915415868E-01    0.1168729502E-01    0.6943403682E+00    0.1480188218E+00    0.1745019048E-02
    0.3700000000E+06    0.9847488410E-01    0.1162128388E-01    0.6943374399E+00    0.1498775528E+00    0.1750407707E-02
    0.3900000000E+06    0.9781047216E-01    0.1155621285E-01    0.6943345497E+00    0.1516432429E+00    0.1755527822E-02
    0.4100000000E+06    0.9716122161E-01    0.1149219094E-01    0.6943317038E+00    0.1533248555E+00    0.1760405568E-02
    0.4300000000E+06    0.9652717462E-01    0.1142928783E-01    0.6943289064E+00    0.1549300944E+00    0.1765063441E-02
    0.4500000000E+06    0.9590819686E-01    0.1136754471E-01    0.6943261601E+00    0.1564656313E+00    0.1769520918E-02
    0.4700000000E+06    0.9530403385E-01    0.1130698206E-01    0.6943234662E+00    0.1579372851E+00    0.1773794978E-02
    0.4900000000E+06    0.9471435083E-01    0.1124760527E-01    0.6943208251E+00    0.1593501622E+00    0.1777900511E-02
    0.1000000000E+06    0.1060770754E+00    0.1220205347E-01    0.6943546236E+00    0.1074761379E+00    0.1627783301E-02
    0.3000000000E+06    0.1009115855E+00    0.1185516774E-01    0.6943477803E+00    0.1428910005E+00    0.1730156723E-02
    0.5000000000E+06    0.9442481994E-01    0.1121836018E-01    0.6943195245E+00    0.1600359888E+00    0.1779894245E-02
    0.7000000000E+06    0.8929140486E-01    0.1069133314E-01    0.6942961014E+00    0.1715287258E+00    0.1813427851E-02
    0.9000000000E+06    0.8514414381E-01    0.1025594502E-01    0.6942767461E+00    0.1801694544E+00    0.1838883463E-02
    0.1100000000E+07    0.8169237229E-01    0.9888240131E-02    0.6942603488E+00    0.1870754112E+00    0.1859464397E-02
    0.1300000000E+07    0.7874928158E-01    0.9571327738E-02    0.6942461437E+00    0.1928115272E+00    0.1876772369E-02
    0.1500000000E+07    0.7619212430E-01    0.9293623442E-02    0.6942336157E+00    0.1977047192E+00    0.1891726130E-02
    0.1700000000E+07    0.7393688201E-01    0.9046988084E-02    0.6942224085E+00    0.2019616652E+00    0.1904902698E-02
    0.1900000000E+07    0.7192381548E-01    0.8825528049E-02    0.6942122672E+00    0.2057215105E+00    0.1916688699E-02
    0.2100000000E+07    0.7010904489E-01    0.8624854285E-02    0.6942030039E+00    0.2090824623E+00    0.1927356113E-02
    0.2300000000E+07    0.6845944453E-01    0.8441616864E-02    0.6941944761E+00    0.2121164339E+00    0.1937103674E-02
    0.2500000000E+07    0.6694942154E-01    0.8273204091E-02    0.6941865735E+00    0.2148776642E+00    0.1946081097E-02
    0.2700000000E+07    0.6555880908E-01    0.8117542114E-02    0.6941792089E+00    0.2174080680E+00    0.1954404034E-02
    0.2900000000E+07    0.6427144410E-01    0.7972957725E-02    0.6941723122E+00    0.2197407014E+00    0.1962163709E-02
    0.3100000000E+07    0.6307418035E-01    0.7838082039E-02    0.6941658263E+00    0.2219020884E+00    0.1969433376E-02
    0.3300000000E+07    0.6195618666E-01    0.7711781344E-02    0.6941597037E+00    0.2239138304E+00    0.1976272761E-02
    0.3500000000E+07    0.6090843724E-01    0.7593106464E-02    0.6941539052E+00    0.2257937493E+00    0.1982731215E-02
    0.3700000000E+07    0.5992333441E-01    0.7481254995E-02    0.6941483972E+00    0.2275567165E+00    0.1988849992E-02
    0.3900000000E+07    0.5899442468E-01    0.7375542712E-02    0.6941431513E+00    0.2292152672E+00    0.1994663937E-02
    0.4100000000E+07    0.5811618171E-01    0.7275381585E-02    0.6941381432E+00    0.2307800624E+00    0.2000202752E-02
    0.4300000000E+07    0.5728383823E-01    0.7180262668E-02    0.6941333516E+00    0.2322602430E+00    0.2005491966E-02
    0.4500000000E+07    0.5649325433E-01    0.7089742614E-02    0.6941287583E+00    0.2336637032E+00    0.2010553682E-02
    0.4700000000E+07    0.5574081289E-01    0.7003432949E-02    0.6941243469E+00    0.2349973064E+00    0.2015407170E-02
    0.4900000000E+07    0.5502333593E-01    0.6920991432E-02    0.6941201032E+00    0.2362670552E+00    0.2020069329E-02
    0.1000000000E+07    0.8334489857E-01    0.1006483883E-01    0.6942682328E+00    0.1837962388E+00    0.1849660886E-02
    0.3000000000E+07    0.6366227404E-01    0.7904381995E-02    0.6941690211E+00    0.2208413505E+00    0.1965855785E-02
    0.5000000000E+07    0.5467681917E-01    0.6881125171E-02    0.6941180403E+00    0.2368796590E+00    0.2022333388E-02
    0.7000000000E+07    0.4904605067E-01    0.6228743459E-02    0.6940831620E+00    0.2467810183E+00    0.2060414971E-02
    0.9000000000E+07    0.4503693262E-01    0.5758931542E-02    0.6940564985E+00    0.2537775919E+00    0.2089324163E-02
    0.1100000000E+08    0.4197203802E-01    0.5396709437E-02    0.6940348503E+00    0.2591012753E+00    0.2112697817E-02
    0.1300000000E+08    0.3951922150E-01    0.5104860635E-02    0.6940165935E+00    0.2633480128E+00    0.2132354621E-02
    0.1500000000E+08    0.3749222794E-01    0.4862322776E-02    0.6940007880E+00    0.2668491304E+00    0.2149337853E-02
    0.1700000000E+08    0.3577676747E-01    0.4656076292E-02    0.6939868397E+00    0.2698067086E+00    0.2164302766E-02
    0.1900000000E+08    0.3429799717E-01    0.4477543036E-02    0.6939743483E+00    0.2723524805E+00    0.2177688422E-02
    0.2100000000E+08    0.3300442759E-01    0.4320790608E-02    0.6939630315E+00    0.2745767530E+00    0.2189803692E-02
    0.2300000000E+08    0.3185923481E-01    0.4181556907E-02    0.6939526823E+00    0.2765439259E+00    0.2200874271E-02
    0.2500000000E+08    0.3083524488E-01    0.4056684008E-02    0.6939431443E+00    0.2783014106E+00    0.2211070189E-02
    0.2700000000E+08    0.2991187936E-01    0.3943771762E-02    0.6939342965E+00    0.2798850389E+00    0.2220522789E-02
