  Pressure (Pa) 22mC5-500 (mol/kg) 23mC5-500 (mol/kg) 24mC5-500 (mol/kg) 2mC6-500 (mol/kg) C7-500 (mol/kg)
    0.1000000000E+01    0.2154631629E-04    0.6878960118E-06    0.9949651199E-01    0.1570014697E-04    0.4170128455E-02
    0.3000000000E+01    0.4765165848E-04    0.1517703255E-05    0.2320960041E+00    0.3331038339E-04    0.4201670174E-02
    0.5000000000E+01    0.6257982159E-04    0.1989763355E-05    0.3164429847E+00    0.4263519704E-04    0.4217721502E-02
    0.7000000000E+01    0.7200762100E-04    0.2286583493E-05    0.3748230506E+00    0.4827391427E-04    0.4228354778E-02
    0.9000000000E+01    0.7841780181E-04    0.2487732692E-05    0.4176287692E+00    0.5210397834E-04    0.4236002394E-02
    0.1100000000E+02    0.8304683321E-04    0.2632710700E-05    0.4503594953E+00    0.5499457252E-04    0.4241774361E-02
    0.1300000000E+02    0.8656797578E-04    0.2742952316E-05    0.4761980123E+00    0.5738287751E-04    0.4246278376E-02
    0.1500000000E+02    0.8937281891E-04    0.2830880035E-05    0.4971141392E+00    0.5950201070E-04    0.4249880931E-02
    0.1700000000E+02    0.9170098706E-04    0.2904066670E-05    0.5143923088E+00    0.6148153645E-04    0.4252817829E-02
    0.1900000000E+02    0.9370512423E-04    0.2967316710E-05    0.5289058150E+00    0.6339552212E-04    0.4255248267E-02
    0.2100000000E+02    0.9548567013E-04    0.3023777834E-05    0.5412691326E+00    0.6528700709E-04    0.4257283862E-02
    0.2300000000E+02    0.9711048945E-04    0.3075566947E-05    0.5519271889E+00    0.6718110353E-04    0.4259005320E-02
    0.2500000000E+02    0.9862645037E-04    0.3124138620E-05    0.5612100698E+00    0.6909230228E-04    0.4260472508E-02
    0.2700000000E+02    0.1000665118E-03    0.3170510089E-05    0.5693678276E+00    0.7102868531E-04    0.4261730818E-02
    0.2900000000E+02    0.1014542005E-03    0.3215403050E-05    0.5765933515E+00    0.7299442183E-04    0.4262815316E-02
    0.3100000000E+02    0.1028065173E-03    0.3259335462E-05    0.5830378204E+00    0.7499128074E-04    0.4263753539E-02
    0.3300000000E+02    0.1041358685E-03    0.3302682411E-05    0.5888213989E+00    0.7701956348E-04    0.4264567424E-02
    0.3500000000E+02    0.1054513767E-03    0.3345717283E-05    0.5940408032E+00    0.7907868739E-04    0.4265274670E-02
    0.3700000000E+02    0.1067597862E-03    0.3388640152E-05    0.5987747542E+00    0.8116755388E-04    0.4265889723E-02
    0.3900000000E+02    0.1080660995E-03    0.3431597639E-05    0.6030879777E+00    0.8328478210E-04    0.4266424492E-02
    0.4100000000E+02    0.1093740299E-03    0.3474697032E-05    0.6070341815E+00    0.8542885725E-04    0.4266888890E-02
    0.4300000000E+02    0.1106863295E-03    0.3518016439E-05    0.6106583048E+00    0.8759822412E-04    0.4267291235E-02
    0.4500000000E+02    0.1120050271E-03    0.3561612171E-05    0.6139982372E+00    0.8979134526E-04    0.4267638559E-02
    0.4700000000E+02    0.1133316052E-03    0.3605524171E-05    0.6170861494E+00    0.9200673613E-04    0.4267936855E-02
    0.4900000000E+02    0.1146671308E-03    0.3649780047E-05    0.6199495322E+00    0.9424298520E-04    0.4268191256E-02
    0.1000000000E+02    0.8090405868E-04    0.2565620819E-05    0.4350172645E+00    0.5363284572E-04    0.4239077267E-02
    0.3000000000E+02    0.1021339151E-03    0.3237463092E-05    0.5799050816E+00    0.7398891589E-04    0.4263301228E-02
    0.5000000000E+02    0.1153384936E-03    0.3672042948E-05    0.6213045423E+00    0.9536851316E-04    0.4268303404E-02
    0.7000000000E+02    0.1293182716E-03    0.4136932931E-05    0.6409179649E+00    0.1186990463E-03    0.4269052400E-02
    0.9000000000E+02    0.1442797650E-03    0.4635364881E-05    0.6523607554E+00    0.1430999713E-03    0.4268120795E-02
    0.1100000000E+03    0.1600241348E-03    0.5159851462E-05    0.6598586643E+00    0.1681700653E-03    0.4266332433E-02
    0.1300000000E+03    0.1763885955E-03    0.5704734800E-05    0.6651518562E+00    0.1937259233E-03    0.4264035734E-02
    0.1500000000E+03    0.1932638755E-03    0.6266320338E-05    0.6690881753E+00    0.2196800893E-03    0.4261404206E-02
    0.1700000000E+03    0.2105783242E-03    0.6842224206E-05    0.6721301185E+00    0.2459906058E-03    0.4258534111E-02
    0.1900000000E+03    0.2282847689E-03    0.7430895769E-05    0.6745514282E+00    0.2726386539E-03    0.4255483100E-02
    0.2100000000E+03    0.2463520029E-03    0.8031320220E-05    0.6765244724E+00    0.2996178787E-03    0.4252287688E-02
    0.2300000000E+03    0.2647594535E-03    0.8642836078E-05    0.6781631961E+00    0.3269289589E-03    0.4248972004E-02
    0.2500000000E+03    0.2834938130E-03    0.9265021348E-05    0.6795459410E+00    0.3545766990E-03    0.4245552500E-02
    0.2700000000E+03    0.3025468654E-03    0.9897620811E-05    0.6807283442E+00    0.3825684068E-03    0.4242040660E-02
    0.2900000000E+03    0.3219140523E-03    0.1054049840E-04    0.6817510074E+00    0.4109129579E-03    0.4238444629E-02
    0.3100000000E+03    0.3415935068E-03    0.1119360531E-04    0.6826442552E+00    0.4396202440E-03    0.4234770234E-02
    0.3300000000E+03    0.3615853876E-03    0.1185695816E-04    0.6834311928E+00    0.4687008419E-03    0.4231021652E-02
    0.3500000000E+03    0.3818914136E-03    0.1253062375E-04    0.6841297341E+00    0.4981658138E-03    0.4227201854E-02
    0.3700000000E+03    0.4025145319E-03    0.1321470835E-04    0.6847539820E+00    0.5280265872E-03    0.4223312908E-02
    0.3900000000E+03    0.4234586788E-03    0.1390934987E-04    0.6853151907E+00    0.5582948844E-03    0.4219356197E-02
    0.4100000000E+03    0.4447286050E-03    0.1461471230E-04    0.6858224507E+00    0.5889826835E-03    0.4215332574E-02
    0.4300000000E+03    0.4663297474E-03    0.1533098155E-04    0.6862831845E+00    0.6201021988E-03    0.4211242467E-02
    0.4500000000E+03    0.4882681337E-03    0.1605836244E-04    0.6867035127E+00    0.6516658744E-03    0.4207085971E-02
    0.4700000000E+03    0.5105503118E-03    0.1679707641E-04    0.6870885274E+00    0.6836863871E-03    0.4202862901E-02
    0.4900000000E+03    0.5331832968E-03    0.1754735990E-04    0.6874424996E+00    0.7161766532E-03    0.4198572846E-02
    0.1000000000E+03    0.1520656790E-03    0.4894758872E-05    0.6564632818E+00    0.1555659966E-03    0.4267305948E-02
    0.3000000000E+03    0.3317147774E-03    0.1086577348E-04    0.6822122226E+00    0.4252206113E-03    0.4236616933E-02
    0.5000000000E+03    0.5446336521E-03    0.1792691789E-04    0.6876089947E+00    0.7326020487E-03    0.4196402517E-02
    0.7000000000E+03    0.7941070166E-03    0.2619404753E-04    0.6899485720E+00    0.1089174273E-02    0.4149248268E-02
    0.9000000000E+03    0.1089753466E-02    0.3598803964E-04    0.6912553295E+00    0.1510192090E-02    0.4093897512E-02
    0.1100000000E+04    0.1445226509E-02    0.4776208119E-04    0.6920894908E+00    0.2015690030E-02    0.4028167795E-02
    0.1300000000E+04    0.1879600226E-02    0.6214846113E-04    0.6926681463E+00    0.2633151903E-02    0.3948949813E-02
    0.1500000000E+04    0.2419959530E-02    0.8004467036E-04    0.6930930790E+00    0.3401411184E-02    0.3851860058E-02
    0.1700000000E+04    0.3105497758E-02    0.1027492982E-03    0.6934183477E+00    0.4376607954E-02    0.3730654075E-02
    0.1900000000E+04    0.3993806187E-02    0.1321705475E-03    0.6936753238E+00    0.5641286438E-02    0.3576353110E-02
    0.2100000000E+04    0.5169925805E-02    0.1711263757E-03    0.6938834629E+00    0.7317527364E-02    0.3376086830E-02
    0.2300000000E+04    0.6756878591E-02    0.2236939504E-03    0.6940554717E+00    0.9582410166E-02    0.3112045366E-02
    0.2500000000E+04    0.8918278590E-02    0.2952973485E-03    0.6942000009E+00    0.1267259367E-01    0.2762368464E-02
    0.2700000000E+04    0.1181949688E-01    0.3914231472E-03    0.6943231437E+00    0.1683029073E-01    0.2309536827E-02
    0.2900000000E+04    0.1547979217E-01    0.5127237886E-03    0.6944293162E+00    0.2209326001E-01    0.1765579754E-02
    0.3100000000E+04    0.1953055595E-01    0.6470053742E-03    0.6945217970E+00    0.2794679899E-01    0.1205691656E-02
    0.3300000000E+04    0.2325425054E-01    0.7705046348E-03    0.6946030713E+00    0.3337025469E-01    0.7470668373E-03
    0.3500000000E+04    0.2614987695E-01    0.8666140652E-03    0.6946750575E+00    0.3764004786E-01    0.4524981443E-03
    0.3700000000E+04    0.2824830894E-01    0.9363399459E-03    0.6947392597E+00    0.4078871624E-01    0.2958553787E-03
    0.3900000000E+04    0.2982230922E-01    0.9887076826E-03    0.6947968738E+00    0.4319873481E-01    0.2214401272E-03
    0.4100000000E+04    0.3110406570E-01    0.1031404781E-02    0.6948488629E+00    0.4519897984E-01    0.1880439043E-03
    0.4300000000E+04    0.3222851998E-01    0.1068900139E-02    0.6948960111E+00    0.4698138215E-01    0.1734876689E-03
    0.4500000000E+04    0.3326356414E-01    0.1103442360E-02    0.6949389632E+00    0.4864265809E-01    0.1672958528E-03
    0.4700000000E+04    0.3424169550E-01    0.1136107656E-02    0.6949782546E+00    0.5022903350E-01    0.1647744619E-03
    0.4900000000E+04    0.3517845179E-01    0.1167410375E-02    0.6950143330E+00    0.5176246368E-01    0.1638591953E-03
    0.1000000000E+04    0.1258970927E-02    0.4159304510E-04    0.6917138710E+00    0.1750875890E-02    0.4062499676E-02
    0.3000000000E+04    0.1749799051E-01    0.5796200392E-03    0.6944770972E+00    0.2500509724E-01    0.1480302266E-02
    0.5000000000E+04    0.3563388904E-01    0.1182635929E-02    0.6950312879E+00    0.5251291447E-01    0.1636970295E-03
    0.7000000000E+04    0.4340973863E-01    0.1443308216E-02    0.6952684346E+00    0.6586830953E-01    0.1660911846E-03
    0.9000000000E+04    0.4928313294E-01    0.1641323462E-02    0.6953998560E+00    0.7681804065E-01    0.1684443437E-03
    0.1100000000E+05    0.5382560236E-01    0.1795388984E-02    0.6954832426E+00    0.8601746510E-01    0.1703443268E-03
    0.1300000000E+05    0.5740234254E-01    0.1917476929E-02    0.6955407863E+00    0.9389513824E-01    0.1719406163E-03
    0.1500000000E+05    0.6025901908E-01    0.2015654910E-02    0.6955828409E+00    0.1007469751E+00    0.1733188619E-03
    0.1700000000E+05    0.6256656080E-01    0.2095546157E-02    0.6956148855E+00    0.1067843256E+00    0.1745327205E-03
    0.1900000000E+05    0.6444729882E-01    0.2161182406E-02    0.6956400903E+00    0.1121624691E+00    0.1756180791E-03
    0.2100000000E+05    0.6599090498E-01    0.2215524469E-02    0.6956604164E+00    0.1169982619E+00    0.1766001482E-03
    0.2300000000E+05    0.6726447706E-01    0.2260791956E-02    0.6956771421E+00    0.1213814791E+00    0.1774973293E-03
    0.2500000000E+05    0.6831912635E-01    0.2298678866E-02    0.6956911356E+00    0.1253823394E+00    0.1783234731E-03
    0.2700000000E+05    0.6919440059E-01    0.2330498494E-02    0.6957030075E+00    0.1290566366E+00    0.1790892710E-03
    0.2900000000E+05    0.6992132597E-01    0.2357283189E-02    0.6957131995E+00    0.1324493236E+00    0.1798031518E-03
    0.3100000000E+05    0.7052454429E-01    0.2379854519E-02    0.6957220390E+00    0.1355970711E+00    0.1804718800E-03
    0.3300000000E+05    0.7102384310E-01    0.2398873562E-02    0.6957297740E+00    0.1385301268E+00    0.1811009690E-03
    0.3500000000E+05    0.7143526988E-01    0.2414877567E-02    0.6957365952E+00    0.1412736916E+00    0.1816949725E-03
    0.3700000000E+05    0.7177195589E-01    0.2428307083E-02    0.6957426524E+00    0.1438489526E+00    0.1822576959E-03
    0.3900000000E+05    0.7204473370E-01    0.2439526329E-02    0.6957480641E+00    0.1462738698E+00    0.1827923526E-03
    0.4100000000E+05    0.7226260592E-01    0.2448838666E-02    0.6957529259E+00    0.1485637825E+00    0.1833016809E-03
    0.4300000000E+05    0.7243310524E-01    0.2456498492E-02    0.6957573153E+00    0.1507318828E+00    0.1837880340E-03
    0.4500000000E+05    0.7256257361E-01    0.2462720487E-02    0.6957612962E+00    0.1527895881E+00    0.1842534488E-03
    0.4700000000E+05    0.7265638115E-01    0.2467686858E-02    0.6957649213E+00    0.1547468378E+00    0.1846997007E-03
    0.4900000000E+05    0.7271909907E-01    0.2471553079E-02    0.6957682349E+00    0.1566123324E+00    0.1851283468E-03
    0.1000000000E+05    0.5169439697E-01    0.1722987030E-02    0.6954457505E+00    0.8160589128E-01    0.1694395654E-03
    0.3000000000E+05    0.7023706275E-01    0.2369050930E-02    0.6957177713E+00    0.1340517919E+00    0.1801427900E-03
    0.5000000000E+05    0.7274004399E-01    0.2473116055E-02    0.6957697867E+00    0.1575130997E+00    0.1853365030E-03
    0.7000000000E+05    0.7222887603E-01    0.2470672376E-02    0.6957910183E+00    0.1721622240E+00    0.1888373258E-03
    0.9000000000E+05    0.7089322388E-01    0.2436932814E-02    0.6958022065E+00    0.1826670739E+00    0.1914946077E-03
    0.1100000000E+06    0.6933283364E-01    0.2393188423E-02    0.6958089309E+00    0.1907896928E+00    0.1936429600E-03
    0.1300000000E+06    0.6775014302E-01    0.2346958191E-02    0.6958133075E+00    0.1973738854E+00    0.1954496444E-03
    0.1500000000E+06    0.6621931884E-01    0.2301197393E-02    0.6958163096E+00    0.2028861574E+00    0.1970105861E-03
    0.1700000000E+06    0.6476660757E-01    0.2257099049E-02    0.6958184446E+00    0.2076105804E+00    0.1983860242E-03
    0.1900000000E+06    0.6339881247E-01    0.2215108398E-02    0.6958200020E+00    0.2117325817E+00    0.1996163184E-03
    0.2100000000E+06    0.6211458769E-01    0.2175335871E-02    0.6958211579E+00    0.2153797060E+00    0.2007298590E-03
    0.2300000000E+06    0.6090926414E-01    0.2137739438E-02    0.6958220256E+00    0.2186433436E+00    0.2017473900E-03
    0.2500000000E+06    0.5977700680E-01    0.2102209741E-02    0.6958226805E+00    0.2215911601E+00    0.2026845385E-03
    0.2700000000E+06    0.5871179565E-01    0.2068611253E-02    0.6958231751E+00    0.2242746190E+00    0.2035533753E-03
    0.2900000000E+06    0.5770786316E-01    0.2036802453E-02    0.6958235465E+00    0.2267337480E+00    0.2043634222E-03
    0.3100000000E+06    0.5675987340E-01    0.2006645595E-02    0.6958238218E+00    0.2290002763E+00    0.2051223248E-03
    0.3300000000E+06    0.5586297689E-01    0.1978011190E-02    0.6958240213E+00    0.2310997677E+00    0.2058363169E-03
    0.3500000000E+06    0.5501280655E-01    0.1950779757E-02    0.6958241601E+00    0.2330531114E+00    0.2065105492E-03
    0.3700000000E+06    0.5420544700E-01    0.1924842176E-02    0.6958242500E+00    0.2348775885E+00    0.2071493277E-03
    0.3900000000E+06    0.5343739378E-01    0.1900099339E-02    0.6958243001E+00    0.2365876525E+00    0.2077562891E-03
    0.4100000000E+06    0.5270551023E-01    0.1876461473E-02    0.6958243176E+00    0.2381955091E+00    0.2083345334E-03
    0.4300000000E+06    0.5200698607E-01    0.1853847341E-02    0.6958243083E+00    0.2397115562E+00    0.2088867250E-03
    0.4500000000E+06    0.5133929940E-01    0.1832183420E-02    0.6958242768E+00    0.2411447206E+00    0.2094151711E-03
    0.4700000000E+06    0.5070018256E-01    0.1811403113E-02    0.6958242268E+00    0.2425027210E+00    0.2099218826E-03
    0.4900000000E+06    0.5008759201E-01    0.1791446012E-02    0.6958241614E+00    0.2437922742E+00    0.2104086236E-03
    0.1000000000E+06    0.7012385080E-01    0.2415678563E-02    0.6958059541E+00    0.1869609565E+00    0.1926196197E-03
    0.3000000000E+06    0.5722719007E-01    0.2021525847E-02    0.6958236948E+00    0.2278893649E+00    0.2047488482E-03
    0.5000000000E+06    0.4979066019E-01    0.1781758816E-02    0.6958241237E+00    0.2444132494E+00    0.2106449985E-03
    0.7000000000E+06    0.4487938199E-01    0.1620273523E-02    0.6958229866E+00    0.2543461396E+00    0.2146209941E-03
    0.9000000000E+06    0.4130119568E-01    0.1501170237E-02    0.6958216123E+00    0.2612509608E+00    0.2176395328E-03
    0.1100000000E+07    0.3853115380E-01    0.1408140442E-02    0.6958202591E+00    0.2664432261E+00    0.2200802171E-03
    0.1300000000E+07    0.3629717571E-01    0.1332586120E-02    0.6958189873E+00    0.2705472463E+00    0.2221328832E-03
    0.1500000000E+07    0.3444166872E-01    0.1269468802E-02    0.6958178064E+00    0.2739054110E+00    0.2239064327E-03
    0.1700000000E+07    0.3286586454E-01    0.1215602717E-02    0.6958167121E+00    0.2767243490E+00    0.2254692658E-03
    0.1900000000E+07    0.3150411956E-01    0.1168855464E-02    0.6958156959E+00    0.2791375987E+00    0.2268672166E-03
    0.2100000000E+07    0.3031077908E-01    0.1127735167E-02    0.6958147491E+00    0.2812360376E+00    0.2281325290E-03
    0.2300000000E+07    0.2925292062E-01    0.1091160537E-02    0.6958138639E+00    0.2830840644E+00    0.2292887648E-03
    0.2500000000E+07    0.2830609168E-01    0.1058324899E-02    0.6958130332E+00    0.2847288257E+00    0.2303536748E-03
    0.2700000000E+07    0.2745167899E-01    0.1028611791E-02    0.6958122510E+00    0.2862057767E+00    0.2313409712E-03
    0.2900000000E+07    0.2667521688E-01    0.1001540421E-02    0.6958115121E+00    0.2875421874E+00    0.2322614705E-03
    0.3100000000E+07    0.2596526123E-01    0.9767292021E-03    0.6958108120E+00    0.2887594381E+00    0.2331238586E-03
    0.3300000000E+07    0.2531261777E-01    0.9538706621E-03    0.6958101468E+00    0.2898745705E+00    0.2339352176E-03
    0.3500000000E+07    0.2470979945E-01    0.9327137449E-03    0.6958095134E+00    0.2909013647E+00    0.2347013993E-03
    0.3700000000E+07    0.2415063643E-01    0.9130510445E-03    0.6958089087E+00    0.2918511056E+00    0.2354272959E-03
    0.3900000000E+07    0.2362999027E-01    0.8947094221E-03    0.6958083304E+00    0.2927331385E+00    0.2361170391E-03
    0.4100000000E+07    0.2314354074E-01    0.8775429913E-03    0.6958077761E+00    0.2935552804E+00    0.2367741512E-03
    0.4300000000E+07    0.2268762448E-01    0.8614277917E-03    0.6958072439E+00    0.2943241290E+00    0.2374016596E-03
    0.4500000000E+07    0.2225911096E-01    0.8462576894E-03    0.6958067321E+00    0.2950452981E+00    0.2380021855E-03
    0.4700000000E+07    0.2185530621E-01    0.8319411826E-03    0.6958062392E+00    0.2957235996E+00    0.2385780140E-03
    0.4900000000E+07    0.2147387696E-01    0.8183988841E-03    0.6958057639E+00    0.2963631862E+00    0.2391311492E-03
    0.1000000000E+07    0.3983584381E-01    0.1452047360E-02    0.6958209274E+00    0.2640128124E+00    0.2189176029E-03
    0.3000000000E+07    0.2631254587E-01    0.9888730107E-03    0.6958111574E+00    0.2881645554E+00    0.2326994532E-03
    0.5000000000E+07    0.2129090756E-01    0.8118960651E-03    0.6958055324E+00    0.2966696068E+00    0.2393997675E-03
    0.7000000000E+07    0.1842696561E-01    0.7095231819E-03    0.6958015825E+00    0.3014344573E+00    0.2439181602E-03
    0.9000000000E+07    0.1650588828E-01    0.6401911733E-03    0.6957985266E+00    0.3045991511E+00    0.2473485194E-03
    0.1100000000E+08    0.1509868101E-01    0.5890335612E-03    0.6957960283E+00    0.3069022355E+00    0.2501222034E-03
    0.1300000000E+08    0.1400880896E-01    0.5491789268E-03    0.6957939117E+00    0.3086775577E+00    0.2524549372E-03
    0.1500000000E+08    0.1313150134E-01    0.5169390551E-03    0.6957920734E+00    0.3101014685E+00    0.2544704758E-03
    0.1700000000E+08    0.1240499133E-01    0.4901274190E-03    0.6957904472E+00    0.3112772317E+00    0.2562465499E-03
    0.1900000000E+08    0.1179013904E-01    0.4673519235E-03    0.6957889882E+00    0.3122699372E+00    0.2578352458E-03
    0.2100000000E+08    0.1126075405E-01    0.4476772288E-03    0.6957876643E+00    0.3131229534E+00    0.2592732064E-03
    0.2300000000E+08    0.1079854724E-01    0.4304478117E-03    0.6957864521E+00    0.3138664574E+00    0.2605872079E-03
    0.2500000000E+08    0.1039030081E-01    0.4151883810E-03    0.6957853338E+00    0.3145221928E+00    0.2617974229E-03
    0.2700000000E+08    0.1002618803E-01    0.4015445481E-03    0.6957842956E+00    0.3151062825E+00    0.2629194342E-03
