  Pressure (Pa) 22mC5-500 (mol/kg) 23mC5-500 (mol/kg) 24mC5-500 (mol/kg) 2mC6-500 (mol/kg) C7-500 (mol/kg)
    0.1000000000E+01    0.2684334410E-04    0.2315583103E-05    0.3665898271E-01    0.1424183845E-04    0.4171902795E-02
    0.3000000000E+01    0.7077444911E-04    0.6097801297E-05    0.9947874762E-01    0.3666730514E-04    0.4212809424E-02
    0.5000000000E+01    0.1055235786E-03    0.9083441115E-05    0.1513510272E+00    0.5377412211E-04    0.4240856503E-02
    0.7000000000E+01    0.1335593124E-03    0.1148760678E-04    0.1949088325E+00    0.6712519569E-04    0.4263717861E-02
    0.9000000000E+01    0.1565353469E-03    0.1345417585E-04    0.2320034177E+00    0.7773322391E-04    0.4283006582E-02
    0.1100000000E+02    0.1756167928E-03    0.1508440864E-04    0.2639743740E+00    0.8629553144E-04    0.4299573369E-02
    0.1300000000E+02    0.1916487014E-03    0.1645167613E-04    0.2918149815E+00    0.9330723419E-04    0.4313981965E-02
    0.1500000000E+02    0.2052579397E-03    0.1761035232E-04    0.3162773297E+00    0.9912789906E-04    0.4326638839E-02
    0.1700000000E+02    0.2169183490E-03    0.1860149726E-04    0.3379413392E+00    0.1040234991E-03    0.4337849837E-02
    0.1900000000E+02    0.2269939405E-03    0.1945662217E-04    0.3572613631E+00    0.1081938664E-03    0.4347851398E-02
    0.2100000000E+02    0.2357683370E-03    0.2020025419E-04    0.3745984298E+00    0.1117911780E-03    0.4356829951E-02
    0.2300000000E+02    0.2434653080E-03    0.2085172426E-04    0.3902430350E+00    0.1149326970E-03    0.4364934823E-02
    0.2500000000E+02    0.2502633812E-03    0.2142643859E-04    0.4044315656E+00    0.1177097301E-03    0.4372287202E-02
    0.2700000000E+02    0.2563064235E-03    0.2193679877E-04    0.4173583382E+00    0.1201940341E-03    0.4378986563E-02
    0.2900000000E+02    0.2617114235E-03    0.2239287829E-04    0.4291845600E+00    0.1224424697E-03    0.4385115377E-02
    0.3100000000E+02    0.2665742970E-03    0.2280292677E-04    0.4400450937E+00    0.1245004276E-03    0.4390742630E-02
    0.3300000000E+02    0.2709742734E-03    0.2317375078E-04    0.4500536275E+00    0.1264043825E-03    0.4395926492E-02
    0.3500000000E+02    0.2749772475E-03    0.2351100468E-04    0.4593066750E+00    0.1281838188E-03    0.4400716371E-02
    0.3700000000E+02    0.2786383695E-03    0.2381941513E-04    0.4678867000E+00    0.1298626969E-03    0.4405154517E-02
    0.3900000000E+02    0.2820040645E-03    0.2410295613E-04    0.4758645839E+00    0.1314605803E-03    0.4409277279E-02
    0.4100000000E+02    0.2851136219E-03    0.2436498666E-04    0.4833015903E+00    0.1329935102E-03    0.4413116105E-02
    0.4300000000E+02    0.2880004575E-03    0.2460835987E-04    0.4902509430E+00    0.1344746885E-03    0.4416698349E-02
    0.4500000000E+02    0.2906931216E-03    0.2483551032E-04    0.4967591029E+00    0.1359150153E-03    0.4420047918E-02
    0.4700000000E+02    0.2932161120E-03    0.2504852417E-04    0.5028668097E+00    0.1373235163E-03    0.4423185801E-02
    0.4900000000E+02    0.2955905328E-03    0.2524919616E-04    0.5086099357E+00    0.1387076817E-03    0.4426130504E-02
    0.1000000000E+02    0.1665039988E-03    0.1430621914E-04    0.2485606051E+00    0.8223534514E-04    0.4291590346E-02
    0.3000000000E+02    0.2642053267E-03    0.2260320096E-04    0.4347279878E+00    0.1234927949E-03    0.4387987837E-02
    0.5000000000E+02    0.2967278311E-03    0.2534539670E-04    0.5113548364E+00    0.1393926281E-03    0.4427535607E-02
    0.7000000000E+02    0.3150028546E-03    0.2690337313E-04    0.5531555435E+00    0.1528630422E-03    0.4448626386E-02
    0.9000000000E+02    0.3293916150E-03    0.2815306202E-04    0.5794801593E+00    0.1670226057E-03    0.4461306178E-02
    0.1100000000E+03    0.3428854374E-03    0.2934256367E-04    0.5975826588E+00    0.1822826978E-03    0.4469400436E-02
    0.1300000000E+03    0.3565003481E-03    0.3055384711E-04    0.6107957169E+00    0.1985710565E-03    0.4474694252E-02
    0.1500000000E+03    0.3706018688E-03    0.3181503567E-04    0.6208650811E+00    0.2157446303E-03    0.4478136862E-02
    0.1700000000E+03    0.3853141712E-03    0.3313469890E-04    0.6287937116E+00    0.2336743396E-03    0.4480281508E-02
    0.1900000000E+03    0.4006661684E-03    0.3451393175E-04    0.6351988808E+00    0.2522584664E-03    0.4481473358E-02
    0.2100000000E+03    0.4166489139E-03    0.3595101913E-04    0.6404813215E+00    0.2714200844E-03    0.4481939393E-02
    0.2300000000E+03    0.4332395610E-03    0.3744333771E-04    0.6449125313E+00    0.2911018295E-03    0.4481835245E-02
    0.2500000000E+03    0.4504116688E-03    0.3898814592E-04    0.6486829871E+00    0.3112611636E-03    0.4481271308E-02
    0.2700000000E+03    0.4681396086E-03    0.4058290244E-04    0.6519302723E+00    0.3318666797E-03    0.4480328118E-02
    0.2900000000E+03    0.4864003297E-03    0.4222537901E-04    0.6547562464E+00    0.3528953525E-03    0.4479065819E-02
    0.3100000000E+03    0.5051739248E-03    0.4391368294E-04    0.6572379340E+00    0.3743305201E-03    0.4477530225E-02
    0.3300000000E+03    0.5244436556E-03    0.4564624170E-04    0.6594346597E+00    0.3961604051E-03    0.4475756825E-02
    0.3500000000E+03    0.5441957497E-03    0.4742177315E-04    0.6613928564E+00    0.4183770247E-03    0.4473773506E-02
    0.3700000000E+03    0.5644191153E-03    0.4923925227E-04    0.6631493871E+00    0.4409753824E-03    0.4471602450E-02
    0.3900000000E+03    0.5851050426E-03    0.5109787927E-04    0.6647338898E+00    0.4639528624E-03    0.4469261483E-02
    0.4100000000E+03    0.6062469224E-03    0.5299705075E-04    0.6661704650E+00    0.4873087733E-03    0.4466765056E-02
    0.4300000000E+03    0.6278399936E-03    0.5493633469E-04    0.6674789115E+00    0.5110439998E-03    0.4464124964E-02
    0.4500000000E+03    0.6498811232E-03    0.5691544893E-04    0.6686756452E+00    0.5351607371E-03    0.4461350890E-02
    0.4700000000E+03    0.6723686170E-03    0.5893424303E-04    0.6697743919E+00    0.5596622839E-03    0.4458450819E-02
    0.4900000000E+03    0.6953020586E-03    0.6099268291E-04    0.6707867171E+00    0.5845528838E-03    0.4455431346E-02
    0.1000000000E+03    0.3361634937E-03    0.2874826473E-04    0.5892979262E+00    0.1745159126E-03    0.4465787161E-02
    0.3000000000E+03    0.4957241367E-03    0.4306390802E-04    0.6560360686E+00    0.3635629607E-03    0.4478329761E-02
    0.5000000000E+03    0.7069361951E-03    0.6203678799E-04    0.6712635977E+00    0.5971456317E-03    0.4453878580E-02
    0.7000000000E+03    0.9637419832E-03    0.8506532154E-04    0.6780141858E+00    0.8710382040E-03    0.4417450498E-02
    0.9000000000E+03    0.1271285230E-02    0.1126148555E-03    0.6818258653E+00    0.1193411867E-02    0.4371476240E-02
    0.1100000000E+04    0.1640777003E-02    0.1456929011E-03    0.6842750255E+00    0.1577158340E-02    0.4315291630E-02
    0.1300000000E+04    0.2089071341E-02    0.1858099647E-03    0.6859815655E+00    0.2040323424E-02    0.4246891615E-02
    0.1500000000E+04    0.2640284563E-02    0.2351250667E-03    0.6872388258E+00    0.2608131602E-02    0.4163084766E-02
    0.1700000000E+04    0.3328890499E-02    0.2967231361E-03    0.6882036109E+00    0.3316338458E-02    0.4059213583E-02
    0.1900000000E+04    0.4204615888E-02    0.3750533479E-03    0.6889673525E+00    0.4216379183E-02    0.3928598960E-02
    0.2100000000E+04    0.5339659426E-02    0.4765754392E-03    0.6895869642E+00    0.5382921832E-02    0.3761729564E-02
    0.2300000000E+04    0.6838091040E-02    0.6106015094E-03    0.6900997273E+00    0.6923749116E-02    0.3545330444E-02
    0.2500000000E+04    0.8843724131E-02    0.7900022872E-03    0.6905310844E+00    0.8988265407E-02    0.3262017117E-02
    0.2700000000E+04    0.1153073150E-01    0.1030371784E-02    0.6908989932E+00    0.1175859516E-01    0.2892957463E-02
    0.2900000000E+04    0.1503418340E-01    0.1343820061E-02    0.6912164912E+00    0.1537918001E-01    0.2429289232E-02
    0.3100000000E+04    0.1926629231E-01    0.1722539171E-02    0.6914932722E+00    0.1976800737E-01    0.1897520780E-02
    0.3300000000E+04    0.2372075958E-01    0.2121286076E-02    0.6917366942E+00    0.2441205104E-01    0.1379568551E-02
    0.3500000000E+04    0.2766535569E-01    0.2474573112E-02    0.6919524429E+00    0.2855892159E-01    0.9739240747E-03
    0.3700000000E+04    0.3070518726E-01    0.2747042915E-02    0.6921449812E+00    0.3179539735E-01    0.7178830011E-03
    0.3900000000E+04    0.3293901692E-01    0.2947485845E-02    0.6923178614E+00    0.3421498131E-01    0.5803700198E-03
    0.4100000000E+04    0.3464624330E-01    0.3100866526E-02    0.6924739458E+00    0.3610034875E-01    0.5134119249E-03
    0.4300000000E+04    0.3605328980E-01    0.3227426631E-02    0.6926155669E+00    0.3768254501E-01    0.4825827917E-03
    0.4500000000E+04    0.3729378033E-01    0.3339114546E-02    0.6927446444E+00    0.3909844414E-01    0.4689722614E-03
    0.4700000000E+04    0.3843724532E-01    0.3442148102E-02    0.6928627725E+00    0.4041937681E-01    0.4633148731E-03
    0.4900000000E+04    0.3951825511E-01    0.3539618547E-02    0.6929712865E+00    0.4168076795E-01    0.4612835339E-03
    0.1000000000E+04    0.1447378339E-02    0.1283812702E-03    0.6831706054E+00    0.1376624329E-02    0.4344758891E-02
    0.3000000000E+04    0.1708022174E-01    0.1526901909E-02    0.6913594657E+00    0.1749866038E-01    0.2168053573E-02
    0.5000000000E+04    0.4004108953E-01    0.3586781634E-02    0.6930222972E+00    0.4229500066E-01    0.4609562848E-03
    0.7000000000E+04    0.4894728631E-01    0.4392303529E-02    0.6937369263E+00    0.5318263442E-01    0.4680600164E-03
    0.9000000000E+04    0.5573912465E-01    0.5009833624E-02    0.6941340651E+00    0.6214752627E-01    0.4748118727E-03
    0.1100000000E+05    0.6105125345E-01    0.5495480682E-02    0.6943865975E+00    0.6971766675E-01    0.4802433614E-03
    0.1300000000E+05    0.6528391426E-01    0.5884672446E-02    0.6945611883E+00    0.7623168567E-01    0.4847955377E-03
    0.1500000000E+05    0.6870738708E-01    0.6201371739E-02    0.6946889947E+00    0.8192392257E-01    0.4887191455E-03
    0.1700000000E+05    0.7151042708E-01    0.6462341095E-02    0.6947865275E+00    0.8696209406E-01    0.4921703594E-03
    0.1900000000E+05    0.7382861456E-01    0.6679641033E-02    0.6948633510E+00    0.9146965855E-01    0.4952531872E-03
    0.2100000000E+05    0.7576168994E-01    0.6862159077E-02    0.6949253880E+00    0.9553969285E-01    0.4980404546E-03
    0.2300000000E+05    0.7738455125E-01    0.7016580679E-02    0.6949765017E+00    0.9924382566E-01    0.5005851808E-03
    0.2500000000E+05    0.7875445511E-01    0.7148025574E-02    0.6950193192E+00    0.1026381735E+00    0.5029271890E-03
    0.2700000000E+05    0.7991586282E-01    0.7260476452E-02    0.6950556890E+00    0.1057673944E+00    0.5050971657E-03
    0.2900000000E+05    0.8090378107E-01    0.7357074748E-02    0.6950869493E+00    0.1086675236E+00    0.5071192674E-03
    0.3100000000E+05    0.8174611415E-01    0.7440329127E-02    0.6951140929E+00    0.1113679993E+00    0.5090128575E-03
    0.3300000000E+05    0.8246535182E-01    0.7512265220E-02    0.6951378715E+00    0.1138931380E+00    0.5107937005E-03
    0.3500000000E+05    0.8307980095E-01    0.7574535018E-02    0.6951588648E+00    0.1162632265E+00    0.5124748047E-03
    0.3700000000E+05    0.8360449819E-01    0.7628497998E-02    0.6951775271E+00    0.1184953433E+00    0.5140670325E-03
    0.3900000000E+05    0.8405189557E-01    0.7675282138E-02    0.6951942192E+00    0.1206039844E+00    0.5155795490E-03
    0.4100000000E+05    0.8443238199E-01    0.7715830378E-02    0.6952092313E+00    0.1226015465E+00    0.5170201599E-03
    0.4300000000E+05    0.8475468460E-01    0.7750936407E-02    0.6952227996E+00    0.1244987039E+00    0.5183955685E-03
    0.4500000000E+05    0.8502618078E-01    0.7781272522E-02    0.6952351181E+00    0.1263047066E+00    0.5197115747E-03
    0.4700000000E+05    0.8525314319E-01    0.7807411518E-02    0.6952463478E+00    0.1280276169E+00    0.5209732314E-03
    0.4900000000E+05    0.8544093385E-01    0.7829844062E-02    0.6952566233E+00    0.1296745002E+00    0.5221849675E-03
    0.1000000000E+05    0.5855132488E-01    0.5266592105E-02    0.6942729931E+00    0.6608273943E-01    0.4776588933E-03
    0.3000000000E+05    0.8134162951E-01    0.7400233448E-02    0.6951009840E+00    0.1100410927E+00    0.5080810680E-03
    0.5000000000E+05    0.8552160522E-01    0.7839804763E-02    0.6952614393E+00    0.1304714058E+00    0.5227733536E-03
    0.7000000000E+05    0.8591269459E-01    0.7921242438E-02    0.6953276577E+00    0.1436003990E+00    0.5326648142E-03
    0.9000000000E+05    0.8512859270E-01    0.7885768707E-02    0.6953629343E+00    0.1532369598E+00    0.5401686793E-03
    0.1100000000E+06    0.8392788504E-01    0.7805292070E-02    0.6953843794E+00    0.1608354554E+00    0.5462334143E-03
    0.1300000000E+06    0.8258764608E-01    0.7706954251E-02    0.6953985095E+00    0.1670995965E+00    0.5513325462E-03
    0.1500000000E+06    0.8122228018E-01    0.7602456659E-02    0.6954083332E+00    0.1724222141E+00    0.5557374399E-03
    0.1700000000E+06    0.7988183254E-01    0.7497242308E-02    0.6954154258E+00    0.1770447135E+00    0.5596184179E-03
    0.1900000000E+06    0.7858815403E-01    0.7393931103E-02    0.6954206883E+00    0.1811260483E+00    0.5630895528E-03
    0.2100000000E+06    0.7734990466E-01    0.7293772537E-02    0.6954246720E+00    0.1847764644E+00    0.5662310630E-03
    0.2300000000E+06    0.7616933533E-01    0.7197317056E-02    0.6954277317E+00    0.1880755860E+00    0.5691015495E-03
    0.2500000000E+06    0.7504554992E-01    0.7104747565E-02    0.6954301055E+00    0.1910828164E+00    0.5717451494E-03
    0.2700000000E+06    0.7397614524E-01    0.7016051525E-02    0.6954319589E+00    0.1938436653E+00    0.5741959511E-03
    0.2900000000E+06    0.7295805972E-01    0.6931113652E-02    0.6954334098E+00    0.1963937772E+00    0.5764808406E-03
    0.3100000000E+06    0.7198801874E-01    0.6849767199E-02    0.6954345446E+00    0.1987615970E+00    0.5786214038E-03
    0.3300000000E+06    0.7106276736E-01    0.6771822762E-02    0.6954354278E+00    0.2009701906E+00    0.5806352395E-03
    0.3500000000E+06    0.7017918830E-01    0.6697084550E-02    0.6954361084E+00    0.2030385228E+00    0.5825368875E-03
    0.3700000000E+06    0.6933435711E-01    0.6625359475E-02    0.6954366241E+00    0.2049823774E+00    0.5843385016E-03
    0.3900000000E+06    0.6852556280E-01    0.6556462089E-02    0.6954370046E+00    0.2068150310E+00    0.5860503465E-03
    0.4100000000E+06    0.6775030960E-01    0.6490217062E-02    0.6954372732E+00    0.2085477584E+00    0.5876811717E-03
    0.4300000000E+06    0.6700630890E-01    0.6426460234E-02    0.6954374488E+00    0.2101902160E+00    0.5892384964E-03
    0.4500000000E+06    0.6629146621E-01    0.6365038823E-02    0.6954375463E+00    0.2117507370E+00    0.5907288314E-03
    0.4700000000E+06    0.6560386613E-01    0.6305811152E-02    0.6954375783E+00    0.2132365631E+00    0.5921578518E-03
    0.4900000000E+06    0.6494175692E-01    0.6248646120E-02    0.6954375548E+00    0.2146540267E+00    0.5935305350E-03
    0.1000000000E+06    0.8455723892E-01    0.7848916894E-02    0.6953748549E+00    0.1572367389E+00    0.5433447469E-03
    0.3000000000E+06    0.7246723934E-01    0.6890003040E-02    0.6954340122E+00    0.1975989231E+00    0.5775679820E-03
    0.5000000000E+06    0.6461975502E-01    0.6220798852E-02    0.6954375250E+00    0.2153388894E+00    0.5941971424E-03
    0.7000000000E+06    0.5919402928E-01    0.5747265477E-02    0.6954354490E+00    0.2265045413E+00    0.6054094694E-03
    0.9000000000E+06    0.5512345598E-01    0.5387010104E-02    0.6954322678E+00    0.2345141897E+00    0.6139212413E-03
    0.1100000000E+07    0.5190384037E-01    0.5099209938E-02    0.6954289310E+00    0.2406813003E+00    0.6208032935E-03
    0.1300000000E+07    0.4926321882E-01    0.4861330303E-02    0.6954256994E+00    0.2456481747E+00    0.6265910821E-03
    0.1500000000E+07    0.4703958427E-01    0.4659744504E-02    0.6954226456E+00    0.2497756371E+00    0.6315917557E-03
    0.1700000000E+07    0.4512917350E-01    0.4485628191E-02    0.6954197820E+00    0.2532858413E+00    0.6359982227E-03
    0.1900000000E+07    0.4346179113E-01    0.4332959818E-02    0.6954171003E+00    0.2563248323E+00    0.6399397426E-03
    0.2100000000E+07    0.4198788209E-01    0.4197458086E-02    0.6954145860E+00    0.2589934861E+00    0.6435072466E-03
    0.2300000000E+07    0.4067124758E-01    0.4075976721E-02    0.6954122231E+00    0.2613642296E+00    0.6467671797E-03
    0.2500000000E+07    0.3948469560E-01    0.3966139937E-02    0.6954099968E+00    0.2634907103E+00    0.6497695984E-03
    0.2700000000E+07    0.3840731803E-01    0.3866112574E-02    0.6954078933E+00    0.2654136994E+00    0.6525531698E-03
    0.2900000000E+07    0.3742271782E-01    0.3774449515E-02    0.6954059006E+00    0.2671648571E+00    0.6551483958E-03
    0.3100000000E+07    0.3651781594E-01    0.3689993803E-02    0.6954040080E+00    0.2687692234E+00    0.6575797688E-03
    0.3300000000E+07    0.3568202544E-01    0.3611805772E-02    0.6954022061E+00    0.2702469182E+00    0.6598672593E-03
    0.3500000000E+07    0.3490666548E-01    0.3539112561E-02    0.6954004869E+00    0.2716143320E+00    0.6620273680E-03
    0.3700000000E+07    0.3418453675E-01    0.3471271379E-02    0.6953988431E+00    0.2728849798E+00    0.6640738894E-03
    0.3900000000E+07    0.3350960781E-01    0.3407742287E-02    0.6953972684E+00    0.2740701262E+00    0.6660184743E-03
    0.4100000000E+07    0.3287677961E-01    0.3348067686E-02    0.6953957573E+00    0.2751792503E+00    0.6678710545E-03
    0.4300000000E+07    0.3228170593E-01    0.3291856641E-02    0.6953943048E+00    0.2762203976E+00    0.6696401659E-03
    0.4500000000E+07    0.3172065476E-01    0.3238772730E-02    0.6953929064E+00    0.2772004505E+00    0.6713331998E-03
    0.4700000000E+07    0.3119039978E-01    0.3188524523E-02    0.6953915583E+00    0.2781253377E+00    0.6729565993E-03
    0.4900000000E+07    0.3068813459E-01    0.3140858032E-02    0.6953902569E+00    0.2790001998E+00    0.6745160156E-03
    0.1000000000E+07    0.5342776566E-01    0.5235741959E-02    0.6954305955E+00    0.2377786856E+00    0.6175250714E-03
    0.3000000000E+07    0.3696101688E-01    0.3731383891E-02    0.6954049424E+00    0.2679840323E+00    0.6563832238E-03
    0.5000000000E+07    0.3044671887E-01    0.3117922285E-02    0.6953896227E+00    0.2794202951E+00    0.6752733108E-03
    0.7000000000E+07    0.2662662684E-01    0.2752793122E-02    0.6953787667E+00    0.2860341523E+00    0.6880114856E-03
    0.9000000000E+07    0.2401973795E-01    0.2501117860E-02    0.6953703292E+00    0.2905139865E+00    0.6976820691E-03
    0.1100000000E+08    0.2208691284E-01    0.2313102313E-02    0.6953634116E+00    0.2938195368E+00    0.7055012720E-03
    0.1300000000E+08    0.2057617676E-01    0.2165249651E-02    0.6953575396E+00    0.2963944247E+00    0.7120773142E-03
    0.1500000000E+08    0.1935122018E-01    0.2044754999E-02    0.6953524322E+00    0.2984768704E+00    0.7177591082E-03
    0.1700000000E+08    0.1833075678E-01    0.1943936569E-02    0.6953479088E+00    0.3002081719E+00    0.7227658026E-03
    0.1900000000E+08    0.1746279565E-01    0.1857856278E-02    0.6953438466E+00    0.3016783305E+00    0.7272442446E-03
    0.2100000000E+08    0.1671227506E-01    0.1783169457E-02    0.6953401581E+00    0.3029478409E+00    0.7312977406E-03
    0.2300000000E+08    0.1605454757E-01    0.1717515878E-02    0.6953367786E+00    0.3040591139E+00    0.7350017797E-03
    0.2500000000E+08    0.1547169700E-01    0.1659174018E-02    0.6953336592E+00    0.3050429072E+00    0.7384132327E-03
    0.2700000000E+08    0.1495033585E-01    0.1606853529E-02    0.6953307615E+00    0.3059221590E+00    0.7415760314E-03
