  Pressure (Pa) 22mC5-500 (mol/kg) 23mC5-500 (mol/kg) 24mC5-500 (mol/kg) 2mC6-500 (mol/kg) C7-500 (mol/kg)
    0.1000000000E+01    0.2394029655E-04    0.6878943380E-06    0.9949668230E-01    0.1256004347E-04    0.4170181898E-02
    0.3000000000E+01    0.5294580292E-04    0.1517688657E-05    0.2320967525E+00    0.2664773717E-04    0.4201784975E-02
    0.5000000000E+01    0.6953176365E-04    0.1989722255E-05    0.3164441009E+00    0.3410665882E-04    0.4217887897E-02
    0.7000000000E+01    0.8000579686E-04    0.2286503676E-05    0.3748242951E+00    0.3861631775E-04    0.4228568340E-02
    0.9000000000E+01    0.8712655359E-04    0.2487603276E-05    0.4176299792E+00    0.4167870423E-04    0.4236260385E-02
    0.1100000000E+02    0.9226791927E-04    0.2632521702E-05    0.4503605728E+00    0.4398918736E-04    0.4242074864E-02
    0.1300000000E+02    0.9617798118E-04    0.2742694336E-05    0.4761989026E+00    0.4589752617E-04    0.4246619949E-02
    0.1500000000E+02    0.9929185183E-04    0.2830544058E-05    0.4971148150E+00    0.4759022422E-04    0.4250262437E-02
    0.1700000000E+02    0.1018757896E-03    0.2903643944E-05    0.5143927593E+00    0.4917093992E-04    0.4253238344E-02
    0.1900000000E+02    0.1040994054E-03    0.2966798669E-05    0.5289060396E+00    0.5069893232E-04    0.4255707021E-02
    0.2100000000E+02    0.1060743036E-03    0.3023156054E-05    0.5412691368E+00    0.5220863696E-04    0.4257780202E-02
    0.2300000000E+02    0.1078758931E-03    0.3074833112E-05    0.5519269815E+00    0.5372014685E-04    0.4259538682E-02
    0.2500000000E+02    0.1095562526E-03    0.3123284499E-05    0.5612096615E+00    0.5524505742E-04    0.4261042403E-02
    0.2700000000E+02    0.1111520054E-03    0.3169527521E-05    0.5693672297E+00    0.5678983653E-04    0.4262336814E-02
    0.2900000000E+02    0.1126892944E-03    0.3214283934E-05    0.5765925756E+00    0.5835782156E-04    0.4263457032E-02
    0.3100000000E+02    0.1141870111E-03    0.3258071748E-05    0.5830368779E+00    0.5995042934E-04    0.4264430633E-02
    0.3300000000E+02    0.1156589417E-03    0.3301266088E-05    0.5888203007E+00    0.6156790255E-04    0.4265279589E-02
    0.3500000000E+02    0.1171152237E-03    0.3344140382E-05    0.5940395596E+00    0.6320977638E-04    0.4266021630E-02
    0.3700000000E+02    0.1185633518E-03    0.3386894732E-05    0.5987733751E+00    0.6487517313E-04    0.4266671227E-02
    0.3900000000E+02    0.1200088852E-03    0.3429675790E-05    0.6030864721E+00    0.6656298916E-04    0.4267240314E-02
    0.4100000000E+02    0.1214559508E-03    0.3472590869E-05    0.6070325581E+00    0.6827201352E-04    0.4267738821E-02
    0.4300000000E+02    0.1229076070E-03    0.3515718097E-05    0.6106565714E+00    0.7000100284E-04    0.4268175086E-02
    0.4500000000E+02    0.1243661090E-03    0.3559113805E-05    0.6139964012E+00    0.7174872787E-04    0.4268556156E-02
    0.4700000000E+02    0.1258331042E-03    0.3602817954E-05    0.6170842175E+00    0.7351400156E-04    0.4268888038E-02
    0.4900000000E+02    0.1273097789E-03    0.3646858163E-05    0.6199475109E+00    0.7529569525E-04    0.4269175879E-02
    0.1000000000E+02    0.8988810052E-04    0.2565462818E-05    0.4350184174E+00    0.4290084191E-04    0.4239356720E-02
    0.3000000000E+02    0.1134421378E-03    0.3236272680E-05    0.5799042210E+00    0.5915101143E-04    0.4263960673E-02
    0.5000000000E+02    0.1280520179E-03    0.3669010305E-05    0.6213024785E+00    0.7619236500E-04    0.4269304696E-02
    0.7000000000E+02    0.1434970116E-03    0.4131276891E-05    0.6409152875E+00    0.9476781864E-04    0.4270381715E-02
    0.9000000000E+02    0.1600067173E-03    0.4626308388E-05    0.6523577490E+00    0.1141730908E-03    0.4269772160E-02
    0.1100000000E+03    0.1773600025E-03    0.5146611488E-05    0.6598554764E+00    0.1340869952E-03    0.4268303754E-02
    0.1300000000E+03    0.1953755913E-03    0.5686516300E-05    0.6651485692E+00    0.1543623879E-03    0.4266327238E-02
    0.1500000000E+03    0.2139315284E-03    0.6242312087E-05    0.6690848379E+00    0.1749287410E-03    0.4264017681E-02
    0.1700000000E+03    0.2329475535E-03    0.6811595643E-05    0.6721267606E+00    0.1957518175E-03    0.4261472485E-02
    0.1900000000E+03    0.2523705181E-03    0.7392794428E-05    0.6745480690E+00    0.2168158040E-03    0.4258750185E-02
    0.2100000000E+03    0.2721649390E-03    0.7984869519E-05    0.6765211241E+00    0.2381147828E-03    0.4255888021E-02
    0.2300000000E+03    0.2923070822E-03    0.8587133327E-05    0.6781598668E+00    0.2596483953E-03    0.4252910732E-02
    0.2500000000E+03    0.3127812236E-03    0.9199135904E-05    0.6795426361E+00    0.2814195209E-03    0.4249835310E-02
    0.2700000000E+03    0.3335772374E-03    0.9820592308E-05    0.6807250669E+00    0.3034329809E-03    0.4246673725E-02
    0.2900000000E+03    0.3546890043E-03    0.1045133504E-04    0.6817477601E+00    0.3256947927E-03    0.4243434568E-02
    0.3100000000E+03    0.3761133385E-03    0.1109128216E-04    0.6826410390E+00    0.3482117283E-03    0.4240124089E-02
    0.3300000000E+03    0.3978492482E-03    0.1174041546E-04    0.6834280084E+00    0.3709910497E-03    0.4236746867E-02
    0.3500000000E+03    0.4198974177E-03    0.1239876522E-04    0.6841265818E+00    0.3940403490E-03    0.4233306262E-02
    0.3700000000E+03    0.4422598380E-03    0.1306639943E-04    0.6847508616E+00    0.4173674508E-03    0.4229804724E-02
    0.3900000000E+03    0.4649395399E-03    0.1374341599E-04    0.6853121021E+00    0.4409803552E-03    0.4226244013E-02
    0.4100000000E+03    0.4879403981E-03    0.1442993702E-04    0.6858193933E+00    0.4648872043E-03    0.4222625355E-02
    0.4300000000E+03    0.5112669874E-03    0.1512610475E-04    0.6862801579E+00    0.4890962653E-03    0.4218949555E-02
    0.4500000000E+03    0.5349244746E-03    0.1583207834E-04    0.6867005162E+00    0.5136159233E-03    0.4215217084E-02
    0.4700000000E+03    0.5589185375E-03    0.1654803164E-04    0.6870855605E+00    0.5384546809E-03    0.4211428140E-02
    0.4900000000E+03    0.5832553043E-03    0.1727415140E-04    0.6874395614E+00    0.5636211617E-03    0.4207582699E-02
    0.1000000000E+03    0.1685908102E-03    0.4883709154E-05    0.6564601713E+00    0.1240781859E-03    0.4269117384E-02
    0.3000000000E+03    0.3653622070E-03    0.1077016048E-04    0.6822089907E+00    0.3369209254E-03    0.4241787925E-02
    0.5000000000E+03    0.5955542283E-03    0.1764108527E-04    0.6876060708E+00    0.5763300279E-03    0.4205638732E-02
    0.7000000000E+03    0.8613277052E-03    0.2556795725E-04    0.6899458967E+00    0.8499488444E-03    0.4163664903E-02
    0.9000000000E+03    0.1171089204E-02    0.3480366540E-04    0.6912528483E+00    0.1167640723E-02    0.4115080287E-02
    0.1100000000E+04    0.1536532289E-02    0.4569774449E-04    0.6920871648E+00    0.1541862535E-02    0.4058357250E-02
    0.1300000000E+04    0.1973488594E-02    0.5872263421E-04    0.6926659479E+00    0.1989089376E-02    0.3991343080E-02
    0.1500000000E+04    0.2503666989E-02    0.7452581348E-04    0.6930909877E+00    0.2531757156E-02    0.3911085622E-02
    0.1700000000E+04    0.3157341907E-02    0.9401008105E-04    0.6934163481E+00    0.3201095414E-02    0.3813512813E-02
    0.1900000000E+04    0.3977397912E-02    0.1184542436E-03    0.6936734039E+00    0.4041342235E-02    0.3692951185E-02
    0.2100000000E+04    0.5025249236E-02    0.1496897420E-03    0.6938816131E+00    0.5115911310E-02    0.3541452352E-02
    0.2300000000E+04    0.6388840190E-02    0.1903394335E-03    0.6940536843E+00    0.6515766540E-02    0.3347969161E-02
    0.2500000000E+04    0.8191012041E-02    0.2440675490E-03    0.6941982694E+00    0.8368315687E-02    0.3097742422E-02
    0.2700000000E+04    0.1058958965E-01    0.3155832421E-03    0.6943214627E+00    0.1083804584E-01    0.2773260156E-02
    0.2900000000E+04    0.1374240394E-01    0.4095993190E-03    0.6944276812E+00    0.1409141866E-01    0.2360465957E-02
    0.3100000000E+04    0.1768683739E-01    0.5272423398E-03    0.6945202042E+00    0.1817371050E-01    0.1866022331E-02
    0.3300000000E+04    0.2213505809E-01    0.6599455041E-03    0.6946015173E+00    0.2279711128E-01    0.1341886382E-02
    0.3500000000E+04    0.2643588688E-01    0.7883027010E-03    0.6946735394E+00    0.2729637880E-01    0.8805581565E-03
    0.3700000000E+04    0.2998808689E-01    0.8943825362E-03    0.6947377748E+00    0.3104959250E-01    0.5523764304E-03
    0.3900000000E+04    0.3265428548E-01    0.9740750579E-03    0.6947954199E+00    0.3390737877E-01    0.3580671320E-03
    0.4100000000E+04    0.3464520455E-01    0.1033651219E-02    0.6948474380E+00    0.3608003914E-01    0.2563684488E-03
    0.4300000000E+04    0.3622029143E-01    0.1080840509E-02    0.6948946133E+00    0.3783129004E-01    0.2066844043E-03
    0.4500000000E+04    0.3755965273E-01    0.1121010559E-02    0.6949375911E+00    0.3934526164E-01    0.1832536080E-03
    0.4700000000E+04    0.3876489264E-01    0.1157189943E-02    0.6949769065E+00    0.4072612173E-01    0.1724317177E-03
    0.4900000000E+04    0.3988867583E-01    0.1190948523E-02    0.6950130077E+00    0.4202790099E-01    0.1675425104E-03
    0.1000000000E+04    0.1345974515E-02    0.4001725689E-04    0.6917114715E+00    0.1346769316E-02    0.4087854675E-02
    0.3000000000E+04    0.1562368807E-01    0.4657056371E-03    0.6944754838E+00    0.1603667469E-01    0.2121494562E-02
    0.5000000000E+04    0.4042893356E-01    0.1207185647E-02    0.6950299735E+00    0.4265826266E-01    0.1662556939E-03
    0.7000000000E+04    0.4957882981E-01    0.1482903197E-02    0.6952672915E+00    0.5376593739E-01    0.1660933239E-03
    0.9000000000E+04    0.5657997835E-01    0.1694955480E-02    0.6953988280E+00    0.6292700891E-01    0.1684441084E-03
    0.1100000000E+05    0.6207720145E-01    0.1862344680E-02    0.6954822992E+00    0.7067845647E-01    0.1703441046E-03
    0.1300000000E+05    0.6647169877E-01    0.1996904354E-02    0.6955399084E+00    0.7735802720E-01    0.1719404076E-03
    0.1500000000E+05    0.7003606092E-01    0.2106687403E-02    0.6955820158E+00    0.8320076726E-01    0.1733186642E-03
    0.1700000000E+05    0.7296164516E-01    0.2197356025E-02    0.6956141042E+00    0.8837567907E-01    0.1745325320E-03
    0.1900000000E+05    0.7538650708E-01    0.2273001913E-02    0.6956393461E+00    0.9300764386E-01    0.1756178985E-03
    0.2100000000E+05    0.7741259297E-01    0.2336651567E-02    0.6956597043E+00    0.9719111205E-01    0.1765999744E-03
    0.2300000000E+05    0.7911670923E-01    0.2390588986E-02    0.6956764579E+00    0.1009989651E+00    0.1774971615E-03
    0.2500000000E+05    0.8055774061E-01    0.2436568221E-02    0.6956904761E+00    0.1044884315E+00    0.1783233105E-03
    0.2700000000E+05    0.8178152929E-01    0.2475957172E-02    0.6957023701E+00    0.1077051432E+00    0.1790891132E-03
    0.2900000000E+05    0.8282425110E-01    0.2509837194E-02    0.6957125820E+00    0.1106859827E+00    0.1798029983E-03
    0.3100000000E+05    0.8371480098E-01    0.2539073540E-02    0.6957214396E+00    0.1134611243E+00    0.1804717305E-03
    0.3300000000E+05    0.8447650984E-01    0.2564366108E-02    0.6957291910E+00    0.1160555236E+00    0.1811008231E-03
    0.3500000000E+05    0.8512840092E-01    0.2586286614E-02    0.6957360273E+00    0.1184900233E+00    0.1816948298E-03
    0.3700000000E+05    0.8568612303E-01    0.2605306231E-02    0.6957420984E+00    0.1207821861E+00    0.1822575563E-03
    0.3900000000E+05    0.8616265314E-01    0.2621816422E-02    0.6957475230E+00    0.1229469318E+00    0.1827922158E-03
    0.4100000000E+05    0.8656883205E-01    0.2636144832E-02    0.6957523967E+00    0.1249970280E+00    0.1833015468E-03
    0.4300000000E+05    0.8691377727E-01    0.2648567556E-02    0.6957567973E+00    0.1269434761E+00    0.1837879024E-03
    0.4500000000E+05    0.8720520469E-01    0.2659318706E-02    0.6957607887E+00    0.1287958139E+00    0.1842533195E-03
    0.4700000000E+05    0.8744968149E-01    0.2668597936E-02    0.6957644236E+00    0.1305623591E+00    0.1846995736E-03
    0.4900000000E+05    0.8765282683E-01    0.2676576426E-02    0.6957677464E+00    0.1322504037E+00    0.1851282217E-03
    0.1000000000E+05    0.5948774393E-01    0.1783382840E-02    0.6954447677E+00    0.6695484494E-01    0.1694393354E-03
    0.3000000000E+05    0.8328697552E-01    0.2524988698E-02    0.6957171630E+00    0.1120975982E+00    0.1801426385E-03
    0.5000000000E+05    0.8774043714E-01    0.2680124799E-02    0.6957693026E+00    0.1330670261E+00    0.1853363790E-03
    0.7000000000E+05    0.8819899425E-01    0.2709659737E-02    0.6957906023E+00    0.1464994529E+00    0.1888372172E-03
    0.9000000000E+05    0.8740876998E-01    0.2697948236E-02    0.6958018353E+00    0.1563290415E+00    0.1914945094E-03
    0.1100000000E+06    0.8617213747E-01    0.2670283525E-02    0.6958085920E+00    0.1640595846E+00    0.1936428693E-03
    0.1300000000E+06    0.8478357046E-01    0.2636247293E-02    0.6958129935E+00    0.1704183291E+00    0.1954495595E-03
    0.1500000000E+06    0.8336521123E-01    0.2599982304E-02    0.6958160154E+00    0.1758108226E+00    0.1970105060E-03
    0.1700000000E+06    0.8197078482E-01    0.2563420992E-02    0.6958181668E+00    0.1804859842E+00    0.1983859480E-03
    0.1900000000E+06    0.8062394799E-01    0.2527496614E-02    0.6958197379E+00    0.1846075116E+00    0.1996162456E-03
    0.2100000000E+06    0.7933424165E-01    0.2492656456E-02    0.6958209057E+00    0.1882888040E+00    0.2007297890E-03
    0.2300000000E+06    0.7810431975E-01    0.2459099425E-02    0.6958217836E+00    0.1916116676E+00    0.2017473225E-03
    0.2500000000E+06    0.7693343518E-01    0.2426893538E-02    0.6958224476E+00    0.1946370664E+00    0.2026844732E-03
    0.2700000000E+06    0.7581919720E-01    0.2396037010E-02    0.6958229503E+00    0.1974116566E+00    0.2035533120E-03
    0.2900000000E+06    0.7475848396E-01    0.2366491212E-02    0.6958233290E+00    0.1999719448E+00    0.2043633607E-03
    0.3100000000E+06    0.7374792338E-01    0.2338198924E-02    0.6958236109E+00    0.2023470366E+00    0.2051222649E-03
    0.3300000000E+06    0.7278414599E-01    0.2311094620E-02    0.6958238163E+00    0.2045605125E+00    0.2058362585E-03
    0.3500000000E+06    0.7186391436E-01    0.2285110285E-02    0.6958239606E+00    0.2066317445E+00    0.2065104923E-03
    0.3700000000E+06    0.7098418472E-01    0.2260178683E-02    0.6958240555E+00    0.2085768418E+00    0.2071492720E-03
    0.3900000000E+06    0.7014213108E-01    0.2236235134E-02    0.6958241103E+00    0.2104093451E+00    0.2077562346E-03
    0.4100000000E+06    0.6933514891E-01    0.2213218422E-02    0.6958241322E+00    0.2121407446E+00    0.2083344800E-03
    0.4300000000E+06    0.6856084778E-01    0.2191071189E-02    0.6958241269E+00    0.2137808743E+00    0.2088866726E-03
    0.4500000000E+06    0.6781703863E-01    0.2169740019E-02    0.6958240991E+00    0.2153382154E+00    0.2094151196E-03
    0.4700000000E+06    0.6710171852E-01    0.2149175361E-02    0.6958240526E+00    0.2168201331E+00    0.2099218321E-03
    0.4900000000E+06    0.6641305496E-01    0.2129331349E-02    0.6958239905E+00    0.2182330642E+00    0.2104085739E-03
    0.1000000000E+06    0.8682175714E-01    0.2685320268E-02    0.6958056002E+00    0.1604006385E+00    0.1926195255E-03
    0.3000000000E+06    0.7424714719E-01    0.2352192364E-02    0.6958234806E+00    0.2011810546E+00    0.2047487876E-03
    0.5000000000E+06    0.6607818951E-01    0.2119666204E-02    0.6958239544E+00    0.2189154546E+00    0.2106449492E-03
    0.7000000000E+06    0.6044122700E-01    0.1955490324E-02    0.6958228417E+00    0.2300145123E+00    0.2146209511E-03
    0.9000000000E+06    0.5621987631E-01    0.1830833067E-02    0.6958214833E+00    0.2379452215E+00    0.2176394940E-03
    0.1100000000E+07    0.5288625163E-01    0.1731412939E-02    0.6958201415E+00    0.2440332902E+00    0.2200801813E-03
    0.1300000000E+07    0.5015583290E-01    0.1649354934E-02    0.6958188784E+00    0.2489246810E+00    0.2221328498E-03
    0.1500000000E+07    0.4785930160E-01    0.1579902722E-02    0.6958177046E+00    0.2529812314E+00    0.2239064011E-03
    0.1700000000E+07    0.4588832137E-01    0.1519979770E-02    0.6958166160E+00    0.2564251832E+00    0.2254692359E-03
    0.1900000000E+07    0.4416967456E-01    0.1467489001E-02    0.6958156046E+00    0.2594023364E+00    0.2268671880E-03
    0.2100000000E+07    0.4265172008E-01    0.1420940908E-02    0.6958146620E+00    0.2620132155E+00    0.2281325015E-03
    0.2300000000E+07    0.4129676793E-01    0.1379241898E-02    0.6958137804E+00    0.2643298778E+00    0.2292887384E-03
    0.2500000000E+07    0.4007652880E-01    0.1341566909E-02    0.6958129529E+00    0.2664056199E+00    0.2303536492E-03
    0.2700000000E+07    0.3896926729E-01    0.1307279144E-02    0.6958121735E+00    0.2682808927E+00    0.2313409464E-03
    0.2900000000E+07    0.3795794969E-01    0.1275877529E-02    0.6958114371E+00    0.2699870697E+00    0.2322614464E-03
    0.3100000000E+07    0.3702899817E-01    0.1246961193E-02    0.6958107392E+00    0.2715489366E+00    0.2331238351E-03
    0.3300000000E+07    0.3617142892E-01    0.1220204769E-02    0.6958100762E+00    0.2729863884E+00    0.2339351947E-03
    0.3500000000E+07    0.3537624106E-01    0.1195340816E-02    0.6958094447E+00    0.2743156168E+00    0.2347013770E-03
    0.3700000000E+07    0.3463597399E-01    0.1172147034E-02    0.6958088418E+00    0.2755499612E+00    0.2354272741E-03
    0.3900000000E+07    0.3394438072E-01    0.1150436797E-02    0.6958082650E+00    0.2767005302E+00    0.2361170178E-03
    0.4100000000E+07    0.3329618261E-01    0.1130052024E-02    0.6958077122E+00    0.2777766643E+00    0.2367741303E-03
    0.4300000000E+07    0.3268688253E-01    0.1110857730E-02    0.6958071814E+00    0.2787862857E+00    0.2374016391E-03
    0.4500000000E+07    0.3211262065E-01    0.1092737812E-02    0.6958066710E+00    0.2797361662E+00    0.2380021654E-03
    0.4700000000E+07    0.3157006158E-01    0.1075591736E-02    0.6958061793E+00    0.2806321357E+00    0.2385779942E-03
    0.4900000000E+07    0.3105630530E-01    0.1059331925E-02    0.6958057051E+00    0.2814792455E+00    0.2391311298E-03
    0.1000000000E+07    0.5446353741E-01    0.1778558756E-02    0.6958208045E+00    0.2411698836E+00    0.2189175657E-03
    0.3000000000E+07    0.3748391731E-01    0.1261130572E-02    0.6958110836E+00    0.2707846997E+00    0.2326994294E-03
    0.5000000000E+07    0.3080942318E-01    0.1051510018E-02    0.6958054741E+00    0.2818858764E+00    0.2393997482E-03
    0.7000000000E+07    0.2690781662E-01    0.9271511656E-03    0.6958015327E+00    0.2882757517E+00    0.2439181434E-03
    0.9000000000E+07    0.2425079619E-01    0.8416145132E-03    0.6957984823E+00    0.2925907560E+00    0.2473485043E-03
    0.1100000000E+08    0.2228375378E-01    0.7778117276E-03    0.6957959880E+00    0.2957676776E+00    0.2501221895E-03
    0.1300000000E+08    0.2074805450E-01    0.7276975605E-03    0.6957938744E+00    0.2982381453E+00    0.2524549241E-03
    0.1500000000E+08    0.1950402053E-01    0.6868952700E-03    0.6957920385E+00    0.3002333793E+00    0.2544704635E-03
    0.1700000000E+08    0.1846846898E-01    0.6527828530E-03    0.6957904143E+00    0.3018902610E+00    0.2562465382E-03
    0.1900000000E+08    0.1758825529E-01    0.6236767517E-03    0.6957889569E+00    0.3032958391E+00    0.2578352347E-03
    0.2100000000E+08    0.1682757374E-01    0.5984377731E-03    0.6957876345E+00    0.3045085441E+00    0.2592731957E-03
    0.2300000000E+08    0.1616127459E-01    0.5762627062E-03    0.6957864235E+00    0.3055692916E+00    0.2605871976E-03
    0.2500000000E+08    0.1557108967E-01    0.5565661333E-03    0.6957853063E+00    0.3065077241E+00    0.2617974129E-03
    0.2700000000E+08    0.1504337724E-01    0.5389095508E-03    0.6957842690E+00    0.3073459281E+00    0.2629194246E-03
