  Pressure (Pa) 22mC5-500 (mol/kg) 23mC5-500 (mol/kg) 24mC5-500 (mol/kg) 3mC6-500 (mol/kg) C7-500 (mol/kg)
    0.1000000000E+01    0.2486401695E-05    0.3571242416E-05    0.6964770902E-01    0.2125962183E-05    0.4244997141E-02
    0.3000000000E+01    0.5964777110E-05    0.8551388454E-05    0.1740651849E+00    0.5520467922E-05    0.4368425921E-02
    0.5000000000E+01    0.8253266765E-05    0.1181487704E-04    0.2486093298E+00    0.8659572320E-05    0.4456475176E-02
    0.7000000000E+01    0.9841734707E-05    0.1407142728E-04    0.3044956550E+00    0.1167282578E-04    0.4523095020E-02
    0.9000000000E+01    0.1099020750E-04    0.1569700420E-04    0.3479498545E+00    0.1460447235E-04    0.4575427468E-02
    0.1100000000E+02    0.1184848907E-04    0.1690777032E-04    0.3827050313E+00    0.1747680939E-04    0.4617721461E-02
    0.1300000000E+02    0.1250816405E-04    0.1783560462E-04    0.4111356500E+00    0.2030317767E-04    0.4652679939E-02
    0.1500000000E+02    0.1302787652E-04    0.1856476998E-04    0.4348240741E+00    0.2309240454E-04    0.4682108234E-02
    0.1700000000E+02    0.1344660314E-04    0.1915114387E-04    0.4548654386E+00    0.2585073532E-04    0.4707259606E-02
    0.1900000000E+02    0.1379105522E-04    0.1963293019E-04    0.4720417751E+00    0.2858280563E-04    0.4729032058E-02
    0.2100000000E+02    0.1408001378E-04    0.2003692484E-04    0.4869264445E+00    0.3129218296E-04    0.4748086341E-02
    0.2300000000E+02    0.1432697405E-04    0.2038233311E-04    0.4999493845E+00    0.3398169138E-04    0.4764919756E-02
    0.2500000000E+02    0.1454181520E-04    0.2068317677E-04    0.5114393155E+00    0.3665361787E-04    0.4779913956E-02
    0.2700000000E+02    0.1473188653E-04    0.2094985772E-04    0.5216518716E+00    0.3930984929E-04    0.4793366862E-02
    0.2900000000E+02    0.1490273219E-04    0.2119020000E-04    0.5307888427E+00    0.4195196690E-04    0.4805514542E-02
    0.3100000000E+02    0.1505858600E-04    0.2141015999E-04    0.5390116421E+00    0.4458131357E-04    0.4816546548E-02
    0.3300000000E+02    0.1520271596E-04    0.2161432032E-04    0.5464509242E+00    0.4719904275E-04    0.4826616901E-02
    0.3500000000E+02    0.1533766841E-04    0.2180623931E-04    0.5532135780E+00    0.4980615509E-04    0.4835852087E-02
    0.3700000000E+02    0.1546544391E-04    0.2198870231E-04    0.5593878955E+00    0.5240352628E-04    0.4844356984E-02
    0.3900000000E+02    0.1558762568E-04    0.2216390491E-04    0.5650474479E+00    0.5499192853E-04    0.4852219320E-02
    0.4100000000E+02    0.1570547465E-04    0.2233358838E-04    0.5702540304E+00    0.5757204755E-04    0.4859513062E-02
    0.4300000000E+02    0.1582000063E-04    0.2249914088E-04    0.5750599279E+00    0.6014449594E-04    0.4866301031E-02
    0.4500000000E+02    0.1593201619E-04    0.2266167386E-04    0.5795096770E+00    0.6270982406E-04    0.4872636942E-02
    0.4700000000E+02    0.1604217783E-04    0.2282208048E-04    0.5836414494E+00    0.6526852885E-04    0.4878567009E-02
    0.4900000000E+02    0.1615101770E-04    0.2298108042E-04    0.5874881503E+00    0.6782106105E-04    0.4884131220E-02
    0.1000000000E+02    0.1144891076E-04    0.1634456800E-04    0.3662429616E+00    0.1604708159E-04    0.4597633744E-02
    0.3000000000E+02    0.1498230944E-04    0.2130241383E-04    0.5350057195E+00    0.4326816055E-04    0.4811159651E-02
    0.5000000000E+02    0.1620508046E-04    0.2306023910E-04    0.5893136614E+00    0.6909514217E-04    0.4886787180E-02
    0.7000000000E+02    0.1728707013E-04    0.2466244983E-04    0.6161152589E+00    0.9433586950E-04    0.4927158599E-02
    0.9000000000E+02    0.1843751003E-04    0.2638435904E-04    0.6320843872E+00    0.1192702309E-03    0.4952839431E-02
    0.1100000000E+03    0.1967429438E-04    0.2824149598E-04    0.6426838047E+00    0.1440406507E-03    0.4970839779E-02
    0.1300000000E+03    0.2098750076E-04    0.3021487444E-04    0.6502317881E+00    0.1687332591E-03    0.4984247767E-02
    0.1500000000E+03    0.2236485590E-04    0.3228442960E-04    0.6558800309E+00    0.1934058115E-03    0.4994653264E-02
    0.1700000000E+03    0.2379608746E-04    0.3443406027E-04    0.6602654376E+00    0.2180998590E-03    0.5002966164E-02
    0.1900000000E+03    0.2527325376E-04    0.3665157602E-04    0.6637688386E+00    0.2428468843E-03    0.5009748816E-02
    0.2100000000E+03    0.2679033002E-04    0.3892785059E-04    0.6666319305E+00    0.2676717198E-03    0.5015369691E-02
    0.2300000000E+03    0.2834274924E-04    0.4125603223E-04    0.6690154970E+00    0.2925945984E-03    0.5020081590E-02
    0.2500000000E+03    0.2992703177E-04    0.4363094049E-04    0.6710306520E+00    0.3176324541E-03    0.5024064505E-02
    0.2700000000E+03    0.3154050927E-04    0.4604862877E-04    0.6727566447E+00    0.3427997866E-03    0.5027450573E-02
    0.2900000000E+03    0.3318112348E-04    0.4850607095E-04    0.6742515171E+00    0.3681092566E-03    0.5030339306E-02
    0.3100000000E+03    0.3484727990E-04    0.5100093605E-04    0.6755587534E+00    0.3935721088E-03    0.5032807301E-02
    0.3300000000E+03    0.3653774068E-04    0.5353142495E-04    0.6767115740E+00    0.4191984803E-03    0.5034914619E-02
    0.3500000000E+03    0.3825154555E-04    0.5609615049E-04    0.6777357956E+00    0.4449976310E-03    0.5036709130E-02
    0.3700000000E+03    0.3998795282E-04    0.5869404868E-04    0.6786517841E+00    0.4709781187E-03    0.5038229525E-02
    0.3900000000E+03    0.4174639484E-04    0.6132431187E-04    0.6794758216E+00    0.4971479342E-03    0.5039507472E-02
    0.4100000000E+03    0.4352644404E-04    0.6398633813E-04    0.6802210806E+00    0.5235146085E-03    0.5040569177E-02
    0.4300000000E+03    0.4532778678E-04    0.6667969235E-04    0.6808983328E+00    0.5500852971E-03    0.5041436540E-02
    0.4500000000E+03    0.4715020300E-04    0.6940407609E-04    0.6815164720E+00    0.5768668490E-03    0.5042128023E-02
    0.4700000000E+03    0.4899355027E-04    0.7215930403E-04    0.6820829064E+00    0.6038658627E-03    0.5042659316E-02
    0.4900000000E+03    0.5085775118E-04    0.7494528536E-04    0.6826038560E+00    0.6310887323E-03    0.5043043845E-02
    0.1000000000E+03    0.1904556175E-04    0.2729704605E-04    0.6378705314E+00    0.1316696751E-03    0.4962555942E-02
    0.3000000000E+03    0.3401109360E-04    0.4974894896E-04    0.6749263119E+00    0.3808208534E-03    0.5031621813E-02
    0.5000000000E+03    0.5179766280E-04    0.7634980231E-04    0.6828489504E+00    0.6447860649E-03    0.5043184751E-02
    0.7000000000E+03    0.7170790410E-04    0.1060848302E-03    0.6862964358E+00    0.9319551770E-03    0.5040410692E-02
    0.9000000000E+03    0.9388624829E-04    0.1391840881E-03    0.6882237927E+00    0.1248297771E-02    0.5029988230E-02
    0.1100000000E+04    0.1186681342E-03    0.1761544139E-03    0.6894539713E+00    0.1599970901E-02    0.5013925740E-02
    0.1300000000E+04    0.1465086788E-03    0.2176778989E-03    0.6903068181E+00    0.1994079446E-02    0.4992850007E-02
    0.1500000000E+04    0.1779875360E-03    0.2646208742E-03    0.6909325391E+00    0.2439209647E-02    0.4966774762E-02
    0.1700000000E+04    0.2138376091E-03    0.3180774479E-03    0.6914109885E+00    0.2946002456E-02    0.4935335875E-02
    0.1900000000E+04    0.2549909064E-03    0.3794382324E-03    0.6917885329E+00    0.3527879842E-02    0.4897857873E-02
    0.2100000000E+04    0.3026443402E-03    0.4504886573E-03    0.6920939366E+00    0.4202023892E-02    0.4853345719E-02
    0.2300000000E+04    0.3583526695E-03    0.5335477021E-03    0.6923459883E+00    0.4990734039E-02    0.4800428293E-02
    0.2500000000E+04    0.4241599560E-03    0.6316640513E-03    0.6925574793E+00    0.5923336871E-02    0.4737257127E-02
    0.2700000000E+04    0.5027859415E-03    0.7488941817E-03    0.6927374190E+00    0.7038893790E-02    0.4661353312E-02
    0.2900000000E+04    0.5978893947E-03    0.8906953105E-03    0.6928923357E+00    0.8390036537E-02    0.4569389630E-02
    0.3100000000E+04    0.7144338695E-03    0.1064471229E-02    0.6930270751E+00    0.1004831935E-01    0.4456894795E-02
    0.3300000000E+04    0.8591722677E-03    0.1280295608E-02    0.6931453096E+00    0.1211136692E-01    0.4317882577E-02
    0.3500000000E+04    0.1041214714E-02    0.1551760110E-02    0.6932498729E+00    0.1471138983E-01    0.4144470753E-02
    0.3700000000E+04    0.1272469641E-02    0.1896634403E-02    0.6933429863E+00    0.1802219151E-01    0.3926738109E-02
    0.3900000000E+04    0.1567276990E-02    0.2336322898E-02    0.6934264154E+00    0.2225508598E-01    0.3653520707E-02
    0.4100000000E+04    0.1939564800E-02    0.2891629765E-02    0.6935015813E+00    0.2761986956E-01    0.3315709359E-02
    0.4300000000E+04    0.2394761953E-02    0.3570703057E-02    0.6935696409E+00    0.3421048737E-01    0.2914309207E-02
    0.4500000000E+04    0.2915735272E-02    0.4348058092E-02    0.6936315449E+00    0.4180227937E-01    0.2472847988E-02
    0.4700000000E+04    0.3453201044E-02    0.5150252686E-02    0.6936880825E+00    0.4970679803E-01    0.2042952376E-02
    0.4900000000E+04    0.3941931030E-02    0.5880018062E-02    0.6937399135E+00    0.5699230030E-01    0.1684580832E-02
    0.1000000000E+04    0.1059260093E-03    0.1571467241E-03    0.6889000920E+00    0.1419302586E-02    0.5022603685E-02
    0.3000000000E+04    0.6531078579E-03    0.9730290545E-03    0.6929619751E+00    0.9175390977E-02    0.4516042512E-02
    0.5000000000E+04    0.4152925771E-02    0.6195215529E-02    0.6937642414E+00    0.6018251807E-01    0.1543981215E-02
    0.7000000000E+04    0.5881913843E-02    0.8788426045E-02    0.6941019028E+00    0.8964447982E-01    0.1095268013E-02
    0.9000000000E+04    0.6857733990E-02    0.1026253132E-01    0.6942858442E+00    0.1098330981E+00    0.1110131131E-02
    0.1100000000E+05    0.7632969265E-02    0.1144020586E-01    0.6944005051E+00    0.1282817209E+00    0.1122677492E-02
    0.1300000000E+05    0.8247562318E-02    0.1237993784E-01    0.6944781969E+00    0.1452563008E+00    0.1133212964E-02
    0.1500000000E+05    0.8731888590E-02    0.1312623866E-01    0.6945339147E+00    0.1609592635E+00    0.1142305488E-02
    0.1700000000E+05    0.9109869888E-02    0.1371420911E-01    0.6945755509E+00    0.1755553797E+00    0.1150310991E-02
    0.1900000000E+05    0.9400534020E-02    0.1417180861E-01    0.6946076476E+00    0.1891802376E+00    0.1157467274E-02
    0.2100000000E+05    0.9619151663E-02    0.1452150995E-01    0.6946329990E+00    0.2019465154E+00    0.1163941259E-02
    0.2300000000E+05    0.9778077313E-02    0.1478152378E-01    0.6946534161E+00    0.2139487029E+00    0.1169854705E-02
    0.2500000000E+05    0.9887379214E-02    0.1496671620E-01    0.6946701224E+00    0.2252667012E+00    0.1175299213E-02
    0.2700000000E+05    0.9955316679E-02    0.1508930454E-01    0.6946839734E+00    0.2359685988E+00    0.1180345460E-02
    0.2900000000E+05    0.9988705658E-02    0.1515939039E-01    0.6946955843E+00    0.2461128356E+00    0.1185049147E-02
    0.3100000000E+05    0.9993201458E-02    0.1518537215E-01    0.6947054087E+00    0.2557499053E+00    0.1189454962E-02
    0.3300000000E+05    0.9973519404E-02    0.1517426726E-01    0.6947137877E+00    0.2649237092E+00    0.1193599318E-02
    0.3500000000E+05    0.9933608510E-02    0.1513196593E-01    0.6947209829E+00    0.2736726391E+00    0.1197512283E-02
    0.3700000000E+05    0.9876789239E-02    0.1506343256E-01    0.6947271977E+00    0.2820304524E+00    0.1201218979E-02
    0.3900000000E+05    0.9805863586E-02    0.1497286687E-01    0.6947325925E+00    0.2900269841E+00    0.1204740617E-02
    0.4100000000E+05    0.9723203636E-02    0.1486383354E-01    0.6947372959E+00    0.2976887293E+00    0.1208095268E-02
    0.4300000000E+05    0.9630823264E-02    0.1473936739E-01    0.6947414115E+00    0.3050393235E+00    0.1211298459E-02
    0.4500000000E+05    0.9530436532E-02    0.1460205898E-01    0.6947450240E+00    0.3120999416E+00    0.1214363630E-02
    0.4700000000E+05    0.9423505518E-02    0.1445412493E-01    0.6947482030E+00    0.3188896302E+00    0.1217302493E-02
    0.4900000000E+05    0.9311279686E-02    0.1429746573E-01    0.6947510065E+00    0.3254255858E+00    0.1220125318E-02
    0.1000000000E+05    0.7267636857E-02    0.1088434011E-01    0.6943492057E+00    0.1192560827E+00    0.1116703659E-02
    0.3000000000E+05    0.9994250701E-02    0.1517742658E-01    0.6947006963E+00    0.2509918818E+00    0.1187286845E-02
    0.5000000000E+05    0.9253521670E-02    0.1421638366E-01    0.6947522829E+00    0.3286033407E+00    0.1221496088E-02
    0.7000000000E+05    0.8009866761E-02    0.1242808348E-01    0.6947665335E+00    0.3819536812E+00    0.1244547328E-02
    0.9000000000E+05    0.6831015333E-02    0.1069060646E-01    0.6947700518E+00    0.4213791747E+00    0.1262041403E-02
    0.1100000000E+06    0.5825989681E-02    0.9187327184E-02    0.6947694639E+00    0.4517826982E+00    0.1276183531E-02
    0.1300000000E+06    0.4994595043E-02    0.7930006969E-02    0.6947670816E+00    0.4759234093E+00    0.1288075687E-02
    0.1500000000E+06    0.4311583467E-02    0.6887781195E-02    0.6947638739E+00    0.4955183757E+00    0.1298349738E-02
    0.1700000000E+06    0.3749403100E-02    0.6023343399E-02    0.6947602957E+00    0.5117069134E+00    0.1307402427E-02
    0.1900000000E+06    0.3284102278E-02    0.5303053252E-02    0.6947565766E+00    0.5252792268E+00    0.1315499543E-02
    0.2100000000E+06    0.2896274043E-02    0.4699080659E-02    0.6947528375E+00    0.5368017054E+00    0.1322828036E-02
    0.2300000000E+06    0.2570591541E-02    0.4189128858E-02    0.6947491437E+00    0.5466909499E+00    0.1329524495E-02
    0.2500000000E+06    0.2295047062E-02    0.3755536949E-02    0.6947455303E+00    0.5552599608E+00    0.1335691811E-02
    0.2700000000E+06    0.2060233519E-02    0.3384345096E-02    0.6947420151E+00    0.5627481707E+00    0.1341409461E-02
    0.2900000000E+06    0.1858752539E-02    0.3064491225E-02    0.6947386064E+00    0.5693416140E+00    0.1346740130E-02
    0.3100000000E+06    0.1684751556E-02    0.2787167004E-02    0.6947353066E+00    0.5751868354E+00    0.1351734153E-02
    0.3300000000E+06    0.1533569496E-02    0.2545316459E-02    0.6947321149E+00    0.5804006958E+00    0.1356432569E-02
    0.3500000000E+06    0.1401467715E-02    0.2333250329E-02    0.6947290286E+00    0.5850774187E+00    0.1360869287E-02
    0.3700000000E+06    0.1285425876E-02    0.2146350505E-02    0.6947260438E+00    0.5892937392E+00    0.1365072651E-02
    0.3900000000E+06    0.1182986680E-02    0.1980843308E-02    0.6947231562E+00    0.5931127228E+00    0.1369066601E-02
    0.4100000000E+06    0.1092137198E-02    0.1833624949E-02    0.6947203611E+00    0.5965866359E+00    0.1372871545E-02
    0.4300000000E+06    0.1011217652E-02    0.1702126511E-02    0.6947176540E+00    0.5997591295E+00    0.1376505020E-02
    0.4500000000E+06    0.9388508472E-03    0.1584208912E-02    0.6947150304E+00    0.6026669196E+00    0.1379982213E-02
    0.4700000000E+06    0.8738872092E-03    0.1478080686E-02    0.6947124859E+00    0.6053410934E+00    0.1383316361E-02
    0.4900000000E+06    0.8153617035E-03    0.1382233232E-02    0.6947100164E+00    0.6078081335E+00    0.1386519075E-02
    0.1000000000E+06    0.6305709977E-02    0.9907193288E-02    0.6947700783E+00    0.4375036874E+00    0.1269447254E-02
    0.3000000000E+06    0.1768632775E-02    0.2920989960E-02    0.6947369428E+00    0.5723498465E+00    0.1349276468E-02
    0.5000000000E+06    0.7882536179E-03    0.1337757849E-02    0.6947088086E+00    0.6089711983E+00    0.1388074392E-02
    0.7000000000E+06    0.4409762717E-03    0.7625130012E-03    0.6946877616E+00    0.6254586576E+00    0.1414235006E-02
    0.9000000000E+06    0.2806058096E-03    0.4921627599E-03    0.6946710438E+00    0.6347385361E+00    0.1434094765E-02
    0.1100000000E+07    0.1938892171E-03    0.3439930839E-03    0.6946571782E+00    0.6406645519E+00    0.1450151981E-02
    0.1300000000E+07    0.1418444672E-03    0.2540860255E-03    0.6946453251E+00    0.6447684110E+00    0.1463655967E-02
    0.1500000000E+07    0.1082085921E-03    0.1954408033E-03    0.6946349668E+00    0.6477752964E+00    0.1475323376E-02
    0.1700000000E+07    0.8523490361E-04    0.1550641065E-03    0.6946257625E+00    0.6500717260E+00    0.1485604318E-02
    0.1900000000E+07    0.6885683818E-04    0.1260760032E-03    0.6946174763E+00    0.6518821658E+00    0.1494800396E-02
    0.2100000000E+07    0.5677486224E-04    0.1045567467E-03    0.6946099382E+00    0.6533457393E+00    0.1503123781E-02
    0.2300000000E+07    0.4760986212E-04    0.8813984269E-04    0.6946030215E+00    0.6545531964E+00    0.1510729512E-02
    0.2500000000E+07    0.4049430117E-04    0.7532773074E-04    0.6945966295E+00    0.6555662247E+00    0.1517734386E-02
    0.2700000000E+07    0.3486045498E-04    0.6513507242E-04    0.6945906863E+00    0.6564282042E+00    0.1524228628E-02
    0.2900000000E+07    0.3032423100E-04    0.5689192693E-04    0.6945851317E+00    0.6571705214E+00    0.1530283408E-02
    0.3100000000E+07    0.2661828608E-04    0.5012985330E-04    0.6945799168E+00    0.6578164416E+00    0.1535955876E-02
    0.3300000000E+07    0.2355191729E-04    0.4451327961E-04    0.6945750014E+00    0.6583835728E+00    0.1541292629E-02
    0.3500000000E+07    0.2098614737E-04    0.3979668364E-04    0.6945703523E+00    0.6588854855E+00    0.1546332168E-02
    0.3700000000E+07    0.1881776770E-04    0.3579705581E-04    0.6945659413E+00    0.6593328059E+00    0.1551106681E-02
    0.3900000000E+07    0.1696884011E-04    0.3237571288E-04    0.6945617446E+00    0.6597339728E+00    0.1555643353E-02
    0.4100000000E+07    0.1537962368E-04    0.2942600094E-04    0.6945577419E+00    0.6600957721E+00    0.1559965357E-02
    0.4300000000E+07    0.1400370713E-04    0.2686480407E-04    0.6945539156E+00    0.6604237230E+00    0.1564092611E-02
    0.4500000000E+07    0.1280459456E-04    0.2462656928E-04    0.6945502504E+00    0.6607223596E+00    0.1568042360E-02
    0.4700000000E+07    0.1175326924E-04    0.2265903009E-04    0.6945467329E+00    0.6609954413E+00    0.1571829639E-02
    0.4900000000E+07    0.1082642785E-04    0.2092009806E-04    0.6945433513E+00    0.6612461114E+00    0.1575467633E-02
    0.1000000000E+07    0.2313008361E-03    0.4081328927E-03    0.6946638170E+00    0.6379969360E+00    0.1442503240E-02
    0.3000000000E+07    0.2838084178E-04    0.5334924787E-04    0.6945824845E+00    0.6575043202E+00    0.1533164304E-02
    0.5000000000E+07    0.1040364194E-04    0.2012541357E-04    0.6945417082E+00    0.6613638864E+00    0.1577234336E-02
    0.7000000000E+07    0.5354795532E-05    0.1054573176E-04    0.6945139932E+00    0.6630099356E+00    0.1606950793E-02
    0.9000000000E+07    0.3260754481E-05    0.6502021902E-05    0.6944928729E+00    0.6639220189E+00    0.1629510208E-02
    0.1100000000E+08    0.2196219748E-05    0.4419085705E-05    0.6944757577E+00    0.6645014909E+00    0.1647750251E-02
    0.1300000000E+08    0.1582229365E-05    0.3205071613E-05    0.6944613420E+00    0.6649022192E+00    0.1663089995E-02
    0.1500000000E+08    0.1196178692E-05    0.2435144665E-05    0.6944488732E+00    0.6651958513E+00    0.1676343492E-02
    0.1700000000E+08    0.9377011927E-06    0.1915886174E-05    0.6944378768E+00    0.6654202583E+00    0.1688022033E-02
    0.1900000000E+08    0.7561539625E-06    0.1548895150E-05    0.6944280342E+00    0.6655973391E+00    0.1698468220E-02
    0.2100000000E+08    0.6237416818E-06    0.1279778386E-05    0.6944191209E+00    0.6657406373E+00    0.1707923067E-02
    0.2300000000E+08    0.5241780687E-06    0.1076464476E-05    0.6944109723E+00    0.6658589788E+00    0.1716562690E-02
    0.2500000000E+08    0.4474073062E-06    0.9190401478E-06    0.6944034646E+00    0.6659583616E+00    0.1724519767E-02
    0.2700000000E+08    0.3869481456E-06    0.7946058973E-06    0.6943965018E+00    0.6660430042E+00    0.1731896787E-02
