  Pressure (Pa) 22mC5-500 (mol/kg) 23mC5-500 (mol/kg) 24mC5-500 (mol/kg) 3mC6-500 (mol/kg) C7-500 (mol/kg)
    0.1000000000E+01    0.2256259189E-05    0.3239782118E-05    0.1266334862E+00    0.5868743727E-05    0.4181982756E-02
    0.3000000000E+01    0.4662607670E-05    0.6676109469E-05    0.2785280701E+00    0.1491602580E-04    0.4216893397E-02
    0.5000000000E+01    0.5880000276E-05    0.8403226565E-05    0.3664345513E+00    0.2321908606E-04    0.4234817778E-02
    0.7000000000E+01    0.6593460719E-05    0.9410561446E-05    0.4237521484E+00    0.3116626511E-04    0.4246227674E-02
    0.9000000000E+01    0.7059524794E-05    0.1006703849E-04    0.4640807912E+00    0.3888808545E-04    0.4254144355E-02
    0.1100000000E+02    0.7392433827E-05    0.1053619271E-04    0.4939988874E+00    0.4644971910E-04    0.4259938614E-02
    0.1300000000E+02    0.7649166926E-05    0.1089918596E-04    0.5170767401E+00    0.5388989585E-04    0.4264338779E-02
    0.1500000000E+02    0.7860518527E-05    0.1119964763E-04    0.5354195505E+00    0.6123410494E-04    0.4267770909E-02
    0.1700000000E+02    0.8044151679E-05    0.1146245619E-04    0.5503490146E+00    0.6850029986E-04    0.4270501870E-02
    0.1900000000E+02    0.8210667159E-05    0.1170244615E-04    0.5627367978E+00    0.7570175673E-04    0.4272707738E-02
    0.2100000000E+02    0.8366653830E-05    0.1192877081E-04    0.5731810513E+00    0.8284865970E-04    0.4274509582E-02
    0.2300000000E+02    0.8516319329E-05    0.1214722697E-04    0.5821058886E+00    0.8994904852E-04    0.4275993494E-02
    0.2500000000E+02    0.8662406577E-05    0.1236155711E-04    0.5898203913E+00    0.9700941836E-04    0.4277222435E-02
    0.2700000000E+02    0.8806730651E-05    0.1257420941E-04    0.5965551325E+00    0.1040351172E-03    0.4278243553E-02
    0.2900000000E+02    0.8950504400E-05    0.1278679702E-04    0.6024856154E+00    0.1110306192E-03    0.4279092882E-02
    0.3100000000E+02    0.9094541827E-05    0.1300038370E-04    0.6077477881E+00    0.1179997185E-03    0.4279798454E-02
    0.3300000000E+02    0.9239388354E-05    0.1321566601E-04    0.6124485928E+00    0.1249456703E-03    0.4280382414E-02
    0.3500000000E+02    0.9385406101E-05    0.1343309203E-04    0.6166733102E+00    0.1318712962E-03    0.4280862500E-02
    0.3700000000E+02    0.9532830749E-05    0.1365294012E-04    0.6204907795E+00    0.1387790635E-03    0.4281253091E-02
    0.3900000000E+02    0.9681810082E-05    0.1387537199E-04    0.6239571785E+00    0.1456711476E-03    0.4281565975E-02
    0.4100000000E+02    0.9832430478E-05    0.1410046900E-04    0.6271188065E+00    0.1525494793E-03    0.4281810910E-02
    0.4300000000E+02    0.9984735331E-05    0.1432825716E-04    0.6300141646E+00    0.1594157842E-03    0.4281996043E-02
    0.4500000000E+02    0.1013873799E-04    0.1455872466E-04    0.6326755306E+00    0.1662716128E-03    0.4282128236E-02
    0.4700000000E+02    0.1029443093E-04    0.1479183410E-04    0.6351301680E+00    0.1731183657E-03    0.4282213308E-02
    0.4900000000E+02    0.1045179231E-04    0.1502753117E-04    0.6374012633E+00    0.1799573145E-03    0.4282256231E-02
    0.1000000000E+02    0.7238216864E-05    0.1031874454E-04    0.4800718306E+00    0.4268609582E-04    0.4257251661E-02
    0.3000000000E+02    0.9022450940E-05    0.1289341497E-04    0.6051929754E+00    0.1145182545E-03    0.4279462136E-02
    0.5000000000E+02    0.1053108909E-04    0.1514633003E-04    0.6384742976E+00    0.1833742286E-03    0.4282263245E-02
    0.7000000000E+02    0.1219492716E-04    0.1764061372E-04    0.6538851960E+00    0.2515383657E-03    0.4280968420E-02
    0.9000000000E+02    0.1398013521E-04    0.2031634718E-04    0.6627724907E+00    0.3198080987E-03    0.4278045063E-02
    0.1100000000E+03    0.1585818700E-04    0.2312921276E-04    0.6685547983E+00    0.3886027081E-03    0.4274265468E-02
    0.1300000000E+03    0.1781272086E-04    0.2605455279E-04    0.6726172946E+00    0.4581899640E-03    0.4269951250E-02
    0.1500000000E+03    0.1983459273E-04    0.2907883160E-04    0.6756278923E+00    0.5287632427E-03    0.4265259997E-02
    0.1700000000E+03    0.2191876565E-04    0.3219471314E-04    0.6779482899E+00    0.6004748826E-03    0.4260277281E-02
    0.1900000000E+03    0.2406262911E-04    0.3539847760E-04    0.6797914117E+00    0.6734529184E-03    0.4255052764E-02
    0.2100000000E+03    0.2626507873E-04    0.3868862949E-04    0.6812907677E+00    0.7478103940E-03    0.4249616462E-02
    0.2300000000E+03    0.2852599327E-04    0.4206511537E-04    0.6825343193E+00    0.8236509677E-03    0.4243986826E-02
    0.2500000000E+03    0.3084592609E-04    0.4552886605E-04    0.6835823776E+00    0.9010725061E-03    0.4238175101E-02
    0.2700000000E+03    0.3322591696E-04    0.4908151950E-04    0.6844776760E+00    0.9801695150E-03    0.4232187807E-02
    0.2900000000E+03    0.3566737432E-04    0.5272524861E-04    0.6852513391E+00    0.1061034864E-02    0.4226028223E-02
    0.3100000000E+03    0.3817200027E-04    0.5646265203E-04    0.6859265741E+00    0.1143761068E-02    0.4219697320E-02
    0.3300000000E+03    0.4074174230E-04    0.6029668449E-04    0.6865210378E+00    0.1228441274E-02    0.4213194355E-02
    0.3500000000E+03    0.4337876241E-04    0.6423061258E-04    0.6870484020E+00    0.1315170060E-02    0.4206517268E-02
    0.3700000000E+03    0.4608541772E-04    0.6826798731E-04    0.6875194180E+00    0.1404044100E-02    0.4199662943E-02
    0.3900000000E+03    0.4886424919E-04    0.7241262834E-04    0.6879426568E+00    0.1495162751E-02    0.4192627394E-02
    0.4100000000E+03    0.5171797581E-04    0.7666861630E-04    0.6883250350E+00    0.1588628566E-02    0.4185405884E-02
    0.4300000000E+03    0.5464949302E-04    0.8104029120E-04    0.6886721957E+00    0.1684547783E-02    0.4177993012E-02
    0.4500000000E+03    0.5766187422E-04    0.8553225519E-04    0.6889887886E+00    0.1783030786E-02    0.4170382770E-02
    0.4700000000E+03    0.6075837478E-04    0.9014937907E-04    0.6892786795E+00    0.1884192555E-02    0.4162568580E-02
    0.4900000000E+03    0.6394243799E-04    0.9489681156E-04    0.6895451087E+00    0.1988153113E-02    0.4154543312E-02
    0.1000000000E+03    0.1490879758E-04    0.2170752125E-04    0.6659403398E+00    0.3541207368E-03    0.4276236568E-02
    0.3000000000E+03    0.3691167482E-04    0.5458206409E-04    0.6856000479E+00    0.1102159563E-02    0.4222884198E-02
    0.5000000000E+03    0.6556843488E-04    0.9732108137E-04    0.6896703973E+00    0.2041221934E-02    0.4150449149E-02
    0.7000000000E+03    0.1037120745E-03    0.1541807487E-03    0.6914288418E+00    0.3284372064E-02    0.4055270111E-02
    0.9000000000E+03    0.1566180789E-03    0.2330336087E-03    0.6924091489E+00    0.5008636139E-02    0.3925873852E-02
    0.1100000000E+04    0.2337888409E-03    0.3480484838E-03    0.6930341070E+00    0.7528582228E-02    0.3741589063E-02
    0.1300000000E+04    0.3532052446E-03    0.5260348030E-03    0.6934672016E+00    0.1144026467E-01    0.3464443279E-02
    0.1500000000E+04    0.5494050203E-03    0.8184968833E-03    0.6937849759E+00    0.1789581644E-01    0.3025278805E-02
    0.1700000000E+04    0.8786598045E-03    0.1309390140E-02    0.6940280420E+00    0.2880194332E-01    0.2324962423E-02
    0.1900000000E+04    0.1360038059E-02    0.2027339784E-02    0.6942199487E+00    0.4493148379E-01    0.1383856205E-02
    0.2100000000E+04    0.1823614561E-02    0.2719242906E-02    0.6943752911E+00    0.6083000949E-01    0.6191050812E-03
    0.2300000000E+04    0.2114369093E-02    0.3153874029E-02    0.6945035959E+00    0.7129025052E-01    0.2964825412E-03
    0.2500000000E+04    0.2295973733E-02    0.3425957922E-02    0.6946113459E+00    0.7827642571E-01    0.2073358204E-03
    0.2700000000E+04    0.2438272511E-02    0.3639562560E-02    0.6947031054E+00    0.8405806678E-01    0.1865135850E-03
    0.2900000000E+04    0.2565799167E-02    0.3831254337E-02    0.6947821809E+00    0.8944091203E-01    0.1822293075E-03
    0.3100000000E+04    0.2685271216E-02    0.4011042409E-02    0.6948510267E+00    0.9464411218E-01    0.1817507086E-03
    0.3300000000E+04    0.2798555361E-02    0.4181702794E-02    0.6949115024E+00    0.9972530165E-01    0.1821212391E-03
    0.3500000000E+04    0.2906298647E-02    0.4344192609E-02    0.6949650430E+00    0.1047012633E+00    0.1826622744E-03
    0.3700000000E+04    0.3008840216E-02    0.4499010009E-02    0.6950127732E+00    0.1095785688E+00    0.1832194680E-03
    0.3900000000E+04    0.3106434944E-02    0.4646527852E-02    0.6950555873E+00    0.1143611665E+00    0.1837592090E-03
    0.4100000000E+04    0.3199308450E-02    0.4787075771E-02    0.6950942052E+00    0.1190522548E+00    0.1842756418E-03
    0.4300000000E+04    0.3287671012E-02    0.4920960930E-02    0.6951292127E+00    0.1236547505E+00    0.1847691414E-03
    0.4500000000E+04    0.3371721443E-02    0.5048473786E-02    0.6951610916E+00    0.1281714094E+00    0.1852413245E-03
    0.4700000000E+04    0.3451648489E-02    0.5169890148E-02    0.6951902417E+00    0.1326048612E+00    0.1856939101E-03
    0.4900000000E+04    0.3527631578E-02    0.5285472280E-02    0.6952169975E+00    0.1369576229E+00    0.1861284798E-03
    0.1000000000E+04    0.1913184317E-03    0.2847506037E-03    0.6927527766E+00    0.6140956773E-02    0.3842422882E-02
    0.3000000000E+04    0.2626376366E-02    0.3922389785E-02    0.6948177547E+00    0.9205972515E-01    0.1817925801E-03
    0.5000000000E+04    0.3564197806E-02    0.5341153971E-02    0.6952295675E+00    0.1391045026E+00    0.1863394562E-03
    0.7000000000E+04    0.4125780544E-02    0.6203082488E-02    0.6954050668E+00    0.1783421549E+00    0.1898828725E-03
    0.9000000000E+04    0.4443309268E-02    0.6701727529E-02    0.6955019597E+00    0.2117223170E+00    0.1925676388E-03
    0.1100000000E+05    0.4599673408E-02    0.6958851854E-02    0.6955632157E+00    0.2405661431E+00    0.1947359707E-03
    0.1300000000E+05    0.4648551174E-02    0.7053609787E-02    0.6956053375E+00    0.2658091388E+00    0.1965582422E-03
    0.1500000000E+05    0.4625517814E-02    0.7038690511E-02    0.6956360129E+00    0.2881342989E+00    0.1981319207E-03
    0.1700000000E+05    0.4554589944E-02    0.6949840353E-02    0.6956593049E+00    0.3080535358E+00    0.1995181096E-03
    0.1900000000E+05    0.4452216897E-02    0.6811679421E-02    0.6956775609E+00    0.3259593563E+00    0.2007576979E-03
    0.2100000000E+05    0.4329788186E-02    0.6641362627E-02    0.6956922313E+00    0.3421587307E+00    0.2018794210E-03
    0.2300000000E+05    0.4195249381E-02    0.6450944147E-02    0.6957042604E+00    0.3568959271E+00    0.2029042600E-03
    0.2500000000E+05    0.4054166621E-02    0.6248938976E-02    0.6957142885E+00    0.3703682991E+00    0.2038480112E-03
    0.2700000000E+05    0.3910441422E-02    0.6041374452E-02    0.6957227656E+00    0.3827374502E+00    0.2047228704E-03
    0.2900000000E+05    0.3766798719E-02    0.5832510429E-02    0.6957300169E+00    0.3941372907E+00    0.2055384539E-03
    0.3100000000E+05    0.3625124943E-02    0.5625339859E-02    0.6957362828E+00    0.4046799595E+00    0.2063024807E-03
    0.3300000000E+05    0.3486705180E-02    0.5421941266E-02    0.6957417455E+00    0.4144602509E+00    0.2070212427E-03
    0.3500000000E+05    0.3352391379E-02    0.5223729748E-02    0.6957465449E+00    0.4235589742E+00    0.2076999370E-03
    0.3700000000E+05    0.3222722766E-02    0.5031637471E-02    0.6957507905E+00    0.4320455386E+00    0.2083429077E-03
    0.3900000000E+05    0.3098012759E-02    0.4846244570E-02    0.6957545692E+00    0.4399799687E+00    0.2089538227E-03
    0.4100000000E+05    0.2978412117E-02    0.4667874752E-02    0.6957579508E+00    0.4474144942E+00    0.2095358084E-03
    0.4300000000E+05    0.2863955078E-02    0.4496665552E-02    0.6957609919E+00    0.4543948164E+00    0.2100915513E-03
    0.4500000000E+05    0.2754593208E-02    0.4332620211E-02    0.6957637390E+00    0.4609611290E+00    0.2106233772E-03
    0.4700000000E+05    0.2650220315E-02    0.4175646118E-02    0.6957662306E+00    0.4671489464E+00    0.2111333133E-03
    0.4900000000E+05    0.2550690813E-02    0.4025583376E-02    0.6957684987E+00    0.4729897837E+00    0.2116231377E-03
    0.1000000000E+05    0.4537756651E-02    0.6854765377E-02    0.6955357009E+00    0.2266456506E+00    0.1937033298E-03
    0.3000000000E+05    0.3695623550E-02    0.5728565471E-02    0.6957332605E+00    0.3995094841E+00    0.2059264897E-03
    0.5000000000E+05    0.2502689475E-02    0.3953080741E-02    0.6957695576E+00    0.4757889796E+00    0.2118610052E-03
    0.7000000000E+05    0.1750837852E-02    0.2806122716E-02    0.6957837568E+00    0.5189870880E+00    0.2158617066E-03
    0.9000000000E+05    0.1279430855E-02    0.2075001288E-02    0.6957908842E+00    0.5466515982E+00    0.2188986065E-03
    0.1100000000E+06    0.9708899063E-03    0.1590331083E-02    0.6957949301E+00    0.5658011560E+00    0.2213539581E-03
    0.1300000000E+06    0.7598672727E-03    0.1255363894E-02    0.6957973886E+00    0.5798004613E+00    0.2234188643E-03
    0.1500000000E+06    0.6099011780E-03    0.1015193179E-02    0.6957989381E+00    0.5904590958E+00    0.2252029330E-03
    0.1700000000E+06    0.4998171537E-03    0.8375280647E-03    0.6957999276E+00    0.5988335261E+00    0.2267749996E-03
    0.1900000000E+06    0.4167721221E-03    0.7025830151E-03    0.6958005534E+00    0.6055802283E+00    0.2281811854E-03
    0.2100000000E+06    0.3526571937E-03    0.5977585583E-03    0.6958009335E+00    0.6111277358E+00    0.2294539344E-03
    0.2300000000E+06    0.3021672138E-03    0.5147503844E-03    0.6958011422E+00    0.6157672091E+00    0.2306169533E-03
    0.2500000000E+06    0.2617214969E-03    0.4479167735E-03    0.6958012288E+00    0.6197031485E+00    0.2316881012E-03
    0.2700000000E+06    0.2288364320E-03    0.3933215416E-03    0.6958012265E+00    0.6230832626E+00    0.2326811737E-03
    0.2900000000E+06    0.2017475544E-03    0.3481533401E-03    0.6958011586E+00    0.6260168215E+00    0.2336070527E-03
    0.3100000000E+06    0.1791744894E-03    0.3103621712E-03    0.6958010419E+00    0.6285863481E+00    0.2344744765E-03
    0.3300000000E+06    0.1601705099E-03    0.2784254131E-03    0.6958008886E+00    0.6308552996E+00    0.2352905696E-03
    0.3500000000E+06    0.1440237462E-03    0.2511933816E-03    0.6958007075E+00    0.6328732540E+00    0.2360612189E-03
    0.3700000000E+06    0.1301908021E-03    0.2277850583E-03    0.6958005057E+00    0.6346794952E+00    0.2367913456E-03
    0.3900000000E+06    0.1182512119E-03    0.2075162423E-03    0.6958002881E+00    0.6363055450E+00    0.2374851064E-03
    0.4100000000E+06    0.1078756023E-03    0.1898491173E-03    0.6958000587E+00    0.6377769839E+00    0.2381460442E-03
    0.4300000000E+06    0.9880305242E-04    0.1743562543E-03    0.6957998208E+00    0.6391147846E+00    0.2387772045E-03
    0.4500000000E+06    0.9082474282E-04    0.1606945205E-03    0.6957995765E+00    0.6403363017E+00    0.2393812239E-03
    0.4700000000E+06    0.8377197703E-04    0.1485859016E-03    0.6957993279E+00    0.6414560178E+00    0.2399604012E-03
    0.4900000000E+06    0.7750729118E-04    0.1378032227E-03    0.6957990765E+00    0.6424861127E+00    0.2405167524E-03
    0.1000000000E+06    0.1109788474E-02    0.1809199857E-02    0.6957931701E+00    0.5570293209E+00    0.2201843742E-03
    0.3000000000E+06    0.1899621832E-03    0.3284410402E-03    0.6958011055E+00    0.6273427462E+00    0.2340475934E-03
    0.5000000000E+06    0.7463438250E-04    0.1328493169E-03    0.6957989501E+00    0.6429708388E+00    0.2407869321E-03
    0.7000000000E+06    0.3948827720E-04    0.7166334481E-04    0.6957964585E+00    0.6497941143E+00    0.2453315632E-03
    0.9000000000E+06    0.2436060968E-04    0.4485369902E-04    0.6957941967E+00    0.6536124800E+00    0.2487818176E-03
    0.1100000000E+07    0.1650725245E-04    0.3074519582E-04    0.6957921931E+00    0.6560515377E+00    0.2515715775E-03
    0.1300000000E+07    0.1191736937E-04    0.2240823153E-04    0.6957904117E+00    0.6577439656E+00    0.2539178259E-03
    0.1500000000E+07    0.9005762012E-05    0.1707051562E-04    0.6957888135E+00    0.6589869545E+00    0.2559450382E-03
    0.1700000000E+07    0.7044319327E-05    0.1344591652E-04    0.6957873666E+00    0.6599384910E+00    0.2577313971E-03
    0.1900000000E+07    0.5660715814E-05    0.1087116007E-04    0.6957860455E+00    0.6606902995E+00    0.2593292914E-03
    0.2100000000E+07    0.4648541629E-05    0.8975815435E-05    0.6957848304E+00    0.6612992775E+00    0.2607755766E-03
    0.2300000000E+07    0.3885910159E-05    0.7539704424E-05    0.6957837056E+00    0.6618025893E+00    0.2620971845E-03
    0.2500000000E+07    0.3297098321E-05    0.6425233258E-05    0.6957826586E+00    0.6622255367E+00    0.2633144045E-03
    0.2700000000E+07    0.2833057246E-05    0.5542800202E-05    0.6957816792E+00    0.6625859418E+00    0.2644429100E-03
    0.2900000000E+07    0.2460886009E-05    0.4832008027E-05    0.6957807591E+00    0.6628967203E+00    0.2654950646E-03
    0.3100000000E+07    0.2157850036E-05    0.4250933749E-05    0.6957798914E+00    0.6631674611E+00    0.2664807964E-03
    0.3300000000E+07    0.1907832964E-05    0.3769734019E-05    0.6957790705E+00    0.6634054323E+00    0.2674082006E-03
    0.3500000000E+07    0.1699153141E-05    0.3366692947E-05    0.6957782914E+00    0.6636162436E+00    0.2682839659E-03
    0.3700000000E+07    0.1523176401E-05    0.3025701134E-05    0.6957775499E+00    0.6638042932E+00    0.2691136840E-03
    0.3900000000E+07    0.1373409813E-05    0.2734602568E-05    0.6957768426E+00    0.6639730787E+00    0.2699020778E-03
    0.4100000000E+07    0.1244894858E-05    0.2484083829E-05    0.6957761664E+00    0.6641254158E+00    0.2706531734E-03
    0.4300000000E+07    0.1133792129E-05    0.2266911338E-05    0.6957755186E+00    0.6642635972E+00    0.2713704311E-03
    0.4500000000E+07    0.1037091451E-05    0.2077397286E-05    0.6957748968E+00    0.6643895082E+00    0.2720568469E-03
    0.4700000000E+07    0.9524059487E-06    0.1911019106E-05    0.6957742989E+00    0.6645047139E+00    0.2727150329E-03
    0.4900000000E+07    0.8778233899E-06    0.1764143984E-05    0.6957737233E+00    0.6646105238E+00    0.2733472799E-03
    0.1000000000E+07    0.1986523388E-04    0.3679839851E-04    0.6957931645E+00    0.6549531226E+00    0.2502426815E-03
    0.3000000000E+07    0.2301857998E-05    0.4527349340E-05    0.6957803191E+00    0.6630365958E+00    0.2659956901E-03
    0.5000000000E+07    0.8438255151E-06    0.1697077185E-05    0.6957734432E+00    0.6646602573E+00    0.2736543171E-03
    0.7000000000E+07    0.4389123803E-06    0.8913957918E-06    0.6957686910E+00    0.6653567237E+00    0.2788189447E-03
    0.9000000000E+07    0.2713880450E-06    0.5528360000E-06    0.6957650395E+00    0.6657438162E+00    0.2827399190E-03
    0.1100000000E+08    0.1861441654E-06    0.3786900979E-06    0.6957620651E+00    0.6659902188E+00    0.2859102954E-03
    0.1300000000E+08    0.1368400689E-06    0.2771769599E-06    0.6957595507E+00    0.6661608440E+00    0.2885766536E-03
    0.1500000000E+08    0.1057152212E-06    0.2127274465E-06    0.6957573698E+00    0.6662859940E+00    0.2908804495E-03
    0.1700000000E+08    0.8477382974E-07    0.1691860017E-06    0.6957554421E+00    0.6663817146E+00    0.2929105313E-03
    0.1900000000E+08    0.6998323111E-07    0.1383451194E-06    0.6957537136E+00    0.6664572968E+00    0.2947264351E-03
    0.2100000000E+08    0.5912957168E-07    0.1156714696E-06    0.6957521457E+00    0.6665184929E+00    0.2963700448E-03
    0.2300000000E+08    0.5091470815E-07    0.9849301493E-07    0.6957507104E+00    0.6665690550E+00    0.2978719663E-03
    0.2500000000E+08    0.4453620606E-07    0.8515070403E-07    0.6957493864E+00    0.6666115345E+00    0.2992552574E-03
    0.2700000000E+08    0.3947612898E-07    0.7456958022E-07    0.6957481571E+00    0.6666477271E+00    0.3005377297E-03
