  Pressure (Pa) 22mC5-500 (mol/kg) 23mC5-500 (mol/kg) 24mC5-500 (mol/kg) 3mC6-500 (mol/kg) C7-500 (mol/kg)
    0.1000000000E+01    0.2056401976E-05    0.1771007998E-05    0.1741138070E+00    0.7186102857E-05    0.4167526543E-02
    0.3000000000E+01    0.3816952036E-05    0.3276218308E-05    0.3481448420E+00    0.1808872223E-04    0.4190792356E-02
    0.5000000000E+01    0.4568997004E-05    0.3914650419E-05    0.4351295292E+00    0.2805878039E-04    0.4199373016E-02
    0.7000000000E+01    0.4986565204E-05    0.4268652954E-05    0.4873105678E+00    0.3758705299E-04    0.4203968604E-02
    0.9000000000E+01    0.5267005638E-05    0.4507515177E-05    0.5220938905E+00    0.4683743329E-04    0.4206736361E-02
    0.1100000000E+02    0.5484506245E-05    0.4694378317E-05    0.5469371597E+00    0.5589146612E-04    0.4208494653E-02
    0.1300000000E+02    0.5671421611E-05    0.4856535752E-05    0.5655685463E+00    0.6479748985E-04    0.4209632396E-02
    0.1500000000E+02    0.5843300183E-05    0.5006968796E-05    0.5800589967E+00    0.7358725615E-04    0.4210360090E-02
    0.1700000000E+02    0.6008120914E-05    0.5152256595E-05    0.5916509629E+00    0.8228309480E-04    0.4210802168E-02
    0.1900000000E+02    0.6170160670E-05    0.5295871002E-05    0.6011350387E+00    0.9090149704E-04    0.4211037096E-02
    0.2100000000E+02    0.6331771335E-05    0.5439682188E-05    0.6090382563E+00    0.9945510000E-04    0.4211116884E-02
    0.2300000000E+02    0.6494256652E-05    0.5584697041E-05    0.6157254671E+00    0.1079538711E-03    0.4211077406E-02
    0.2500000000E+02    0.6658329730E-05    0.5731441848E-05    0.6214572689E+00    0.1164058569E-03    0.4210944222E-02
    0.2700000000E+02    0.6824362610E-05    0.5880169492E-05    0.6264247605E+00    0.1248176791E-03    0.4210736044E-02
    0.2900000000E+02    0.6992527348E-05    0.6030975583E-05    0.6307712619E+00    0.1331948745E-03    0.4210466889E-02
    0.3100000000E+02    0.7162878064E-05    0.6183865334E-05    0.6346063681E+00    0.1415421369E-03    0.4210147467E-02
    0.3300000000E+02    0.7335399744E-05    0.6338792868E-05    0.6380153180E+00    0.1498634924E-03    0.4209786102E-02
    0.3500000000E+02    0.7510037742E-05    0.6495684664E-05    0.6410654040E+00    0.1581624303E-03    0.4209389359E-02
    0.3700000000E+02    0.7686715820E-05    0.6654453628E-05    0.6438104591E+00    0.1664420015E-03    0.4208962487E-02
    0.3900000000E+02    0.7865347239E-05    0.6815007560E-05    0.6462940621E+00    0.1747048961E-03    0.4208509733E-02
    0.4100000000E+02    0.8045841559E-05    0.6977254188E-05    0.6485518674E+00    0.1829535023E-03    0.4208034568E-02
    0.4300000000E+02    0.8228108766E-05    0.7141104095E-05    0.6506133287E+00    0.1911899545E-03    0.4207539856E-02
    0.4500000000E+02    0.8412061722E-05    0.7306472342E-05    0.6525029903E+00    0.1994161715E-03    0.4207027979E-02
    0.4700000000E+02    0.8597617535E-05    0.7473279270E-05    0.6542414692E+00    0.2076338874E-03    0.4206500938E-02
    0.4900000000E+02    0.8784698274E-05    0.7641450816E-05    0.6558462105E+00    0.2158446769E-03    0.4205960421E-02
    0.1000000000E+02    0.5381035058E-05    0.4605257497E-05    0.5354712377E+00    0.5138545897E-04    0.4207711495E-02
    0.3000000000E+02    0.7077429193E-05    0.6107162003E-05    0.6327469276E+00    0.1373719817E-03    0.4210312894E-02
    0.5000000000E+02    0.8878787565E-05    0.7726026709E-05    0.6566031610E+00    0.2199479282E-03    0.4205685567E-02
    0.7000000000E+02    0.1082573547E-04    0.9475337394E-05    0.6673868921E+00    0.3019417501E-03    0.4199737338E-02
    0.9000000000E+02    0.1287064504E-04    0.1131096063E-04    0.6735322337E+00    0.3843460014E-03    0.4193275087E-02
    0.1100000000E+03    0.1499258244E-04    0.1321423834E-04    0.6775021100E+00    0.4676902277E-03    0.4186522268E-02
    0.1300000000E+03    0.1718255930E-04    0.1517735785E-04    0.6802779582E+00    0.5523201146E-03    0.4179559001E-02
    0.1500000000E+03    0.1943702399E-04    0.1719734329E-04    0.6823280366E+00    0.6384922024E-03    0.4172416736E-02
    0.1700000000E+03    0.2175514637E-04    0.1927360810E-04    0.6839040642E+00    0.7264148075E-03    0.4165106950E-02
    0.1900000000E+03    0.2413759081E-04    0.2140686484E-04    0.6851534187E+00    0.8162685718E-03    0.4157631793E-02
    0.2100000000E+03    0.2658591791E-04    0.2359859949E-04    0.6861681237E+00    0.9082179430E-03    0.4149988604E-02
    0.2300000000E+03    0.2910227509E-04    0.2585080220E-04    0.6870086063E+00    0.1002418140E-02    0.4142172013E-02
    0.2500000000E+03    0.3168922978E-04    0.2816582350E-04    0.6877161856E+00    0.1099019678E-02    0.4134174986E-02
    0.2700000000E+03    0.3434967753E-04    0.3054629611E-04    0.6883200725E+00    0.1198171500E-02    0.4125989367E-02
    0.2900000000E+03    0.3708679171E-04    0.3299509262E-04    0.6888415019E+00    0.1300023257E-02    0.4117606170E-02
    0.3100000000E+03    0.3990399744E-04    0.3551530425E-04    0.6892962813E+00    0.1404727072E-02    0.4109015724E-02
    0.3300000000E+03    0.4280496024E-04    0.3811023219E-04    0.6896964204E+00    0.1512438975E-02    0.4100207751E-02
    0.3500000000E+03    0.4579358426E-04    0.4078338701E-04    0.6900512070E+00    0.1623320119E-02    0.4091171392E-02
    0.3700000000E+03    0.4887401684E-04    0.4353849365E-04    0.6903679369E+00    0.1737537869E-02    0.4081895210E-02
    0.3900000000E+03    0.5205065771E-04    0.4637950020E-04    0.6906524208E+00    0.1855266811E-02    0.4072367170E-02
    0.4100000000E+03    0.5532817166E-04    0.4931058977E-04    0.6909093436E+00    0.1976689717E-02    0.4062574612E-02
    0.4300000000E+03    0.5871150417E-04    0.5233619480E-04    0.6911425248E+00    0.2101998500E-02    0.4052504211E-02
    0.4500000000E+03    0.6220589952E-04    0.5546101356E-04    0.6913551092E+00    0.2231395172E-02    0.4042141932E-02
    0.4700000000E+03    0.6581692130E-04    0.5869002873E-04    0.6915497098E+00    0.2365092834E-02    0.4031472978E-02
    0.4900000000E+03    0.6955047513E-04    0.6202852792E-04    0.6917285154E+00    0.2503316698E-02    0.4020481736E-02
    0.1000000000E+03    0.1392272324E-04    0.1225478862E-04    0.6757098988E+00    0.4258762140E-03    0.4189928282E-02
    0.3000000000E+03    0.3848515961E-04    0.3424607010E-04    0.6890763980E+00    0.1352009012E-02    0.4113337482E-02
    0.5000000000E+03    0.7146514676E-04    0.6374057533E-04    0.6918125840E+00    0.2574199910E-02    0.4014860137E-02
    0.7000000000E+03    0.1179987925E-03    0.1053466989E-03    0.6929915113E+00    0.4297837731E-02    0.3880815571E-02
    0.9000000000E+03    0.1878291316E-03    0.1677811117E-03    0.6936479821E+00    0.6890500059E-02    0.3686396387E-02
    0.1100000000E+04    0.3005568113E-03    0.2685761598E-03    0.6940662347E+00    0.1109128889E-01    0.3383812444E-02
    0.1300000000E+04    0.4967889761E-03    0.4440602767E-03    0.6943559834E+00    0.1844176037E-01    0.2880045935E-02
    0.1500000000E+04    0.8445257799E-03    0.7551035867E-03    0.6945685399E+00    0.3157195997E-01    0.2042559095E-02
    0.1700000000E+04    0.1335305166E-02    0.1194296966E-02    0.6947311091E+00    0.5038161337E-01    0.9872508270E-03
    0.1900000000E+04    0.1730779555E-02    0.1548572637E-02    0.6948594573E+00    0.6604866796E-01    0.3300437461E-03
    0.2100000000E+04    0.1956030039E-02    0.1750785206E-02    0.6949633522E+00    0.7556730942E-01    0.1330436843E-03
    0.2300000000E+04    0.2111231153E-02    0.1890438922E-02    0.6950491680E+00    0.8258686708E-01    0.9134284680E-04
    0.2500000000E+04    0.2244320007E-02    0.2010393254E-02    0.6951212408E+00    0.8889313493E-01    0.8348149562E-04
    0.2700000000E+04    0.2367413742E-02    0.2121481309E-02    0.6951826231E+00    0.9493782588E-01    0.8224051682E-04
    0.2900000000E+04    0.2483359291E-02    0.2226244154E-02    0.6952355262E+00    0.1008223409E+00    0.8225980153E-04
    0.3100000000E+04    0.2592996980E-02    0.2325427603E-02    0.6952815907E+00    0.1065716303E+00    0.8250722796E-04
    0.3300000000E+04    0.2696738126E-02    0.2419393833E-02    0.6953220600E+00    0.1121944526E+00    0.8278499156E-04
    0.3500000000E+04    0.2794892791E-02    0.2508414745E-02    0.6953578933E+00    0.1176960298E+00    0.8305610630E-04
    0.3700000000E+04    0.2887737903E-02    0.2592732947E-02    0.6953898425E+00    0.1230806880E+00    0.8331463635E-04
    0.3900000000E+04    0.2975532026E-02    0.2672574949E-02    0.6954185053E+00    0.1283524165E+00    0.8356054420E-04
    0.4100000000E+04    0.3058519114E-02    0.2748154512E-02    0.6954443629E+00    0.1335149928E+00    0.8379479768E-04
    0.4300000000E+04    0.3136929951E-02    0.2819673914E-02    0.6954678068E+00    0.1385720169E+00    0.8401843084E-04
    0.4500000000E+04    0.3210983068E-02    0.2887324751E-02    0.6954891592E+00    0.1435269261E+00    0.8423237976E-04
    0.4700000000E+04    0.3280885501E-02    0.2951288597E-02    0.6955086870E+00    0.1483830052E+00    0.8443746823E-04
    0.4900000000E+04    0.3346833488E-02    0.3011737613E-02    0.6955266141E+00    0.1531433947E+00    0.8463441990E-04
    0.1000000000E+04    0.2369643671E-03    0.2117139953E-03    0.6938779773E+00    0.8719331609E-02    0.3553060446E-02
    0.3000000000E+04    0.2538936932E-02    0.2276507114E-02    0.6952593278E+00    0.1037131962E+00    0.8237426754E-04
    0.5000000000E+04    0.3378383094E-02    0.3040695422E-02    0.6955350374E+00    0.1554886499E+00    0.8473004680E-04
    0.7000000000E+04    0.3842157571E-02    0.3470796437E-02    0.6956527433E+00    0.1980355748E+00    0.8633702060E-04
    0.9000000000E+04    0.4071710563E-02    0.3691161131E-02    0.6957178579E+00    0.2337448198E+00    0.8755548624E-04
    0.1100000000E+05    0.4153203221E-02    0.3777840481E-02    0.6957591102E+00    0.2642248173E+00    0.8853998960E-04
    0.1300000000E+05    0.4140660647E-02    0.3778746113E-02    0.6957875386E+00    0.2906006853E+00    0.8936759693E-04
    0.1500000000E+05    0.4068724385E-02    0.3724767440E-02    0.6958082886E+00    0.3136854721E+00    0.9008244061E-04
    0.1700000000E+05    0.3959986974E-02    0.3636176302E-02    0.6958240804E+00    0.3340831689E+00    0.9071220683E-04
    0.1900000000E+05    0.3829362887E-02    0.3526451873E-02    0.6958364873E+00    0.3522532026E+00    0.9127543169E-04
    0.2100000000E+05    0.3686772592E-02    0.3404635413E-02    0.6958464815E+00    0.3685522341E+00    0.9178514679E-04
    0.2300000000E+05    0.3538833237E-02    0.3276817953E-02    0.6958546965E+00    0.3832620829E+00    0.9225086996E-04
    0.2500000000E+05    0.3389947004E-02    0.3147101195E-02    0.6958615624E+00    0.3966088909E+00    0.9267976867E-04
    0.2700000000E+05    0.3243014863E-02    0.3018230060E-02    0.6958673812E+00    0.4087765903E+00    0.9307737787E-04
    0.2900000000E+05    0.3099912164E-02    0.2892015937E-02    0.6958723715E+00    0.4199165741E+00    0.9344806250E-04
    0.3100000000E+05    0.2961809862E-02    0.2769623861E-02    0.6958766954E+00    0.4301547739E+00    0.9379532679E-04
    0.3300000000E+05    0.2829393982E-02    0.2651769711E-02    0.6958804751E+00    0.4395969300E+00    0.9412202741E-04
    0.3500000000E+05    0.2703016996E-02    0.2538856989E-02    0.6958838050E+00    0.4483325782E+00    0.9443052436E-04
    0.3700000000E+05    0.2582803051E-02    0.2431072480E-02    0.6958867591E+00    0.4564381085E+00    0.9472279026E-04
    0.3900000000E+05    0.2468721557E-02    0.2328453605E-02    0.6958893958E+00    0.4639791412E+00    0.9500049101E-04
    0.4100000000E+05    0.2360638859E-02    0.2230936082E-02    0.6958917622E+00    0.4710123965E+00    0.9526504652E-04
    0.4300000000E+05    0.2258354611E-02    0.2138387768E-02    0.6958938967E+00    0.4775871792E+00    0.9551767707E-04
    0.4500000000E+05    0.2161627379E-02    0.2050632716E-02    0.6958958307E+00    0.4837465707E+00    0.9575943915E-04
    0.4700000000E+05    0.2070192624E-02    0.1967468279E-02    0.6958975901E+00    0.4895283941E+00    0.9599125369E-04
    0.4900000000E+05    0.1983775262E-02    0.1888677222E-02    0.6958991968E+00    0.4949660025E+00    0.9621392835E-04
    0.1000000000E+05    0.4127018964E-02    0.3747718061E-02    0.6957405696E+00    0.2495592675E+00    0.8807109165E-04
    0.3000000000E+05    0.3030183764E-02    0.2830288716E-02    0.6958746083E+00    0.4251413670E+00    0.9362443048E-04
    0.5000000000E+05    0.1942361457E-02    0.1850851992E-02    0.6958999486E+00    0.4975650885E+00    0.9632206414E-04
    0.7000000000E+05    0.1314683087E-02    0.1271975808E-02    0.6959101894E+00    0.5371221778E+00    0.9814088632E-04
    0.9000000000E+05    0.9401131072E-03    0.9207779395E-03    0.6959155313E+00    0.5619369051E+00    0.9952162288E-04
    0.1100000000E+06    0.7026690050E-03    0.6952803605E-03    0.6959187070E+00    0.5789018833E+00    0.1006379959E-03
    0.1300000000E+06    0.5438582731E-03    0.5428672626E-03    0.6959207491E+00    0.5912080091E+00    0.1015768671E-03
    0.1500000000E+06    0.4328353650E-03    0.4353625059E-03    0.6959221309E+00    0.6005304061E+00    0.1023880606E-03
    0.1700000000E+06    0.3523541893E-03    0.3568252240E-03    0.6959230983E+00    0.6078305129E+00    0.1031028683E-03
    0.1900000000E+06    0.2922378111E-03    0.2977571685E-03    0.6959237910E+00    0.6136984632E+00    0.1037422574E-03
    0.2100000000E+06    0.2461933314E-03    0.2522365296E-03    0.6959242939E+00    0.6185160209E+00    0.1043209776E-03
    0.2300000000E+06    0.2101705915E-03    0.2164245082E-03    0.6959246612E+00    0.6225408229E+00    0.1048498069E-03
    0.2500000000E+06    0.1814718233E-03    0.1877477609E-03    0.6959249292E+00    0.6259528977E+00    0.1053368648E-03
    0.2700000000E+06    0.1582460444E-03    0.1644305108E-03    0.6959251226E+00    0.6288817658E+00    0.1057884233E-03
    0.2900000000E+06    0.1391901420E-03    0.1452160460E-03    0.6959252593E+00    0.6314229490E+00    0.1062094302E-03
    0.3100000000E+06    0.1233657908E-03    0.1291951069E-03    0.6959253520E+00    0.6336484141E+00    0.1066038582E-03
    0.3300000000E+06    0.1100837654E-03    0.1156968541E-03    0.6959254102E+00    0.6356133962E+00    0.1069749468E-03
    0.3500000000E+06    0.9882879337E-04    0.1042176919E-03    0.6959254411E+00    0.6373609846E+00    0.1073253725E-03
    0.3700000000E+06    0.8920952680E-04    0.9437366658E-04    0.6959254501E+00    0.6389252811E+00    0.1076573728E-03
    0.3900000000E+06    0.8092449590E-04    0.8586793468E-04    0.6959254415E+00    0.6403336233E+00    0.1079728376E-03
    0.4100000000E+06    0.7373847620E-04    0.7846809195E-04    0.6959254187E+00    0.6416081794E+00    0.1082733780E-03
    0.4300000000E+06    0.6746578804E-04    0.7199009378E-04    0.6959253843E+00    0.6427671132E+00    0.1085603785E-03
    0.4500000000E+06    0.6195830171E-04    0.6628666614E-04    0.6959253404E+00    0.6438254482E+00    0.1088350381E-03
    0.4700000000E+06    0.5709669398E-04    0.6123883035E-04    0.6959252887E+00    0.6447957168E+00    0.1090984019E-03
    0.4900000000E+06    0.5278398767E-04    0.5674962133E-04    0.6959252306E+00    0.6456884556E+00    0.1093513867E-03
    0.1000000000E+06    0.8088005285E-03    0.7963895454E-03    0.6959173056E+00    0.5711507517E+00    0.1001062182E-03
    0.3000000000E+06    0.1309219051E-03    0.1368529251E-03    0.6959253105E+00    0.6325713643E+00    0.1064097492E-03
    0.5000000000E+06    0.5080806236E-04    0.5468903495E-04    0.6959251996E+00    0.6461085941E+00    0.1094742433E-03
    0.7000000000E+06    0.2673725161E-04    0.2934577808E-04    0.6959244339E+00    0.6520268444E+00    0.1115407987E-03
    0.9000000000E+06    0.1644382551E-04    0.1831275346E-04    0.6959236062E+00    0.6553432300E+00    0.1131097285E-03
    0.1100000000E+07    0.1112022335E-04    0.1252833978E-04    0.6959228207E+00    0.6574638497E+00    0.1143783204E-03
    0.1300000000E+07    0.8016547241E-05    0.9118599283E-05    0.6959220957E+00    0.6589364944E+00    0.1154452387E-03
    0.1500000000E+07    0.6051181779E-05    0.6939313665E-05    0.6959214301E+00    0.6600187410E+00    0.1163670841E-03
    0.1700000000E+07    0.4728935755E-05    0.5461382971E-05    0.6959208177E+00    0.6608476396E+00    0.1171794076E-03
    0.1900000000E+07    0.3797185835E-05    0.4412588144E-05    0.6959202520E+00    0.6615028189E+00    0.1179060312E-03
    0.2100000000E+07    0.3116133719E-05    0.3641170943E-05    0.6959197271E+00    0.6620337054E+00    0.1185637141E-03
    0.2300000000E+07    0.2603344052E-05    0.3057056182E-05    0.6959192378E+00    0.6624726011E+00    0.1191647025E-03
    0.2500000000E+07    0.2207661779E-05    0.2604018428E-05    0.6959187796E+00    0.6628415079E+00    0.1197182227E-03
    0.2700000000E+07    0.1895983111E-05    0.2245478021E-05    0.6959183491E+00    0.6631559301E+00    0.1202314016E-03
    0.2900000000E+07    0.1646120464E-05    0.1956797571E-05    0.6959179430E+00    0.6634271074E+00    0.1207098614E-03
    0.3100000000E+07    0.1442752668E-05    0.1720887367E-05    0.6959175587E+00    0.6636633872E+00    0.1211581167E-03
    0.3300000000E+07    0.1275025087E-05    0.1525589050E-05    0.6959171941E+00    0.6638710985E+00    0.1215798484E-03
    0.3500000000E+07    0.1135074015E-05    0.1362059979E-05    0.6959168471E+00    0.6640551272E+00    0.1219780981E-03
    0.3700000000E+07    0.1017089882E-05    0.1223743432E-05    0.6959165162E+00    0.6642193051E+00    0.1223554086E-03
    0.3900000000E+07    0.9167056464E-06    0.1105693756E-05    0.6959161998E+00    0.6643666797E+00    0.1227139275E-03
    0.4100000000E+07    0.8305875189E-06    0.1004123171E-05    0.6959158968E+00    0.6644997052E+00    0.1230554856E-03
    0.4300000000E+07    0.7561549846E-06    0.9160907302E-06    0.6959156061E+00    0.6646203799E+00    0.1233816563E-03
    0.4500000000E+07    0.6913854798E-06    0.8392846331E-06    0.6959153266E+00    0.6647303477E+00    0.1236938022E-03
    0.4700000000E+07    0.6346756873E-06    0.7718671850E-06    0.6959150575E+00    0.6648309730E+00    0.1239931109E-03
    0.4900000000E+07    0.5847414450E-06    0.7123625989E-06    0.6959147981E+00    0.6649233979E+00    0.1242806241E-03
    0.1000000000E+07    0.1339462361E-04    0.1500807846E-04    0.6959232062E+00    0.6565086060E+00    0.1137740286E-03
    0.3000000000E+07    0.1539387189E-05    0.1833099119E-05    0.6959177483E+00    0.6635491745E+00    0.1209375176E-03
    0.5000000000E+07    0.5619826739E-06    0.6851946712E-06    0.6959146718E+00    0.6649668422E+00    0.1244202489E-03
    0.7000000000E+07    0.2911356021E-06    0.3590237467E-06    0.6959125185E+00    0.6655753774E+00    0.1267688655E-03
    0.9000000000E+07    0.1792542933E-06    0.2221206937E-06    0.6959108534E+00    0.6659137166E+00    0.1285519419E-03
    0.1100000000E+08    0.1224054773E-06    0.1517690015E-06    0.6959094917E+00    0.6661291313E+00    0.1299936887E-03
    0.1300000000E+08    0.8957118124E-07    0.1107959613E-06    0.6959083372E+00    0.6662783201E+00    0.1312062353E-03
    0.1500000000E+08    0.6887320657E-07    0.8480514592E-07    0.6959073336E+00    0.6663877585E+00    0.1322539077E-03
    0.1700000000E+08    0.5496776957E-07    0.6726118625E-07    0.6959064449E+00    0.6664714689E+00    0.1331771089E-03
    0.1900000000E+08    0.4516150145E-07    0.5484547036E-07    0.6959056468E+00    0.6665375721E+00    0.1340029127E-03
    0.2100000000E+08    0.3797672163E-07    0.4572578083E-07    0.6959049218E+00    0.6665910963E+00    0.1347503655E-03
    0.2300000000E+08    0.3254749239E-07    0.3882260719E-07    0.6959042574E+00    0.6666353216E+00    0.1354333853E-03
    0.2500000000E+08    0.2833887166E-07    0.3346594939E-07    0.6959036438E+00    0.6666724787E+00    0.1360624575E-03
    0.2700000000E+08    0.2500579099E-07    0.2922185698E-07    0.6959030736E+00    0.6667041377E+00    0.1366456820E-03
