  Pressure (Pa) 22mC5-500 (mol/kg) 23mC5-500 (mol/kg) 24mC5-500 (mol/kg) 3mC6-500 (mol/kg) C7-500 (mol/kg)
    0.1000000000E+01    0.1940026383E-05    0.1669618620E-05    0.1949988259E+00    0.4000660073E-05    0.4189045155E-02
    0.3000000000E+01    0.3438721681E-05    0.2948593060E-05    0.3749000115E+00    0.1022859030E-04    0.4220326336E-02
    0.5000000000E+01    0.4028484623E-05    0.3447929083E-05    0.4597265711E+00    0.1595381834E-04    0.4234047183E-02
    0.7000000000E+01    0.4347421023E-05    0.3718014158E-05    0.5090936432E+00    0.2143563473E-04    0.4241980259E-02
    0.9000000000E+01    0.4564214039E-05    0.3903066572E-05    0.5413917285E+00    0.2676161485E-04    0.4247160029E-02
    0.1100000000E+02    0.4737929565E-05    0.4053085545E-05    0.5641685463E+00    0.3197561435E-04    0.4250797155E-02
    0.1300000000E+02    0.4892822331E-05    0.4188363071E-05    0.5810934466E+00    0.3710375232E-04    0.4253477121E-02
    0.1500000000E+02    0.5039884129E-05    0.4317962464E-05    0.5941649365E+00    0.4216324873E-04    0.4255519522E-02
    0.1700000000E+02    0.5184406074E-05    0.4446164159E-05    0.6045645084E+00    0.4716625014E-04    0.4257114329E-02
    0.1900000000E+02    0.5329013760E-05    0.4575035701E-05    0.6130354330E+00    0.5212174943E-04    0.4258381900E-02
    0.2100000000E+02    0.5475009609E-05    0.4705560067E-05    0.6200686924E+00    0.5703665203E-04    0.4259402373E-02
    0.2300000000E+02    0.5623011382E-05    0.4838167936E-05    0.6260016498E+00    0.6191641384E-04    0.4260231277E-02
    0.2500000000E+02    0.5773273285E-05    0.4973002816E-05    0.6310737718E+00    0.6676544550E-04    0.4260908371E-02
    0.2700000000E+02    0.5925854469E-05    0.5110058618E-05    0.6354597361E+00    0.7158738049E-04    0.4261462913E-02
    0.2900000000E+02    0.6080710341E-05    0.5249253185E-05    0.6392899544E+00    0.7638525970E-04    0.4261916943E-02
    0.3100000000E+02    0.6237743169E-05    0.5390468352E-05    0.6426637595E+00    0.8116166241E-04    0.4262287397E-02
    0.3300000000E+02    0.6396830507E-05    0.5533571955E-05    0.6456581426E+00    0.8591880175E-04    0.4262587517E-02
    0.3500000000E+02    0.6557841219E-05    0.5678429852E-05    0.6483337001E+00    0.9065859589E-04    0.4262827819E-02
    0.3700000000E+02    0.6720644416E-05    0.5824912338E-05    0.6507387773E+00    0.9538272201E-04    0.4263016763E-02
    0.3900000000E+02    0.6885114294E-05    0.5972897355E-05    0.6529124150E+00    0.1000926581E-03    0.4263161243E-02
    0.4100000000E+02    0.7051132583E-05    0.6122271900E-05    0.6548864858E+00    0.1047897158E-03    0.4263266931E-02
    0.4300000000E+02    0.7218589601E-05    0.6272932388E-05    0.6566872666E+00    0.1094750664E-03    0.4263338547E-02
    0.4500000000E+02    0.7387384499E-05    0.6424784456E-05    0.6583366150E+00    0.1141497614E-03    0.4263380045E-02
    0.4700000000E+02    0.7557425053E-05    0.6577742467E-05    0.6598528613E+00    0.1188147504E-03    0.4263394771E-02
    0.4900000000E+02    0.7728627211E-05    0.6731728870E-05    0.6612514919E+00    0.1234708943E-03    0.4263385573E-02
    0.1000000000E+02    0.4654486002E-05    0.3980801005E-05    0.5536862228E+00    0.2938070491E-04    0.4249126100E-02
    0.3000000000E+02    0.6158961941E-05    0.5319616302E-05    0.6410286534E+00    0.7877599965E-04    0.4262111716E-02
    0.5000000000E+02    0.7814639719E-05    0.6809085528E-05    0.6619108965E+00    0.1257958971E-03    0.4263372780E-02
    0.7000000000E+02    0.9580741279E-05    0.8396441640E-05    0.6712824023E+00    0.1719904448E-03    0.4262304308E-02
    0.9000000000E+02    0.1140904337E-04    0.1003792606E-04    0.6766041044E+00    0.2178949588E-03    0.4260315510E-02
    0.1100000000E+03    0.1327997984E-04    0.1171631505E-04    0.6800346131E+00    0.2637838698E-03    0.4257845494E-02
    0.1300000000E+03    0.1518499069E-04    0.1342423626E-04    0.6824298954E+00    0.3098258258E-03    0.4255078842E-02
    0.1500000000E+03    0.1712018167E-04    0.1515842101E-04    0.6841970843E+00    0.3561366887E-03    0.4252107439E-02
    0.1700000000E+03    0.1908385650E-04    0.1691750788E-04    0.6855545698E+00    0.4028025154E-03    0.4248982258E-02
    0.1900000000E+03    0.2107544384E-04    0.1870109984E-04    0.6866300133E+00    0.4498910952E-03    0.4245733751E-02
    0.2100000000E+03    0.2309498704E-04    0.2050932050E-04    0.6875030298E+00    0.4974583563E-03    0.4242381074E-02
    0.2300000000E+03    0.2514288391E-04    0.2234259007E-04    0.6882258471E+00    0.5455522002E-03    0.4238936712E-02
    0.2500000000E+03    0.2721974672E-04    0.2420150588E-04    0.6888341495E+00    0.5942149322E-03    0.4235408991E-02
    0.2700000000E+03    0.2932632364E-04    0.2608677616E-04    0.6893531476E+00    0.6434848767E-03    0.4231803517E-02
    0.2900000000E+03    0.3146345327E-04    0.2799918214E-04    0.6898011578E+00    0.6933974923E-03    0.4228124053E-02
    0.3100000000E+03    0.3363203789E-04    0.2993955598E-04    0.6901918086E+00    0.7439861684E-03    0.4224373067E-02
    0.3300000000E+03    0.3583302746E-04    0.3190876794E-04    0.6905354498E+00    0.7952828100E-03    0.4220552094E-02
    0.3500000000E+03    0.3806741014E-04    0.3390771885E-04    0.6908400827E+00    0.8473182793E-03    0.4216661977E-02
    0.3700000000E+03    0.4033620681E-04    0.3593733602E-04    0.6911119902E+00    0.9001227367E-03    0.4212703034E-02
    0.3900000000E+03    0.4264046814E-04    0.3799857112E-04    0.6913561750E+00    0.9537259103E-03    0.4208675170E-02
    0.4100000000E+03    0.4498127320E-04    0.4009239947E-04    0.6915766696E+00    0.1008157314E-02    0.4204577969E-02
    0.4300000000E+03    0.4735972923E-04    0.4221982007E-04    0.6917767605E+00    0.1063446424E-02    0.4200410746E-02
    0.4500000000E+03    0.4977697199E-04    0.4438185623E-04    0.6919591534E+00    0.1119622835E-02    0.4196172598E-02
    0.4700000000E+03    0.5223416671E-04    0.4657955661E-04    0.6921260957E+00    0.1176716383E-02    0.4191862435E-02
    0.4900000000E+03    0.5473250928E-04    0.4881399647E-04    0.6922794701E+00    0.1234757262E-02    0.4187479002E-02
    0.1000000000E+03    0.1233987192E-04    0.1087310496E-04    0.6784866124E+00    0.2408291892E-03    0.4259125942E-02
    0.3000000000E+03    0.3254375531E-04    0.2896581947E-04    0.6900029422E+00    0.7186052997E-03    0.4226257386E-02
    0.5000000000E+03    0.5599749347E-04    0.4994533735E-04    0.6923515756E+00    0.1264142508E-02    0.4185259378E-02
    0.7000000000E+03    0.8378045698E-04    0.7479081518E-04    0.6933622826E+00    0.1909499553E-02    0.4136607518E-02
    0.9000000000E+03    0.1173801452E-03    0.1048356648E-03    0.6939246332E+00    0.2690687399E-02    0.4078263839E-02
    0.1100000000E+04    0.1588774837E-03    0.1419422191E-03    0.6942826885E+00    0.3657033540E-02    0.4007058622E-02
    0.1300000000E+04    0.2113116724E-03    0.1888294778E-03    0.6945305927E+00    0.4880388537E-02    0.3918321132E-02
    0.1500000000E+04    0.2792801671E-03    0.2496102976E-03    0.6947123553E+00    0.6469552570E-02    0.3805056292E-02
    0.1700000000E+04    0.3699569723E-03    0.3307027625E-03    0.6948513011E+00    0.8594696324E-02    0.3656540827E-02
    0.1900000000E+04    0.4948074327E-03    0.4423650753E-03    0.6949609440E+00    0.1152870645E-01    0.3456061266E-02
    0.2100000000E+04    0.6722141256E-03    0.6010468717E-03    0.6950496542E+00    0.1571131050E-01    0.3177797436E-02
    0.2300000000E+04    0.9299937187E-03    0.8316465675E-03    0.6951228921E+00    0.2181369726E-01    0.2785150683E-02
    0.2500000000E+04    0.1300595058E-02    0.1163228681E-02    0.6951843718E+00    0.3063595818E-01    0.2242450917E-02
    0.2700000000E+04    0.1787314853E-02    0.1598816459E-02    0.6952367075E+00    0.4232003398E-01    0.1570006151E-02
    0.2900000000E+04    0.2303721016E-02    0.2061173657E-02    0.6952817921E+00    0.5489119141E-01    0.9221085895E-03
    0.3100000000E+04    0.2718114485E-02    0.2432485708E-02    0.6953210302E+00    0.6523116294E-01    0.4865334145E-03
    0.3300000000E+04    0.2998239569E-02    0.2683817223E-02    0.6953554859E+00    0.7250811197E-01    0.2753311084E-03
    0.3500000000E+04    0.3192983321E-02    0.2858840546E-02    0.6953859801E+00    0.7782853254E-01    0.1913462938E-03
    0.3700000000E+04    0.3346899866E-02    0.2997391904E-02    0.6954131560E+00    0.8223041732E-01    0.1609131262E-03
    0.3900000000E+04    0.3482117088E-02    0.3119261949E-02    0.6954375250E+00    0.8623454627E-01    0.1503986886E-03
    0.4100000000E+04    0.3607679570E-02    0.3232540536E-02    0.6954594986E+00    0.9005451515E-01    0.1469628880E-03
    0.4300000000E+04    0.3727084385E-02    0.3340354686E-02    0.6954794115E+00    0.9377233970E-01    0.1460015491E-03
    0.4500000000E+04    0.3841703228E-02    0.3443929600E-02    0.6954975392E+00    0.9741922994E-01    0.1458969049E-03
    0.4700000000E+04    0.3952119615E-02    0.3543785105E-02    0.6955141102E+00    0.1010074503E+00    0.1460836105E-03
    0.4900000000E+04    0.4058626304E-02    0.3640180821E-02    0.6955293153E+00    0.1045422695E+00    0.1463643320E-03
    0.1000000000E+04    0.1369796535E-03    0.1223613283E-03    0.6941215526E+00    0.3146886758E-02    0.4044518268E-02
    0.3000000000E+04    0.2528843931E-02    0.2262843847E-02    0.6953020688E+00    0.6046639625E-01    0.6722307502E-03
    0.5000000000E+04    0.4110473069E-02    0.3687133828E-02    0.6955364571E+00    0.1062905387E+00    0.1465162339E-03
    0.7000000000E+04    0.4974774140E-02    0.4473231334E-02    0.6956360297E+00    0.1388420238E+00    0.1492724693E-03
    0.9000000000E+04    0.5573726097E-02    0.5023651080E-02    0.6956908389E+00    0.1674401314E+00    0.1513778174E-03
    0.1100000000E+05    0.5978337585E-02    0.5400761445E-02    0.6957253865E+00    0.1928277850E+00    0.1530791054E-03
    0.1300000000E+05    0.6239206858E-02    0.5649104230E-02    0.6957490712E+00    0.2155652949E+00    0.1545093720E-03
    0.1500000000E+05    0.6392992225E-02    0.5801031642E-02    0.6957662672E+00    0.2360839922E+00    0.1557448242E-03
    0.1700000000E+05    0.6466626197E-02    0.5880379227E-02    0.6957792836E+00    0.2547218137E+00    0.1568332793E-03
    0.1900000000E+05    0.6480133508E-02    0.5904923694E-02    0.6957894535E+00    0.2717477160E+00    0.1578067553E-03
    0.2100000000E+05    0.6448555077E-02    0.5888062415E-02    0.6957975996E+00    0.2873787941E+00    0.1586877649E-03
    0.2300000000E+05    0.6383286020E-02    0.5839982637E-02    0.6958042569E+00    0.3017925199E+00    0.1594927517E-03
    0.2500000000E+05    0.6293021634E-02    0.5768489107E-02    0.6958097882E+00    0.3151356480E+00    0.1602340995E-03
    0.2700000000E+05    0.6184436153E-02    0.5679598716E-02    0.6958144479E+00    0.3275308002E+00    0.1609213720E-03
    0.2900000000E+05    0.6062676287E-02    0.5577973520E-02    0.6958184198E+00    0.3390814055E+00    0.1615621115E-03
    0.3100000000E+05    0.5931724387E-02    0.5467239923E-02    0.6958218396E+00    0.3498754577E+00    0.1621623736E-03
    0.3300000000E+05    0.5794668605E-02    0.5350226535E-02    0.6958248101E+00    0.3599884068E+00    0.1627270946E-03
    0.3500000000E+05    0.5653905808E-02    0.5229143190E-02    0.6958274101E+00    0.3694854129E+00    0.1632603530E-03
    0.3700000000E+05    0.5511295380E-02    0.5105716917E-02    0.6958297012E+00    0.3784231187E+00    0.1637655578E-03
    0.3900000000E+05    0.5368276700E-02    0.4981296042E-02    0.6958317324E+00    0.3868510597E+00    0.1642455881E-03
    0.4100000000E+05    0.5225959559E-02    0.4856930502E-02    0.6958335428E+00    0.3948127957E+00    0.1647028976E-03
    0.4300000000E+05    0.5085194195E-02    0.4733434215E-02    0.6958351642E+00    0.4023468261E+00    0.1651395955E-03
    0.4500000000E+05    0.4946625870E-02    0.4611433823E-02    0.6958366227E+00    0.4094873375E+00    0.1655575075E-03
    0.4700000000E+05    0.4810737624E-02    0.4491406988E-02    0.6958379398E+00    0.4162648180E+00    0.1659582255E-03
    0.4900000000E+05    0.4677883942E-02    0.4373712636E-02    0.6958391335E+00    0.4227065662E+00    0.1663431452E-03
    0.1000000000E+05    0.5796773308E-02    0.5230746373E-02    0.6957098812E+00    0.1804967059E+00    0.1522687994E-03
    0.3000000000E+05    0.5998138029E-02    0.5523552126E-02    0.6958201916E+00    0.3445680202E+00    0.1618669710E-03
    0.5000000000E+05    0.4612677355E-02    0.4315825848E-02    0.6958396889E+00    0.4258093051E+00    0.1665300712E-03
    0.7000000000E+05    0.3494886298E-02    0.3312329691E-02    0.6958469689E+00    0.4750629544E+00    0.1696741596E-03
    0.9000000000E+05    0.2696821325E-02    0.2583549701E-02    0.6958504111E+00    0.5080940982E+00    0.1720609845E-03
    0.1100000000E+06    0.2128563652E-02    0.2057975903E-02    0.6958522146E+00    0.5317131427E+00    0.1739908265E-03
    0.1300000000E+06    0.1716005042E-02    0.1672440467E-02    0.6958531926E+00    0.5493917207E+00    0.1756138320E-03
    0.1500000000E+06    0.1409444380E-02    0.1383440756E-02    0.6958537098E+00    0.5630903233E+00    0.1770161267E-03
    0.1700000000E+06    0.1176494448E-02    0.1162157286E-02    0.6958539512E+00    0.5739986908E+00    0.1782518028E-03
    0.1900000000E+06    0.9958498916E-03    0.9893993508E-03    0.6958540193E+00    0.5828792902E+00    0.1793571048E-03
    0.2100000000E+06    0.8532126658E-03    0.8521616248E-03    0.6958539747E+00    0.5902423707E+00    0.1803575300E-03
    0.2300000000E+06    0.7387706595E-03    0.7414455501E-03    0.6958538549E+00    0.5964417018E+00    0.1812717096E-03
    0.2500000000E+06    0.6456411104E-03    0.6508939883E-03    0.6958536843E+00    0.6017299339E+00    0.1821136797E-03
    0.2700000000E+06    0.5688959545E-03    0.5759265093E-03    0.6958534791E+00    0.6062921026E+00    0.1828942827E-03
    0.2900000000E+06    0.5049394909E-03    0.5131821373E-03    0.6958532504E+00    0.6102666966E+00    0.1836220713E-03
    0.3100000000E+06    0.4511026196E-03    0.4601531820E-03    0.6958530058E+00    0.6137593442E+00    0.1843039134E-03
    0.3300000000E+06    0.4053727874E-03    0.4149398854E-03    0.6958527509E+00    0.6168519599E+00    0.1849454088E-03
    0.3500000000E+06    0.3662107079E-03    0.3760829070E-03    0.6958524895E+00    0.6196090103E+00    0.1855511844E-03
    0.3700000000E+06    0.3324236760E-03    0.3424469130E-03    0.6958522246E+00    0.6220819009E+00    0.1861251082E-03
    0.3900000000E+06    0.3030765007E-03    0.3131383315E-03    0.6958519582E+00    0.6243121082E+00    0.1866704473E-03
    0.4100000000E+06    0.2774278932E-03    0.2874463506E-03    0.6958516918E+00    0.6263334556E+00    0.1871899866E-03
    0.4300000000E+06    0.2548843701E-03    0.2647999835E-03    0.6958514267E+00    0.6281737928E+00    0.1876861196E-03
    0.4500000000E+06    0.2349663956E-03    0.2447364130E-03    0.6958511636E+00    0.6298562529E+00    0.1881609190E-03
    0.4700000000E+06    0.2172832024E-03    0.2268773640E-03    0.6958509031E+00    0.6314002069E+00    0.1886161914E-03
    0.4900000000E+06    0.2015138483E-03    0.2109112677E-03    0.6958506456E+00    0.6328219951E+00    0.1890535215E-03
    0.1000000000E+06    0.2389234918E-02    0.2299802704E-02    0.6958514509E+00    0.5208145012E+00    0.1730715566E-03
    0.3000000000E+06    0.4768947958E-03    0.4855839511E-03    0.6958531297E+00    0.6120676728E+00    0.1839683599E-03
    0.5000000000E+06    0.1942620417E-03    0.2035555353E-03    0.6958505181E+00    0.6334914972E+00    0.1892659015E-03
    0.7000000000E+06    0.1044027410E-03    0.1115327355E-03    0.6958481661E+00    0.6429448696E+00    0.1928383135E-03
    0.9000000000E+06    0.6495556383E-04    0.7041116850E-04    0.6958461698E+00    0.6482562421E+00    0.1955504836E-03
    0.1100000000E+07    0.4424190654E-04    0.4852255771E-04    0.6958444565E+00    0.6516556919E+00    0.1977434626E-03
    0.1300000000E+07    0.3204558676E-04    0.3549135229E-04    0.6958429607E+00    0.6540171988E+00    0.1995878107E-03
    0.1500000000E+07    0.2426852854E-04    0.2710430398E-04    0.6958416350E+00    0.6557528325E+00    0.2011813735E-03
    0.1700000000E+07    0.1900940798E-04    0.2138693443E-04    0.6958404448E+00    0.6570821467E+00    0.2025856072E-03
    0.1900000000E+07    0.1528887046E-04    0.1731349354E-04    0.6958393650E+00    0.6581328014E+00    0.2038416934E-03
    0.2100000000E+07    0.1256097846E-04    0.1430791623E-04    0.6958383767E+00    0.6589840689E+00    0.2049786029E-03
    0.2300000000E+07    0.1050195397E-04    0.1202629886E-04    0.6958374654E+00    0.6596877676E+00    0.2060175060E-03
    0.2500000000E+07    0.8909945609E-05    0.1025297036E-04    0.6958366198E+00    0.6602791968E+00    0.2069743518E-03
    0.2700000000E+07    0.7653831769E-05    0.8847076604E-05    0.6958358309E+00    0.6607832318E+00    0.2078614607E-03
    0.2900000000E+07    0.6645448705E-05    0.7713442187E-05    0.6958350915E+00    0.6612179061E+00    0.2086885515E-03
    0.3100000000E+07    0.5823752024E-05    0.6785867554E-05    0.6958343956E+00    0.6615966123E+00    0.2094634285E-03
    0.3300000000E+07    0.5145393011E-05    0.6017144338E-05    0.6958337383E+00    0.6619295041E+00    0.2101924550E-03
    0.3500000000E+07    0.4578904235E-05    0.5372868034E-05    0.6958331153E+00    0.6622244194E+00    0.2108808889E-03
    0.3700000000E+07    0.4100997216E-05    0.4827482242E-05    0.6958325233E+00    0.6624875052E+00    0.2115331258E-03
    0.3900000000E+07    0.3694138974E-05    0.4361679526E-05    0.6958319592E+00    0.6627236498E+00    0.2121528783E-03
    0.4100000000E+07    0.3344926518E-05    0.3960651854E-05    0.6958314204E+00    0.6629367896E+00    0.2127433111E-03
    0.4300000000E+07    0.3042972616E-05    0.3612887324E-05    0.6958309047E+00    0.6631301296E+00    0.2133071444E-03
    0.4500000000E+07    0.2780127040E-05    0.3309326493E-05    0.6958304102E+00    0.6633063061E+00    0.2138467333E-03
    0.4700000000E+07    0.2549922635E-05    0.3042760469E-05    0.6958299351E+00    0.6634675073E+00    0.2143641310E-03
    0.4900000000E+07    0.2347175005E-05    0.2807394685E-05    0.6958294780E+00    0.6636155644E+00    0.2148611385E-03
    0.1000000000E+07    0.5312100593E-04    0.5793737497E-04    0.6958452823E+00    0.6501241758E+00    0.1966988409E-03
    0.3000000000E+07    0.6214307440E-05    0.7227206778E-05    0.6958347385E+00    0.6614135574E+00    0.2090820897E-03
    0.5000000000E+07    0.2254754230E-05    0.2699907092E-05    0.6958292557E+00    0.6636851564E+00    0.2151024995E-03
    0.7000000000E+07    0.1154574999E-05    0.1408223029E-05    0.6958254936E+00    0.6646597733E+00    0.2191624061E-03
    0.9000000000E+07    0.7005683443E-06    0.8656606258E-06    0.6958226131E+00    0.6652014881E+00    0.2222446878E-03
    0.1100000000E+08    0.4704792537E-06    0.5870060080E-06    0.6958202718E+00    0.6655463131E+00    0.2247369295E-03
    0.1300000000E+08    0.3380595116E-06    0.4249237379E-06    0.6958182956E+00    0.6657850845E+00    0.2268329651E-03
    0.1500000000E+08    0.2549397826E-06    0.3222871604E-06    0.6958165835E+00    0.6659602096E+00    0.2286439918E-03
    0.1700000000E+08    0.1993650103E-06    0.2531503487E-06    0.6958150716E+00    0.6660941453E+00    0.2302398526E-03
    0.1900000000E+08    0.1603780580E-06    0.2043369051E-06    0.6958137169E+00    0.6661998953E+00    0.2316673485E-03
    0.2100000000E+08    0.1319737151E-06    0.1685733641E-06    0.6958124889E+00    0.6662855108E+00    0.2329594041E-03
    0.2300000000E+08    0.1106374213E-06    0.1415759109E-06    0.6958113654E+00    0.6663562429E+00    0.2341400786E-03
    0.2500000000E+08    0.9420127725E-07    0.1206871671E-06    0.6958103294E+00    0.6664156631E+00    0.2352274977E-03
    0.2700000000E+08    0.8126919890E-07    0.1041870796E-06    0.6958093681E+00    0.6664662844E+00    0.2362356631E-03
