  Pressure (Pa) 22mC5-500 (mol/kg) 23mC5-500 (mol/kg) 24mC5-500 (mol/kg) 3mC6-500 (mol/kg) C7-500 (mol/kg)
    0.1000000000E+01    0.2394339004E-05    0.2751940443E-05    0.9950210281E-01    0.8985301556E-05    0.4169275499E-02
    0.3000000000E+01    0.5296408054E-05    0.6072903671E-05    0.2321243673E+00    0.2262905827E-04    0.4199838753E-02
    0.5000000000E+01    0.6957142587E-05    0.7963563092E-05    0.3164924549E+00    0.3511813424E-04    0.4215064977E-02
    0.7000000000E+01    0.8007176733E-05    0.9153804689E-05    0.3748885405E+00    0.4706496993E-04    0.4224940835E-02
    0.9000000000E+01    0.8722372793E-05    0.9961906312E-05    0.4177058558E+00    0.5867391753E-04    0.4231872106E-02
    0.1100000000E+02    0.9240131481E-05    0.1054588420E-04    0.4504448474E+00    0.7004658746E-04    0.4236956141E-02
    0.1300000000E+02    0.9635271159E-05    0.1099149056E-04    0.4762892020E+00    0.8124318242E-04    0.4240793364E-02
    0.1500000000E+02    0.9951308648E-05    0.1134842293E-04    0.4972094044E+00    0.9230323261E-04    0.4243745592E-02
    0.1700000000E+02    0.1021487235E-04    0.1164697621E-04    0.5144903638E+00    0.1032545317E-03    0.4246045399E-02
    0.1900000000E+02    0.1044292402E-04    0.1190636957E-04    0.5290057143E+00    0.1141176043E-03    0.4247849629E-02
    0.2100000000E+02    0.1064662369E-04    0.1213919357E-04    0.5413701751E+00    0.1249081790E-03    0.4249268114E-02
    0.2300000000E+02    0.1083351129E-04    0.1235391490E-04    0.5520288512E+00    0.1356386643E-03    0.4250380165E-02
    0.2500000000E+02    0.1100879348E-04    0.1255635063E-04    0.5613119586E+00    0.1463190811E-03    0.4251244531E-02
    0.2700000000E+02    0.1117613134E-04    0.1275056841E-04    0.5694696460E+00    0.1569576798E-03    0.4251905692E-02
    0.2900000000E+02    0.1133813800E-04    0.1293945378E-04    0.5766948752E+00    0.1675613643E-03    0.4252397956E-02
    0.3100000000E+02    0.1149670156E-04    0.1312507748E-04    0.5831388797E+00    0.1781359919E-03    0.4252748218E-02
    0.3300000000E+02    0.1165319979E-04    0.1330893896E-04    0.5889218658E+00    0.1886865923E-03    0.4252977870E-02
    0.3500000000E+02    0.1180864576E-04    0.1349213109E-04    0.5941405816E+00    0.1992175293E-03    0.4253104141E-02
    0.3700000000E+02    0.1196378847E-04    0.1367545370E-04    0.5988737728E+00    0.2097326243E-03    0.4253141065E-02
    0.3900000000E+02    0.1211918356E-04    0.1385949302E-04    0.6031861844E+00    0.2202352517E-03    0.4253100195E-02
    0.4100000000E+02    0.1227524360E-04    0.1404467817E-04    0.6071315393E+00    0.2307284124E-03    0.4252991121E-02
    0.4300000000E+02    0.1243227452E-04    0.1423132175E-04    0.6107547883E+00    0.2412147938E-03    0.4252821880E-02
    0.4500000000E+02    0.1259050205E-04    0.1441964935E-04    0.6140938303E+00    0.2516968168E-03    0.4252599251E-02
    0.4700000000E+02    0.1275009137E-04    0.1460982129E-04    0.6171808431E+00    0.2621766743E-03    0.4252328996E-02
    0.4900000000E+02    0.1291116162E-04    0.1480194870E-04    0.6200433235E+00    0.2726563628E-03    0.4252016042E-02
    0.1000000000E+02    0.9000275125E-05    0.1027542067E-04    0.4350988379E+00    0.6438538501E-04    0.4234599998E-02
    0.3000000000E+02    0.1141775407E-04    0.1303256846E-04    0.5800063915E+00    0.1728519786E-03    0.4252589389E-02
    0.5000000000E+02    0.1299227950E-04    0.1489877001E-04    0.6213978825E+00    0.2778967204E-03    0.4251844902E-02
    0.7000000000E+02    0.1470182845E-04    0.1694446398E-04    0.6410027943E+00    0.3830692019E-03    0.4246952787E-02
    0.9000000000E+02    0.1657065166E-04    0.1918413367E-04    0.6524384931E+00    0.4896509532E-03    0.4240356554E-02
    0.1100000000E+03    0.1857870652E-04    0.2159027642E-04    0.6599306158E+00    0.5983586026E-03    0.4232812195E-02
    0.1300000000E+03    0.2071046659E-04    0.2414331530E-04    0.6652190377E+00    0.7096892303E-03    0.4224623829E-02
    0.1500000000E+03    0.2295676218E-04    0.2683201595E-04    0.6691513624E+00    0.8240375675E-03    0.4215931696E-02
    0.1700000000E+03    0.2531297329E-04    0.2965082693E-04    0.6721899094E+00    0.9417468722E-03    0.4206804499E-02
    0.1900000000E+03    0.2777755605E-04    0.3259795439E-04    0.6746082917E+00    0.1063134794E-02    0.4197275376E-02
    0.2100000000E+03    0.3035109927E-04    0.3567417532E-04    0.6765787822E+00    0.1188508177E-02    0.4187357908E-02
    0.2300000000E+03    0.3303574437E-04    0.3888212216E-04    0.6782152550E+00    0.1318172408E-02    0.4177053945E-02
    0.2500000000E+03    0.3583483027E-04    0.4222585060E-04    0.6795959978E+00    0.1452437885E-02    0.4166357725E-02
    0.2700000000E+03    0.3875267708E-04    0.4571057868E-04    0.6807766061E+00    0.1591624874E-02    0.4155258142E-02
    0.2900000000E+03    0.4179445701E-04    0.4934253233E-04    0.6817976490E+00    0.1736067466E-02    0.4143740038E-02
    0.3100000000E+03    0.4496612199E-04    0.5312885966E-04    0.6826894249E+00    0.1886117031E-02    0.4131784951E-02
    0.3300000000E+03    0.4827436985E-04    0.5707759138E-04    0.6834750182E+00    0.2042145414E-02    0.4119371533E-02
    0.3500000000E+03    0.5172663768E-04    0.6119763375E-04    0.6841723255E+00    0.2204548049E-02    0.4106475768E-02
    0.3700000000E+03    0.5533111567E-04    0.6549878597E-04    0.6847954358E+00    0.2373747103E-02    0.4093071053E-02
    0.3900000000E+03    0.5909677714E-04    0.6999177668E-04    0.6853555916E+00    0.2550194730E-02    0.4079128191E-02
    0.4100000000E+03    0.6303342237E-04    0.7468831686E-04    0.6858618734E+00    0.2734376519E-02    0.4064615313E-02
    0.4300000000E+03    0.6715173467E-04    0.7960116727E-04    0.6863216954E+00    0.2926815195E-02    0.4049497747E-02
    0.4500000000E+03    0.7146334824E-04    0.8474421978E-04    0.6867411712E+00    0.3128074631E-02    0.4033737842E-02
    0.4700000000E+03    0.7598092754E-04    0.9013259247E-04    0.6871253867E+00    0.3338764231E-02    0.4017294749E-02
    0.4900000000E+03    0.8071825863E-04    0.9578273885E-04    0.6874786078E+00    0.3559543743E-02    0.4000124164E-02
    0.1000000000E+03    0.1755841312E-04    0.2036784749E-04    0.6565379817E+00    0.5437046958E-03    0.4236678249E-02
    0.3000000000E+03    0.4336365255E-04    0.5121591784E-04    0.6822581111E+00    0.1810368653E-02    0.4137818387E-02
    0.5000000000E+03    0.8317397121E-04    0.9871151429E-04    0.6876447439E+00    0.3673938447E-02    0.3991251201E-02
    0.7000000000E+03    0.1484622768E-03    0.1765620835E-03    0.6899788156E+00    0.6711238869E-02    0.3760942408E-02
    0.9000000000E+03    0.2675451601E-03    0.3185439604E-03    0.6912820053E+00    0.1226118799E-01    0.3359936928E-02
    0.1100000000E+04    0.5089628186E-03    0.6064206326E-03    0.6921136193E+00    0.2358267596E-01    0.2595602290E-02
    0.1300000000E+04    0.9524683768E-03    0.1135478681E-02    0.6926903408E+00    0.4465753714E-01    0.1333220200E-02
    0.1500000000E+04    0.1370439780E-02    0.1634589225E-02    0.6931137415E+00    0.6518124696E-01    0.4116481093E-03
    0.1700000000E+04    0.1587760339E-02    0.1894749164E-02    0.6934377583E+00    0.7669933857E-01    0.1898677880E-03
    0.1900000000E+04    0.1734176069E-02    0.2070505490E-02    0.6936936867E+00    0.8509417623E-01    0.1590098349E-03
    0.2100000000E+04    0.1861820762E-02    0.2224004203E-02    0.6939009324E+00    0.9279054363E-01    0.1557715273E-03
    0.2300000000E+04    0.1979782716E-02    0.2366072875E-02    0.6940721676E+00    0.1002054193E+00    0.1560485993E-03
    0.2500000000E+04    0.2089785093E-02    0.2498754555E-02    0.6942160184E+00    0.1074070230E+00    0.1567235382E-03
    0.2700000000E+04    0.2192470134E-02    0.2622803348E-02    0.6943385602E+00    0.1144125054E+00    0.1574032664E-03
    0.2900000000E+04    0.2288302436E-02    0.2738762269E-02    0.6944441953E+00    0.1212313561E+00    0.1580432126E-03
    0.3100000000E+04    0.2377696796E-02    0.2847115800E-02    0.6945361919E+00    0.1278715751E+00    0.1586427899E-03
    0.3300000000E+04    0.2461037886E-02    0.2948313324E-02    0.6946170270E+00    0.1343405743E+00    0.1592062291E-03
    0.3500000000E+04    0.2538684733E-02    0.3042774405E-02    0.6946886122E+00    0.1406453315E+00    0.1597376529E-03
    0.3700000000E+04    0.2610972938E-02    0.3130891376E-02    0.6947524466E+00    0.1467924368E+00    0.1602405831E-03
    0.3900000000E+04    0.2678216442E-02    0.3213031391E-02    0.6948097217E+00    0.1527881215E+00    0.1607179965E-03
    0.4100000000E+04    0.2740709109E-02    0.3289538264E-02    0.6948613970E+00    0.1586382828E+00    0.1611724242E-03
    0.4300000000E+04    0.2798726179E-02    0.3360734149E-02    0.6949082537E+00    0.1643485057E+00    0.1616060356E-03
    0.4500000000E+04    0.2852525598E-02    0.3426921089E-02    0.6949509340E+00    0.1699240839E+00    0.1620207044E-03
    0.4700000000E+04    0.2902349242E-02    0.3488382433E-02    0.6949899711E+00    0.1753700386E+00    0.1624180602E-03
    0.4900000000E+04    0.2948424047E-02    0.3545384145E-02    0.6950258112E+00    0.1806911356E+00    0.1627995290E-03
    0.1000000000E+04    0.3663319378E-03    0.4363339923E-03    0.6917391776E+00    0.1688242892E-01    0.3040339395E-02
    0.3000000000E+04    0.2333779684E-02    0.2793860885E-02    0.6944917281E+00    0.1245733203E+00    0.1583477962E-03
    0.5000000000E+04    0.2970122723E-02    0.3572291299E-02    0.6950426522E+00    0.1833062861E+00    0.1629847041E-03
    0.7000000000E+04    0.3252546818E-02    0.3929433737E-02    0.6952780641E+00    0.2300422127E+00    0.1660930083E-03
    0.9000000000E+04    0.3336032261E-02    0.4047432834E-02    0.6954083676E+00    0.2682744141E+00    0.1684463287E-03
    0.1100000000E+05    0.3306699656E-02    0.4028087835E-02    0.6954909567E+00    0.3002255853E+00    0.1703461462E-03
    0.1300000000E+05    0.3214100067E-02    0.3930375909E-02    0.6955478941E+00    0.3273835843E+00    0.1719423084E-03
    0.1500000000E+05    0.3087449371E-02    0.3789356731E-02    0.6955894676E+00    0.3507864266E+00    0.1733204520E-03
    0.1700000000E+05    0.2944239313E-02    0.3626228168E-02    0.6956211181E+00    0.3711834402E+00    0.1745342265E-03
    0.1900000000E+05    0.2795007794E-02    0.3453916318E-02    0.6956459923E+00    0.3891311798E+00    0.1756195141E-03
    0.2100000000E+05    0.2646076972E-02    0.3280297442E-02    0.6956660358E+00    0.4050530508E+00    0.1766015222E-03
    0.2300000000E+05    0.2501171433E-02    0.3110111133E-02    0.6956825162E+00    0.4192777918E+00    0.1774986500E-03
    0.2500000000E+05    0.2362397701E-02    0.2946124656E-02    0.6956962941E+00    0.4320651321E+00    0.1783247468E-03
    0.2700000000E+05    0.2230848860E-02    0.2789856034E-02    0.6957079746E+00    0.4436233940E+00    0.1790905027E-03
    0.2900000000E+05    0.2106983686E-02    0.2642030569E-02    0.6957179950E+00    0.4541218740E+00    0.1798043457E-03
    0.3100000000E+05    0.1990867284E-02    0.2502872840E-02    0.6957266797E+00    0.4636997462E+00    0.1804730397E-03
    0.3300000000E+05    0.1882325151E-02    0.2372295321E-02    0.6957342738E+00    0.4724725927E+00    0.1811020975E-03
    0.3500000000E+05    0.1781042326E-02    0.2250021014E-02    0.6957409663E+00    0.4805372755E+00    0.1816960723E-03
    0.3700000000E+05    0.1686627260E-02    0.2135663435E-02    0.6957469051E+00    0.4879756304E+00    0.1822587693E-03
    0.3900000000E+05    0.1598652832E-02    0.2028778735E-02    0.6957522075E+00    0.4948573060E+00    0.1827934015E-03
    0.4100000000E+05    0.1516682404E-02    0.1928899466E-02    0.6957569680E+00    0.5012419732E+00    0.1833027071E-03
    0.4300000000E+05    0.1440286076E-02    0.1835556184E-02    0.6957612631E+00    0.5071810648E+00    0.1837890389E-03
    0.4500000000E+05    0.1369050485E-02    0.1748290955E-02    0.6957651559E+00    0.5127191596E+00    0.1842544338E-03
    0.4700000000E+05    0.1302584359E-02    0.1666665476E-02    0.6957686985E+00    0.5178950932E+00    0.1847006671E-03
    0.4900000000E+05    0.1240521299E-02    0.1590265615E-02    0.6957719345E+00    0.5227428576E+00    0.1851292955E-03
    0.1000000000E+05    0.3331755071E-02    0.4050518934E-02    0.6954538335E+00    0.2849290644E+00    0.1694414619E-03
    0.3000000000E+05    0.2047963551E-02    0.2571368084E-02    0.6957224875E+00    0.4590181731E+00    0.1801439664E-03
    0.5000000000E+05    0.1211033488E-02    0.1553903053E-02    0.6957734493E+00    0.5250531580E+00    0.1853374434E-03
    0.7000000000E+05    0.7831670734E-03    0.1021223268E-02    0.6957941121E+00    0.5596723315E+00    0.1888381355E-03
    0.9000000000E+05    0.5440164987E-03    0.7184868218E-03    0.6958049289E+00    0.5808805773E+00    0.1914953306E-03
    0.1100000000E+06    0.3985733543E-03    0.5319747860E-03    0.6958113854E+00    0.5951643351E+00    0.1936436195E-03
    0.1300000000E+06    0.3040416640E-03    0.4094577120E-03    0.6958155563E+00    0.6054214600E+00    0.1954502545E-03
    0.1500000000E+06    0.2393250758E-03    0.3248247702E-03    0.6958183936E+00    0.6131362822E+00    0.1970111564E-03
    0.1700000000E+06    0.1931547714E-03    0.2639725048E-03    0.6958203925E+00    0.6191457940E+00    0.1983865613E-03
    0.1900000000E+06    0.1590980127E-03    0.2187751079E-03    0.6958218347E+00    0.6239570232E+00    0.1996168272E-03
    0.2100000000E+06    0.1332763826E-03    0.1842942469E-03    0.6958228915E+00    0.6278946805E+00    0.2007303432E-03
    0.2300000000E+06    0.1132429230E-03    0.1573924163E-03    0.6958236724E+00    0.6311761735E+00    0.2017478526E-03
    0.2500000000E+06    0.9739378705E-04    0.1360003094E-03    0.6958242506E+00    0.6339524612E+00    0.2026849818E-03
    0.2700000000E+06    0.8464309126E-04    0.1187090049E-03    0.6958246766E+00    0.6363315916E+00    0.2035538013E-03
    0.2900000000E+06    0.7423485502E-04    0.1045325850E-03    0.6958249861E+00    0.6383929118E+00    0.2043638325E-03
    0.3100000000E+06    0.6562987916E-04    0.9276452693E-04    0.6958252051E+00    0.6401959892E+00    0.2051227208E-03
    0.3300000000E+06    0.5843534293E-04    0.8288786005E-04    0.6958253531E+00    0.6417864043E+00    0.2058366997E-03
    0.3500000000E+06    0.5235965965E-04    0.7451728100E-04    0.6958254445E+00    0.6431996230E+00    0.2065109199E-03
    0.3700000000E+06    0.4718275574E-04    0.6736087723E-04    0.6958254906E+00    0.6444636511E+00    0.2071496871E-03
    0.3900000000E+06    0.4273604008E-04    0.6119422462E-04    0.6958255000E+00    0.6456008956E+00    0.2077566379E-03
    0.4100000000E+06    0.3888861830E-04    0.5584249259E-04    0.6958254796E+00    0.6466294957E+00    0.2083348723E-03
    0.4300000000E+06    0.3553762437E-04    0.5116784879E-04    0.6958254348E+00    0.6475642915E+00    0.2088870547E-03
    0.4500000000E+06    0.3260132337E-04    0.4706044347E-04    0.6958253699E+00    0.6484175411E+00    0.2094154920E-03
    0.4700000000E+06    0.3001411416E-04    0.4343185647E-04    0.6958252884E+00    0.6491994577E+00    0.2099221953E-03
    0.4900000000E+06    0.2772285725E-04    0.4021026736E-04    0.6958251933E+00    0.6499186191E+00    0.2104089284E-03
    0.1000000000E+06    0.4629849105E-03    0.6148387491E-03    0.6958085328E+00    0.5886593305E+00    0.1926203087E-03
    0.3000000000E+06    0.6973431893E-04    0.9838346689E-04    0.6958251056E+00    0.6393236069E+00    0.2047492512E-03
    0.5000000000E+06    0.2667432482E-04    0.3873328547E-04    0.6958251414E+00    0.6502569788E+00    0.2106452995E-03
    0.7000000000E+06    0.1396906714E-04    0.2066594642E-04    0.6958237799E+00    0.6550174064E+00    0.2146212350E-03
    0.9000000000E+06    0.8579476847E-05    0.1286488228E-04    0.6958222518E+00    0.6576805342E+00    0.2176397314E-03
    0.1100000000E+07    0.5804205924E-05    0.8793695719E-05    0.6958207828E+00    0.6593819127E+00    0.2200803833E-03
    0.1300000000E+07    0.4190364217E-05    0.6400673415E-05    0.6958194183E+00    0.6605627660E+00    0.2221330230E-03
    0.1500000000E+07    0.3169989021E-05    0.4874042123E-05    0.6958181605E+00    0.6614302517E+00    0.2239065502E-03
    0.1700000000E+07    0.2484112875E-05    0.3839998763E-05    0.6958170003E+00    0.6620944864E+00    0.2254693642E-03
    0.1900000000E+07    0.2001003628E-05    0.3106799511E-05    0.6958159265E+00    0.6626194071E+00    0.2268672979E-03
    0.2100000000E+07    0.1647916932E-05    0.2567788851E-05    0.6958149287E+00    0.6630446807E+00    0.2281325951E-03
    0.2300000000E+07    0.1382025804E-05    0.2159770843E-05    0.6958139974E+00    0.6633962210E+00    0.2292888170E-03
    0.2500000000E+07    0.1176786479E-05    0.1843351464E-05    0.6958131248E+00    0.6636916737E+00    0.2303537143E-03
    0.2700000000E+07    0.1015037920E-05    0.1592928951E-05    0.6958123042E+00    0.6639434701E+00    0.2313409989E-03
    0.2900000000E+07    0.8852863825E-06    0.1391274762E-05    0.6958115297E+00    0.6641606206E+00    0.2322614872E-03
    0.3100000000E+07    0.7795994873E-06    0.1226446717E-05    0.6958107964E+00    0.6643498157E+00    0.2331238650E-03
    0.3300000000E+07    0.6923596912E-06    0.1089953481E-05    0.6958101003E+00    0.6645161275E+00    0.2339352143E-03
    0.3500000000E+07    0.6194985574E-06    0.9756222604E-06    0.6958094377E+00    0.6646634711E+00    0.2347013869E-03
    0.3700000000E+07    0.5580110152E-06    0.8788777084E-06    0.6958088055E+00    0.6647949166E+00    0.2354272747E-03
    0.3900000000E+07    0.5056384454E-06    0.7962697355E-06    0.6958082009E+00    0.6649129056E+00    0.2361170097E-03
    0.4100000000E+07    0.4606567201E-06    0.7251566113E-06    0.6958076218E+00    0.6650194039E+00    0.2367741139E-03
    0.4300000000E+07    0.4217312767E-06    0.6634875887E-06    0.6958070659E+00    0.6651160124E+00    0.2374016147E-03
    0.4500000000E+07    0.3878160487E-06    0.6096508490E-06    0.6958065314E+00    0.6652040476E+00    0.2380021332E-03
    0.4700000000E+07    0.3580817175E-06    0.5623652466E-06    0.6958060168E+00    0.6652846025E+00    0.2385779546E-03
    0.4900000000E+07    0.3318639521E-06    0.5206019987E-06    0.6958055205E+00    0.6653585916E+00    0.2391310831E-03
    0.1000000000E+07    0.6988802982E-05    0.1053726960E-04    0.6958215054E+00    0.6586156592E+00    0.2189177843E-03
    0.3000000000E+07    0.8298295017E-06    0.1304853253E-05    0.6958111582E+00    0.6642583639E+00    0.2326994647E-03
    0.5000000000E+07    0.3199017527E-06    0.5015243013E-06    0.6958052788E+00    0.6653933699E+00    0.2393996981E-03
    0.7000000000E+07    0.1765592321E-06    0.2716962376E-06    0.6958011567E+00    0.6658805059E+00    0.2439180337E-03
    0.9000000000E+07    0.1162726876E-06    0.1743476547E-06    0.6957979668E+00    0.6661513518E+00    0.2473483474E-03
    0.1100000000E+08    0.8500749700E-07    0.1237939147E-06    0.6957953570E+00    0.6663238070E+00    0.2501219928E-03
    0.1300000000E+08    0.6654309588E-07    0.9400977943E-07    0.6957931438E+00    0.6664432563E+00    0.2524546925E-03
    0.1500000000E+08    0.5462504590E-07    0.7488186637E-07    0.6957912196E+00    0.6665308904E+00    0.2544702005E-03
    0.1700000000E+08    0.4641797928E-07    0.6180138491E-07    0.6957895156E+00    0.6665979323E+00    0.2562462465E-03
    0.1900000000E+08    0.4048092336E-07    0.5241812806E-07    0.6957879850E+00    0.6666508815E+00    0.2578349164E-03
    0.2100000000E+08    0.3601629541E-07    0.4542865937E-07    0.6957865948E+00    0.6666937623E+00    0.2592728527E-03
    0.2300000000E+08    0.3255233409E-07    0.4006133840E-07    0.6957853206E+00    0.6667291998E+00    0.2605868312E-03
    0.2500000000E+08    0.2979475763E-07    0.3583484191E-07    0.6957841439E+00    0.6667589794E+00    0.2617970244E-03
    0.2700000000E+08    0.2755181298E-07    0.3243579509E-07    0.6957830502E+00    0.6667843576E+00    0.2629190151E-03
