  Pressure (Pa) 22mC5-500 (mol/kg) 23mC5-500 (mol/kg) 24mC5-500 (mol/kg) 3mC6-500 (mol/kg) C7-500 (mol/kg)
    0.1000000000E+01    0.2370882930E-05    0.6810157785E-05    0.9949905720E-01    0.1599752663E-05    0.4194674759E-02
    0.3000000000E+01    0.5244187947E-05    0.1502711517E-04    0.2321079004E+00    0.4087834179E-05    0.4245034984E-02
    0.5000000000E+01    0.6879495697E-05    0.1967822692E-04    0.3164620131E+00    0.6372495788E-05    0.4275464634E-02
    0.7000000000E+01    0.7905291687E-05    0.2258181758E-04    0.3748460339E+00    0.8557659669E-05    0.4296571245E-02
    0.9000000000E+01    0.8596751961E-05    0.2453154194E-04    0.4176533053E+00    0.1067847407E-04    0.4312181512E-02
    0.1100000000E+02    0.9090941971E-05    0.2592144485E-04    0.4503839598E+00    0.1275256089E-04    0.4324240344E-02
    0.1300000000E+02    0.9462485126E-05    0.2696532821E-04    0.4762213465E+00    0.1479042602E-04    0.4333860989E-02
    0.1500000000E+02    0.9754773022E-05    0.2778706438E-04    0.4971356686E+00    0.1679900229E-04    0.4341730709E-02
    0.1700000000E+02    0.9994348082E-05    0.2846213561E-04    0.5144116147E+00    0.1878318409E-04    0.4348298064E-02
    0.1900000000E+02    0.1019811008E-04    0.2903840606E-04    0.5289226493E+00    0.2074659783E-04    0.4353868835E-02
    0.2100000000E+02    0.1037717262E-04    0.2954721446E-04    0.5412833607E+00    0.2269203008E-04    0.4358658938E-02
    0.2300000000E+02    0.1053903974E-04    0.3000962124E-04    0.5519387524E+00    0.2462168385E-04    0.4362825354E-02
    0.2500000000E+02    0.1068888965E-04    0.3044008472E-04    0.5612189609E+00    0.2653734107E-04    0.4366485060E-02
    0.2700000000E+02    0.1083036038E-04    0.3084870560E-04    0.5693740720E+00    0.2844047041E-04    0.4369727082E-02
    0.2900000000E+02    0.1096604594E-04    0.3124264114E-04    0.5765969973E+00    0.3033230149E-04    0.4372620422E-02
    0.3100000000E+02    0.1109781838E-04    0.3162702061E-04    0.5830389296E+00    0.3221387767E-04    0.4375219430E-02
    0.3300000000E+02    0.1122704172E-04    0.3200555185E-04    0.5888200423E+00    0.3408609440E-04    0.4377567515E-02
    0.3500000000E+02    0.1135471712E-04    0.3238093173E-04    0.5940370562E+00    0.3594972798E-04    0.4379699795E-02
    0.3700000000E+02    0.1148158312E-04    0.3275512873E-04    0.5987686947E+00    0.3780545723E-04    0.4381644995E-02
    0.3900000000E+02    0.1160818603E-04    0.3312958086E-04    0.6030796838E+00    0.3965388041E-04    0.4383426854E-02
    0.4100000000E+02    0.1173493008E-04    0.3350533607E-04    0.6070237306E+00    0.4149552841E-04    0.4385065170E-02
    0.4300000000E+02    0.1186211357E-04    0.3388315330E-04    0.6106457726E+00    0.4333087523E-04    0.4386576591E-02
    0.4500000000E+02    0.1198995530E-04    0.3426357587E-04    0.6139836973E+00    0.4516034648E-04    0.4387975226E-02
    0.4700000000E+02    0.1211861398E-04    0.3464698545E-04    0.6170696727E+00    0.4698432624E-04    0.4389273114E-02
    0.4900000000E+02    0.1224820277E-04    0.3503364204E-04    0.6199311872E+00    0.4880316270E-04    0.4390480596E-02
    0.1000000000E+02    0.8862863412E-05    0.2528028853E-04    0.4350419276E+00    0.1172059150E-04    0.4318572109E-02
    0.3000000000E+02    0.1103232611E-04    0.3143576590E-04    0.5799074507E+00    0.3127431239E-04    0.4373953783E-02
    0.5000000000E+02    0.1231337158E-04    0.3522824346E-04    0.6212852879E+00    0.4971075236E-04    0.4391053275E-02
    0.7000000000E+02    0.1367378840E-04    0.3930359235E-04    0.6408834461E+00    0.6765666219E-04    0.4399401804E-02
    0.9000000000E+02    0.1513319414E-04    0.4368424703E-04    0.6523150579E+00    0.8532769518E-04    0.4404218394E-02
    0.1100000000E+03    0.1666777958E-04    0.4829023823E-04    0.6598043977E+00    0.1028329962E-03    0.4407210225E-02
    0.1300000000E+03    0.1825834556E-04    0.5306168385E-04    0.6650907724E+00    0.1202381842E-03    0.4409115160E-02
    0.1500000000E+03    0.1989191567E-04    0.5795915574E-04    0.6690215074E+00    0.1375869612E-03    0.4410309319E-02
    0.1700000000E+03    0.2155983523E-04    0.6295675252E-04    0.6720587697E+00    0.1549105149E-03    0.4411006782E-02
    0.1900000000E+03    0.2325624623E-04    0.6803713296E-04    0.6744760818E+00    0.1722322547E-03    0.4411339445E-02
    0.2100000000E+03    0.2497710695E-04    0.7318843942E-04    0.6764456593E+00    0.1895704471E-03    0.4411393572E-02
    0.2300000000E+03    0.2671957965E-04    0.7840241369E-04    0.6780813383E+00    0.2069397956E-03    0.4411228275E-02
    0.2500000000E+03    0.2848164389E-04    0.8367322223E-04    0.6794613802E+00    0.2243524422E-03    0.4410885606E-02
    0.2700000000E+03    0.3026184712E-04    0.8899670525E-04    0.6806413616E+00    0.2418186331E-03    0.4410396407E-02
    0.2900000000E+03    0.3205913988E-04    0.9436988446E-04    0.6816618379E+00    0.2593471756E-03    0.4409783888E-02
    0.3100000000E+03    0.3387276449E-04    0.9979063239E-04    0.6825530969E+00    0.2769457642E-03    0.4409065889E-02
    0.3300000000E+03    0.3570217827E-04    0.1052574455E-03    0.6833382150E+00    0.2946212167E-03    0.4408256382E-02
    0.3500000000E+03    0.3754699941E-04    0.1107692852E-03    0.6840350827E+00    0.3123796511E-03    0.4407366482E-02
    0.3700000000E+03    0.3940696839E-04    0.1163254646E-03    0.6846577838E+00    0.3302266198E-03    0.4406405153E-02
    0.3900000000E+03    0.4128191976E-04    0.1219255666E-03    0.6852175568E+00    0.3481672131E-03    0.4405379712E-02
    0.4100000000E+03    0.4317176147E-04    0.1275693834E-03    0.6857234789E+00    0.3662061406E-03    0.4404296196E-02
    0.4300000000E+03    0.4507645931E-04    0.1332568720E-03    0.6861829617E+00    0.3843477959E-03    0.4403159630E-02
    0.4500000000E+03    0.4699602522E-04    0.1389881197E-03    0.6866021164E+00    0.4025963087E-03    0.4401974232E-02
    0.4700000000E+03    0.4893050836E-04    0.1447633194E-03    0.6869860270E+00    0.4209555871E-03    0.4400743570E-02
    0.4900000000E+03    0.5087998820E-04    0.1505827490E-03    0.6873389576E+00    0.4394293526E-03    0.4399470676E-02
    0.1000000000E+03    0.1589245540E-04    0.4596338364E-04    0.6564130375E+00    0.9409628475E-04    0.4405883973E-02
    0.3000000000E+03    0.3296394894E-04    0.9707441880E-04    0.6821220359E+00    0.2681372698E-03    0.4409437123E-02
    0.5000000000E+03    0.5186038367E-04    0.1535091563E-03    0.6875049536E+00    0.4487102872E-03    0.4398819220E-02
    0.7000000000E+03    0.7229098496E-04    0.2144719244E-03    0.6898367311E+00    0.6411502851E-03    0.4384039591E-02
    0.9000000000E+03    0.9442907972E-04    0.2805025184E-03    0.6911382308E+00    0.8486116875E-03    0.4366544773E-02
    0.1100000000E+04    0.1185261070E-03    0.3523600513E-03    0.6919684932E+00    0.1073977774E-02    0.4346672531E-02
    0.1300000000E+04    0.1448827882E-03    0.4309458317E-03    0.6925440818E+00    0.1320310465E-02    0.4324423864E-02
    0.1500000000E+04    0.1738536292E-03    0.5173195009E-03    0.6929665034E+00    0.1591072429E-02    0.4299640293E-02
    0.1700000000E+04    0.2058591711E-03    0.6127366044E-03    0.6932896560E+00    0.1890304016E-02    0.4272055794E-02
    0.1900000000E+04    0.2414028380E-03    0.7186993012E-03    0.6935448092E+00    0.2222808312E-02    0.4241309291E-02
    0.2100000000E+04    0.2810927659E-03    0.8370217020E-03    0.6937513512E+00    0.2594370773E-02    0.4206939974E-02
    0.2300000000E+04    0.3256700446E-03    0.9699142287E-03    0.6939219415E+00    0.3012034877E-02    0.4168372093E-02
    0.2500000000E+04    0.3760455026E-03    0.1120093412E-02    0.6940651965E+00    0.3484457394E-02    0.4124890716E-02
    0.2700000000E+04    0.4333479369E-03    0.1290925807E-02    0.6941871841E+00    0.4022372715E-02    0.4075607842E-02
    0.2900000000E+04    0.4989876278E-03    0.1486617493E-02    0.6942923011E+00    0.4639204335E-02    0.4019416967E-02
    0.3100000000E+04    0.5747400700E-03    0.1712463911E-02    0.6943838108E+00    0.5351872255E-02    0.3954933411E-02
    0.3300000000E+04    0.6628558937E-03    0.1975177844E-02    0.6944641867E+00    0.6181855871E-02    0.3880417260E-02
    0.3500000000E+04    0.7662032985E-03    0.2283314475E-02    0.6945353372E+00    0.7156576862E-02    0.3793676332E-02
    0.3700000000E+04    0.8884473425E-03    0.2647806526E-02    0.6945987587E+00    0.8311150561E-02    0.3691949569E-02
    0.3900000000E+04    0.1034262219E-02    0.3082598058E-02    0.6946556405E+00    0.9690480604E-02    0.3571779997E-02
    0.4100000000E+04    0.1209549627E-02    0.3605296897E-02    0.6947069404E+00    0.1135145927E-01    0.3428907821E-02
    0.4300000000E+04    0.1421581188E-02    0.4237601286E-02    0.6947534377E+00    0.1336451958E-01    0.3258261405E-02
    0.4500000000E+04    0.1678866198E-02    0.5004908390E-02    0.6947957735E+00    0.1581268024E-01    0.3054216986E-02
    0.4700000000E+04    0.1990336235E-02    0.5933886674E-02    0.6948344797E+00    0.1878421401E-01    0.2811451975E-02
    0.4900000000E+04    0.2363170084E-02    0.7045993869E-02    0.6948700012E+00    0.2235244149E-01    0.2526880951E-02
    0.1000000000E+04    0.1062150842E-03    0.3156499553E-03    0.6915946944E+00    0.9588724885E-03    0.4356900950E-02
    0.3000000000E+04    0.5354717223E-03    0.1595389494E-02    0.6943395868E+00    0.4982337646E-02    0.3988311157E-02
    0.5000000000E+04    0.2573365363E-02    0.7673028470E-02    0.6948866873E+00    0.2436973416E-01    0.2369377468E-02
    0.7000000000E+04    0.6132450808E-02    0.1830573378E-01    0.6951194742E+00    0.6015921016E-01    0.3714350923E-03
    0.9000000000E+04    0.7315691104E-02    0.2186493909E-01    0.6952477612E+00    0.7467120064E-01    0.3370307481E-03
    0.1100000000E+05    0.8255674371E-02    0.2470426323E-01    0.6953287059E+00    0.8756682049E-01    0.3406188137E-03
    0.1300000000E+05    0.9041475200E-02    0.2708769700E-01    0.6953842516E+00    0.9953995833E-01    0.3438084483E-03
    0.1500000000E+05    0.9699989494E-02    0.2909412896E-01    0.6954246165E+00    0.1107195729E+00    0.3465635550E-03
    0.1700000000E+05    0.1025233180E-01    0.3078553173E-01    0.6954551975E+00    0.1212079366E+00    0.3489900630E-03
    0.1900000000E+05    0.1071547412E-01    0.3221176686E-01    0.6954791118E+00    0.1310893162E+00    0.3511596995E-03
    0.2100000000E+05    0.1110319210E-01    0.3341334596E-01    0.6954982840E+00    0.1404338307E+00    0.3531228595E-03
    0.2300000000E+05    0.1142676527E-01    0.3442347447E-01    0.6955139661E+00    0.1493003399E+00    0.3549163278E-03
    0.2500000000E+05    0.1169550330E-01    0.3526958851E-01    0.6955270071E+00    0.1577386502E+00    0.3565677917E-03
    0.2700000000E+05    0.1191714632E-01    0.3597452433E-01    0.6955380031E+00    0.1657912205E+00    0.3580986235E-03
    0.2900000000E+05    0.1209817284E-01    0.3655741818E-01    0.6955473842E+00    0.1734944929E+00    0.3595256723E-03
    0.3100000000E+05    0.1224403894E-01    0.3703440577E-01    0.6955554690E+00    0.1808799448E+00    0.3608624606E-03
    0.3300000000E+05    0.1235936587E-01    0.3741917099E-01    0.6955624979E+00    0.1879749246E+00    0.3621200094E-03
    0.3500000000E+05    0.1244808845E-01    0.3772338025E-01    0.6955686559E+00    0.1948033250E+00    0.3633074216E-03
    0.3700000000E+05    0.1251357341E-01    0.3795702899E-01    0.6955740878E+00    0.2013861262E+00    0.3644323046E-03
    0.3900000000E+05    0.1255871445E-01    0.3812872024E-01    0.6955789080E+00    0.2077418399E+00    0.3655010817E-03
    0.4100000000E+05    0.1258600919E-01    0.3824589017E-01    0.6955832086E+00    0.2138868742E+00    0.3665192271E-03
    0.4300000000E+05    0.1259762187E-01    0.3831499181E-01    0.6955870642E+00    0.2198358339E+00    0.3674914445E-03
    0.4500000000E+05    0.1259543463E-01    0.3834164581E-01    0.6955905359E+00    0.2256017716E+00    0.3684218060E-03
    0.4700000000E+05    0.1258108990E-01    0.3833076469E-01    0.6955936745E+00    0.2311963970E+00    0.3693138607E-03
    0.4900000000E+05    0.1255602545E-01    0.3828665588E-01    0.6955965222E+00    0.2366302528E+00    0.3701707209E-03
    0.1000000000E+05    0.7806978489E-02    0.2334752249E-01    0.6952923675E+00    0.8124431881E-01    0.3388253750E-03
    0.3000000000E+05    0.1217519445E-01    0.3680824312E-01    0.6955515721E+00    0.1772251490E+00    0.3602046093E-03
    0.5000000000E+05    0.1253987397E-01    0.3825334317E-01    0.6955978482E+00    0.2392899047E+00    0.3705868235E-03
    0.7000000000E+05    0.1189042670E-01    0.3655450771E-01    0.6956153274E+00    0.2859349569E+00    0.3775849235E-03
    0.9000000000E+05    0.1096789096E-01    0.3394998489E-01    0.6956237170E+00    0.3234010384E+00    0.3828967740E-03
    0.1100000000E+06    0.1001027997E-01    0.3117679151E-01    0.6956282054E+00    0.3545705618E+00    0.3871912695E-03
    0.1300000000E+06    0.9101652269E-02    0.2850561066E-01    0.6956307179E+00    0.3810566544E+00    0.3908027687E-03
    0.1500000000E+06    0.8270163277E-02    0.2603443834E-01    0.6956321202E+00    0.4038845616E+00    0.3939230281E-03
    0.1700000000E+06    0.7521743690E-02    0.2379072265E-01    0.6956328530E+00    0.4237645012E+00    0.3966724660E-03
    0.1900000000E+06    0.6853257063E-02    0.2177190872E-01    0.6956331617E+00    0.4412182254E+00    0.3991317621E-03
    0.2100000000E+06    0.6258077205E-02    0.1996298378E-01    0.6956331917E+00    0.4566448668E+00    0.4013576686E-03
    0.2300000000E+06    0.5728559078E-02    0.1834447070E-01    0.6956330338E+00    0.4703585633E+00    0.4033916532E-03
    0.2500000000E+06    0.5257140287E-02    0.1689614110E-01    0.6956327468E+00    0.4826116856E+00    0.4052649541E-03
    0.2700000000E+06    0.4836809154E-02    0.1559870656E-01    0.6956323703E+00    0.4936101151E+00    0.4070017014E-03
    0.2900000000E+06    0.4461272323E-02    0.1443452382E-01    0.6956319313E+00    0.5035238128E+00    0.4086209288E-03
    0.3100000000E+06    0.4124979840E-02    0.1338781340E-01    0.6956314489E+00    0.5124944319E+00    0.4101379198E-03
    0.3300000000E+06    0.3823085089E-02    0.1244464162E-01    0.6956309367E+00    0.5206409723E+00    0.4115651359E-03
    0.3500000000E+06    0.3551378089E-02    0.1159279382E-01    0.6956304045E+00    0.5280640851E+00    0.4129128734E-03
    0.3700000000E+06    0.3306211273E-02    0.1082160444E-01    0.6956298597E+00    0.5348494121E+00    0.4141897397E-03
    0.3900000000E+06    0.3084427003E-02    0.1012177785E-01    0.6956293075E+00    0.5410702156E+00    0.4154030045E-03
    0.4100000000E+06    0.2883290947E-02    0.9485216248E-02    0.6956287519E+00    0.5467894745E+00    0.4165588649E-03
    0.4300000000E+06    0.2700432826E-02    0.8904862228E-02    0.6956281960E+00    0.5520615729E+00    0.4176626470E-03
    0.4500000000E+06    0.2533794731E-02    0.8374558524E-02    0.6956276419E+00    0.5569336703E+00    0.4187189625E-03
    0.4700000000E+06    0.2381586554E-02    0.7888925201E-02    0.6956270913E+00    0.5614468235E+00    0.4197318316E-03
    0.4900000000E+06    0.2242247815E-02    0.7443253122E-02    0.6956265454E+00    0.5656369091E+00    0.4207047803E-03
    0.1000000000E+06    0.1048626016E-01    0.3256155941E-01    0.6956262910E+00    0.3396533734E+00    0.3851456430E-03
    0.3000000000E+06    0.4288539224E-02    0.1389739752E-01    0.6956316946E+00    0.5081190947E+00    0.4093913676E-03
    0.5000000000E+06    0.2176971513E-02    0.7234091502E-02    0.6956262746E+00    0.5676207875E+00    0.4211772708E-03
    0.7000000000E+06    0.1294370146E-02    0.4378431483E-02    0.6956212297E+00    0.5962319733E+00    0.4291248639E-03
    0.9000000000E+06    0.8523241612E-03    0.2923090582E-02    0.6956169041E+00    0.6125811637E+00    0.4351585552E-03
    0.1100000000E+07    0.6017714354E-03    0.2087077314E-02    0.6956131730E+00    0.6230140212E+00    0.4400371558E-03
    0.1300000000E+07    0.4467582331E-03    0.1564176364E-02    0.6956099062E+00    0.6301951433E+00    0.4441401387E-03
    0.1500000000E+07    0.3444416808E-03    0.1215842985E-02    0.6956070051E+00    0.6354161615E+00    0.4476851920E-03
    0.1700000000E+07    0.2734737800E-03    0.9723019350E-03    0.6956043970E+00    0.6393718814E+00    0.4508090435E-03
    0.1900000000E+07    0.2222845825E-03    0.7953968215E-03    0.6956020286E+00    0.6424666485E+00    0.4536033118E-03
    0.2100000000E+07    0.1841745187E-03    0.6628615578E-03    0.6955998591E+00    0.6449506713E+00    0.4561324504E-03
    0.2300000000E+07    0.1550514828E-03    0.5610029379E-03    0.6955978576E+00    0.6469865808E+00    0.4584435572E-03
    0.2500000000E+07    0.1323037413E-03    0.4810279902E-03    0.6955959995E+00    0.6486844226E+00    0.4605721145E-03
    0.2700000000E+07    0.1142019417E-03    0.4170822476E-03    0.6955942655E+00    0.6501211952E+00    0.4625455315E-03
    0.2900000000E+07    0.9956467295E-04    0.3651460011E-03    0.6955926396E+00    0.6513523204E+00    0.4643854298E-03
    0.3100000000E+07    0.8756289401E-04    0.3223853405E-03    0.6955911089E+00    0.6524186667E+00    0.4661091714E-03
    0.3300000000E+07    0.7760111014E-04    0.2867559095E-03    0.6955896628E+00    0.6533510094E+00    0.4677309128E-03
    0.3500000000E+07    0.6924274742E-04    0.2567529111E-03    0.6955882921E+00    0.6541729504E+00    0.4692623511E-03
    0.3700000000E+07    0.6216190609E-04    0.2312487972E-03    0.6955869892E+00    0.6549028844E+00    0.4707132648E-03
    0.3900000000E+07    0.5611135971E-04    0.2093851887E-03    0.6955857476E+00    0.6555553541E+00    0.4720919135E-03
    0.4100000000E+07    0.5090084163E-04    0.1904992679E-03    0.6955845617E+00    0.6561420045E+00    0.4734053374E-03
    0.4300000000E+07    0.4638200853E-04    0.1740726292E-03    0.6955834265E+00    0.6566722676E+00    0.4746595878E-03
    0.4500000000E+07    0.4243783540E-04    0.1596950864E-03    0.6955823378E+00    0.6571538624E+00    0.4758599044E-03
    0.4700000000E+07    0.3897501084E-04    0.1470386380E-03    0.6955812918E+00    0.6575931661E+00    0.4770108547E-03
    0.4900000000E+07    0.3591840108E-04    0.1358384593E-03    0.6955802853E+00    0.6579954921E+00    0.4781164448E-03
    0.1000000000E+07    0.7109764573E-03    0.2452674815E-02    0.6956149731E+00    0.6183234946E+00    0.4377132493E-03
    0.3000000000E+07    0.9327600340E-04    0.3427615344E-03    0.6955918631E+00    0.6519039709E+00    0.4652608703E-03
    0.5000000000E+07    0.3452288979E-04    0.1307154492E-03    0.6955797958E+00    0.6581842113E+00    0.4786533505E-03
    0.7000000000E+07    0.1779443283E-04    0.6871372078E-04    0.6955715111E+00    0.6608001349E+00    0.4876845155E-03
    0.9000000000E+07    0.1081845654E-04    0.4238889693E-04    0.6955651678E+00    0.6622311798E+00    0.4945408986E-03
    0.1100000000E+08    0.7263195538E-05    0.2878795684E-04    0.6955600129E+00    0.6631330391E+00    0.5000847178E-03
    0.1300000000E+08    0.5210372673E-05    0.2084754662E-04    0.6955556630E+00    0.6637532344E+00    0.5047471704E-03
    0.1500000000E+08    0.3919283980E-05    0.1580711837E-04    0.6955518955E+00    0.6642058185E+00    0.5087756203E-03
    0.1700000000E+08    0.3055065612E-05    0.1240621868E-04    0.6955485696E+00    0.6645506166E+00    0.5123254361E-03
    0.1900000000E+08    0.2448449589E-05    0.1000231469E-04    0.6955455902E+00    0.6648220207E+00    0.5155007278E-03
    0.2100000000E+08    0.2006420534E-05    0.8239722537E-05    0.6955428903E+00    0.6650412024E+00    0.5183747369E-03
    0.2300000000E+08    0.1674432748E-05    0.6908501820E-05    0.6955404207E+00    0.6652219071E+00    0.5210009834E-03
    0.2500000000E+08    0.1418789510E-05    0.5878197372E-05    0.6955381443E+00    0.6653734464E+00    0.5234197875E-03
    0.2700000000E+08    0.1217765454E-05    0.5064253130E-05    0.6955360323E+00    0.6655023525E+00    0.5256622961E-03
