  Pressure (Pa) 22mC5-500 (mol/kg) 23mC5-500 (mol/kg) 24mC5-500 (mol/kg) 3mC6-500 (mol/kg) C7-500 (mol/kg)
    0.1000000000E+01    0.2033146690E-05    0.1166852233E-05    0.1741103402E+00    0.5602359827E-05    0.4189964966E-02
    0.3000000000E+01    0.3766116725E-05    0.2153936621E-05    0.3481307877E+00    0.1432997470E-04    0.4224306027E-02
    0.5000000000E+01    0.4494651946E-05    0.2565587107E-05    0.4351073308E+00    0.2236005653E-04    0.4240237649E-02
    0.7000000000E+01    0.4890499126E-05    0.2788680167E-05    0.4872824691E+00    0.3005505517E-04    0.4249674032E-02
    0.9000000000E+01    0.5150278459E-05    0.2935642335E-05    0.5220613826E+00    0.3753727896E-04    0.4255906922E-02
    0.1100000000E+02    0.5347825991E-05    0.3048358752E-05    0.5469012380E+00    0.4486793154E-04    0.4260305090E-02
    0.1300000000E+02    0.5515292901E-05    0.3144904200E-05    0.5655298997E+00    0.5208344041E-04    0.4263548280E-02
    0.1500000000E+02    0.5668096878E-05    0.3233855232E-05    0.5800181197E+00    0.5920780829E-04    0.4266014378E-02
    0.1700000000E+02    0.5814126609E-05    0.3319544339E-05    0.5916082220E+00    0.6625795813E-04    0.4267930987E-02
    0.1900000000E+02    0.5957593354E-05    0.3404247127E-05    0.6010907131E+00    0.7324641423E-04    0.4269443737E-02
    0.2100000000E+02    0.6100799413E-05    0.3489180931E-05    0.6089925639E+00    0.8018279075E-04    0.4270650323E-02
    0.2300000000E+02    0.6245009889E-05    0.3574994059E-05    0.6156785811E+00    0.8707468209E-04    0.4271618841E-02
    0.2500000000E+02    0.6390907016E-05    0.3662019031E-05    0.6214093295E+00    0.9392822686E-04    0.4272398272E-02
    0.2700000000E+02    0.6538837654E-05    0.3750409480E-05    0.6263758829E+00    0.1007484818E-03    0.4273024795E-02
    0.2900000000E+02    0.6688952961E-05    0.3840216733E-05    0.6307215420E+00    0.1075396792E-03    0.4273525739E-02
    0.3100000000E+02    0.6841289454E-05    0.3931433808E-05    0.6345558868E+00    0.1143054093E-03    0.4273922157E-02
    0.3300000000E+02    0.6995817100E-05    0.4024021201E-05    0.6379641438E+00    0.1210487535E-03    0.4274230540E-02
    0.3500000000E+02    0.7152468292E-05    0.4117922197E-05    0.6410135959E+00    0.1277723831E-03    0.4274464000E-02
    0.3700000000E+02    0.7311155496E-05    0.4213072021E-05    0.6437580683E+00    0.1344786351E-03    0.4274633102E-02
    0.3900000000E+02    0.7471782035E-05    0.4309403305E-05    0.6462411329E+00    0.1411695699E-03    0.4274746459E-02
    0.4100000000E+02    0.7634248661E-05    0.4406849299E-05    0.6484984390E+00    0.1478470169E-03    0.4274811164E-02
    0.4300000000E+02    0.7798457491E-05    0.4505345718E-05    0.6505594355E+00    0.1545126111E-03    0.4274833119E-02
    0.4500000000E+02    0.7964314310E-05    0.4604831730E-05    0.6524486630E+00    0.1611678217E-03    0.4274817274E-02
    0.4700000000E+02    0.8131729830E-05    0.4705250428E-05    0.6541867352E+00    0.1678139762E-03    0.4274767815E-02
    0.4900000000E+02    0.8300620291E-05    0.4806548975E-05    0.6557910942E+00    0.1744522798E-03    0.4274688306E-02
    0.1000000000E+02    0.5254257815E-05    0.2994830734E-05    0.5354369210E+00    0.4121889116E-04    0.4258283040E-02
    0.3000000000E+02    0.6764844286E-05    0.3885650967E-05    0.6326968178E+00    0.1109255245E-03    0.4273735893E-02
    0.5000000000E+02    0.8385594019E-05    0.4857512784E-05    0.6565478621E+00    0.1777688346E-03    0.4274638255E-02
    0.7000000000E+02    0.1014651245E-04    0.5913097699E-05    0.6673287821E+00    0.2439110075E-03    0.4272614034E-02
    0.9000000000E+02    0.1199619247E-04    0.7020737079E-05    0.6734722718E+00    0.3101074816E-03    0.4269423306E-02
    0.1100000000E+03    0.1391149469E-04    0.8166680529E-05    0.6774407939E+00    0.3767545912E-03    0.4265610502E-02
    0.1300000000E+03    0.1588179509E-04    0.9344746384E-05    0.6802155857E+00    0.4441043587E-03    0.4261401708E-02
    0.1500000000E+03    0.1790214770E-04    0.1055212073E-04    0.6822648034E+00    0.5123377023E-03    0.4256907593E-02
    0.1700000000E+03    0.1997042996E-04    0.1178764297E-04    0.6838401074E+00    0.5815961352E-03    0.4252188149E-02
    0.1900000000E+03    0.2208604579E-04    0.1305103745E-04    0.6850888393E+00    0.6519976769E-03    0.4247278052E-02
    0.2100000000E+03    0.2424928726E-04    0.1434253919E-04    0.6861029987E+00    0.7236457070E-03    0.4242198084E-02
    0.2300000000E+03    0.2646099951E-04    0.1566269909E-04    0.6869429962E+00    0.7966342886E-03    0.4236960832E-02
    0.2500000000E+03    0.2872239564E-04    0.1701227729E-04    0.6876501392E+00    0.8710515743E-03    0.4231573754E-02
    0.2700000000E+03    0.3103495054E-04    0.1839218238E-04    0.6882536298E+00    0.9469821017E-03    0.4226040931E-02
    0.2900000000E+03    0.3340033841E-04    0.1980343612E-04    0.6887746965E+00    0.1024508414E-02    0.4220364122E-02
    0.3100000000E+03    0.3582039562E-04    0.2124715255E-04    0.6892291414E+00    0.1103712250E-02    0.4214543422E-02
    0.3300000000E+03    0.3829709873E-04    0.2272452594E-04    0.6896289701E+00    0.1184675463E-02    0.4208577688E-02
    0.3500000000E+03    0.4083255210E-04    0.2423682409E-04    0.6899834675E+00    0.1267480739E-02    0.4202464816E-02
    0.3700000000E+03    0.4342898158E-04    0.2578538512E-04    0.6902999265E+00    0.1352212203E-02    0.4196201929E-02
    0.3900000000E+03    0.4608873233E-04    0.2737161661E-04    0.6905841556E+00    0.1438955928E-02    0.4189785512E-02
    0.4100000000E+03    0.4881426947E-04    0.2899699627E-04    0.6908408381E+00    0.1527800389E-02    0.4183211493E-02
    0.4300000000E+03    0.5160818084E-04    0.3066307388E-04    0.6910737917E+00    0.1618836877E-02    0.4176475306E-02
    0.4500000000E+03    0.5447318123E-04    0.3237147399E-04    0.6912861601E+00    0.1712159883E-02    0.4169571932E-02
    0.4700000000E+03    0.5741211798E-04    0.3412389938E-04    0.6914805551E+00    0.1807867472E-02    0.4162495923E-02
    0.4900000000E+03    0.6042797745E-04    0.3592213513E-04    0.6916591646E+00    0.1906061648E-02    0.4155241421E-02
    0.1000000000E+03    0.1294648909E-04    0.7589417052E-05    0.6756492134E+00    0.3433567401E-03    0.4267576573E-02
    0.3000000000E+03    0.3460341292E-04    0.2052116364E-04    0.6890094220E+00    0.1063895538E-02    0.4217471805E-02
    0.5000000000E+03    0.6196572630E-04    0.3683901333E-04    0.6917431384E+00    0.1956124247E-02    0.4151545292E-02
    0.7000000000E+03    0.9762971493E-04    0.5810143712E-04    0.6929205109E+00    0.3117161982E-02    0.4066463811E-02
    0.9000000000E+03    0.1459815800E-03    0.8692614768E-04    0.6935758420E+00    0.4693363612E-02    0.3953109288E-02
    0.1100000000E+04    0.2146138423E-03    0.1278415088E-03    0.6939931927E+00    0.6936054976E-02    0.3795578614E-02
    0.1300000000E+04    0.3174290823E-03    0.1891390683E-03    0.6942821941E+00    0.1030627887E-01    0.3565418452E-02
    0.1500000000E+04    0.4808130821E-03    0.2865575052E-03    0.6944941117E+00    0.1568352879E-01    0.3210771703E-02
    0.1700000000E+04    0.7520127382E-03    0.4482876856E-03    0.6946561224E+00    0.2465898534E-01    0.2645901163E-02
    0.1900000000E+04    0.1181437614E-02    0.7044438258E-03    0.6947839742E+00    0.3899591657E-01    0.1806059055E-02
    0.2100000000E+04    0.1694079538E-02    0.1010394476E-02    0.6948874222E+00    0.5639198215E-01    0.9121668372E-03
    0.2300000000E+04    0.2075287680E-02    0.1238150532E-02    0.6949728313E+00    0.6977689400E-01    0.3957558516E-03
    0.2500000000E+04    0.2301192670E-02    0.1373389146E-02    0.6950445309E+00    0.7820408754E-01    0.2227446410E-03
    0.2700000000E+04    0.2458914420E-02    0.1468018335E-02    0.6951055683E+00    0.8447616650E-01    0.1781264125E-03
    0.2900000000E+04    0.2592650319E-02    0.1548387233E-02    0.6951581506E+00    0.9004289114E-01    0.1678025448E-03
    0.3100000000E+04    0.2715846506E-02    0.1622512688E-02    0.6952039153E+00    0.9534719640E-01    0.1657951484E-03
    0.3300000000E+04    0.2832211044E-02    0.1692603803E-02    0.6952441031E+00    0.1005087827E+00    0.1657465500E-03
    0.3500000000E+04    0.2942863330E-02    0.1759325403E-02    0.6952796711E+00    0.1055606221E+00    0.1661421401E-03
    0.3700000000E+04    0.3048257222E-02    0.1822945286E-02    0.6953113693E+00    0.1105133403E+00    0.1666233011E-03
    0.3900000000E+04    0.3148671038E-02    0.1883626634E-02    0.6953397940E+00    0.1153717939E+00    0.1671062015E-03
    0.4100000000E+04    0.3244331149E-02    0.1941501776E-02    0.6953654250E+00    0.1201392862E+00    0.1675724208E-03
    0.4300000000E+04    0.3335443417E-02    0.1996690957E-02    0.6953886528E+00    0.1248186413E+00    0.1680190431E-03
    0.4500000000E+04    0.3422201506E-02    0.2049307292E-02    0.6954097986E+00    0.1294124809E+00    0.1684467102E-03
    0.4700000000E+04    0.3504789359E-02    0.2099458236E-02    0.6954291286E+00    0.1339232995E+00    0.1688567632E-03
    0.4900000000E+04    0.3583382177E-02    0.2147246164E-02    0.6954468657E+00    0.1383534871E+00    0.1692505721E-03
    0.1000000000E+04    0.1770947643E-03    0.1054741719E-03    0.6938053630E+00    0.5709283808E-02    0.3881251676E-02
    0.3000000000E+04    0.2655231091E-02    0.1586030861E-02    0.6951817998E+00    0.9271691963E-01    0.1663532693E-03
    0.5000000000E+04    0.3621232955E-02    0.2170284684E-02    0.6954551968E+00    0.1405390649E+00    0.1694417829E-03
    0.7000000000E+04    0.4205213907E-02    0.2528463087E-02    0.6955713578E+00    0.1805304662E+00    0.1726550249E-03
    0.9000000000E+04    0.4538475226E-02    0.2737431870E-02    0.6956353049E+00    0.2145881960E+00    0.1750914138E-03
    0.1100000000E+05    0.4704549399E-02    0.2846244247E-02    0.6956756160E+00    0.2440094664E+00    0.1770599768E-03
    0.1300000000E+05    0.4758327332E-02    0.2887256770E-02    0.6957032544E+00    0.2697278832E+00    0.1787148147E-03
    0.1500000000E+05    0.4736595257E-02    0.2882248022E-02    0.6957233227E+00    0.2924339499E+00    0.1801441738E-03
    0.1700000000E+05    0.4664396194E-02    0.2846117057E-02    0.6957385147E+00    0.3126505368E+00    0.1814034149E-03
    0.1900000000E+05    0.4558988633E-02    0.2789188487E-02    0.6957503853E+00    0.3307817642E+00    0.1825296024E-03
    0.2100000000E+05    0.4432374857E-02    0.2718687485E-02    0.6957598946E+00    0.3471456087E+00    0.1835487939E-03
    0.2300000000E+05    0.4292952399E-02    0.2639705379E-02    0.6957676668E+00    0.3619962294E+00    0.1844800210E-03
    0.2500000000E+05    0.4146613954E-02    0.2555844406E-02    0.6957741249E+00    0.3755396126E+00    0.1853376156E-03
    0.2700000000E+05    0.3997492509E-02    0.2469655739E-02    0.6957795659E+00    0.3879447675E+00    0.1861326451E-03
    0.2900000000E+05    0.3848473637E-02    0.2382941600E-02    0.6957842042E+00    0.3993518889E+00    0.1868738376E-03
    0.3100000000E+05    0.3701552321E-02    0.2296966413E-02    0.6957881983E+00    0.4098784121E+00    0.1875681999E-03
    0.3300000000E+05    0.3558084294E-02    0.2212606096E-02    0.6957916678E+00    0.4196235742E+00    0.1882214441E-03
    0.3500000000E+05    0.3418964834E-02    0.2130454702E-02    0.6957947050E+00    0.4286718990E+00    0.1888382893E-03
    0.3700000000E+05    0.3284757023E-02    0.2050901259E-02    0.6957973817E+00    0.4370958944E+00    0.1894226797E-03
    0.3900000000E+05    0.3155784423E-02    0.1974185558E-02    0.6957997550E+00    0.4449581652E+00    0.1899779465E-03
    0.4100000000E+05    0.3032198445E-02    0.1900438924E-02    0.6958018705E+00    0.4523130859E+00    0.1905069289E-03
    0.4300000000E+05    0.2914027553E-02    0.1829714165E-02    0.6958037654E+00    0.4592081383E+00    0.1910120667E-03
    0.4500000000E+05    0.2801213336E-02    0.1762007668E-02    0.6958054701E+00    0.4656849917E+00    0.1914954727E-03
    0.4700000000E+05    0.2693637018E-02    0.1697275755E-02    0.6958070097E+00    0.4717803814E+00    0.1919589881E-03
    0.4900000000E+05    0.2591138958E-02    0.1635446806E-02    0.6958084053E+00    0.4775268301E+00    0.1924042280E-03
    0.1000000000E+05    0.4638458517E-02    0.2802030943E-02    0.6956575235E+00    0.2298132093E+00    0.1761223928E-03
    0.3000000000E+05    0.3774653455E-02    0.2339799208E-02    0.6957862735E+00    0.4047186417E+00    0.1872264892E-03
    0.5000000000E+05    0.2541736825E-02    0.1605593186E-02    0.6958090547E+00    0.4802783617E+00    0.1926204464E-03
    0.7000000000E+05    0.1770782609E-02    0.1135082685E-02    0.6958175724E+00    0.5225549443E+00    0.1962571867E-03
    0.9000000000E+05    0.1290377965E-02    0.8370235500E-03    0.6958216071E+00    0.5494759643E+00    0.1990179624E-03
    0.1100000000E+06    0.9773108074E-03    0.6402980054E-03    0.6958237265E+00    0.5680664257E+00    0.2012501375E-03
    0.1300000000E+06    0.7638481439E-03    0.5047547377E-03    0.6958248807E+00    0.5816473915E+00    0.2031273949E-03
    0.1500000000E+06    0.6124840087E-03    0.4077867360E-03    0.6958254954E+00    0.5919891944E+00    0.2047493593E-03
    0.1700000000E+06    0.5015564245E-03    0.3361735278E-03    0.6958257870E+00    0.6001196680E+00    0.2061785994E-03
    0.1900000000E+06    0.4179796540E-03    0.2818481483E-03    0.6958258754E+00    0.6066753178E+00    0.2074570397E-03
    0.2100000000E+06    0.3535168753E-03    0.2396896473E-03    0.6958258314E+00    0.6120707951E+00    0.2086141726E-03
    0.2300000000E+06    0.3027920094E-03    0.2063309959E-03    0.6958256990E+00    0.6165875099E+00    0.2096715487E-03
    0.2500000000E+06    0.2621832939E-03    0.1794891047E-03    0.6958255069E+00    0.6204230093E+00    0.2106454030E-03
    0.2700000000E+06    0.2291824033E-03    0.1575735262E-03    0.6958252738E+00    0.6237199620E+00    0.2115482766E-03
    0.2900000000E+06    0.2020094980E-03    0.1394497326E-03    0.6958250128E+00    0.6265839258E+00    0.2123900624E-03
    0.3100000000E+06    0.1793743534E-03    0.1242912951E-03    0.6958247330E+00    0.6290946461E+00    0.2131787042E-03
    0.3300000000E+06    0.1603237651E-03    0.1114849182E-03    0.6958244407E+00    0.6313134729E+00    0.2139206789E-03
    0.3500000000E+06    0.1441415039E-03    0.1005678578E-03    0.6958241407E+00    0.6332883634E+00    0.2146213385E-03
    0.3700000000E+06    0.1302811782E-03    0.9118572652E-04    0.6958238363E+00    0.6350573399E+00    0.2152851569E-03
    0.3900000000E+06    0.1183202244E-03    0.8306345216E-04    0.6958235298E+00    0.6366509308E+00    0.2159159129E-03
    0.4100000000E+06    0.1079277753E-03    0.7598491349E-04    0.6958232233E+00    0.6380939264E+00    0.2165168277E-03
    0.4300000000E+06    0.9884182968E-04    0.6977841703E-04    0.6958229179E+00    0.6394066643E+00    0.2170906699E-03
    0.4500000000E+06    0.9085277553E-04    0.6430617837E-04    0.6958226148E+00    0.6406059845E+00    0.2176398366E-03
    0.4700000000E+06    0.8379132754E-04    0.5945659574E-04    0.6958223145E+00    0.6417059492E+00    0.2181664177E-03
    0.4900000000E+06    0.7751957913E-04    0.5513850059E-04    0.6958220176E+00    0.6427183918E+00    0.2186722461E-03
    0.1000000000E+06    0.1118108763E-02    0.7290484775E-03    0.6958228283E+00    0.5595537090E+00    0.2001868548E-03
    0.3000000000E+06    0.1901908095E-03    0.1315423149E-03    0.6958248748E+00    0.6278792437E+00    0.2127905917E-03
    0.5000000000E+06    0.7464363807E-04    0.5315476989E-04    0.6958218706E+00    0.6431949874E+00    0.2189178907E-03
    0.7000000000E+06    0.3947138708E-04    0.2866101966E-04    0.6958191549E+00    0.6499166669E+00    0.2230498357E-03
    0.9000000000E+06    0.2433931054E-04    0.1793325076E-04    0.6958168472E+00    0.6536897253E+00    0.2261867956E-03
    0.1100000000E+07    0.1648570584E-04    0.1228908444E-04    0.6958148653E+00    0.6561046973E+00    0.2287232430E-03
    0.1300000000E+07    0.1189654556E-04    0.8954359431E-05    0.6958131344E+00    0.6577827982E+00    0.2308564539E-03
    0.1500000000E+07    0.8985860095E-05    0.6819567894E-05    0.6958115998E+00    0.6590165710E+00    0.2326995995E-03
    0.1700000000E+07    0.7025325490E-05    0.5370078169E-05    0.6958102218E+00    0.6599618273E+00    0.2343237623E-03
    0.1900000000E+07    0.5642558362E-05    0.4340521844E-05    0.6958089713E+00    0.6607091623E+00    0.2357765738E-03
    0.2100000000E+07    0.4631138597E-05    0.3582707661E-05    0.6958078266E+00    0.6613148398E+00    0.2370915428E-03
    0.2300000000E+07    0.3869184160E-05    0.3008559628E-05    0.6958067710E+00    0.6618156459E+00    0.2382931553E-03
    0.2500000000E+07    0.3280980576E-05    0.2563040684E-05    0.6958057915E+00    0.6622366457E+00    0.2393998584E-03
    0.2700000000E+07    0.2817487937E-05    0.2210312350E-05    0.6958048775E+00    0.6625955065E+00    0.2404259022E-03
    0.2900000000E+07    0.2445813454E-05    0.1926218396E-05    0.6958040207E+00    0.6629050394E+00    0.2413825277E-03
    0.3100000000E+07    0.2143229578E-05    0.1693992220E-05    0.6958032143E+00    0.6631747607E+00    0.2422787617E-03
    0.3300000000E+07    0.1893625896E-05    0.1501698830E-05    0.6958024525E+00    0.6634118867E+00    0.2431219640E-03
    0.3500000000E+07    0.1685325757E-05    0.1340653927E-05    0.6958017305E+00    0.6636219892E+00    0.2439182161E-03
    0.3700000000E+07    0.1509699204E-05    0.1204415528E-05    0.6958010443E+00    0.6638094386E+00    0.2446726020E-03
    0.3900000000E+07    0.1360256846E-05    0.1088122755E-05    0.6958003904E+00    0.6639777111E+00    0.2453894158E-03
    0.4100000000E+07    0.1232043168E-05    0.9880515519E-06    0.6957997659E+00    0.6641296063E+00    0.2460723179E-03
    0.4300000000E+07    0.1121221311E-05    0.9013096112E-06    0.6957991680E+00    0.6642674041E+00    0.2467244544E-03
    0.4500000000E+07    0.1024783281E-05    0.8256227810E-06    0.6957985947E+00    0.6643929802E+00    0.2473485495E-03
    0.4700000000E+07    0.9403440802E-06    0.7591828731E-06    0.6957980439E+00    0.6645078914E+00    0.2479469779E-03
    0.4900000000E+07    0.8659930944E-06    0.7005374911E-06    0.6957975139E+00    0.6646134411E+00    0.2485218224E-03
    0.1000000000E+07    0.1984359190E-04    0.1471057184E-04    0.6958158207E+00    0.6550166391E+00    0.2275150111E-03
    0.3000000000E+07    0.2287016678E-05    0.1804458958E-05    0.6958036116E+00    0.6630443805E+00    0.2418376998E-03
    0.5000000000E+07    0.8321059302E-06    0.6737607949E-06    0.6957972561E+00    0.6646630557E+00    0.2488009833E-03
    0.7000000000E+07    0.4288942501E-06    0.3522551420E-06    0.6957928930E+00    0.6653580858E+00    0.2534967127E-03
    0.9000000000E+07    0.2624790781E-06    0.2173285429E-06    0.6957895510E+00    0.6657445652E+00    0.2570617054E-03
    0.1100000000E+08    0.1780323310E-06    0.1480259471E-06    0.6957868338E+00    0.6659906456E+00    0.2599442491E-03
    0.1300000000E+08    0.1293372505E-06    0.1076914374E-06    0.6957845397E+00    0.6661610779E+00    0.2623685355E-03
    0.1500000000E+08    0.9869763957E-07    0.8212662654E-07    0.6957825518E+00    0.6662861013E+00    0.2644631772E-03
    0.1700000000E+08    0.7815487775E-07    0.6488615332E-07    0.6957807959E+00    0.6663817328E+00    0.2663089555E-03
    0.1900000000E+08    0.6369948458E-07    0.5269750239E-07    0.6957792223E+00    0.6664572490E+00    0.2679600012E-03
    0.2100000000E+08    0.5313291998E-07    0.4375425177E-07    0.6957777956E+00    0.6665183942E+00    0.2694543954E-03
    0.2300000000E+08    0.4516762026E-07    0.3699234959E-07    0.6957764901E+00    0.6665689154E+00    0.2708199651E-03
    0.2500000000E+08    0.3900872806E-07    0.3175157956E-07    0.6957752862E+00    0.6666113613E+00    0.2720776748E-03
    0.2700000000E+08    0.3414389650E-07    0.2760446552E-07    0.6957741687E+00    0.6666475256E+00    0.2732437190E-03
