  Pressure (Pa) 22mC5-500 (mol/kg) 23mC5-500 (mol/kg) 24mC5-500 (mol/kg) 3mC6-500 (mol/kg) C7-500 (mol/kg)
    0.1000000000E+01    0.2371008202E-05    0.3405264624E-05    0.9949962184E-01    0.5602561355E-05    0.4194087321E-02
    0.3000000000E+01    0.5245024036E-05    0.7514798333E-05    0.2321108265E+00    0.1433126193E-04    0.4243738760E-02
    0.5000000000E+01    0.6881512454E-05    0.9842108705E-05    0.3164672172E+00    0.2236306723E-04    0.4273564671E-02
    0.7000000000E+01    0.7908906979E-05    0.1129628123E-04    0.3748530466E+00    0.3006034434E-04    0.4294115347E-02
    0.9000000000E+01    0.8602362260E-05    0.1227411148E-04    0.4176616941E+00    0.3754537317E-04    0.4309199289E-02
    0.1100000000E+02    0.9098931162E-05    0.1297260307E-04    0.4503933857E+00    0.4487934243E-04    0.4320752612E-02
    0.1300000000E+02    0.9473228129E-05    0.1349864353E-04    0.4762315535E+00    0.5209866973E-04    0.4329883456E-02
    0.1500000000E+02    0.9768637739E-05    0.1391415852E-04    0.4971464642E+00    0.5922735046E-04    0.4337275781E-02
    0.1700000000E+02    0.1001169667E-04    0.1425688057E-04    0.5144228535E+00    0.6628230181E-04    0.4343375854E-02
    0.1900000000E+02    0.1021929986E-04    0.1455073454E-04    0.5289342205E+00    0.7327604342E-04    0.4348487780E-02
    0.2100000000E+02    0.1040255683E-04    0.1481138366E-04    0.5412951791E+00    0.8021818565E-04    0.4352826204E-02
    0.2300000000E+02    0.1056896807E-04    0.1504935288E-04    0.5519507518E+00    0.8711631978E-04    0.4356547109E-02
    0.2500000000E+02    0.1072370876E-04    0.1527186679E-04    0.5612310895E+00    0.9397658185E-04    0.4359766675E-02
    0.2700000000E+02    0.1087041428E-04    0.1548397183E-04    0.5693862889E+00    0.1008040265E-03    0.4362573275E-02
    0.2900000000E+02    0.1101167634E-04    0.1568924318E-04    0.5766092700E+00    0.1076028844E-03    0.4365035371E-02
    0.3100000000E+02    0.1114936499E-04    0.1589024251E-04    0.5830512323E+00    0.1143767443E-03    0.4367206852E-02
    0.3300000000E+02    0.1128484253E-04    0.1608882114E-04    0.5888323542E+00    0.1211286866E-03    0.4369130742E-02
    0.3500000000E+02    0.1141910858E-04    0.1628632524E-04    0.5940493605E+00    0.1278613820E-03    0.4370841819E-02
    0.3700000000E+02    0.1155290036E-04    0.1648373710E-04    0.5987809780E+00    0.1345771667E-03    0.4372368519E-02
    0.3900000000E+02    0.1168676306E-04    0.1668177402E-04    0.6030919352E+00    0.1412781009E-03    0.4373734322E-02
    0.4100000000E+02    0.1182109992E-04    0.1688095853E-04    0.6070359413E+00    0.1479660139E-03    0.4374958801E-02
    0.4300000000E+02    0.1195620840E-04    0.1708166882E-04    0.6106579355E+00    0.1546425407E-03    0.4376058402E-02
    0.4500000000E+02    0.1209230658E-04    0.1728417552E-04    0.6139958068E+00    0.1613091507E-03    0.4377047055E-02
    0.4700000000E+02    0.1222955257E-04    0.1748866855E-04    0.6170817241E+00    0.1679671717E-03    0.4377936636E-02
    0.4900000000E+02    0.1236805904E-04    0.1769527720E-04    0.6199431769E+00    0.1746178094E-03    0.4378737340E-02
    0.1000000000E+02    0.8869615790E-05    0.1265018426E-04    0.4350508717E+00    0.4122858045E-04    0.4315334905E-02
    0.3000000000E+02    0.1108087226E-04    0.1579014728E-04    0.5799197413E+00    0.1109927359E-03    0.4366154530E-02
    0.5000000000E+02    0.1243781046E-04    0.1779940243E-04    0.6212972456E+00    0.1779407068E-03    0.4379107161E-02
    0.7000000000E+02    0.1390717208E-04    0.1999932642E-04    0.6408947032E+00    0.2442344832E-03    0.4383452052E-02
    0.9000000000E+02    0.1550855622E-04    0.2240111163E-04    0.6523256366E+00    0.3106305926E-03    0.4384318423E-02
    0.1100000000E+03    0.1721859520E-04    0.2496543356E-04    0.6598143779E+00    0.3775270962E-03    0.4383368375E-02
    0.1300000000E+03    0.1901880309E-04    0.2766341574E-04    0.6651002331E+00    0.4451781652E-03    0.4381312306E-02
    0.1500000000E+03    0.2089710638E-04    0.3047669095E-04    0.6690305166E+00    0.5137671993E-03    0.4378507454E-02
    0.1700000000E+03    0.2284590168E-04    0.3339387632E-04    0.6720673833E+00    0.5834384832E-03    0.4375153747E-02
    0.1900000000E+03    0.2486050816E-04    0.3640805646E-04    0.6744843463E+00    0.6543130804E-03    0.4371371760E-02
    0.2100000000E+03    0.2693817453E-04    0.3951522652E-04    0.6764536131E+00    0.7264976809E-03    0.4367238213E-02
    0.2300000000E+03    0.2907745982E-04    0.4271333974E-04    0.6780890136E+00    0.8000899270E-03    0.4362803836E-02
    0.2500000000E+03    0.3127784333E-04    0.4600171507E-04    0.6794688041E+00    0.8751818263E-03    0.4358103065E-02
    0.2700000000E+03    0.3353947417E-04    0.4938066022E-04    0.6806485572E+00    0.9518620588E-03    0.4353159638E-02
    0.2900000000E+03    0.3586300716E-04    0.5285122657E-04    0.6816688249E+00    0.1030217611E-02    0.4347989979E-02
    0.3100000000E+03    0.3824949348E-04    0.5641504671E-04    0.6825598925E+00    0.1110334984E-02    0.4342605345E-02
    0.3300000000E+03    0.4070030677E-04    0.6007422543E-04    0.6833448342E+00    0.1192301129E-02    0.4337013218E-02
    0.3500000000E+03    0.4321709293E-04    0.6383126590E-04    0.6840415385E+00    0.1276204191E-02    0.4331218248E-02
    0.3700000000E+03    0.4580173596E-04    0.6768901988E-04    0.6846640878E+00    0.1362134137E-02    0.4325222892E-02
    0.3900000000E+03    0.4845633510E-04    0.7165065449E-04    0.6852237193E+00    0.1450183292E-02    0.4319027873E-02
    0.4100000000E+03    0.5118318995E-04    0.7571963085E-04    0.6857295091E+00    0.1540446822E-02    0.4312632499E-02
    0.4300000000E+03    0.5398479154E-04    0.7989969146E-04    0.6861888678E+00    0.1633023179E-02    0.4306034898E-02
    0.4500000000E+03    0.5686381776E-04    0.8419485393E-04    0.6866079057E+00    0.1728014521E-02    0.4299232184E-02
    0.4700000000E+03    0.5982313228E-04    0.8860940988E-04    0.6869917064E+00    0.1825527126E-02    0.4292220585E-02
    0.4900000000E+03    0.6286578616E-04    0.9314792773E-04    0.6873445331E+00    0.1925671791E-02    0.4284995525E-02
    0.1000000000E+03    0.1635132040E-04    0.2366505063E-04    0.6564233066E+00    0.3439982025E-03    0.4384014004E-02
    0.3000000000E+03    0.3704830218E-04    0.5462135843E-04    0.6821289252E+00    0.1070050655E-02    0.4345323990E-02
    0.5000000000E+03    0.6441937097E-04    0.9546517714E-04    0.6875104792E+00    0.1976767107E-02    0.4281301315E-02
    0.7000000000E+03    0.1007880944E-03    0.1496956447E-03    0.6898414777E+00    0.3168871867E-02    0.4194512236E-02
    0.9000000000E+03    0.1509027007E-03    0.2244022941E-03    0.6911424574E+00    0.4808154420E-02    0.4075604516E-02
    0.1100000000E+04    0.2233061441E-03    0.3323255434E-03    0.6919723411E+00    0.7178647065E-02    0.3906481409E-02
    0.1300000000E+04    0.3340426361E-03    0.4973890243E-03    0.6925476380E+00    0.1081324120E-01    0.3653644242E-02
    0.1500000000E+04    0.5140366568E-03    0.7657100381E-03    0.6929698260E+00    0.1674428329E-01    0.3255265190E-02
    0.1700000000E+04    0.8168669089E-03    0.1217220497E-02    0.6932927858E+00    0.2678306366E-01    0.2614360072E-02
    0.1900000000E+04    0.1280611207E-02    0.1908860699E-02    0.6935477766E+00    0.4231334608E-01    0.1702007278E-02
    0.2100000000E+04    0.1771851248E-02    0.2641968885E-02    0.6937541791E+00    0.5909901946E-01    0.8641890265E-03
    0.2300000000E+04    0.2096515954E-02    0.3127149510E-02    0.6939246480E+00    0.7067592567E-01    0.4666345017E-03
    0.2500000000E+04    0.2291522290E-02    0.3419220723E-02    0.6940677960E+00    0.7810963082E-01    0.3507109907E-03
    0.2700000000E+04    0.2437502873E-02    0.3638320008E-02    0.6941896885E+00    0.8401603748E-01    0.3234333462E-03
    0.2900000000E+04    0.2565941316E-02    0.3831374546E-02    0.6942947200E+00    0.8943049467E-01    0.3180397479E-03
    0.3100000000E+04    0.2685627241E-02    0.4011483854E-02    0.6943861525E+00    0.9464153502E-01    0.3176921440E-03
    0.3300000000E+04    0.2798954807E-02    0.4182210901E-02    0.6944664581E+00    0.9972466464E-01    0.3184584168E-03
    0.3500000000E+04    0.2906700574E-02    0.4344706117E-02    0.6945375444E+00    0.1047011080E+00    0.3194362598E-03
    0.3700000000E+04    0.3009235226E-02    0.4499514765E-02    0.6946009067E+00    0.1095785339E+00    0.3204216672E-03
    0.3900000000E+04    0.3106821279E-02    0.4647021124E-02    0.6946577339E+00    0.1143611619E+00    0.3213713095E-03
    0.4100000000E+04    0.3199686164E-02    0.4787557549E-02    0.6947089831E+00    0.1190522579E+00    0.3222786368E-03
    0.4300000000E+04    0.3288040552E-02    0.4921431798E-02    0.6947554332E+00    0.1236547557E+00    0.3231452246E-03
    0.4500000000E+04    0.3372083308E-02    0.5048934414E-02    0.6947977250E+00    0.1281714152E+00    0.3239741554E-03
    0.4700000000E+04    0.3452003149E-02    0.5170341172E-02    0.6948363898E+00    0.1326048672E+00    0.3247685257E-03
    0.4900000000E+04    0.3527979463E-02    0.5285914282E-02    0.6948718725E+00    0.1369576291E+00    0.3255311473E-03
    0.1000000000E+04    0.1835557746E-03    0.2730748153E-03    0.6915987182E+00    0.5876700494E-02    0.3998932591E-02
    0.3000000000E+04    0.2626663721E-02    0.3922727744E-02    0.6943419662E+00    0.9205454396E-01    0.3176052310E-03
    0.5000000000E+04    0.3564542452E-02    0.5341591662E-02    0.6948885401E+00    0.1391045088E+00    0.3259013451E-03
    0.7000000000E+04    0.4126075403E-02    0.6203454178E-02    0.6951210428E+00    0.1783421621E+00    0.3321153788E-03
    0.9000000000E+04    0.4443571633E-02    0.6702056426E-02    0.6952491449E+00    0.2117223250E+00    0.3368200338E-03
    0.1100000000E+05    0.4599912391E-02    0.6959150115E-02    0.6953299569E+00    0.2405661519E+00    0.3406180429E-03
    0.1300000000E+05    0.4648772276E-02    0.7053884715E-02    0.6953854012E+00    0.2658091482E+00    0.3438089855E-03
    0.1500000000E+05    0.4625724660E-02    0.7038946900E-02    0.6954256853E+00    0.2881343089E+00    0.3465640685E-03
    0.1700000000E+05    0.4554785072E-02    0.6950081548E-02    0.6954561999E+00    0.3080535463E+00    0.3489905482E-03
    0.1900000000E+05    0.4452402166E-02    0.6811907868E-02    0.6954800584E+00    0.3259593674E+00    0.3511601605E-03
    0.2100000000E+05    0.4329965008E-02    0.6641580177E-02    0.6954991827E+00    0.3421587423E+00    0.3531232998E-03
    0.2300000000E+05    0.4195418859E-02    0.6451152242E-02    0.6955148231E+00    0.3568959391E+00    0.3549167499E-03
    0.2500000000E+05    0.4054329634E-02    0.6249138765E-02    0.6955278275E+00    0.3703683115E+00    0.3565681976E-03
    0.2700000000E+05    0.3910598687E-02    0.6041566868E-02    0.6955387908E+00    0.3827374631E+00    0.3580990151E-03
    0.2900000000E+05    0.3766950828E-02    0.5832696242E-02    0.6955481426E+00    0.3941373039E+00    0.3595260508E-03
    0.3100000000E+05    0.3625272391E-02    0.5625519714E-02    0.6955562009E+00    0.4046799731E+00    0.3608628273E-03
    0.3300000000E+05    0.3486848389E-02    0.5422115708E-02    0.6955632057E+00    0.4144602650E+00    0.3621203653E-03
    0.3500000000E+05    0.3352530709E-02    0.5223899244E-02    0.6955693416E+00    0.4235589886E+00    0.3633077677E-03
    0.3700000000E+05    0.3222858529E-02    0.5031802426E-02    0.6955747531E+00    0.4320455533E+00    0.3644326415E-03
    0.3900000000E+05    0.3098145227E-02    0.4846405334E-02    0.6955795545E+00    0.4399799838E+00    0.3655014101E-03
    0.4100000000E+05    0.2978541528E-02    0.4668031632E-02    0.6955838376E+00    0.4474145096E+00    0.3665195476E-03
    0.4300000000E+05    0.2864081644E-02    0.4496818821E-02    0.6955876769E+00    0.4543948322E+00    0.3674917576E-03
    0.4500000000E+05    0.2754717116E-02    0.4332770111E-02    0.6955911334E+00    0.4609611450E+00    0.3684221121E-03
    0.4700000000E+05    0.2650341733E-02    0.4175792865E-02    0.6955942577E+00    0.4671489627E+00    0.3693141602E-03
    0.4900000000E+05    0.2550809891E-02    0.4025727163E-02    0.6955970919E+00    0.4729898003E+00    0.3701710142E-03
    0.1000000000E+05    0.4538006470E-02    0.6855077819E-02    0.6952936800E+00    0.2266456590E+00    0.3388094511E-03
    0.3000000000E+05    0.3695773272E-02    0.5728748231E-02    0.6955523169E+00    0.3995094976E+00    0.3602049818E-03
    0.5000000000E+05    0.2502807435E-02    0.3953223115E-02    0.6955984115E+00    0.4757889964E+00    0.3705871139E-03
    0.7000000000E+05    0.1750938662E-02    0.2806243488E-02    0.6956157912E+00    0.5189871075E+00    0.3775851677E-03
    0.9000000000E+05    0.1279520500E-02    0.2075108089E-02    0.6956241150E+00    0.5466516199E+00    0.3828969869E-03
    0.1100000000E+06    0.9709715306E-03    0.1590427898E-02    0.6956285554E+00    0.5658011797E+00    0.3871914592E-03
    0.1300000000E+06    0.7599427696E-03    0.1255453111E-02    0.6956310306E+00    0.5798004868E+00    0.3908029402E-03
    0.1500000000E+06    0.6099717928E-03    0.1015276363E-02    0.6956324026E+00    0.5904591230E+00    0.3939231846E-03
    0.1700000000E+06    0.4998837577E-03    0.8376063070E-03    0.6956331103E+00    0.5988335548E+00    0.3966726099E-03
    0.1900000000E+06    0.4168353535E-03    0.7026571129E-03    0.6956333974E+00    0.6055802585E+00    0.3991318951E-03
    0.2100000000E+06    0.3527175364E-03    0.5978291147E-03    0.6956334086E+00    0.6111277673E+00    0.4013577921E-03
    0.2300000000E+06    0.3022250455E-03    0.5148178689E-03    0.6956332341E+00    0.6157672419E+00    0.4033917682E-03
    0.2500000000E+06    0.2617771189E-03    0.4479815599E-03    0.6956329323E+00    0.6197031825E+00    0.4052650615E-03
    0.2700000000E+06    0.2288900894E-03    0.3933839334E-03    0.6956325424E+00    0.6230832977E+00    0.4070018018E-03
    0.2900000000E+06    0.2017994498E-03    0.3482135879E-03    0.6956320912E+00    0.6260168578E+00    0.4086210227E-03
    0.3100000000E+06    0.1792247926E-03    0.3104204844E-03    0.6956315976E+00    0.6285863855E+00    0.4101380079E-03
    0.3300000000E+06    0.1602193649E-03    0.2784819693E-03    0.6956310751E+00    0.6308553380E+00    0.4115652185E-03
    0.3500000000E+06    0.1440712763E-03    0.2512483324E-03    0.6956305334E+00    0.6328732934E+00    0.4129129510E-03
    0.3700000000E+06    0.1302371139E-03    0.2278385350E-03    0.6956299797E+00    0.6346795356E+00    0.4141898125E-03
    0.3900000000E+06    0.1182963984E-03    0.2075683588E-03    0.6956294191E+00    0.6363055863E+00    0.4154030728E-03
    0.4100000000E+06    0.1079197451E-03    0.1898999738E-03    0.6956288557E+00    0.6377770262E+00    0.4165589290E-03
    0.4300000000E+06    0.9884622368E-04    0.1744059391E-03    0.6956282923E+00    0.6391148278E+00    0.4176627070E-03
    0.4500000000E+06    0.9086700665E-04    0.1607431121E-03    0.6956277312E+00    0.6403363458E+00    0.4187190187E-03
    0.4700000000E+06    0.8381339074E-04    0.1486334700E-03    0.6956271739E+00    0.6414560627E+00    0.4197318841E-03
    0.4900000000E+06    0.7754790625E-04    0.1378498308E-03    0.6956266217E+00    0.6424861584E+00    0.4207048293E-03
    0.1000000000E+06    0.1109873814E-02    0.1809301293E-02    0.6956266633E+00    0.5570293436E+00    0.3851458436E-03
    0.3000000000E+06    0.1900132631E-03    0.3285002967E-03    0.6956318488E+00    0.6273427831E+00    0.4093914586E-03
    0.5000000000E+06    0.7467461595E-04    0.1328954665E-03    0.6956263479E+00    0.6429708849E+00    0.4211773181E-03
    0.7000000000E+06    0.3952265701E-04    0.7170248769E-04    0.6956212532E+00    0.6497941678E+00    0.4291248834E-03
    0.9000000000E+06    0.2439118002E-04    0.4488831178E-04    0.6956168915E+00    0.6536125397E+00    0.4351585539E-03
    0.1100000000E+07    0.1653508638E-04    0.3077657079E-04    0.6956131316E+00    0.6560516029E+00    0.4400371376E-03
    0.1300000000E+07    0.1194311306E-04    0.2243714334E-04    0.6956098409E+00    0.6577440359E+00    0.4441401061E-03
    0.1500000000E+07    0.9029840441E-05    0.1709747181E-04    0.6956069191E+00    0.6589870293E+00    0.4476851468E-03
    0.1700000000E+07    0.7067029785E-05    0.1347127097E-04    0.6956042928E+00    0.6599385701E+00    0.4508089870E-03
    0.1900000000E+07    0.5682275985E-05    0.1089517119E-04    0.6956019079E+00    0.6606903826E+00    0.4536032452E-03
    0.2100000000E+07    0.4669116625E-05    0.8998678730E-05    0.6955997235E+00    0.6612993643E+00    0.4561323743E-03
    0.2300000000E+07    0.3905628780E-05    0.7561572067E-05    0.6955977082E+00    0.6618026796E+00    0.4584434723E-03
    0.2500000000E+07    0.3316063359E-05    0.6446226448E-05    0.6955958373E+00    0.6622256304E+00    0.4605720214E-03
    0.2700000000E+07    0.2851352312E-05    0.5563017336E-05    0.6955940912E+00    0.6625860387E+00    0.4625454307E-03
    0.2900000000E+07    0.2478580207E-05    0.4851530293E-05    0.6955924540E+00    0.6628968204E+00    0.4643853217E-03
    0.3100000000E+07    0.2175001270E-05    0.4269829069E-05    0.6955909126E+00    0.6631675641E+00    0.4661090563E-03
    0.3300000000E+07    0.1924490332E-05    0.3788059900E-05    0.6955894563E+00    0.6634055383E+00    0.4677307910E-03
    0.3500000000E+07    0.1715358707E-05    0.3384498589E-05    0.6955880759E+00    0.6636163523E+00    0.4692622229E-03
    0.3700000000E+07    0.1538966536E-05    0.3043029021E-05    0.6955867637E+00    0.6638044047E+00    0.4707131305E-03
    0.3900000000E+07    0.1388816219E-05    0.2751489686E-05    0.6955855132E+00    0.6639731928E+00    0.4720917732E-03
    0.4100000000E+07    0.1259945370E-05    0.2500562615E-05    0.6955843187E+00    0.6641255324E+00    0.4734051914E-03
    0.4300000000E+07    0.1148511347E-05    0.2283010426E-05    0.6955831752E+00    0.6642637163E+00    0.4746594363E-03
    0.4500000000E+07    0.1051501243E-05    0.2093142105E-05    0.6955820785E+00    0.6643896297E+00    0.4758597475E-03
    0.4700000000E+07    0.9665258603E-06    0.1926432360E-05    0.6955810247E+00    0.6645048377E+00    0.4770106926E-03
    0.4900000000E+07    0.8916709766E-06    0.1779246047E-05    0.6955800107E+00    0.6646106499E+00    0.4781162777E-03
    0.1000000000E+07    0.1989433553E-04    0.3683127169E-04    0.6956149454E+00    0.6549531852E+00    0.4377132391E-03
    0.3000000000E+07    0.2319274073E-05    0.4546550351E-05    0.6955916720E+00    0.6630366974E+00    0.4652607586E-03
    0.5000000000E+07    0.8575429767E-06    0.1712030653E-05    0.6955795176E+00    0.6646603846E+00    0.4786531808E-03
    0.7000000000E+07    0.4506338779E-06    0.9040787330E-06    0.6955711684E+00    0.6653568714E+00    0.4876843015E-03
    0.9000000000E+07    0.2818106397E-06    0.5640509994E-06    0.6955647722E+00    0.6657439812E+00    0.4945406475E-03
    0.1100000000E+08    0.1956337494E-06    0.3888559423E-06    0.6955595718E+00    0.6659903991E+00    0.5000844342E-03
    0.1300000000E+08    0.1456169721E-06    0.2865446671E-06    0.6955551814E+00    0.6661610381E+00    0.5047468575E-03
    0.1500000000E+08    0.1139243487E-06    0.2214614778E-06    0.6955513771E+00    0.6662862008E+00    0.5087752806E-03
    0.1700000000E+08    0.9251654588E-07    0.1774010305E-06    0.6955480173E+00    0.6663819331E+00    0.5123250714E-03
    0.1900000000E+08    0.7733375766E-07    0.1461248769E-06    0.6955450065E+00    0.6664575262E+00    0.5155003399E-03
    0.2100000000E+08    0.6614420538E-07    0.1230793074E-06    0.6955422772E+00    0.6665187328E+00    0.5183743270E-03
    0.2300000000E+08    0.5763736385E-07    0.1055782407E-06    0.6955397798E+00    0.6665693047E+00    0.5210005525E-03
    0.2500000000E+08    0.5100193151E-07    0.9195258984E-07    0.6955374770E+00    0.6666117935E+00    0.5234193367E-03
    0.2700000000E+08    0.4571343116E-07    0.8112000967E-07    0.6955353399E+00    0.6666479950E+00    0.5256618262E-03
