  Pressure (Pa) 22mC5-500 (mol/kg) 23mC5-500 (mol/kg) 24mC5-500 (mol/kg) 3mC6-500 (mol/kg) C7-500 (mol/kg)
    0.1000000000E+01    0.2517378674E-05    0.4340710321E-05    0.6965284176E-01    0.6708146260E-05    0.4184208208E-02
    0.3000000000E+01    0.6035069383E-05    0.1038693175E-04    0.1740973866E+00    0.1705381585E-04    0.4229684961E-02
    0.5000000000E+01    0.8358135995E-05    0.1436470269E-04    0.2486752814E+00    0.2655316176E-04    0.4259100389E-02
    0.7000000000E+01    0.9979063112E-05    0.1713037249E-04    0.3045949528E+00    0.3564958387E-04    0.4280821789E-02
    0.9000000000E+01    0.1115872652E-04    0.1913661819E-04    0.3480799543E+00    0.4449204471E-04    0.4297621419E-02
    0.1100000000E+02    0.1204736892E-04    0.2064361864E-04    0.3828629138E+00    0.5315489996E-04    0.4311015407E-02
    0.1300000000E+02    0.1273684673E-04    0.2181011342E-04    0.4113183967E+00    0.6168232538E-04    0.4321940056E-02
    0.1500000000E+02    0.1328598872E-04    0.2273754700E-04    0.4350290505E+00    0.7010338820E-04    0.4331012020E-02
    0.1700000000E+02    0.1373390432E-04    0.2349320865E-04    0.4550903297E+00    0.7843855876E-04    0.4338655991E-02
    0.1900000000E+02    0.1410740408E-04    0.2412311945E-04    0.4722845689E+00    0.8670297262E-04    0.4345174724E-02
    0.2100000000E+02    0.1442534539E-04    0.2465957020E-04    0.4871853972E+00    0.9490823972E-04    0.4350790187E-02
    0.2300000000E+02    0.1470128361E-04    0.2512571401E-04    0.5002229837E+00    0.1030635254E-03    0.4355668983E-02
    0.2500000000E+02    0.1494514625E-04    0.2553846280E-04    0.5117262460E+00    0.1111762347E-03    0.4359938693E-02
    0.2700000000E+02    0.1516432202E-04    0.2591036884E-04    0.5219509854E+00    0.1192524655E-03    0.4363698726E-02
    0.2900000000E+02    0.1536438779E-04    0.2625087895E-04    0.5310991334E+00    0.1272973204E-03    0.4367027724E-02
    0.3100000000E+02    0.1554960482E-04    0.2656718948E-04    0.5393322239E+00    0.1353151275E-03    0.4369988743E-02
    0.3300000000E+02    0.1572326442E-04    0.2686484091E-04    0.5467810138E+00    0.1433096015E-03    0.4372632951E-02
    0.3500000000E+02    0.1588793292E-04    0.2714813869E-04    0.5535524798E+00    0.1512839635E-03    0.4375002316E-02
    0.3700000000E+02    0.1604562823E-04    0.2742045596E-04    0.5597349895E+00    0.1592410315E-03    0.4377131595E-02
    0.3900000000E+02    0.1619794870E-04    0.2768445432E-04    0.5654021789E+00    0.1671832914E-03    0.4379049830E-02
    0.4100000000E+02    0.1634616863E-04    0.2794224696E-04    0.5706158997E+00    0.1751129512E-03    0.4380781477E-02
    0.4300000000E+02    0.1649130971E-04    0.2819552071E-04    0.5754284859E+00    0.1830319853E-03    0.4382347287E-02
    0.4500000000E+02    0.1663419512E-04    0.2844562816E-04    0.5798845168E+00    0.1909421693E-03    0.4383764982E-02
    0.4700000000E+02    0.1677549092E-04    0.2869365804E-04    0.5840222019E+00    0.1988451086E-03    0.4385049794E-02
    0.4900000000E+02    0.1691573793E-04    0.2894048934E-04    0.5878744793E+00    0.2067422619E-03    0.4386214888E-02
    0.1000000000E+02    0.1163269429E-04    0.1994088431E-04    0.3663873309E+00    0.4884269510E-04    0.4304676003E-02
    0.3000000000E+02    0.1545862723E-04    0.2641167969E-04    0.5353212597E+00    0.1313093599E-03    0.4368550790E-02
    0.5000000000E+02    0.1698560912E-04    0.2906368341E-04    0.5897026618E+00    0.2106890893E-03    0.4386756175E-02
    0.7000000000E+02    0.1839971721E-04    0.3157897698E-04    0.6165456088E+00    0.2895930837E-03    0.4393416809E-02
    0.9000000000E+02    0.1991580508E-04    0.3429791761E-04    0.6325417747E+00    0.3689426344E-03    0.4395273747E-02
    0.1100000000E+03    0.2155514676E-04    0.3724515454E-04    0.6431605564E+00    0.4492313943E-03    0.4394595939E-02
    0.1300000000E+03    0.2331048295E-04    0.4040265194E-04    0.6507232763E+00    0.5307829519E-03    0.4392368523E-02
    0.1500000000E+03    0.2517194968E-04    0.4375063230E-04    0.6563832289E+00    0.6138383985E-03    0.4389089853E-02
    0.1700000000E+03    0.2713161385E-04    0.4727395253E-04    0.6607782447E+00    0.6985942177E-03    0.4385038953E-02
    0.1900000000E+03    0.2918389057E-04    0.5096219567E-04    0.6642897293E+00    0.7852213374E-03    0.4380383492E-02
    0.2100000000E+03    0.3132517792E-04    0.5480874094E-04    0.6671597568E+00    0.8738757870E-03    0.4375229393E-02
    0.2300000000E+03    0.3355342842E-04    0.5880987059E-04    0.6695493698E+00    0.9647051723E-03    0.4369645894E-02
    0.2500000000E+03    0.3586780058E-04    0.6296408493E-04    0.6715698664E+00    0.1057852891E-02    0.4363679195E-02
    0.2700000000E+03    0.3826840035E-04    0.6727160876E-04    0.6733006301E+00    0.1153461049E-02    0.4357360329E-02
    0.2900000000E+03    0.4075609528E-04    0.7173404263E-04    0.6747998044E+00    0.1251672601E-02    0.4350709934E-02
    0.3100000000E+03    0.4333238261E-04    0.7635411823E-04    0.6761109507E+00    0.1352633000E-02    0.4343741253E-02
    0.3300000000E+03    0.4599929644E-04    0.8113552784E-04    0.6772673502E+00    0.1456491543E-02    0.4336462084E-02
    0.3500000000E+03    0.4875934311E-04    0.8608280640E-04    0.6782948676E+00    0.1563402528E-02    0.4328876086E-02
    0.3700000000E+03    0.5161545724E-04    0.9120125178E-04    0.6792139076E+00    0.1673526280E-02    0.4320983668E-02
    0.3900000000E+03    0.5457097319E-04    0.9649687322E-04    0.6800407839E+00    0.1787030106E-02    0.4312782601E-02
    0.4100000000E+03    0.5762960797E-04    0.1019763607E-03    0.6807886951E+00    0.1904089222E-02    0.4304268452E-02
    0.4300000000E+03    0.6079545326E-04    0.1076470710E-03    0.6814684345E+00    0.2024887657E-02    0.4295434886E-02
    0.4500000000E+03    0.6407297467E-04    0.1135170260E-03    0.6820889144E+00    0.2149619177E-02    0.4286273876E-02
    0.4700000000E+03    0.6746701677E-04    0.1195949228E-03    0.6826575584E+00    0.2278488227E-02    0.4276775847E-02
    0.4900000000E+03    0.7098281338E-04    0.1258901516E-03    0.6831805997E+00    0.2411710917E-02    0.4266929770E-02
    0.1000000000E+03    0.2072034612E-04    0.3574391244E-04    0.6383383215E+00    0.4089467993E-03    0.4395173595E-02
    0.3000000000E+03    0.4203304947E-04    0.7402416536E-04    0.6754765990E+00    0.1301799968E-02    0.4347264782E-02
    0.5000000000E+03    0.7278811514E-04    0.1291223959E-03    0.6834266995E+00    0.2480025856E-02    0.4261872385E-02
    0.7000000000E+03    0.1169480962E-03    0.2081549755E-03    0.6868901914E+00    0.4140525780E-02    0.4138567784E-02
    0.9000000000E+03    0.1836369076E-03    0.3274595287E-03    0.6888287700E+00    0.6636770636E-02    0.3955433897E-02
    0.1100000000E+04    0.2916794598E-03    0.5207208767E-03    0.6900675752E+00    0.1068333511E-01    0.3666640342E-02
    0.1300000000E+04    0.4808146450E-03    0.8590496835E-03    0.6909274283E+00    0.1779323651E-01    0.3180097872E-02
    0.1500000000E+04    0.8209362284E-03    0.1467579759E-02    0.6915590501E+00    0.3067181066E-01    0.2355036427E-02
    0.1700000000E+04    0.1314137615E-02    0.2350376809E-02    0.6920425984E+00    0.4961798009E-01    0.1280258673E-02
    0.1900000000E+04    0.1716887655E-02    0.3072022836E-02    0.6924246340E+00    0.6560770764E-01    0.5954019820E-03
    0.2100000000E+04    0.1941996509E-02    0.3476256846E-02    0.6927340524E+00    0.7515903684E-01    0.3931775642E-03
    0.2300000000E+04    0.2094672026E-02    0.3751095428E-02    0.6929897351E+00    0.8211361893E-01    0.3526432877E-03
    0.2500000000E+04    0.2225100843E-02    0.3986288583E-02    0.6932045416E+00    0.8834670831E-01    0.3462629042E-03
    0.2700000000E+04    0.2345596428E-02    0.4203855742E-02    0.6933875326E+00    0.9431871658E-01    0.3462868214E-03
    0.2900000000E+04    0.2458976780E-02    0.4408827590E-02    0.6935452760E+00    0.1001300920E+00    0.3474283129E-03
    0.3100000000E+04    0.2566069777E-02    0.4602673477E-02    0.6936826493E+00    0.1058052337E+00    0.3487076641E-03
    0.3300000000E+04    0.2667288986E-02    0.4786121746E-02    0.6938033498E+00    0.1113528900E+00    0.3499494588E-03
    0.3500000000E+04    0.2762951053E-02    0.4959727967E-02    0.6939102319E+00    0.1167784550E+00    0.3511277677E-03
    0.3700000000E+04    0.2853339922E-02    0.5123989912E-02    0.6940055337E+00    0.1220864639E+00    0.3522437773E-03
    0.3900000000E+04    0.2938720530E-02    0.5279372037E-02    0.6940910351E+00    0.1272811090E+00    0.3533029052E-03
    0.4100000000E+04    0.3019342355E-02    0.5426311800E-02    0.6941681693E+00    0.1323663546E+00    0.3543106167E-03
    0.4300000000E+04    0.3095440874E-02    0.5565222228E-02    0.6942381032E+00    0.1373459704E+00    0.3552717617E-03
    0.4500000000E+04    0.3167238552E-02    0.5696493633E-02    0.6943017964E+00    0.1422235470E+00    0.3561905581E-03
    0.4700000000E+04    0.3234945678E-02    0.5820495082E-02    0.6943600455E+00    0.1470025069E+00    0.3570706768E-03
    0.4900000000E+04    0.3298761128E-02    0.5937575724E-02    0.6944135171E+00    0.1516861150E+00    0.3579153285E-03
    0.1000000000E+04    0.2306827110E-03    0.4116137044E-03    0.6895096305E+00    0.8397729025E-02    0.3828567208E-02
    0.3000000000E+04    0.2513279554E-02    0.4507088979E-02    0.6936162548E+00    0.1029840073E+00    0.3480682113E-03
    0.5000000000E+04    0.3329268679E-02    0.5993624712E-02    0.6944386406E+00    0.1539931415E+00    0.3583252502E-03
    0.7000000000E+04    0.3775770325E-02    0.6822728755E-02    0.6947895815E+00    0.1958145207E+00    0.3651980810E-03
    0.9000000000E+04    0.3994563580E-02    0.7243819622E-02    0.6949835011E+00    0.2309026146E+00    0.3703934656E-03
    0.1100000000E+05    0.4070585733E-02    0.7406923560E-02    0.6951061807E+00    0.2608786847E+00    0.3745838739E-03
    0.1300000000E+05    0.4056441086E-02    0.7405398958E-02    0.6951905890E+00    0.2868608312E+00    0.3781024399E-03
    0.1500000000E+05    0.3985558466E-02    0.7298899466E-02    0.6952520932E+00    0.3096482847E+00    0.3811391517E-03
    0.1700000000E+05    0.3879601011E-02    0.7126327427E-02    0.6952988174E+00    0.3298299261E+00    0.3838128611E-03
    0.1900000000E+05    0.3752807978E-02    0.6913440002E-02    0.6953354574E+00    0.3478510101E+00    0.3862029765E-03
    0.2100000000E+05    0.3614625335E-02    0.6677469146E-02    0.6953649155E+00    0.3640557485E+00    0.3883652377E-03
    0.2300000000E+05    0.3471345325E-02    0.6430009546E-02    0.6953890811E+00    0.3787153847E+00    0.3903403045E-03
    0.2500000000E+05    0.3327153276E-02    0.6178868603E-02    0.6954092366E+00    0.3920472421E+00    0.3921587659E-03
    0.2700000000E+05    0.3184809820E-02    0.5929276593E-02    0.6954262828E+00    0.4042279813E+00    0.3938442240E-03
    0.2900000000E+05    0.3046103370E-02    0.5684692621E-02    0.6954408708E+00    0.4154030408E+00    0.3954152793E-03
    0.3100000000E+05    0.2912154738E-02    0.5447349675E-02    0.6954534826E+00    0.4256934976E+00    0.3968868554E-03
    0.3300000000E+05    0.2783624813E-02    0.5218628091E-02    0.6954644828E+00    0.4352011467E+00    0.3982711122E-03
    0.3500000000E+05    0.2660857641E-02    0.4999314293E-02    0.6954741521E+00    0.4440123251E+00    0.3995780912E-03
    0.3700000000E+05    0.2543979861E-02    0.4789781688E-02    0.6954827098E+00    0.4522008339E+00    0.4008161822E-03
    0.3900000000E+05    0.2432970268E-02    0.4590118095E-02    0.6954903301E+00    0.4598302033E+00    0.4019924681E-03
    0.4100000000E+05    0.2327708718E-02    0.4400216004E-02    0.6954971530E+00    0.4669554688E+00    0.4031129844E-03
    0.4300000000E+05    0.2228010611E-02    0.4219836780E-02    0.6955032920E+00    0.4736245815E+00    0.4041829162E-03
    0.4500000000E+05    0.2133651226E-02    0.4048656413E-02    0.6955088402E+00    0.4798795383E+00    0.4052067519E-03
    0.4700000000E+05    0.2044382862E-02    0.3886298134E-02    0.6955138750E+00    0.4857572975E+00    0.4061884030E-03
    0.4900000000E+05    0.1959946856E-02    0.3732355604E-02    0.6955184606E+00    0.4912905259E+00    0.4071312994E-03
    0.1000000000E+05    0.4046567000E-02    0.7350791015E-02    0.6950510664E+00    0.2464506245E+00    0.3725887888E-03
    0.3000000000E+05    0.2978484173E-02    0.5565013250E-02    0.6954473987E+00    0.4206520804E+00    0.3961626860E-03
    0.5000000000E+05    0.1919459275E-02    0.3658409323E-02    0.6955206023E+00    0.4939371296E+00    0.4075891736E-03
    0.7000000000E+05    0.1303837148E-02    0.2523034744E-02    0.6955493960E+00    0.5343484437E+00    0.4152890709E-03
    0.9000000000E+05    0.9345306993E-03    0.1830570915E-02    0.6955639421E+00    0.5597968041E+00    0.4211328889E-03
    0.1100000000E+06    0.6996010088E-03    0.1384384839E-02    0.6955722643E+00    0.5772162679E+00    0.4258571313E-03
    0.1300000000E+06    0.5420936907E-03    0.1082081305E-02    0.6955773716E+00    0.5898520255E+00    0.4298298487E-03
    0.1500000000E+06    0.4317937307E-03    0.8684864419E-03    0.6955806326E+00    0.5994185741E+00    0.4332620834E-03
    0.1700000000E+06    0.3517362530E-03    0.7122498209E-03    0.6955827528E+00    0.6069035535E+00    0.4362863496E-03
    0.1900000000E+06    0.2918795804E-03    0.5946328650E-03    0.6955841296E+00    0.6129144074E+00    0.4389914235E-03
    0.2100000000E+06    0.2460002185E-03    0.5039253842E-03    0.6955850019E+00    0.6178444968E+00    0.4414397486E-03
    0.2300000000E+06    0.2100856373E-03    0.4325226571E-03    0.6955855213E+00    0.6219593883E+00    0.4436769487E-03
    0.2500000000E+06    0.1814594512E-03    0.3753196918E-03    0.6955857876E+00    0.6254446483E+00    0.4457373918E-03
    0.2700000000E+06    0.1582833285E-03    0.3287897623E-03    0.6955858688E+00    0.6284337459E+00    0.4476476244E-03
    0.2900000000E+06    0.1392619076E-03    0.2904347493E-03    0.6955858128E+00    0.6310250728E+00    0.4494285860E-03
    0.3100000000E+06    0.1234617582E-03    0.2584458573E-03    0.6955856538E+00    0.6332927181E+00    0.4510970897E-03
    0.3300000000E+06    0.1101968307E-03    0.2314877520E-03    0.6955854166E+00    0.6352935125E+00    0.4526668442E-03
    0.3500000000E+06    0.9895396110E-04    0.2085574799E-03    0.6955851201E+00    0.6370717620E+00    0.4541491758E-03
    0.3700000000E+06    0.8934323141E-04    0.1888900242E-03    0.6955847782E+00    0.6386625093E+00    0.4555535529E-03
    0.3900000000E+06    0.8106415943E-04    0.1718937062E-03    0.6955844016E+00    0.6400938277E+00    0.4568879726E-03
    0.4100000000E+06    0.7388221420E-04    0.1571051367E-03    0.6955839986E+00    0.6413884681E+00    0.4581592515E-03
    0.4300000000E+06    0.6761221029E-04    0.1441572444E-03    0.6955835756E+00    0.6425650598E+00    0.4593732484E-03
    0.4500000000E+06    0.6210637491E-04    0.1327562212E-03    0.6955831377E+00    0.6436390017E+00    0.4605350361E-03
    0.4700000000E+06    0.5724564563E-04    0.1226646544E-03    0.6955826889E+00    0.6446231323E+00    0.4616490366E-03
    0.4900000000E+06    0.5293323791E-04    0.1136890193E-03    0.6955822325E+00    0.6455282389E+00    0.4627191285E-03
    0.1000000000E+06    0.8046906221E-03    0.1584603212E-02    0.6955686351E+00    0.5692565878E+00    0.4236068329E-03
    0.3000000000E+06    0.1310068271E-03    0.2737371592E-03    0.6955857444E+00    0.6321954635E+00    0.4502759751E-03
    0.5000000000E+06    0.5095729084E-04    0.1095688406E-03    0.6955820022E+00    0.6459540673E+00    0.4632387937E-03
    0.7000000000E+06    0.2687642887E-04    0.5887764379E-04    0.6955773941E+00    0.6519430309E+00    0.4719798275E-03
    0.9000000000E+06    0.1657050143E-04    0.3679625880E-04    0.6955731517E+00    0.6552906972E+00    0.4786158182E-03
    0.1100000000E+07    0.1123655554E-04    0.2521360294E-04    0.6955693704E+00    0.6574278728E+00    0.4839813803E-03
    0.1300000000E+07    0.8124555374E-05    0.1838270038E-04    0.6955659963E+00    0.6589103403E+00    0.4884938864E-03
    0.1500000000E+07    0.6152398519E-05    0.1401471669E-04    0.6955629626E+00    0.6599988962E+00    0.4923927630E-03
    0.1700000000E+07    0.4824504156E-05    0.1105099525E-04    0.6955602114E+00    0.6608320911E+00    0.4958283902E-03
    0.1900000000E+07    0.3887971292E-05    0.8946740300E-05    0.6955576967E+00    0.6614903303E+00    0.4989015340E-03
    0.2100000000E+07    0.3202805329E-05    0.7398172154E-05    0.6955553816E+00    0.6620234750E+00    0.5016830827E-03
    0.2300000000E+07    0.2686429927E-05    0.6224947434E-05    0.6955532371E+00    0.6624640861E+00    0.5042248362E-03
    0.2500000000E+07    0.2287586617E-05    0.5314472037E-05    0.6955512397E+00    0.6628343277E+00    0.5065658189E-03
    0.2700000000E+07    0.1973094125E-05    0.4593478568E-05    0.6955493704E+00    0.6631498096E+00    0.5087361763E-03
    0.2900000000E+07    0.1720705657E-05    0.4012609313E-05    0.6955476136E+00    0.6634218431E+00    0.5107596882E-03
    0.3100000000E+07    0.1515053979E-05    0.3537620159E-05    0.6955459564E+00    0.6636588250E+00    0.5126554497E-03
    0.3300000000E+07    0.1345248047E-05    0.3144143177E-05    0.6955443879E+00    0.6638671196E+00    0.5144390305E-03
    0.3500000000E+07    0.1203394959E-05    0.2814451987E-05    0.6955428990E+00    0.6640516386E+00    0.5161232952E-03
    0.3700000000E+07    0.1083661435E-05    0.2535399752E-05    0.6955414818E+00    0.6642162328E+00    0.5177189985E-03
    0.3900000000E+07    0.9816609570E-06    0.2297067734E-05    0.6955401296E+00    0.6643639643E+00    0.5192352242E-03
    0.4100000000E+07    0.8940435686E-06    0.2091857610E-05    0.6955388365E+00    0.6644972982E+00    0.5206797154E-03
    0.4300000000E+07    0.8182152106E-06    0.1913868416E-05    0.6955375975E+00    0.6646182415E+00    0.5220591273E-03
    0.4500000000E+07    0.7521418752E-06    0.1758460446E-05    0.6955364082E+00    0.6647284448E+00    0.5233792226E-03
    0.4700000000E+07    0.6942105006E-06    0.1621944605E-05    0.6955352646E+00    0.6648292778E+00    0.5246450247E-03
    0.4900000000E+07    0.6431285691E-06    0.1501357572E-05    0.6955341632E+00    0.6649218871E+00    0.5258609397E-03
    0.1000000000E+07    0.1351584545E-04    0.3017968669E-04    0.6955712059E+00    0.6564655166E+00    0.4814255145E-03
    0.3000000000E+07    0.1612802668E-05    0.3763589056E-05    0.6955467733E+00    0.6635442780E+00    0.5117224930E-03
    0.5000000000E+07    0.6198213703E-06    0.1446268221E-05    0.6955336274E+00    0.6649654159E+00    0.5264514220E-03
    0.7000000000E+07    0.3405605536E-06    0.7824094632E-06    0.6955245316E+00    0.6655749963E+00    0.5363837661E-03
    0.9000000000E+07    0.2232029743E-06    0.5011553404E-06    0.6955175392E+00    0.6659138127E+00    0.5439242913E-03
    0.1100000000E+08    0.1624203106E-06    0.3551283001E-06    0.6955118422E+00    0.6661295005E+00    0.5500212667E-03
    0.1300000000E+08    0.1265810739E-06    0.2691321340E-06    0.6955070256E+00    0.6662788698E+00    0.5551489225E-03
    0.1500000000E+08    0.1034891052E-06    0.2139349015E-06    0.6955028477E+00    0.6663884399E+00    0.5595793090E-03
    0.1700000000E+08    0.8761705610E-07    0.1762132626E-06    0.6954991549E+00    0.6664722531E+00    0.5634832995E-03
    0.1900000000E+08    0.7615712078E-07    0.1491729947E-06    0.6954958434E+00    0.6665384409E+00    0.5669753936E-03
    0.2100000000E+08    0.6755604292E-07    0.1290462544E-06    0.6954928399E+00    0.6665920373E+00    0.5701361415E-03
    0.2300000000E+08    0.6089567905E-07    0.1136027580E-06    0.6954900903E+00    0.6666363260E+00    0.5730244040E-03
    0.2500000000E+08    0.5560370049E-07    0.1014515807E-06    0.6954875539E+00    0.6666735399E+00    0.5756845250E-03
    0.2700000000E+08    0.5130746044E-07    0.9168732967E-07    0.6954851991E+00    0.6667052507E+00    0.5781507593E-03
