  Pressure (Pa) 22mC5-500 (mol/kg) 23mC5-500 (mol/kg) 24mC5-500 (mol/kg) 3mC6-500 (mol/kg) C7-500 (mol/kg)
    0.1000000000E+01    0.1727380301E-05    0.1486162955E-05    0.2487124818E+00    0.3591012179E-05    0.4166074743E-02
    0.3000000000E+01    0.2777860917E-05    0.2381290573E-05    0.4351410911E+00    0.9030509203E-05    0.4184781870E-02
    0.5000000000E+01    0.3161099316E-05    0.2707188816E-05    0.5118796621E+00    0.1399526673E-04    0.4190413327E-02
    0.7000000000E+01    0.3393359824E-05    0.2907093530E-05    0.5537306961E+00    0.1873146421E-04    0.4193160112E-02
    0.9000000000E+01    0.3580505322E-05    0.3070596330E-05    0.5800790577E+00    0.2332146808E-04    0.4194729346E-02
    0.1100000000E+02    0.3753503611E-05    0.3223443849E-05    0.5981925348E+00    0.2780632448E-04    0.4195693461E-02
    0.1300000000E+02    0.3923104183E-05    0.3374356564E-05    0.6114099531E+00    0.3221039832E-04    0.4196303160E-02
    0.1500000000E+02    0.4093326345E-05    0.3526470463E-05    0.6214800694E+00    0.3654971302E-04    0.4196686602E-02
    0.1700000000E+02    0.4265650624E-05    0.3680854841E-05    0.6294074258E+00    0.4083554860E-04    0.4196916440E-02
    0.1900000000E+02    0.4440528085E-05    0.3837763180E-05    0.6358101726E+00    0.4507624254E-04    0.4197037063E-02
    0.2100000000E+02    0.4617980452E-05    0.3997122824E-05    0.6410895501E+00    0.4927818788E-04    0.4197077176E-02
    0.2300000000E+02    0.4797855037E-05    0.4158738771E-05    0.6455173583E+00    0.5344642938E-04    0.4197056196E-02
    0.2500000000E+02    0.4979937329E-05    0.4322381158E-05    0.6492842580E+00    0.5758504072E-04    0.4196987740E-02
    0.2700000000E+02    0.5164001318E-05    0.4487822669E-05    0.6525279459E+00    0.6169737436E-04    0.4196881651E-02
    0.2900000000E+02    0.5349831402E-05    0.4654853593E-05    0.6553503514E+00    0.6578623330E-04    0.4196745224E-02
    0.3100000000E+02    0.5537231035E-05    0.4823286750E-05    0.6578285421E+00    0.6985399294E-04    0.4196583983E-02
    0.3300000000E+02    0.5726025139E-05    0.4992957860E-05    0.6600218679E+00    0.7390268974E-04    0.4196402188E-02
    0.3500000000E+02    0.5916059668E-05    0.5163723987E-05    0.6619767762E+00    0.7793408726E-04    0.4196203182E-02
    0.3700000000E+02    0.6107199948E-05    0.5335461277E-05    0.6637301372E+00    0.8194972630E-04    0.4195989621E-02
    0.3900000000E+02    0.6299328599E-05    0.5508062579E-05    0.6653115913E+00    0.8595096361E-04    0.4195763646E-02
    0.4100000000E+02    0.6492343426E-05    0.5681435184E-05    0.6667452385E+00    0.8993900223E-04    0.4195526997E-02
    0.4300000000E+02    0.6686155433E-05    0.5855498809E-05    0.6680508750E+00    0.9391491563E-04    0.4195281108E-02
    0.4500000000E+02    0.6880687051E-05    0.6030183823E-05    0.6692449131E+00    0.9787966704E-04    0.4195027170E-02
    0.4700000000E+02    0.7075870577E-05    0.6205429728E-05    0.6703410744E+00    0.1018341253E-03    0.4194766176E-02
    0.4900000000E+02    0.7271646824E-05    0.6381183857E-05    0.6713509194E+00    0.1057790775E-03    0.4194498968E-02
    0.1000000000E+02    0.3667860008E-05    0.3147605878E-05    0.5899034196E+00    0.2557525902E-04    0.4195267224E-02
    0.3000000000E+02    0.5443346474E-05    0.4738905684E-05    0.6566284142E+00    0.6782261618E-04    0.4196667414E-02
    0.5000000000E+02    0.7369740759E-05    0.6469236913E-05    0.6718265978E+00    0.1077482154E-03    0.4194363259E-02
    0.7000000000E+02    0.9353115105E-05    0.8248511326E-05    0.6785575266E+00    0.1467768069E-03    0.4191449803E-02
    0.9000000000E+02    0.1136369473E-04    0.1005060281E-04    0.6823554592E+00    0.1853957243E-03    0.4188327712E-02
    0.1100000000E+03    0.1339272902E-04    0.1186815570E-04    0.6847944845E+00    0.2238521382E-03    0.4185108457E-02
    0.1300000000E+03    0.1543775439E-04    0.1369926983E-04    0.6864932379E+00    0.2622958800E-03    0.4181833311E-02
    0.1500000000E+03    0.1749851176E-04    0.1554390903E-04    0.6877443239E+00    0.3008281431E-03    0.4178519841E-02
    0.1700000000E+03    0.1957558587E-04    0.1740272696E-04    0.6887040917E+00    0.3395225736E-03    0.4175175968E-02
    0.1900000000E+03    0.2166989047E-04    0.1927663148E-04    0.6894636758E+00    0.3784358468E-03    0.4171805185E-02
    0.2100000000E+03    0.2378245756E-04    0.2116661046E-04    0.6900797877E+00    0.4176135345E-03    0.4168408784E-02
    0.2300000000E+03    0.2591434770E-04    0.2307366028E-04    0.6905895655E+00    0.4570936108E-03    0.4164986895E-02
    0.2500000000E+03    0.2806661227E-04    0.2499875736E-04    0.6910183483E+00    0.4969086711E-03    0.4161539013E-02
    0.2700000000E+03    0.3024027890E-04    0.2694284858E-04    0.6913840165E+00    0.5370874028E-03    0.4158064278E-02
    0.2900000000E+03    0.3243634756E-04    0.2890685009E-04    0.6916995486E+00    0.5776555962E-03    0.4154561627E-02
    0.3100000000E+03    0.3465579164E-04    0.3089164981E-04    0.6919745928E+00    0.6186368639E-03    0.4151029883E-02
    0.3300000000E+03    0.3689956095E-04    0.3289811124E-04    0.6922164711E+00    0.6600531647E-03    0.4147467803E-02
    0.3500000000E+03    0.3916858572E-04    0.3492707779E-04    0.6924308404E+00    0.7019251962E-03    0.4143874112E-02
    0.3700000000E+03    0.4146378056E-04    0.3697937691E-04    0.6926221404E+00    0.7442726938E-03    0.4140247514E-02
    0.3900000000E+03    0.4378604845E-04    0.3905582407E-04    0.6927939042E+00    0.7871146640E-03    0.4136586707E-02
    0.4100000000E+03    0.4613628432E-04    0.4115722628E-04    0.6929489784E+00    0.8304695686E-03    0.4132890384E-02
    0.4300000000E+03    0.4851537840E-04    0.4328438534E-04    0.6930896824E+00    0.8743554739E-03    0.4129157237E-02
    0.4500000000E+03    0.5092421928E-04    0.4543810074E-04    0.6932179247E+00    0.9187901719E-03    0.4125385956E-02
    0.4700000000E+03    0.5336369665E-04    0.4761917231E-04    0.6933352903E+00    0.9637912817E-03    0.4121575232E-02
    0.4900000000E+03    0.5583470381E-04    0.4982840250E-04    0.6934431064E+00    0.1009376334E-02    0.4117723748E-02
    0.1000000000E+03    0.1237613711E-04    0.1095763199E-04    0.6836947760E+00    0.2046333745E-03    0.4186726817E-02
    0.3000000000E+03    0.3354308780E-04    0.2989659568E-04    0.6918416286E+00    0.5980931897E-03    0.4152799468E-02
    0.5000000000E+03    0.5708231179E-04    0.5094382912E-04    0.6934937901E+00    0.1032393311E-02    0.4115782310E-02
    0.7000000000E+03    0.8391676267E-04    0.7493425583E-04    0.6942040229E+00    0.1527759310E-02    0.4074484290E-02
    0.9000000000E+03    0.1150407497E-03    0.1027589381E-03    0.6945990787E+00    0.2103189510E-02    0.4027488833E-02
    0.1100000000E+04    0.1516946880E-03    0.1355278315E-03    0.6948506159E+00    0.2782041235E-02    0.3973096919E-02
    0.1300000000E+04    0.1955237272E-03    0.1747125505E-03    0.6950247958E+00    0.3595248961E-02    0.3909117589E-02
    0.1500000000E+04    0.2487848201E-03    0.2223318310E-03    0.6951525325E+00    0.4585294916E-02    0.3832606820E-02
    0.1700000000E+04    0.3146534928E-03    0.2812260669E-03    0.6952502059E+00    0.5812055686E-02    0.3739497359E-02
    0.1900000000E+04    0.3976947115E-03    0.3554786617E-03    0.6953273044E+00    0.7361794649E-02    0.3624051191E-02
    0.2100000000E+04    0.5045849031E-03    0.4510621968E-03    0.6953897042E+00    0.9361018006E-02    0.3478056715E-02
    0.2300000000E+04    0.6451704169E-03    0.5767859356E-03    0.6954412389E+00    0.1199696062E-01    0.3289735045E-02
    0.2500000000E+04    0.8337919053E-03    0.7454820823E-03    0.6954845158E+00    0.1554370922E-01    0.3042597920E-02
    0.2700000000E+04    0.1090048408E-02    0.9746927277E-03    0.6955213700E+00    0.2037902361E-01    0.2715580612E-02
    0.2900000000E+04    0.1435713048E-02    0.1283917542E-02    0.6955531304E+00    0.2693058518E-01    0.2288867549E-02
    0.3100000000E+04    0.1879941088E-02    0.1681390512E-02    0.6955807832E+00    0.3540206769E-01    0.1764457609E-02
    0.3300000000E+04    0.2389140456E-02    0.2137124787E-02    0.6956050754E+00    0.4520086920E-01    0.1201257213E-02
    0.3500000000E+04    0.2877504572E-02    0.2574406089E-02    0.6956265835E+00    0.5473311808E-01    0.7138534708E-03
    0.3700000000E+04    0.3268311495E-02    0.2924585329E-02    0.6956457592E+00    0.6253497271E-01    0.3852166457E-03
    0.3900000000E+04    0.3552217958E-02    0.3179248888E-02    0.6956629614E+00    0.6839201327E-01    0.2054843726E-03
    0.4100000000E+04    0.3761972957E-02    0.3367648579E-02    0.6956784793E+00    0.7289462584E-01    0.1194526331E-03
    0.4300000000E+04    0.3930060299E-02    0.3518822584E-02    0.6956925481E+00    0.7664423004E-01    0.8105274886E-04
    0.4500000000E+04    0.4076205429E-02    0.3650409395E-02    0.6957053611E+00    0.8000977499E-01    0.6447916692E-04
    0.4700000000E+04    0.4210379555E-02    0.3771326547E-02    0.6957170788E+00    0.8317874198E-01    0.5745383959E-04
    0.4900000000E+04    0.4337271680E-02    0.3885767457E-02    0.6957278355E+00    0.8623933148E-01    0.5452544172E-04
    0.1000000000E+04    0.1325852081E-03    0.1184437135E-03    0.6947374136E+00    0.2427971832E-02    0.4001340164E-02
    0.3000000000E+04    0.1646215798E-02    0.1472253651E-02    0.6955674189E+00    0.3093719562E-01    0.2036912757E-02
    0.5000000000E+04    0.4398717166E-02    0.3941212152E-02    0.6957328895E+00    0.8774263098E-01    0.5379775030E-04
    0.7000000000E+04    0.5447894767E-02    0.4890975861E-02    0.6958035030E+00    0.1157621244E+00    0.5330119339E-04
    0.9000000000E+04    0.6232042687E-02    0.5605868527E-02    0.6958425549E+00    0.1407877784E+00    0.5405197020E-04
    0.1100000000E+05    0.6813676568E-02    0.6140762272E-02    0.6958672898E+00    0.1633483801E+00    0.5465907602E-04
    0.1300000000E+05    0.7238276475E-02    0.6535621115E-02    0.6958843319E+00    0.1838321681E+00    0.5516953648E-04
    0.1500000000E+05    0.7540216092E-02    0.6820704284E-02    0.6958967684E+00    0.2025461270E+00    0.5561050942E-04
    0.1700000000E+05    0.7745785908E-02    0.7019201164E-02    0.6959062314E+00    0.2197364134E+00    0.5599904126E-04
    0.1900000000E+05    0.7875305504E-02    0.7149073095E-02    0.6959136646E+00    0.2356029191E+00    0.5634654903E-04
    0.2100000000E+05    0.7944624996E-02    0.7224363268E-02    0.6959196512E+00    0.2503098434E+00    0.5666106172E-04
    0.2300000000E+05    0.7966208847E-02    0.7256142853E-02    0.6959245711E+00    0.2639934888E+00    0.5694844471E-04
    0.2500000000E+05    0.7949929198E-02    0.7253204066E-02    0.6959286822E+00    0.2767680928E+00    0.5721311583E-04
    0.2700000000E+05    0.7903653985E-02    0.7222574368E-02    0.6959321658E+00    0.2887302488E+00    0.5745848713E-04
    0.2900000000E+05    0.7833687981E-02    0.7169902454E-02    0.6959351528E+00    0.2999622968E+00    0.5768724977E-04
    0.3100000000E+05    0.7745107068E-02    0.7099751083E-02    0.6959377404E+00    0.3105349544E+00    0.5790156447E-04
    0.3300000000E+05    0.7642014053E-02    0.7015821429E-02    0.6959400019E+00    0.3205093795E+00    0.5810319284E-04
    0.3500000000E+05    0.7527736172E-02    0.6921126521E-02    0.6959419940E+00    0.3299388016E+00    0.5829359029E-04
    0.3700000000E+05    0.7404978850E-02    0.6818126425E-02    0.6959437608E+00    0.3388698256E+00    0.5847397344E-04
    0.3900000000E+05    0.7275946292E-02    0.6708834429E-02    0.6959453376E+00    0.3473434810E+00    0.5864536980E-04
    0.4100000000E+05    0.7142436725E-02    0.6594901027E-02    0.6959467524E+00    0.3553960742E+00    0.5880865522E-04
    0.4300000000E+05    0.7005918107E-02    0.6477680790E-02    0.6959480283E+00    0.3630598844E+00    0.5896458240E-04
    0.4500000000E+05    0.6867588663E-02    0.6358285921E-02    0.6959491841E+00    0.3703637379E+00    0.5911380309E-04
    0.4700000000E+05    0.6728425546E-02    0.6237629392E-02    0.6959502355E+00    0.3773334831E+00    0.5925688540E-04
    0.4900000000E+05    0.6589224171E-02    0.6116459866E-02    0.6959511953E+00    0.3839923870E+00    0.5939432761E-04
    0.1000000000E+05    0.6545027641E-02    0.5893052211E-02    0.6958561736E+00    0.1523497510E+00    0.5436990547E-04
    0.3000000000E+05    0.7791447715E-02    0.7136762430E-02    0.6959364915E+00    0.3053270239E+00    0.5779609490E-04
    0.5000000000E+05    0.6519815992E-02    0.6055878861E-02    0.6959516444E+00    0.3872119216E+00    0.5946107305E-04
    0.7000000000E+05    0.5231315459E-02    0.4915758854E-02    0.6959577554E+00    0.4394593192E+00    0.6058375430E-04
    0.9000000000E+05    0.4206960120E-02    0.3992403866E-02    0.6959609358E+00    0.4758232849E+00    0.6143606027E-04
    0.1100000000E+06    0.3425034665E-02    0.3278304834E-02    0.6959628217E+00    0.5025515014E+00    0.6212519571E-04
    0.1300000000E+06    0.2828267861E-02    0.2727607157E-02    0.6959640307E+00    0.5229762000E+00    0.6270476863E-04
    0.1500000000E+06    0.2367704464E-02    0.2298870197E-02    0.6959648459E+00    0.5390551025E+00    0.6320553051E-04
    0.1700000000E+06    0.2007160381E-02    0.1960691837E-02    0.6959654143E+00    0.5520167989E+00    0.6364679555E-04
    0.1900000000E+06    0.1720785731E-02    0.1690278956E-02    0.6959658193E+00    0.5626710363E+00    0.6404150560E-04
    0.2100000000E+06    0.1490161080E-02    0.1471197550E-02    0.6959661115E+00    0.5715724922E+00    0.6439876510E-04
    0.2300000000E+06    0.1302049012E-02    0.1291524782E-02    0.6959663232E+00    0.5791132877E+00    0.6472522688E-04
    0.2500000000E+06    0.1146815294E-02    0.1142513890E-02    0.6959664761E+00    0.5855780551E+00    0.6502590294E-04
    0.2700000000E+06    0.1017350003E-02    0.1017665276E-02    0.6959665848E+00    0.5911781248E+00    0.6530466495E-04
    0.2900000000E+06    0.9083325612E-03    0.9120853608E-03    0.6959666601E+00    0.5960735085E+00    0.6556456701E-04
    0.3100000000E+06    0.8157276887E-03    0.8220423388E-03    0.6959667094E+00    0.6003874598E+00    0.6580806156E-04
    0.3300000000E+06    0.7364359172E-03    0.7446555417E-03    0.6959667385E+00    0.6042163724E+00    0.6603714823E-04
    0.3500000000E+06    0.6680482115E-03    0.6776757496E-03    0.6959667514E+00    0.6076366615E+00    0.6625347927E-04
    0.3700000000E+06    0.6086714191E-03    0.6193279247E-03    0.6959667517E+00    0.6107096454E+00    0.6645843593E-04
    0.3900000000E+06    0.5568024874E-03    0.5681972459E-03    0.6959667416E+00    0.6134850704E+00    0.6665318486E-04
    0.4100000000E+06    0.5112366858E-03    0.5231455295E-03    0.6959667232E+00    0.6160036985E+00    0.6683872054E-04
    0.4300000000E+06    0.4709998347E-03    0.4832492263E-03    0.6959666981E+00    0.6182992338E+00    0.6701589772E-04
    0.4500000000E+06    0.4352976949E-03    0.4477529206E-03    0.6959666675E+00    0.6203997764E+00    0.6718545651E-04
    0.4700000000E+06    0.4034777656E-03    0.4160340920E-03    0.6959666325E+00    0.6223289336E+00    0.6734804208E-04
    0.4900000000E+06    0.3750001595E-03    0.3875761504E-03    0.6959665938E+00    0.6241066772E+00    0.6750422032E-04
    0.1000000000E+06    0.3789300769E-02    0.3611988362E-02    0.6959619901E+00    0.4901400182E+00    0.6179692848E-04
    0.3000000000E+06    0.8601909157E-03    0.8653187916E-03    0.6959666876E+00    0.5982966015E+00    0.6568823104E-04
    0.5000000000E+06    0.3618711805E-03    0.3744323186E-03    0.6959665733E+00    0.6249441841E+00    0.6758006499E-04
    0.7000000000E+06    0.1972800518E-03    0.2080721674E-03    0.6959660829E+00    0.6367918477E+00    0.6885584228E-04
    0.9000000000E+06    0.1237257133E-03    0.1323997157E-03    0.6959655634E+00    0.6434608613E+00    0.6982441708E-04
    0.1100000000E+07    0.8469973588E-04    0.9170164357E-04    0.6959650739E+00    0.6477310440E+00    0.7060758124E-04
    0.1300000000E+07    0.6156455193E-04    0.6730791965E-04    0.6959646240E+00    0.6506973159E+00    0.7126624369E-04
    0.1500000000E+07    0.4674150500E-04    0.5153268848E-04    0.6959642120E+00    0.6528770115E+00    0.7183534626E-04
    0.1700000000E+07    0.3668196342E-04    0.4074064578E-04    0.6959638336E+00    0.6545460276E+00    0.7233683591E-04
    0.1900000000E+07    0.2954586799E-04    0.3303057237E-04    0.6959634845E+00    0.6558648472E+00    0.7278541911E-04
    0.2100000000E+07    0.2430230239E-04    0.2732931273E-04    0.6959631608E+00    0.6569331352E+00    0.7319144190E-04
    0.2300000000E+07    0.2033743985E-04    0.2299365291E-04    0.6959628594E+00    0.6578160386E+00    0.7356246451E-04
    0.2500000000E+07    0.1726738282E-04    0.1961892034E-04    0.6959625774E+00    0.6585579313E+00    0.7390418266E-04
    0.2700000000E+07    0.1484209750E-04    0.1694012526E-04    0.6959623126E+00    0.6591900789E+00    0.7422099618E-04
    0.2900000000E+07    0.1289309532E-04    0.1477781645E-04    0.6959620629E+00    0.6597351438E+00    0.7451637585E-04
    0.3100000000E+07    0.1130349666E-04    0.1300694069E-04    0.6959618268E+00    0.6602099535E+00    0.7479310873E-04
    0.3300000000E+07    0.9990169445E-05    0.1153817502E-04    0.6959616028E+00    0.6606272633E+00    0.7505346730E-04
    0.3500000000E+07    0.8892682431E-05    0.1030633078E-04    0.6959613898E+00    0.6609969184E+00    0.7529932927E-04
    0.3700000000E+07    0.7966256585E-05    0.9262924429E-05    0.6959611867E+00    0.6613266382E+00    0.7553226439E-04
    0.3900000000E+07    0.7177142913E-05    0.8371287328E-05    0.6959609926E+00    0.6616225607E+00    0.7575359850E-04
    0.4100000000E+07    0.6499517229E-05    0.7603268623E-05    0.6959608067E+00    0.6618896278E+00    0.7596446180E-04
    0.4300000000E+07    0.5913348630E-05    0.6936964425E-05    0.6959606284E+00    0.6621318627E+00    0.7616582570E-04
    0.4500000000E+07    0.5402907823E-05    0.6355123582E-05    0.6959604571E+00    0.6623525743E+00    0.7635853131E-04
    0.4700000000E+07    0.4955704905E-05    0.5844008986E-05    0.6959602922E+00    0.6625545085E+00    0.7654331186E-04
    0.4900000000E+07    0.4561720924E-05    0.5392571454E-05    0.6959601332E+00    0.6627399634E+00    0.7672081048E-04
    0.1000000000E+07    0.1014667958E-03    0.1092466286E-03    0.6959653138E+00    0.6458071966E+00    0.7023452195E-04
    0.3000000000E+07    0.1205920318E-04    0.1384970803E-04    0.6959619433E+00    0.6599804538E+00    0.7465692065E-04
    0.5000000000E+07    0.4382088813E-05    0.5186360699E-05    0.6959600559E+00    0.6628271288E+00    0.7680700895E-04
    0.7000000000E+07    0.2241840606E-05    0.2705840419E-05    0.6959587381E+00    0.6640475259E+00    0.7825694882E-04
    0.9000000000E+07    0.1357621336E-05    0.1662430216E-05    0.6959577207E+00    0.6647255648E+00    0.7935775001E-04
    0.1100000000E+08    0.9093595894E-06    0.1126195905E-05    0.6959568897E+00    0.6651570494E+00    0.8024782941E-04
    0.1300000000E+08    0.6514071490E-06    0.8142060849E-06    0.6959561860E+00    0.6654557703E+00    0.8099641063E-04
    0.1500000000E+08    0.4895521475E-06    0.6166338674E-06    0.6959555747E+00    0.6656748330E+00    0.8164320550E-04
    0.1700000000E+08    0.3813954228E-06    0.4835615789E-06    0.6959550339E+00    0.6658423523E+00    0.8221315708E-04
    0.1900000000E+08    0.3055748142E-06    0.3896267679E-06    0.6959545486E+00    0.6659746056E+00    0.8272297951E-04
    0.2100000000E+08    0.2503803855E-06    0.3208246343E-06    0.6959541080E+00    0.6660816690E+00    0.8318443124E-04
    0.2300000000E+08    0.2089584556E-06    0.2689050639E-06    0.6959537045E+00    0.6661701139E+00    0.8360610462E-04
    0.2500000000E+08    0.1770815579E-06    0.2287495652E-06    0.6959533321E+00    0.6662444089E+00    0.8399447292E-04
    0.2700000000E+08    0.1520275515E-06    0.1970448154E-06    0.6959529862E+00    0.6663076985E+00    0.8435453664E-04
