  Pressure (Pa) 22mC5-500 (mol/kg) 23mC5-500 (mol/kg) 24mC5-500 (mol/kg) 3mC6-500 (mol/kg) C7-500 (mol/kg)
    0.1000000000E+01    0.2014146989E-05    0.1733343271E-05    0.1741029012E+00    0.1441078910E-05    0.4224154986E-02
    0.3000000000E+01    0.3723038454E-05    0.3192510971E-05    0.3481008319E+00    0.3733141286E-05    0.4287687189E-02
    0.5000000000E+01    0.4430460891E-05    0.3791169147E-05    0.4350602569E+00    0.5849787094E-05    0.4319767632E-02
    0.7000000000E+01    0.4806373671E-05    0.4108039054E-05    0.4872231241E+00    0.7879741604E-05    0.4339535670E-02
    0.9000000000E+01    0.5046812396E-05    0.4311239853E-05    0.5219929529E+00    0.9853278382E-05    0.4353084985E-02
    0.1100000000E+02    0.5225330559E-05    0.4463347752E-05    0.5468258329E+00    0.1178564871E-04    0.4363029884E-02
    0.1300000000E+02    0.5373917221E-05    0.4591330657E-05    0.5654489681E+00    0.1368597639E-04    0.4370687156E-02
    0.1500000000E+02    0.5507886937E-05    0.4707961633E-05    0.5799326946E+00    0.1556029837E-04    0.4376795158E-02
    0.1700000000E+02    0.5635057998E-05    0.4819676785E-05    0.5915190644E+00    0.1741288604E-04    0.4381801375E-02
    0.1900000000E+02    0.5759591075E-05    0.4929844507E-05    0.6009983997E+00    0.1924691017E-04    0.4385993547E-02
    0.2100000000E+02    0.5883750644E-05    0.5040257148E-05    0.6088975419E+00    0.2106481120E-04    0.4389565539E-02
    0.2300000000E+02    0.6008772625E-05    0.5151861200E-05    0.6155812047E+00    0.2286852135E-04    0.4392652999E-02
    0.2500000000E+02    0.6135316153E-05    0.5265134890E-05    0.6213098840E+00    0.2465960552E-04    0.4395353855E-02
    0.2700000000E+02    0.6263709407E-05    0.5380292039E-05    0.6262746018E+00    0.2643935505E-04    0.4397740690E-02
    0.2900000000E+02    0.6394088160E-05    0.5497395945E-05    0.6306186188E+00    0.2820885228E-04    0.4399868520E-02
    0.3100000000E+02    0.6526476059E-05    0.5616424678E-05    0.6344514838E+00    0.2996901649E-04    0.4401779861E-02
    0.3300000000E+02    0.6660832149E-05    0.5737309259E-05    0.6378583986E+00    0.3172063739E-04    0.4403508130E-02
    0.3500000000E+02    0.6797079449E-05    0.5859956269E-05    0.6409066262E+00    0.3346440016E-04    0.4405079984E-02
    0.3700000000E+02    0.6935122282E-05    0.5984261296E-05    0.6436499757E+00    0.3520090445E-04    0.4406516969E-02
    0.3900000000E+02    0.7074856835E-05    0.6110116931E-05    0.6461320056E+00    0.3693067915E-04    0.4407836709E-02
    0.4100000000E+02    0.7216177541E-05    0.6237417425E-05    0.6483883544E+00    0.3865419388E-04    0.4409053769E-02
    0.4300000000E+02    0.7358980883E-05    0.6366061328E-05    0.6504484617E+00    0.4037186823E-04    0.4410180304E-02
    0.4500000000E+02    0.7503167579E-05    0.6495952881E-05    0.6523368602E+00    0.4208407921E-04    0.4411226543E-02
    0.4700000000E+02    0.7648643751E-05    0.6627002635E-05    0.6540741572E+00    0.4379116719E-04    0.4412201168E-02
    0.4900000000E+02    0.7795321461E-05    0.6759127607E-05    0.6556777890E+00    0.4549344093E-04    0.4413111593E-02
    0.1000000000E+02    0.5141250136E-05    0.4391515278E-05    0.5353647886E+00    0.1082394392E-04    0.4358406950E-02
    0.3000000000E+02    0.6460032416E-05    0.5556673238E-05    0.6325931360E+00    0.2909004895E-04    0.4400848982E-02
    0.5000000000E+02    0.7869085075E-05    0.6825569111E-05    0.6564342098E+00    0.4634286133E-04    0.4413544761E-02
    0.7000000000E+02    0.9390651715E-05    0.8195313918E-05    0.6672098223E+00    0.6313548103E-04    0.4420002882E-02
    0.9000000000E+02    0.1097052074E-04    0.9615904367E-05    0.6733498480E+00    0.7965952663E-04    0.4423935739E-02
    0.1100000000E+03    0.1258375709E-04    0.1106511219E-04    0.6773158497E+00    0.9601228120E-04    0.4426540248E-02
    0.1300000000E+03    0.1421825335E-04    0.1253233991E-04    0.6800886809E+00    0.1122523004E-03    0.4428336828E-02
    0.1500000000E+03    0.1586767980E-04    0.1401213014E-04    0.6821363033E+00    0.1284185674E-03    0.4429594163E-02
    0.1700000000E+03    0.1752854595E-04    0.1550151921E-04    0.6837102669E+00    0.1445388544E-03    0.4430467513E-02
    0.1900000000E+03    0.1919886432E-04    0.1699884969E-04    0.6849578452E+00    0.1606339440E-03    0.4431054063E-02
    0.2100000000E+03    0.2087749113E-04    0.1850319032E-04    0.6859709933E+00    0.1767199837E-03    0.4431418380E-02
    0.2300000000E+03    0.2256377855E-04    0.2001403249E-04    0.6868100912E+00    0.1928099003E-03    0.4431605393E-02
    0.2500000000E+03    0.2425738081E-04    0.2153112242E-04    0.6875164245E+00    0.2089142978E-03    0.4431647541E-02
    0.2700000000E+03    0.2595814132E-04    0.2305436410E-04    0.6881191790E+00    0.2250420553E-03    0.4431568954E-02
    0.2900000000E+03    0.2766602447E-04    0.2458376114E-04    0.6886395710E+00    0.2412007382E-03    0.4431388041E-02
    0.3100000000E+03    0.2938107317E-04    0.2611938077E-04    0.6890933933E+00    0.2573968912E-03    0.4431119140E-02
    0.3300000000E+03    0.3110338173E-04    0.2766133114E-04    0.6894926440E+00    0.2736362517E-03    0.4430773622E-02
    0.3500000000E+03    0.3283307826E-04    0.2920974659E-04    0.6898466019E+00    0.2899239094E-03    0.4430360646E-02
    0.3700000000E+03    0.3457031298E-04    0.3076477809E-04    0.6901625553E+00    0.3062644270E-03    0.4429887689E-02
    0.3900000000E+03    0.3631525043E-04    0.3232658684E-04    0.6904463085E+00    0.3226619341E-03    0.4429360924E-02
    0.4100000000E+03    0.3806806415E-04    0.3389534004E-04    0.6907025414E+00    0.3391202010E-03    0.4428785507E-02
    0.4300000000E+03    0.3982893310E-04    0.3547120806E-04    0.6909350692E+00    0.3556426964E-03    0.4428165778E-02
    0.4500000000E+03    0.4159803923E-04    0.3705436253E-04    0.6911470328E+00    0.3722326353E-03    0.4427505424E-02
    0.4700000000E+03    0.4337556583E-04    0.3864497511E-04    0.6913410423E+00    0.3888930169E-03    0.4426807601E-02
    0.4900000000E+03    0.4516169639E-04    0.4024321668E-04    0.6915192837E+00    0.4056266562E-03    0.4426075025E-02
    0.1000000000E+03    0.1177391284E-04    0.1033776172E-04    0.6755254418E+00    0.8785305249E-04    0.4425362950E-02
    0.3000000000E+03    0.2852264819E-04    0.2535078713E-04    0.6888739792E+00    0.2492937555E-03    0.4431263819E-02
    0.5000000000E+03    0.4605804537E-04    0.4104525139E-04    0.6916030794E+00    0.4140217832E-03    0.4425696452E-02
    0.7000000000E+03    0.6448082768E-04    0.5752703059E-04    0.6927775210E+00    0.5863553420E-03    0.4416734595E-02
    0.9000000000E+03    0.8396622172E-04    0.7495646016E-04    0.6934306905E+00    0.7684824935E-03    0.4405754037E-02
    0.1100000000E+04    0.1046834948E-03    0.9348628389E-04    0.6938463227E+00    0.9621651811E-03    0.4393184882E-02
    0.1300000000E+04    0.1268059389E-03    0.1132721425E-03    0.6941338945E+00    0.1169107895E-02    0.4379169623E-02
    0.1500000000E+04    0.1505196450E-03    0.1344808444E-03    0.6943445865E+00    0.1391103887E-02    0.4363726874E-02
    0.1700000000E+04    0.1760304710E-03    0.1572967510E-03    0.6945055231E+00    0.1630121354E-02    0.4346806683E-02
    0.1900000000E+04    0.2035704806E-03    0.1819276009E-03    0.6946324184E+00    0.1888372441E-02    0.4328311969E-02
    0.2100000000E+04    0.2334046838E-03    0.2086105732E-03    0.6947350035E+00    0.2168380977E-02    0.4308106671E-02
    0.2300000000E+04    0.2658386660E-03    0.2376191301E-03    0.6948196262E+00    0.2473057076E-02    0.4286017574E-02
    0.2500000000E+04    0.3012276081E-03    0.2692710979E-03    0.6948906031E+00    0.2805784437E-02    0.4261832458E-02
    0.2700000000E+04    0.3399872241E-03    0.3039384611E-03    0.6949509717E+00    0.3170525778E-02    0.4235295611E-02
    0.2900000000E+04    0.3826072310E-03    0.3420594211E-03    0.6950029315E+00    0.3571952571E-02    0.4206100970E-02
    0.3100000000E+04    0.4296681072E-03    0.3841533970E-03    0.6950481137E+00    0.4015606474E-02    0.4173882834E-02
    0.3300000000E+04    0.4818620951E-03    0.4308398251E-03    0.6950877541E+00    0.4508101852E-02    0.4138203759E-02
    0.3500000000E+04    0.5400196636E-03    0.4828618470E-03    0.6951228057E+00    0.5057381266E-02    0.4098539119E-02
    0.3700000000E+04    0.6051429704E-03    0.5411162631E-03    0.6951540151E+00    0.5673039071E-02    0.4054257535E-02
    0.3900000000E+04    0.6784482402E-03    0.6066914695E-03    0.6951819757E+00    0.6366732032E-02    0.4004596274E-02
    0.4100000000E+04    0.7614193699E-03    0.6809154500E-03    0.6952071649E+00    0.7152699982E-02    0.3948630484E-02
    0.4300000000E+04    0.8558753752E-03    0.7654161632E-03    0.6952299710E+00    0.8048422872E-02    0.3885235218E-02
    0.4500000000E+04    0.9640542420E-03    0.8621966293E-03    0.6952507134E+00    0.9075440838E-02    0.3813039414E-02
    0.4700000000E+04    0.1088714791E-02    0.9737261601E-03    0.6952696569E+00    0.1026035587E-01    0.3730372099E-02
    0.4900000000E+04    0.1233255134E-02    0.1103046478E-02    0.6952870228E+00    0.1163600626E-01    0.3635203583E-02
    0.1000000000E+04    0.9416025233E-04    0.8407427338E-04    0.6936593088E+00    0.8637736988E-03    0.4399655166E-02
    0.3000000000E+04    0.4055421949E-03    0.3625736622E-03    0.6950262848E+00    0.3788115580E-02    0.4190395335E-02
    0.5000000000E+04    0.1314248173E-02    0.1175513227E-02    0.6952951738E+00    0.1240763797E-01    0.3582185022E-02
    0.7000000000E+04    0.5069603407E-02    0.4537176687E-02    0.6954083084E+00    0.4875711826E-01    0.1345307363E-02
    0.9000000000E+04    0.7854105188E-02    0.7036456610E-02    0.6954699622E+00    0.7806455063E-01    0.3671189784E-03
    0.1100000000E+05    0.8996619531E-02    0.8068665844E-02    0.6955084210E+00    0.9253024559E-01    0.3542274165E-03
    0.1300000000E+05    0.9948963035E-02    0.8932206260E-02    0.6955345025E+00    0.1058095887E+00    0.3573503359E-03
    0.1500000000E+05    0.1076411932E-01    0.9674116002E-02    0.6955532262E+00    0.1182958994E+00    0.3602054661E-03
    0.1700000000E+05    0.1146159482E-01    0.1031153154E-01    0.6955672335E+00    0.1300759163E+00    0.3627227583E-03
    0.1900000000E+05    0.1205743534E-01    0.1085855488E-01    0.6955780448E+00    0.1412207089E+00    0.3649740900E-03
    0.2100000000E+05    0.1256517055E-01    0.1132708665E-01    0.6955865954E+00    0.1517914980E+00    0.3670115235E-03
    0.2300000000E+05    0.1299627297E-01    0.1172722697E-01    0.6955934916E+00    0.1618413567E+00    0.3688731054E-03
    0.2500000000E+05    0.1336051893E-01    0.1206759074E-01    0.6955991430E+00    0.1714165376E+00    0.3705874873E-03
    0.2700000000E+05    0.1366627776E-01    0.1235556014E-01    0.6956038362E+00    0.1805575486E+00    0.3721767944E-03
    0.2900000000E+05    0.1392074491E-01    0.1259748840E-01    0.6956077773E+00    0.1893000315E+00    0.3736584754E-03
    0.3100000000E+05    0.1413013135E-01    0.1279886530E-01    0.6956111182E+00    0.1976754838E+00    0.3750465380E-03
    0.3300000000E+05    0.1429981824E-01    0.1296445238E-01    0.6956139733E+00    0.2057118563E+00    0.3763524014E-03
    0.3500000000E+05    0.1443448397E-01    0.1309839409E-01    0.6956164302E+00    0.2134340495E+00    0.3775854994E-03
    0.3700000000E+05    0.1453820921E-01    0.1320430968E-01    0.6956185572E+00    0.2208643286E+00    0.3787537173E-03
    0.3900000000E+05    0.1461456407E-01    0.1328536946E-01    0.6956204081E+00    0.2280226733E+00    0.3798637144E-03
    0.4100000000E+05    0.1466668088E-01    0.1334435855E-01    0.6956220260E+00    0.2349270721E+00    0.3809211664E-03
    0.4300000000E+05    0.1469731517E-01    0.1338373030E-01    0.6956234458E+00    0.2415937724E+00    0.3819309513E-03
    0.4500000000E+05    0.1470889703E-01    0.1340565124E-01    0.6956246957E+00    0.2480374939E+00    0.3828972922E-03
    0.4700000000E+05    0.1470357454E-01    0.1341203926E-01    0.6956257994E+00    0.2542716111E+00    0.3838238703E-03
    0.4900000000E+05    0.1468325063E-01    0.1340459582E-01    0.6956267761E+00    0.2603083096E+00    0.3847139142E-03
    0.1000000000E+05    0.8459248887E-02    0.7582673683E-02    0.6954912107E+00    0.8553588164E-01    0.3539318361E-03
    0.3000000000E+05    0.1403071906E-01    0.1270293251E-01    0.6956095149E+00    0.1935318127E+00    0.3743634427E-03
    0.5000000000E+05    0.1466799860E-01    0.1339616672E-01    0.6956272221E+00    0.2632561434E+00    0.3851461388E-03
    0.7000000000E+05    0.1389727383E-01    0.1279062896E-01    0.6956323187E+00    0.3141037947E+00    0.3924160164E-03
    0.9000000000E+05    0.1273110952E-01    0.1179867890E-01    0.6956337565E+00    0.3535931637E+00    0.3979347872E-03
    0.1100000000E+06    0.1151332583E-01    0.1073712587E-01    0.6956337763E+00    0.3854274200E+00    0.4023968606E-03
    0.1300000000E+06    0.1036605154E-01    0.9722625526E-02    0.6956331646E+00    0.4117310414E+00    0.4061494409E-03
    0.1500000000E+06    0.9328465929E-02    0.8795547453E-02    0.6956322538E+00    0.4338540487E+00    0.4093916837E-03
    0.1700000000E+06    0.8406928087E-02    0.7965275757E-02    0.6956312012E+00    0.4527167322E+00    0.4122486673E-03
    0.1900000000E+06    0.7594914134E-02    0.7228508877E-02    0.6956300872E+00    0.4689782041E+00    0.4148042003E-03
    0.2100000000E+06    0.6881399784E-02    0.6577113987E-02    0.6956289551E+00    0.4831277129E+00    0.4171172392E-03
    0.2300000000E+06    0.6254452882E-02    0.6001592672E-02    0.6956278284E+00    0.4955382786E+00    0.4192308642E-03
    0.2500000000E+06    0.5702733306E-02    0.5492596439E-02    0.6956267205E+00    0.5065002739E+00    0.4211775297E-03
    0.2700000000E+06    0.5216052150E-02    0.5041545787E-02    0.6956256384E+00    0.5162435307E+00    0.4229823056E-03
    0.2900000000E+06    0.4785506744E-02    0.4640832247E-02    0.6956245860E+00    0.5249524829E+00    0.4246649679E-03
    0.3100000000E+06    0.4403430603E-02    0.4283829299E-02    0.6956235647E+00    0.5327768712E+00    0.4262413962E-03
    0.3300000000E+06    0.4063270614E-02    0.3964820858E-02    0.6956225749E+00    0.5398395053E+00    0.4277245382E-03
    0.3500000000E+06    0.3759444001E-02    0.3678899845E-02    0.6956216162E+00    0.5462420104E+00    0.4291250923E-03
    0.3700000000E+06    0.3487198756E-02    0.3421861751E-02    0.6956206877E+00    0.5520691558E+00    0.4304520019E-03
    0.3900000000E+06    0.3242487287E-02    0.3190104466E-02    0.6956197884E+00    0.5573921641E+00    0.4317128208E-03
    0.4100000000E+06    0.3021856318E-02    0.2980538768E-02    0.6956189170E+00    0.5622712724E+00    0.4329139884E-03
    0.4300000000E+06    0.2822352935E-02    0.2790510583E-02    0.6956180723E+00    0.5667577371E+00    0.4340610387E-03
    0.4500000000E+06    0.2641445374E-02    0.2617734538E-02    0.6956172529E+00    0.5708954191E+00    0.4351587640E-03
    0.4700000000E+06    0.2476956676E-02    0.2460237707E-02    0.6956164577E+00    0.5747220475E+00    0.4362113416E-03
    0.4900000000E+06    0.2327009301E-02    0.2316312220E-02    0.6956156855E+00    0.5782702358E+00    0.4372224353E-03
    0.1000000000E+06    0.1211814411E-01    0.1126667120E-01    0.6956338782E+00    0.3703102193E+00    0.4002713829E-03
    0.3000000000E+06    0.4588844024E-02    0.4457244419E-02    0.6956240714E+00    0.5289670162E+00    0.4254655925E-03
    0.5000000000E+06    0.2256972222E-02    0.2248967566E-02    0.6956153076E+00    0.5799489136E+00    0.4377134506E-03
    0.7000000000E+06    0.1323250388E-02    0.1342485463E-02    0.6956087096E+00    0.6041324127E+00    0.4459726885E-03
    0.9000000000E+06    0.8650299070E-03    0.8898550282E-03    0.6956034555E+00    0.6180260104E+00    0.4522430190E-03
    0.1100000000E+07    0.6081678341E-03    0.6327139800E-03    0.6955990920E+00    0.6269804134E+00    0.4573129753E-03
    0.1300000000E+07    0.4503043799E-03    0.4729490840E-03    0.6955953587E+00    0.6332089153E+00    0.4615769008E-03
    0.1500000000E+07    0.3465537555E-03    0.3669788538E-03    0.6955920943E+00    0.6377822500E+00    0.4652610169E-03
    0.1700000000E+07    0.2748025496E-03    0.2931067832E-03    0.6955891925E+00    0.6412783557E+00    0.4685074117E-03
    0.1900000000E+07    0.2231569750E-03    0.2395599064E-03    0.6955865793E+00    0.6440354768E+00    0.4714112964E-03
    0.2100000000E+07    0.1847668285E-03    0.1995055797E-03    0.6955842014E+00    0.6462642905E+00    0.4740396519E-03
    0.2300000000E+07    0.1554644105E-03    0.1687586329E-03    0.6955820192E+00    0.6481026601E+00    0.4764414232E-03
    0.2500000000E+07    0.1325976185E-03    0.1446396917E-03    0.6955800022E+00    0.6496444919E+00    0.4786534842E-03
    0.2700000000E+07    0.1144143948E-03    0.1253689553E-03    0.6955781265E+00    0.6509559117E+00    0.4807043193E-03
    0.2900000000E+07    0.9971998574E-04    0.1097266531E-03    0.6955763733E+00    0.6520848030E+00    0.4826163979E-03
    0.3100000000E+07    0.8767720864E-04    0.9685411609E-04    0.6955747272E+00    0.6530666769E+00    0.4844077631E-03
    0.3300000000E+07    0.7768543635E-04    0.8613265765E-04    0.6955731754E+00    0.6539284167E+00    0.4860931267E-03
    0.3500000000E+07    0.6930476591E-04    0.7710733436E-04    0.6955717077E+00    0.6546907430E+00    0.4876846446E-03
    0.3700000000E+07    0.6220708319E-04    0.6943754160E-04    0.6955703150E+00    0.6553698802E+00    0.4891924791E-03
    0.3900000000E+07    0.5614365560E-04    0.6286416770E-04    0.6955689899E+00    0.6559787113E+00    0.4906252134E-03
    0.4100000000E+07    0.5092317133E-04    0.5718725441E-04    0.6955677259E+00    0.6565275946E+00    0.4919901643E-03
    0.4300000000E+07    0.4639654865E-04    0.5225049102E-04    0.6955665177E+00    0.6570249522E+00    0.4932936202E-03
    0.4500000000E+07    0.4244623235E-04    0.4793025304E-04    0.6955653602E+00    0.6574777017E+00    0.4945410264E-03
    0.4700000000E+07    0.3897852467E-04    0.4412772428E-04    0.6955642493E+00    0.6578915771E+00    0.4957371296E-03
    0.4900000000E+07    0.3591800644E-04    0.4076314925E-04    0.6955631814E+00    0.6582713717E+00    0.4968860931E-03
    0.1000000000E+07    0.7198658217E-03    0.7449061344E-03    0.6956011818E+00    0.6229429108E+00    0.4548979153E-03
    0.3000000000E+07    0.9340917318E-04    0.1029873988E-03    0.6955755377E+00    0.6525922683E+00    0.4835261825E-03
    0.5000000000E+07    0.3452083750E-04    0.3922431319E-04    0.6955626625E+00    0.6584497756E+00    0.4974440621E-03
    0.7000000000E+07    0.1777902561E-04    0.2060730769E-04    0.6955539082E+00    0.6609403454E+00    0.5068295273E-03
    0.9000000000E+07    0.1080149512E-04    0.1270698999E-04    0.6955472358E+00    0.6623178328E+00    0.5139548899E-03
    0.1100000000E+08    0.7246671009E-05    0.8626382448E-05    0.6955418282E+00    0.6631919212E+00    0.5197161941E-03
    0.1300000000E+08    0.5194649461E-05    0.6244538515E-05    0.6955372731E+00    0.6637958649E+00    0.5245615539E-03
    0.1500000000E+08    0.3904372338E-05    0.4732828900E-05    0.6955333329E+00    0.6642381149E+00    0.5287480380E-03
    0.1700000000E+08    0.3040894786E-05    0.3712987272E-05    0.6955298579E+00    0.6645759310E+00    0.5324371104E-03
    0.1900000000E+08    0.2434937022E-05    0.2992216200E-05    0.6955267473E+00    0.6648423944E+00    0.5357369657E-03
    0.2100000000E+08    0.1993490033E-05    0.2463801790E-05    0.6955239303E+00    0.6650579500E+00    0.5387237187E-03
    0.2300000000E+08    0.1662018332E-05    0.2064762537E-05    0.6955213550E+00    0.6652359136E+00    0.5414529890E-03
    0.2500000000E+08    0.1406835140E-05    0.1755965339E-05    0.6955189821E+00    0.6653853297E+00    0.5439666789E-03
    0.2700000000E+08    0.1206223693E-05    0.1512047386E-05    0.6955167814E+00    0.6655125571E+00    0.5462971570E-03
