  Pressure (Pa) 22mC5-500 (mol/kg) 23mC5-500 (mol/kg) 24mC5-500 (mol/kg) 3mC6-500 (mol/kg) C7-500 (mol/kg)
    0.1000000000E+01    0.2508380978E-05    0.2162334838E-05    0.6965222349E-01    0.8006699905E-05    0.4195382491E-02
    0.3000000000E+01    0.6015404143E-05    0.5175939223E-05    0.1740934518E+00    0.2049438919E-04    0.4252643433E-02
    0.5000000000E+01    0.8329558355E-05    0.7156884293E-05    0.2486671199E+00    0.3199987814E-04    0.4291365013E-02
    0.7000000000E+01    0.9942469117E-05    0.8532578019E-05    0.3045825254E+00    0.4303965369E-04    0.4320223829E-02
    0.9000000000E+01    0.1111473469E-04    0.9529111197E-05    0.3480635060E+00    0.5378778916E-04    0.4342645713E-02
    0.1100000000E+02    0.1199645892E-04    0.1027644935E-04    0.3828427691E+00    0.6433131041E-04    0.4360580157E-02
    0.1300000000E+02    0.1267941484E-04    0.1085388790E-04    0.4112948841E+00    0.7472197529E-04    0.4375248653E-02
    0.1500000000E+02    0.1322237579E-04    0.1131209966E-04    0.4350024754E+00    0.8499386841E-04    0.4387461266E-02
    0.1700000000E+02    0.1366441191E-04    0.1168469426E-04    0.4550609670E+00    0.9517101135E-04    0.4397778063E-02
    0.1900000000E+02    0.1403230466E-04    0.1199465634E-04    0.4722526621E+00    0.1052711782E-03    0.4406599290E-02
    0.2100000000E+02    0.1434488915E-04    0.1225811144E-04    0.4871511612E+00    0.1153080127E-03    0.4414218885E-02
    0.2300000000E+02    0.1461570324E-04    0.1248662057E-04    0.5001866078E+00    0.1252922943E-03    0.4420857744E-02
    0.2500000000E+02    0.1485466043E-04    0.1268862719E-04    0.5116878973E+00    0.1352327395E-03    0.4426685181E-02
    0.2700000000E+02    0.1506913804E-04    0.1287039732E-04    0.5219108117E+00    0.1451365326E-03    0.4431833221E-02
    0.2900000000E+02    0.1526470353E-04    0.1303664599E-04    0.5310572661E+00    0.1550096916E-03    0.4436406374E-02
    0.3100000000E+02    0.1544561032E-04    0.1319096440E-04    0.5392887799E+00    0.1648573268E-03    0.4440488483E-02
    0.3300000000E+02    0.1561514308E-04    0.1333611690E-04    0.5467360977E+00    0.1746838295E-03    0.4444147612E-02
    0.3500000000E+02    0.1577586259E-04    0.1347425126E-04    0.5535061857E+00    0.1844930126E-03    0.4447439612E-02
    0.3700000000E+02    0.1592978194E-04    0.1360704978E-04    0.5596874019E+00    0.1942882172E-03    0.4450410757E-02
    0.3900000000E+02    0.1607849539E-04    0.1373583961E-04    0.5653533745E+00    0.2040723948E-03    0.4453099718E-02
    0.4100000000E+02    0.1622327371E-04    0.1386167423E-04    0.5705659480E+00    0.2138481718E-03    0.4455539078E-02
    0.4300000000E+02    0.1636513553E-04    0.1398539433E-04    0.5753774501E+00    0.2236179011E-03    0.4457756485E-02
    0.4500000000E+02    0.1650490138E-04    0.1410767384E-04    0.5798324546E+00    0.2333837027E-03    0.4459775562E-02
    0.4700000000E+02    0.1664323503E-04    0.1422905510E-04    0.5839691661E+00    0.2431474979E-03    0.4461616617E-02
    0.4900000000E+02    0.1678067529E-04    0.1434997583E-04    0.5878205184E+00    0.2529110362E-03    0.4463297207E-02
    0.1000000000E+02    0.1158518949E-04    0.9928115187E-05    0.3663689926E+00    0.5908134565E-04    0.4352085249E-02
    0.3000000000E+02    0.1535676453E-04    0.1311510713E-04    0.5352785902E+00    0.1599364102E-03    0.4438504232E-02
    0.5000000000E+02    0.1684920085E-04    0.1441037695E-04    0.5896482554E+00    0.2577932144E-03    0.4464082175E-02
    0.7000000000E+02    0.1824424770E-04    0.1565111772E-04    0.6164840922E+00    0.3557512756E-03    0.4474186251E-02
    0.9000000000E+02    0.1975590405E-04    0.1700675164E-04    0.6324753677E+00    0.4549333021E-03    0.4477813634E-02
    0.1100000000E+03    0.2140553356E-04    0.1848968718E-04    0.6430905156E+00    0.5559654140E-03    0.4477998790E-02
    0.1300000000E+03    0.2318640080E-04    0.2009137698E-04    0.6506503924E+00    0.6592792757E-03    0.4476060944E-02
    0.1500000000E+03    0.2508943306E-04    0.2180264113E-04    0.6563080366E+00    0.7652149552E-03    0.4472667651E-02
    0.1700000000E+03    0.2710768888E-04    0.2361679576E-04    0.6607011259E+00    0.8740656284E-03    0.4468192174E-02
    0.1900000000E+03    0.2923674694E-04    0.2552967353E-04    0.6642109677E+00    0.9861002807E-03    0.4462857953E-02
    0.2100000000E+03    0.3147433011E-04    0.2753914924E-04    0.6670795704E+00    0.1101576644E-02    0.4456805033E-02
    0.2300000000E+03    0.3381987571E-04    0.2964469218E-04    0.6694679302E+00    0.1220749302E-02    0.4450123667E-02
    0.2500000000E+03    0.3627419169E-04    0.3184702788E-04    0.6714873117E+00    0.1343875223E-02    0.4442872609E-02
    0.2700000000E+03    0.3883920685E-04    0.3414789912E-04    0.6732170735E+00    0.1471217844E-02    0.4435089674E-02
    0.2900000000E+03    0.4151779691E-04    0.3654990225E-04    0.6747153401E+00    0.1603050321E-02    0.4426798117E-02
    0.3100000000E+03    0.4431366728E-04    0.3905637809E-04    0.6760256581E+00    0.1739658312E-02    0.4418010638E-02
    0.3300000000E+03    0.4723127766E-04    0.4167134214E-04    0.6771812971E+00    0.1881342482E-02    0.4408731967E-02
    0.3500000000E+03    0.5027579740E-04    0.4439944360E-04    0.6782081122E+00    0.2028420901E-02    0.4398960569E-02
    0.3700000000E+03    0.5345308439E-04    0.4724594587E-04    0.6791265007E+00    0.2181231411E-02    0.4388689787E-02
    0.3900000000E+03    0.5676968224E-04    0.5021672384E-04    0.6799527699E+00    0.2340134051E-02    0.4377908601E-02
    0.4100000000E+03    0.6023283229E-04    0.5331827459E-04    0.6807001132E+00    0.2505513584E-02    0.4366602140E-02
    0.4300000000E+03    0.6385049822E-04    0.5655773945E-04    0.6813793195E+00    0.2677782179E-02    0.4354752001E-02
    0.4500000000E+03    0.6763140182E-04    0.5994293617E-04    0.6819992974E+00    0.2857382299E-02    0.4342336441E-02
    0.4700000000E+03    0.7158506917E-04    0.6348240028E-04    0.6825674672E+00    0.3044789830E-02    0.4329330459E-02
    0.4900000000E+03    0.7572188677E-04    0.6718543552E-04    0.6830900596E+00    0.3240517489E-02    0.4315705811E-02
    0.1000000000E+03    0.2056372382E-04    0.1773274066E-04    0.6382699766E+00    0.5051881997E-03    0.4478231939E-02
    0.3000000000E+03    0.4290081035E-04    0.3778984532E-04    0.6753917114E+00    0.1670738966E-02    0.4422465909E-02
    0.5000000000E+03    0.7786247404E-04    0.6910142419E-04    0.6833359435E+00    0.3341672577E-02    0.4308651758E-02
    0.7000000000E+03    0.1337660656E-03    0.1191206409E-03    0.6867960051E+00    0.5969186257E-02    0.4125084024E-02
    0.9000000000E+03    0.2315374445E-03    0.2065734693E-03    0.6887321964E+00    0.1055328211E-01    0.3811192071E-02
    0.1100000000E+04    0.4226944374E-03    0.3775551743E-03    0.6899691838E+00    0.1954730652E-01    0.3222809083E-02
    0.1300000000E+04    0.8042870005E-03    0.7189559828E-03    0.6908275746E+00    0.3767058249E-01    0.2132986507E-02
    0.1500000000E+04    0.1292674592E-02    0.1156206941E-02    0.6914579758E+00    0.6139689087E-01    0.9501620159E-03
    0.1700000000E+04    0.1576593517E-02    0.1410890598E-02    0.6919404781E+00    0.7604099706E-01    0.5289592746E-03
    0.1900000000E+04    0.1737321203E-02    0.1555514534E-02    0.6923215993E+00    0.8511431303E-01    0.4625134118E-03
    0.2100000000E+04    0.1867636044E-02    0.1673028605E-02    0.6926302059E+00    0.9293408296E-01    0.4558991018E-03
    0.2300000000E+04    0.1986521858E-02    0.1780406900E-02    0.6928851590E+00    0.1003879660E+00    0.4571008624E-03
    0.2500000000E+04    0.2097203240E-02    0.1880525793E-02    0.6930993031E+00    0.1076168876E+00    0.4591556945E-03
    0.2700000000E+04    0.2200531922E-02    0.1974138567E-02    0.6932816877E+00    0.1146484088E+00    0.4611809370E-03
    0.2900000000E+04    0.2296998282E-02    0.2061675656E-02    0.6934388721E+00    0.1214934073E+00    0.4630807661E-03
    0.3100000000E+04    0.2387017546E-02    0.2143500862E-02    0.6935757268E+00    0.1281599857E+00    0.4648585467E-03
    0.3300000000E+04    0.2470971778E-02    0.2219948924E-02    0.6936959439E+00    0.1346554831E+00    0.4665278097E-03
    0.3500000000E+04    0.2549217455E-02    0.2291332253E-02    0.6938023731E+00    0.1409867895E+00    0.4681011477E-03
    0.3700000000E+04    0.2622088053E-02    0.2357943209E-02    0.6938972491E+00    0.1471604141E+00    0.4695892327E-03
    0.3900000000E+04    0.2689895803E-02    0.2420055633E-02    0.6939823487E+00    0.1531825162E+00    0.4710010602E-03
    0.4100000000E+04    0.2752933230E-02    0.2477926180E-02    0.6940591025E+00    0.1590589297E+00    0.4723442656E-03
    0.4300000000E+04    0.2811474547E-02    0.2531795542E-02    0.6941286751E+00    0.1647951841E+00    0.4736253838E-03
    0.4500000000E+04    0.2865776943E-02    0.2581889558E-02    0.6941920245E+00    0.1703965245E+00    0.4748500511E-03
    0.4700000000E+04    0.2916081770E-02    0.2628420258E-02    0.6942499456E+00    0.1758679299E+00    0.4760231636E-03
    0.4900000000E+04    0.2962615634E-02    0.2671586802E-02    0.6943031036E+00    0.1812141295E+00    0.4771490016E-03
    0.1000000000E+04    0.3101560786E-03    0.2768923897E-03    0.6894120936E+00    0.1424612099E-01    0.3565465219E-02
    0.3000000000E+04    0.2342789279E-02    0.2103280762E-02    0.6935095869E+00    0.1248485284E+00    0.4639840791E-03
    0.5000000000E+04    0.2984535489E-02    0.2691967454E-02    0.6943280752E+00    0.1838416907E+00    0.4776953867E-03
    0.7000000000E+04    0.3270249374E-02    0.2962829382E-02    0.6946765077E+00    0.2308021045E+00    0.4868561770E-03
    0.9000000000E+04    0.3355186022E-02    0.3052701087E-02    0.6948685717E+00    0.2692088736E+00    0.4937810797E-03
    0.1100000000E+05    0.3326033258E-02    0.3038424566E-02    0.6949897764E+00    0.3012874536E+00    0.4993664401E-03
    0.1300000000E+05    0.3232826290E-02    0.2964658211E-02    0.6950729594E+00    0.3285332289E+00    0.5040562973E-03
    0.1500000000E+05    0.3105125916E-02    0.2858002747E-02    0.6951334147E+00    0.3519922192E+00    0.5081038886E-03
    0.1700000000E+05    0.2960651188E-02    0.2734560093E-02    0.6951792213E+00    0.3724208369E+00    0.5116676329E-03
    0.1900000000E+05    0.2810082621E-02    0.2604153871E-02    0.6952150456E+00    0.3903814750E+00    0.5148533743E-03
    0.2100000000E+05    0.2659827947E-02    0.2472769739E-02    0.6952437691E+00    0.4063021901E+00    0.5177354087E-03
    0.2300000000E+05    0.2513660269E-02    0.2344007712E-02    0.6952672662E+00    0.4205153588E+00    0.5203679321E-03
    0.2500000000E+05    0.2373711159E-02    0.2219967370E-02    0.6952868084E+00    0.4332835269E+00    0.5227917165E-03
    0.2700000000E+05    0.2241084230E-02    0.2101798111E-02    0.6953032877E+00    0.4448171832E+00    0.5250382214E-03
    0.2900000000E+05    0.2116240058E-02    0.1990046709E-02    0.6953173487E+00    0.4552872831E+00    0.5271322393E-03
    0.3100000000E+05    0.1999240505E-02    0.1884879646E-02    0.6953294681E+00    0.4648342661E+00    0.5290936621E-03
    0.3300000000E+05    0.1889905107E-02    0.1786226681E-02    0.6953400061E+00    0.4735746755E+00    0.5309386977E-03
    0.3500000000E+05    0.1787911664E-02    0.1693874158E-02    0.6953492397E+00    0.4816061003E+00    0.5326807303E-03
    0.3700000000E+05    0.1692860989E-02    0.1607525804E-02    0.6953573855E+00    0.4890109228E+00    0.5343309426E-03
    0.3900000000E+05    0.1604318430E-02    0.1526842314E-02    0.6953646152E+00    0.4958591992E+00    0.5358987757E-03
    0.4100000000E+05    0.1521840216E-02    0.1451466957E-02    0.6953710664E+00    0.5022109008E+00    0.5373922740E-03
    0.4300000000E+05    0.1444989859E-02    0.1381041917E-02    0.6953768509E+00    0.5081176788E+00    0.5388183489E-03
    0.4500000000E+05    0.1373348004E-02    0.1315218503E-02    0.6953820605E+00    0.5136242669E+00    0.5401829829E-03
    0.4700000000E+05    0.1306517994E-02    0.1253663246E-02    0.6953867709E+00    0.5187696070E+00    0.5414913896E-03
    0.4900000000E+05    0.1244128625E-02    0.1196061295E-02    0.6953910453E+00    0.5235877603E+00    0.5427481406E-03
    0.1000000000E+05    0.3351124142E-02    0.3055244921E-02    0.6949353621E+00    0.2859326931E+00    0.4967072094E-03
    0.3000000000E+05    0.2056766696E-02    0.1936640264E-02    0.6953236264E+00    0.4601683849E+00    0.5281284372E-03
    0.5000000000E+05    0.1214490398E-02    0.1168649929E-02    0.6953930360E+00    0.5258836373E+00    0.5433584237E-03
    0.7000000000E+05    0.7847908651E-03    0.7674279719E-03    0.6954193010E+00    0.5602671739E+00    0.5536212915E-03
    0.9000000000E+05    0.5449156215E-03    0.5396900611E-03    0.6954319397E+00    0.5813207294E+00    0.5614102306E-03
    0.1100000000E+06    0.3991426185E-03    0.3994916134E-03    0.6954387262E+00    0.5955011638E+00    0.5677069171E-03
    0.1300000000E+06    0.3044424685E-03    0.3074427302E-03    0.6954425459E+00    0.6056868074E+00    0.5730019190E-03
    0.1500000000E+06    0.2396314253E-03    0.2438777842E-03    0.6954446970E+00    0.6133504381E+00    0.5775765302E-03
    0.1700000000E+06    0.1934039122E-03    0.1981841744E-03    0.6954458409E+00    0.6193221527E+00    0.5816073755E-03
    0.1900000000E+06    0.1593101804E-03    0.1642512340E-03    0.6954463456E+00    0.6241047320E+00    0.5852127823E-03
    0.2100000000E+06    0.1334632963E-03    0.1383670061E-03    0.6954464297E+00    0.6280201783E+00    0.5884759797E-03
    0.2300000000E+06    0.1134117479E-03    0.1181739577E-03    0.6954462295E+00    0.6312841156E+00    0.5914577781E-03
    0.2500000000E+06    0.9754911428E-04    0.1021176136E-03    0.6954458337E+00    0.6340462924E+00    0.5942039855E-03
    0.2700000000E+06    0.8478798534E-04    0.8913980186E-04    0.6954453016E+00    0.6364139136E+00    0.5967499847E-03
    0.2900000000E+06    0.7437143660E-04    0.7850016868E-04    0.6954446741E+00    0.6384657253E+00    0.5991236851E-03
    0.3100000000E+06    0.6575966348E-04    0.6966823568E-04    0.6954439799E+00    0.6402608573E+00    0.6013474966E-03
    0.3300000000E+06    0.5855944411E-04    0.6225588732E-04    0.6954432397E+00    0.6418445657E+00    0.6034396904E-03
    0.3500000000E+06    0.5247891806E-04    0.5597388260E-04    0.6954424682E+00    0.6432520717E+00    0.6054153633E-03
    0.3700000000E+06    0.4729782006E-04    0.5060310338E-04    0.6954416766E+00    0.6445111941E+00    0.6072871351E-03
    0.3900000000E+06    0.4284742142E-04    0.4597510047E-04    0.6954408728E+00    0.6456441947E+00    0.6090656647E-03
    0.4100000000E+06    0.3899672690E-04    0.4195865539E-04    0.6954400630E+00    0.6466690986E+00    0.6107600379E-03
    0.4300000000E+06    0.3564279507E-04    0.3845032293E-04    0.6954392517E+00    0.6476006558E+00    0.6123780633E-03
    0.4500000000E+06    0.3270383353E-04    0.3536766212E-04    0.6954384424E+00    0.6484510515E+00    0.6139265023E-03
    0.4700000000E+06    0.3011419666E-04    0.3264431663E-04    0.6954376375E+00    0.6492304404E+00    0.6154112489E-03
    0.4900000000E+06    0.2782070998E-04    0.3022638899E-04    0.6954368390E+00    0.6499473524E+00    0.6168374726E-03
    0.1000000000E+06    0.4636897382E-03    0.4617689949E-03    0.6954358278E+00    0.5890428547E+00    0.5647076192E-03
    0.3000000000E+06    0.6986734123E-04    0.7388523459E-04    0.6954443339E+00    0.6393922748E+00    0.6002531009E-03
    0.5000000000E+06    0.2677112792E-04    0.2911784006E-04    0.6954364426E+00    0.6502846791E+00    0.6175300843E-03
    0.7000000000E+06    0.1405069647E-04    0.1555588083E-04    0.6954290442E+00    0.6550323777E+00    0.6291801243E-03
    0.9000000000E+06    0.8651792380E-05    0.9698263875E-05    0.6954226864E+00    0.6576899522E+00    0.6380245087E-03
    0.1100000000E+07    0.5869957355E-05    0.6640134822E-05    0.6954171960E+00    0.6593884192E+00    0.6451756422E-03
    0.1300000000E+07    0.4251140328E-05    0.4841804638E-05    0.6954123854E+00    0.6605675585E+00    0.6511898117E-03
    0.1500000000E+07    0.3226815917E-05    0.3694017839E-05    0.6954081110E+00    0.6614339512E+00    0.6563861308E-03
    0.1700000000E+07    0.2537701867E-05    0.2916188016E-05    0.6954042668E+00    0.6620974470E+00    0.6609650292E-03
    0.1900000000E+07    0.2051872980E-05    0.2364365242E-05    0.6954007746E+00    0.6626218455E+00    0.6650608095E-03
    0.2100000000E+07    0.1696458598E-05    0.1958465597E-05    0.6953975749E+00    0.6630467369E+00    0.6687679527E-03
    0.2300000000E+07    0.1428544974E-05    0.1651029064E-05    0.6953946221E+00    0.6633979896E+00    0.6721554982E-03
    0.2500000000E+07    0.1221526434E-05    0.1412465306E-05    0.6953918804E+00    0.6636932207E+00    0.6752754580E-03
    0.2700000000E+07    0.1058196378E-05    0.1223540125E-05    0.6953893210E+00    0.6639448430E+00    0.6781680103E-03
    0.2900000000E+07    0.9270266705E-06    0.1071307363E-05    0.6953869209E+00    0.6641618546E+00    0.6808648488E-03
    0.3100000000E+07    0.8200584033E-06    0.9467913380E-06    0.6953846610E+00    0.6643509373E+00    0.6833914236E-03
    0.3300000000E+07    0.7316531944E-06    0.8436086156E-06    0.6953825255E+00    0.6645171571E+00    0.6857684857E-03
    0.3500000000E+07    0.6577259742E-06    0.7571177033E-06    0.6953805010E+00    0.6646644245E+00    0.6880131814E-03
    0.3700000000E+07    0.5952582102E-06    0.6838774781E-06    0.6953785765E+00    0.6647958064E+00    0.6901398442E-03
    0.3900000000E+07    0.5419802537E-06    0.6212925081E-06    0.6953767422E+00    0.6649137419E+00    0.6921605810E-03
    0.4100000000E+07    0.4961588410E-06    0.5673749898E-06    0.6953749898E+00    0.6650201949E+00    0.6940857119E-03
    0.4300000000E+07    0.4564517678E-06    0.5205814286E-06    0.6953733123E+00    0.6651167647E+00    0.6959241068E-03
    0.4500000000E+07    0.4218065193E-06    0.4796983798E-06    0.6953717032E+00    0.6652047669E+00    0.6976834461E-03
    0.4700000000E+07    0.3913882920E-06    0.4437610927E-06    0.6953701571E+00    0.6652852933E+00    0.6993704250E-03
    0.4900000000E+07    0.3645280558E-06    0.4119946495E-06    0.6953686691E+00    0.6653592579E+00    0.7009909159E-03
    0.1000000000E+07    0.7057586451E-05    0.7949998489E-05    0.6954198455E+00    0.6586234136E+00    0.6417692300E-03
    0.3000000000E+07    0.8709134196E-06    0.1006032610E-05    0.6953857745E+00    0.6642595388E+00    0.6821480267E-03
    0.5000000000E+07    0.3522588668E-06    0.3974743646E-06    0.6953679455E+00    0.6653940252E+00    0.7017778709E-03
    0.7000000000E+07    0.2042076535E-06    0.2218639611E-06    0.6953556905E+00    0.6658810457E+00    0.7150149691E-03
    0.9000000000E+07    0.1408569667E-06    0.1467583278E-06    0.6953462985E+00    0.6661518646E+00    0.7250643500E-03
    0.1100000000E+08    0.1073908172E-06    0.1073463095E-06    0.6953386601E+00    0.6663243217E+00    0.7331898399E-03
    0.1300000000E+08    0.8724522906E-07    0.8386960823E-07    0.6953322101E+00    0.6664437841E+00    0.7400234757E-03
    0.1500000000E+08    0.7398782758E-07    0.6861969723E-07    0.6953266201E+00    0.6665314361E+00    0.7459278343E-03
    0.1700000000E+08    0.6468052928E-07    0.5806895340E-07    0.6953216824E+00    0.6665984980E+00    0.7511306477E-03
    0.1900000000E+08    0.5781833037E-07    0.5041057816E-07    0.6953172569E+00    0.6666514679E+00    0.7557845151E-03
    0.2100000000E+08    0.5256136248E-07    0.4463792038E-07    0.6953132445E+00    0.6666943695E+00    0.7599967893E-03
    0.2300000000E+08    0.4840865510E-07    0.4015221455E-07    0.6953095727E+00    0.6667298276E+00    0.7638459165E-03
    0.2500000000E+08    0.4504500893E-07    0.3657815128E-07    0.6953061866E+00    0.6667596274E+00    0.7673909954E-03
    0.2700000000E+08    0.4226324120E-07    0.3367015924E-07    0.6953030437E+00    0.6667850255E+00    0.7706776786E-03
