  Pressure (Pa) 22mC5-500 (mol/kg) 23mC5-500 (mol/kg) 24mC5-500 (mol/kg) 3mC6-500 (mol/kg) C7-500 (mol/kg)
    0.1000000000E+01    0.2256126974E-05    0.6479172001E-05    0.1266328061E+00    0.1675731096E-05    0.4182624339E-02
    0.3000000000E+01    0.4661735073E-05    0.1334962749E-04    0.2785249808E+00    0.4254448166E-05    0.4218293750E-02
    0.5000000000E+01    0.5877894430E-05    0.1680019438E-04    0.3664294925E+00    0.6615977503E-05    0.4236861418E-02
    0.7000000000E+01    0.6589676990E-05    0.1880987181E-04    0.4237457098E+00    0.8871693519E-05    0.4248862244E-02
    0.9000000000E+01    0.7053640247E-05    0.2011657331E-04    0.4640734062E+00    0.1105911582E-04    0.4257337474E-02
    0.1100000000E+02    0.7384039603E-05    0.2104741098E-04    0.4939908537E+00    0.1319701496E-04    0.4263667545E-02
    0.1300000000E+02    0.7637864677E-05    0.2176474000E-04    0.5170682618E+00    0.1529656493E-04    0.4268586380E-02
    0.1500000000E+02    0.7845918232E-05    0.2235584399E-04    0.5354107698E+00    0.1736513104E-04    0.4272523657E-02
    0.1700000000E+02    0.8025870118E-05    0.2287050021E-04    0.5503400319E+00    0.1940790819E-04    0.4275748750E-02
    0.1900000000E+02    0.8188326764E-05    0.2333839457E-04    0.5627276855E+00    0.2142874248E-04    0.4278439568E-02
    0.2100000000E+02    0.8339881795E-05    0.2377784784E-04    0.5731718620E+00    0.2343058731E-04    0.4280718570E-02
    0.2300000000E+02    0.8484746895E-05    0.2420046571E-04    0.5820966611E+00    0.2541577624E-04    0.4282672937E-02
    0.2500000000E+02    0.8625668444E-05    0.2461374341E-04    0.5898111545E+00    0.2738619583E-04    0.4284366498E-02
    0.2700000000E+02    0.8764464498E-05    0.2502258621E-04    0.5965459079E+00    0.2934340024E-04    0.4285847115E-02
    0.2900000000E+02    0.8902350476E-05    0.2543022804E-04    0.6024764192E+00    0.3128869017E-04    0.4287151411E-02
    0.3100000000E+02    0.9040142603E-05    0.2583880304E-04    0.6077386325E+00    0.3322316880E-04    0.4288307915E-02
    0.3300000000E+02    0.9178388229E-05    0.2624971006E-04    0.6124394870E+00    0.3514778264E-04    0.4289339197E-02
    0.3500000000E+02    0.9317451142E-05    0.2666385023E-04    0.6166642610E+00    0.3706335196E-04    0.4290263360E-02
    0.3700000000E+02    0.9457568467E-05    0.2708178456E-04    0.6204817920E+00    0.3897059382E-04    0.4291095100E-02
    0.3900000000E+02    0.9598889233E-05    0.2750384017E-04    0.6239482563E+00    0.4087014000E-04    0.4291846484E-02
    0.4100000000E+02    0.9741500888E-05    0.2793018295E-04    0.6271099522E+00    0.4276255098E-04    0.4292527515E-02
    0.4300000000E+02    0.9885447739E-05    0.2836086765E-04    0.6300053800E+00    0.4464832706E-04    0.4293146560E-02
    0.4500000000E+02    0.1003074391E-04    0.2879587293E-04    0.6326668168E+00    0.4652791737E-04    0.4293710674E-02
    0.4700000000E+02    0.1017738252E-04    0.2923512591E-04    0.6351215256E+00    0.4840172707E-04    0.4294225854E-02
    0.4900000000E+02    0.1032534225E-04    0.2967851955E-04    0.6373926925E+00    0.5027012345E-04    0.4294697228E-02
    0.1000000000E+02    0.7231127867E-05    0.2061640016E-04    0.4800640908E+00    0.1213343976E-04    0.4260715117E-02
    0.3000000000E+02    0.8971218929E-05    0.2563429750E-04    0.6051837982E+00    0.3225721846E-04    0.4287746607E-02
    0.5000000000E+02    0.1039980811E-04    0.2990172945E-04    0.6384657626E+00    0.5120239728E-04    0.4294917892E-02
    0.7000000000E+02    0.1194884875E-04    0.3454838547E-04    0.6538773381E+00    0.6963128727E-04    0.4297838088E-02
    0.9000000000E+02    0.1358452765E-04    0.3945447115E-04    0.6627652043E+00    0.8777115899E-04    0.4299071725E-02
    0.1100000000E+03    0.1527783999E-04    0.4452992014E-04    0.6685479854E+00    0.1057368666E-03    0.4299439733E-02
    0.1300000000E+03    0.1701165440E-04    0.4972311964E-04    0.6726108776E+00    0.1235973924E-03    0.4299293316E-02
    0.1500000000E+03    0.1877585384E-04    0.5500409582E-04    0.6756218112E+00    0.1413986445E-03    0.4298810401E-02
    0.1700000000E+03    0.2056426901E-04    0.6035479939E-04    0.6779424977E+00    0.1591733684E-03    0.4298091801E-02
    0.1900000000E+03    0.2237302139E-04    0.6576400966E-04    0.6797858712E+00    0.1769461333E-03    0.4297199384E-02
    0.2100000000E+03    0.2419961621E-04    0.7122459011E-04    0.6812854487E+00    0.1947361068E-03    0.4296173456E-02
    0.2300000000E+03    0.2604242666E-04    0.7673194500E-04    0.6825291974E+00    0.2125587155E-03    0.4295041524E-02
    0.2500000000E+03    0.2790038867E-04    0.8228311390E-04    0.6835774323E+00    0.2304266990E-03    0.4293823067E-02
    0.2700000000E+03    0.2977281357E-04    0.8787622002E-04    0.6844728901E+00    0.2483508084E-03    0.4292532303E-02
    0.2900000000E+03    0.3165926943E-04    0.9351012263E-04    0.6852466981E+00    0.2663402873E-03    0.4291179866E-02
    0.3100000000E+03    0.3355950366E-04    0.9918419192E-04    0.6859220655E+00    0.2844032129E-03    0.4289773883E-02
    0.3300000000E+03    0.3547339129E-04    0.1048981593E-03    0.6865166508E+00    0.3025467451E-03    0.4288320671E-02
    0.3500000000E+03    0.3740089974E-04    0.1106520158E-03    0.6870441272E+00    0.3207773115E-03    0.4286825213E-02
    0.3700000000E+03    0.3934206426E-04    0.1164459418E-03    0.6875152472E+00    0.3391007480E-03    0.4285291493E-02
    0.3900000000E+03    0.4129697066E-04    0.1222802580E-03    0.6879385827E+00    0.3575224079E-03    0.4283722731E-02
    0.4100000000E+03    0.4326574282E-04    0.1281553895E-03    0.6883210511E+00    0.3760472468E-03    0.4282121549E-02
    0.4300000000E+03    0.4524853373E-04    0.1340718412E-03    0.6886682962E+00    0.3946798907E-03    0.4280490104E-02
    0.4500000000E+03    0.4724551887E-04    0.1400301785E-03    0.6889849683E+00    0.4134246907E-03    0.4278830179E-02
    0.4700000000E+03    0.4925689134E-04    0.1460310145E-03    0.6892749338E+00    0.4322857671E-03    0.4277143258E-02
    0.4900000000E+03    0.5128285818E-04    0.1520749992E-03    0.6895414333E+00    0.4512670461E-03    0.4275430577E-02
    0.1000000000E+03    0.1442526421E-04    0.4197491808E-04    0.6659333011E+00    0.9677075976E-04    0.4299336066E-02
    0.3000000000E+03    0.3260767458E-04    0.9634216032E-04    0.6855954745E+00    0.2753621027E-03    0.4290483137E-02
    0.5000000000E+03    0.5230138231E-04    0.1551133838E-03    0.6896667556E+00    0.4608039430E-03    0.4274564907E-02
    0.7000000000E+03    0.7349584937E-04    0.2183242179E-03    0.6914257236E+00    0.6587098815E-03    0.4256075205E-02
    0.9000000000E+03    0.9644048472E-04    0.2867361891E-03    0.6924063776E+00    0.8724230902E-03    0.4235522638E-02
    0.1100000000E+04    0.1214278938E-03    0.3612286589E-03    0.6930315871E+00    0.1105020244E-02    0.4212901987E-02
    0.1300000000E+04    0.1487923953E-03    0.4428017448E-03    0.6934648748E+00    0.1359786887E-02    0.4188039684E-02
    0.1500000000E+04    0.1789228373E-03    0.5326166474E-03    0.6937828036E+00    0.1640456472E-02    0.4160666016E-02
    0.1700000000E+04    0.2122789945E-03    0.6320453299E-03    0.6940259968E+00    0.1951404714E-02    0.4130429866E-02
    0.1900000000E+04    0.2494116422E-03    0.7427307251E-03    0.6942180106E+00    0.2297855909E-02    0.4096894307E-02
    0.2100000000E+04    0.2909877708E-03    0.8666621032E-03    0.6943734448E+00    0.2686130120E-02    0.4059522290E-02
    0.2300000000E+04    0.3378229414E-03    0.1006271663E-02    0.6945018296E+00    0.3123955399E-02    0.4017654447E-02
    0.2500000000E+04    0.3909233821E-03    0.1164560144E-02    0.6946096499E+00    0.3620872061E-02    0.3970478532E-02
    0.2700000000E+04    0.4515412242E-03    0.1345261623E-02    0.6947014719E+00    0.4188762798E-02    0.3916988795E-02
    0.2900000000E+04    0.5212472834E-03    0.1553060649E-02    0.6947806035E+00    0.4842552025E-02    0.3855932742E-02
    0.3100000000E+04    0.6020268912E-03    0.1793878158E-02    0.6948495000E+00    0.5601128901E-02    0.3785742131E-02
    0.3300000000E+04    0.6964050996E-03    0.2075245061E-02    0.6949100219E+00    0.6488557465E-02    0.3704445090E-02
    0.3500000000E+04    0.8076070695E-03    0.2406780880E-02    0.6949636046E+00    0.7535634593E-02    0.3609557807E-02
    0.3700000000E+04    0.9397550337E-03    0.2800781684E-02    0.6950113737E+00    0.8781818133E-02    0.3497959690E-02
    0.3900000000E+04    0.1098089022E-02    0.3272879236E-02    0.6950542236E+00    0.1027741824E-01    0.3365770117E-02
    0.4100000000E+04    0.1289162063E-02    0.3842624622E-02    0.6950928747E+00    0.1208560646E-01    0.3208277870E-02
    0.4300000000E+04    0.1520878443E-02    0.4533604716E-02    0.6951279132E+00    0.1428302513E-01    0.3020043130E-02
    0.4500000000E+04    0.1802081905E-02    0.5372217679E-02    0.6951598210E+00    0.1695624285E-01    0.2795417657E-02
    0.4700000000E+04    0.2141146684E-02    0.6383475850E-02    0.6951889982E+00    0.2018885087E-01    0.2529904946E-02
    0.4900000000E+04    0.2542817224E-02    0.7581585610E-02    0.6952157795E+00    0.2403189238E-01    0.2222865707E-02
    0.1000000000E+04    0.1086590543E-03    0.3231631043E-03    0.6927501400E+00    0.9861639564E-03    0.4224479027E-02
    0.3000000000E+04    0.5601094241E-03    0.1668914207E-02    0.6948162033E+00    0.5207375724E-02    0.3822091868E-02
    0.5000000000E+04    0.2766353778E-02    0.8248419336E-02    0.6952283616E+00    0.2617736812E-01    0.2055620869E-02
    0.7000000000E+04    0.6146062161E-02    0.1834649293E-01    0.6954040473E+00    0.6029466305E-01    0.2195059984E-03
    0.9000000000E+04    0.7315519123E-02    0.2186455137E-01    0.6955010613E+00    0.7467211429E-01    0.1927259231E-03
    0.1100000000E+05    0.8255436050E-02    0.2470366869E-01    0.6955624045E+00    0.8756682495E-01    0.1947367728E-03
    0.1300000000E+05    0.9041254104E-02    0.2708714716E-01    0.6956045928E+00    0.9953995572E-01    0.1965580473E-03
    0.1500000000E+05    0.9699782649E-02    0.2909361618E-01    0.6956353213E+00    0.1107195700E+00    0.1981317307E-03
    0.1700000000E+05    0.1025213668E-01    0.3078504934E-01    0.6956586568E+00    0.1212079335E+00    0.1995179303E-03
    0.1900000000E+05    0.1071528885E-01    0.3221130997E-01    0.6956769495E+00    0.1310893131E+00    0.2007575276E-03
    0.2100000000E+05    0.1110301528E-01    0.3341291086E-01    0.6956916515E+00    0.1404338274E+00    0.2018792585E-03
    0.2300000000E+05    0.1142659580E-01    0.3442305828E-01    0.6957037079E+00    0.1493003364E+00    0.2029041044E-03
    0.2500000000E+05    0.1169534029E-01    0.3526918893E-01    0.6957137602E+00    0.1577386467E+00    0.2038478617E-03
    0.2700000000E+05    0.1191698906E-01    0.3597413949E-01    0.6957222589E+00    0.1657912168E+00    0.2047227263E-03
    0.2900000000E+05    0.1209802073E-01    0.3655704655E-01    0.6957295294E+00    0.1734944892E+00    0.2055383147E-03
    0.3100000000E+05    0.1224389149E-01    0.3703404606E-01    0.6957358129E+00    0.1808799409E+00    0.2063023460E-03
    0.3300000000E+05    0.1235922266E-01    0.3741882211E-01    0.6957412915E+00    0.1879749206E+00    0.2070211120E-03
    0.3500000000E+05    0.1244794912E-01    0.3772304126E-01    0.6957461055E+00    0.1948033209E+00    0.2076998101E-03
    0.3700000000E+05    0.1251343765E-01    0.3795669908E-01    0.6957503646E+00    0.2013861219E+00    0.2083427843E-03
    0.3900000000E+05    0.1255858198E-01    0.3812839872E-01    0.6957541558E+00    0.2077418356E+00    0.2089537025E-03
    0.4100000000E+05    0.1258587978E-01    0.3824557641E-01    0.6957575490E+00    0.2138868698E+00    0.2095356912E-03
    0.4300000000E+05    0.1259749530E-01    0.3831468527E-01    0.6957606009E+00    0.2198358294E+00    0.2100914369E-03
    0.4500000000E+05    0.1259531072E-01    0.3834134601E-01    0.6957633581E+00    0.2256017671E+00    0.2106232655E-03
    0.4700000000E+05    0.1258096848E-01    0.3833047119E-01    0.6957658591E+00    0.2311963924E+00    0.2111332041E-03
    0.4900000000E+05    0.1255590637E-01    0.3828636831E-01    0.6957681362E+00    0.2366302481E+00    0.2116230308E-03
    0.1000000000E+05    0.7806736244E-02    0.2334692025E-01    0.6955348493E+00    0.8124439464E-01    0.1937155064E-03
    0.3000000000E+05    0.1217504473E-01    0.3680787760E-01    0.6957327820E+00    0.1772251451E+00    0.2059263528E-03
    0.5000000000E+05    0.1253975601E-01    0.3825305842E-01    0.6957691994E+00    0.2392898999E+00    0.2118608994E-03
    0.7000000000E+05    0.1189032589E-01    0.3655426617E-01    0.6957834648E+00    0.2859349514E+00    0.2158616185E-03
    0.9000000000E+05    0.1096780131E-01    0.3394977129E-01    0.6957906364E+00    0.3234010322E+00    0.2188985305E-03
    0.1100000000E+06    0.1001019835E-01    0.3117659788E-01    0.6957947147E+00    0.3545705550E+00    0.2213538911E-03
    0.1300000000E+06    0.9101576772E-02    0.2850543223E-01    0.6957971985E+00    0.3810566471E+00    0.2234188043E-03
    0.1500000000E+06    0.8270092662E-02    0.2603427198E-01    0.6957987685E+00    0.4038845538E+00    0.2252028789E-03
    0.1700000000E+06    0.7521677086E-02    0.2379056617E-01    0.6957997753E+00    0.4237644930E+00    0.2267749505E-03
    0.1900000000E+06    0.6853193831E-02    0.2177176053E-01    0.6958004160E+00    0.4412182168E+00    0.2281811406E-03
    0.2100000000E+06    0.6258016862E-02    0.1996284267E-01    0.6958008090E+00    0.4566448578E+00    0.2294538934E-03
    0.2300000000E+06    0.5728501246E-02    0.1834433573E-01    0.6958010292E+00    0.4703585539E+00    0.2306169157E-03
    0.2500000000E+06    0.5257084665E-02    0.1689601153E-01    0.6958011261E+00    0.4826116759E+00    0.2316880667E-03
    0.2700000000E+06    0.4836755497E-02    0.1559858178E-01    0.6958011331E+00    0.4936101050E+00    0.2326811419E-03
    0.2900000000E+06    0.4461220428E-02    0.1443440333E-01    0.6958010738E+00    0.5035238025E+00    0.2336070236E-03
    0.3100000000E+06    0.4124929537E-02    0.1338769677E-01    0.6958009650E+00    0.5124944213E+00    0.2344744498E-03
    0.3300000000E+06    0.3823036234E-02    0.1244452851E-01    0.6958008189E+00    0.5206409613E+00    0.2352905451E-03
    0.3500000000E+06    0.3551330559E-02    0.1159268392E-01    0.6958006447E+00    0.5280640738E+00    0.2360611965E-03
    0.3700000000E+06    0.3306164961E-02    0.1082149748E-01    0.6958004491E+00    0.5348494006E+00    0.2367913252E-03
    0.3900000000E+06    0.3084381817E-02    0.1012167361E-01    0.6958002375E+00    0.5410702038E+00    0.2374850877E-03
    0.4100000000E+06    0.2883246804E-02    0.9485114535E-02    0.6958000138E+00    0.5467894625E+00    0.2381460273E-03
    0.4300000000E+06    0.2700389654E-02    0.8904762858E-02    0.6957997811E+00    0.5520615606E+00    0.2387771893E-03
    0.4500000000E+06    0.2533752468E-02    0.8374461341E-02    0.6957995419E+00    0.5569336577E+00    0.2393812103E-03
    0.4700000000E+06    0.2381545140E-02    0.7888830064E-02    0.6957992982E+00    0.5614468107E+00    0.2399603891E-03
    0.4900000000E+06    0.2242207200E-02    0.7443159906E-02    0.6957990513E+00    0.5656368961E+00    0.2405167417E-03
    0.1000000000E+06    0.1048617482E-01    0.3256135653E-01    0.6957929395E+00    0.3396533669E+00    0.2201843030E-03
    0.3000000000E+06    0.4288488144E-02    0.1389727901E-01    0.6958010248E+00    0.5081190842E+00    0.2340475655E-03
    0.5000000000E+06    0.2176931280E-02    0.7233999203E-02    0.6957989271E+00    0.5676207744E+00    0.2407869222E-03
    0.7000000000E+06    0.1294335766E-02    0.4378353197E-02    0.6957964719E+00    0.5962319580E+00    0.2453315650E-03
    0.9000000000E+06    0.8522935908E-03    0.2923021356E-02    0.6957942370E+00    0.6125811466E+00    0.2487818285E-03
    0.1100000000E+07    0.6017436014E-03    0.2087014564E-02    0.6957922551E+00    0.6230140026E+00    0.2515715958E-03
    0.1300000000E+07    0.4467324894E-03    0.1564118540E-02    0.6957904920E+00    0.6301951233E+00    0.2539178504E-03
    0.1500000000E+07    0.3444176024E-03    0.1215789072E-02    0.6957889098E+00    0.6354161401E+00    0.2559450684E-03
    0.1700000000E+07    0.2734510696E-03    0.9722512261E-03    0.6957874770E+00    0.6393718588E+00    0.2577314323E-03
    0.1900000000E+07    0.2222630223E-03    0.7953487992E-03    0.6957861688E+00    0.6424666248E+00    0.2593293312E-03
    0.2100000000E+07    0.1841539437E-03    0.6628158311E-03    0.6957849654E+00    0.6449506465E+00    0.2607756207E-03
    0.2300000000E+07    0.1550317641E-03    0.5609592026E-03    0.6957838516E+00    0.6469865550E+00    0.2620972326E-03
    0.2500000000E+07    0.1322847763E-03    0.4809860038E-03    0.6957828147E+00    0.6486843958E+00    0.2633144563E-03
    0.2700000000E+07    0.1141836466E-03    0.4170418133E-03    0.6957818449E+00    0.6501211675E+00    0.2644429653E-03
    0.2900000000E+07    0.9954697874E-04    0.3651069565E-03    0.6957809339E+00    0.6513522918E+00    0.2654951233E-03
    0.3100000000E+07    0.8754574276E-04    0.3223475498E-03    0.6957800748E+00    0.6524186373E+00    0.2664808584E-03
    0.3300000000E+07    0.7758445276E-04    0.2867192577E-03    0.6957792621E+00    0.6533509791E+00    0.2674082657E-03
    0.3500000000E+07    0.6922654184E-04    0.2567172998E-03    0.6957784908E+00    0.6541729193E+00    0.2682840339E-03
    0.3700000000E+07    0.6214611594E-04    0.2312141414E-03    0.6957777569E+00    0.6549028525E+00    0.2691137549E-03
    0.3900000000E+07    0.5609595330E-04    0.2093514145E-03    0.6957770568E+00    0.6555553215E+00    0.2699021515E-03
    0.4100000000E+07    0.5088579110E-04    0.1904663103E-03    0.6957763875E+00    0.6561419712E+00    0.2706532498E-03
    0.4300000000E+07    0.4636728929E-04    0.1740404310E-03    0.6957757464E+00    0.6566722335E+00    0.2713705100E-03
    0.4500000000E+07    0.4242342559E-04    0.1596635967E-03    0.6957751311E+00    0.6571538277E+00    0.2720569284E-03
    0.4700000000E+07    0.3896089092E-04    0.1470078114E-03    0.6957745396E+00    0.6575931307E+00    0.2727151168E-03
    0.4900000000E+07    0.3590455348E-04    0.1358082551E-03    0.6957739701E+00    0.6579954560E+00    0.2733473662E-03
    0.1000000000E+07    0.7109473556E-03    0.2452609068E-02    0.6957932162E+00    0.6183234768E+00    0.2502426962E-03
    0.3000000000E+07    0.9325858731E-04    0.3427231324E-03    0.6957804982E+00    0.6519039418E+00    0.2659957505E-03
    0.5000000000E+07    0.3450917231E-04    0.1306855422E-03    0.6957736930E+00    0.6581841749E+00    0.2736544045E-03
    0.7000000000E+07    0.1778271132E-04    0.6868835487E-04    0.6957689939E+00    0.6608000927E+00    0.2788190531E-03
    0.9000000000E+07    0.1080803393E-04    0.4236646690E-04    0.6957653861E+00    0.6622311326E+00    0.2827400451E-03
    0.1100000000E+08    0.7253705940E-05    0.2876762512E-04    0.6957624496E+00    0.6631329876E+00    0.2859104370E-03
    0.1300000000E+08    0.5201595756E-05    0.2082881118E-04    0.6957599690E+00    0.6637531789E+00    0.2885768092E-03
    0.1500000000E+08    0.3911074838E-05    0.1578965028E-04    0.6957578189E+00    0.6642057594E+00    0.2908806180E-03
    0.1700000000E+08    0.3047322881E-05    0.1238978859E-04    0.6957559196E+00    0.6645505542E+00    0.2929107117E-03
    0.1900000000E+08    0.2441099048E-05    0.9986755145E-05    0.6957542175E+00    0.6648219551E+00    0.2947266268E-03
    0.2100000000E+08    0.1999405886E-05    0.8224906830E-05    0.6957526744E+00    0.6650411339E+00    0.2963702471E-03
    0.2300000000E+08    0.1667710077E-05    0.6894331337E-05    0.6957512625E+00    0.6652218357E+00    0.2978721786E-03
    0.2500000000E+08    0.1412323770E-05    0.5864593569E-05    0.6957499607E+00    0.6653733724E+00    0.2992554793E-03
    0.2700000000E+08    0.1211528137E-05    0.5051152239E-05    0.6957487526E+00    0.6655022759E+00    0.3005379609E-03
