  Pressure (Pa) 22mC5-500 (mol/kg) 23mC5-500 (mol/kg) 24mC5-500 (mol/kg) 3mC6-500 (mol/kg) C7-500 (mol/kg)
    0.1000000000E+01    0.2489343347E-05    0.2145366889E-05    0.6964874582E-01    0.4325431314E-05    0.4235351897E-02
    0.3000000000E+01    0.5971871663E-05    0.5137151874E-05    0.1740716465E+00    0.1121480888E-04    0.4345131016E-02
    0.5000000000E+01    0.8264305508E-05    0.7098755318E-05    0.2486224848E+00    0.1758766378E-04    0.4423128216E-02
    0.7000000000E+01    0.9856698325E-05    0.8456178953E-05    0.3045153543E+00    0.2370928566E-04    0.4482048665E-02
    0.9000000000E+01    0.1100913787E-04    0.9435056829E-05    0.3479755373E+00    0.2967002825E-04    0.4528267524E-02
    0.1100000000E+02    0.1187146220E-04    0.1016511699E-04    0.3827360576E+00    0.3551533982E-04    0.4565566659E-02
    0.1300000000E+02    0.1253527844E-04    0.1072550691E-04    0.4111714126E+00    0.4127237030E-04    0.4596349646E-02
    0.1500000000E+02    0.1305924656E-04    0.1116679843E-04    0.4348640319E+00    0.4695906037E-04    0.4622221167E-02
    0.1700000000E+02    0.1348235483E-04    0.1152252833E-04    0.4549091210E+00    0.5258808826E-04    0.4644294906E-02
    0.1900000000E+02    0.1383132325E-04    0.1181562664E-04    0.4720887766E+00    0.5816885492E-04    0.4663368715E-02
    0.2100000000E+02    0.1412493950E-04    0.1206217678E-04    0.4869764167E+00    0.6370858868E-04    0.4680029571E-02
    0.2300000000E+02    0.1437670392E-04    0.1227370644E-04    0.5000020273E+00    0.6921300732E-04    0.4694719197E-02
    0.2500000000E+02    0.1459649978E-04    0.1245863228E-04    0.5114943700E+00    0.7468673810E-04    0.4707776556E-02
    0.2700000000E+02    0.1479167958E-04    0.1262319828E-04    0.5217091132E+00    0.8013359673E-04    0.4719466218E-02
    0.2900000000E+02    0.1496779011E-04    0.1277210117E-04    0.5308480759E+00    0.8555677957E-04    0.4729997802E-02
    0.3100000000E+02    0.1512906735E-04    0.1290891668E-04    0.5390726959E+00    0.9095900017E-04    0.4739539607E-02
    0.3300000000E+02    0.1527878107E-04    0.1303639595E-04    0.5465136483E+00    0.9634258891E-04    0.4748228369E-02
    0.3500000000E+02    0.1541947913E-04    0.1315667529E-04    0.5532778396E+00    0.1017095672E-03    0.4756176370E-02
    0.3700000000E+02    0.1555316336E-04    0.1327142703E-04    0.5594535771E+00    0.1070617041E-03    0.4763476701E-02
    0.3900000000E+02    0.1568141808E-04    0.1338196950E-04    0.5651144448E+00    0.1124005597E-03    0.4770207221E-02
    0.4100000000E+02    0.1580550517E-04    0.1348934831E-04    0.5703222491E+00    0.1177275196E-03    0.4776433570E-02
    0.4300000000E+02    0.1592643531E-04    0.1359439708E-04    0.5751292845E+00    0.1230438224E-03    0.4782211491E-02
    0.4500000000E+02    0.1604502183E-04    0.1369778337E-04    0.5795800960E+00    0.1283505809E-03    0.4787588643E-02
    0.4700000000E+02    0.1616192191E-04    0.1380004367E-04    0.5837128626E+00    0.1336488007E-03    0.4792606023E-02
    0.4900000000E+02    0.1627766832E-04    0.1390161034E-04    0.5875604961E+00    0.1389393944E-03    0.4797299102E-02
    0.1000000000E+02    0.1146985141E-04    0.9825385326E-05    0.3662713954E+00    0.3260513193E-04    0.4547858155E-02
    0.3000000000E+02    0.1505005914E-04    0.1284183138E-04    0.5350658831E+00    0.8826035649E-04    0.4734883235E-02
    0.5000000000E+02    0.1633524758E-04    0.1395224546E-04    0.5893864521E+00    0.1415820944E-03    0.4799533830E-02
    0.7000000000E+02    0.1749651905E-04    0.1498437622E-04    0.6161947722E+00    0.1942046223E-03    0.4832930615E-02
    0.9000000000E+02    0.1874358973E-04    0.1610383984E-04    0.6321681121E+00    0.2466983694E-03    0.4853307034E-02
    0.1100000000E+03    0.2009477785E-04    0.1732033135E-04    0.6427704456E+00    0.2993595022E-03    0.4866869473E-02
    0.1300000000E+03    0.2154061491E-04    0.1862286432E-04    0.6503205887E+00    0.3523730180E-03    0.4876347544E-02
    0.1500000000E+03    0.2306932576E-04    0.1999984507E-04    0.6559705101E+00    0.4058685760E-03    0.4883143871E-02
    0.1700000000E+03    0.2467118106E-04    0.2144209846E-04    0.6603572696E+00    0.4599447405E-03    0.4888059382E-02
    0.1900000000E+03    0.2633882536E-04    0.2294283454E-04    0.6638617918E+00    0.5146811673E-03    0.4891587746E-02
    0.2100000000E+03    0.2806686169E-04    0.2449713910E-04    0.6667258339E+00    0.5701453816E-03    0.4894051383E-02
    0.2300000000E+03    0.2985139135E-04    0.2610149888E-04    0.6691102203E+00    0.6263968440E-03    0.4895670621E-02
    0.2500000000E+03    0.3168964287E-04    0.2775343904E-04    0.6711260936E+00    0.6834895358E-03    0.4896601573E-02
    0.2700000000E+03    0.3357969587E-04    0.2945126068E-04    0.6728527233E+00    0.7414736859E-03    0.4896958169E-02
    0.2900000000E+03    0.3552028011E-04    0.3119385299E-04    0.6743481669E+00    0.8003969705E-03    0.4896825587E-02
    0.3100000000E+03    0.3751062976E-04    0.3298055863E-04    0.6756559197E+00    0.8603053778E-03    0.4896268812E-02
    0.3300000000E+03    0.3955037719E-04    0.3481107651E-04    0.6768092114E+00    0.9212438518E-03    0.4895338252E-02
    0.3500000000E+03    0.4163947505E-04    0.3668539094E-04    0.6778338653E+00    0.9832567851E-03    0.4894073555E-02
    0.3700000000E+03    0.4377813854E-04    0.3860371942E-04    0.6787502531E+00    0.1046388408E-02    0.4892506258E-02
    0.3900000000E+03    0.4596680242E-04    0.4056647402E-04    0.6795746612E+00    0.1110683106E-02    0.4890661676E-02
    0.4100000000E+03    0.4820608880E-04    0.4257423248E-04    0.6803202660E+00    0.1176185677E-02    0.4888560267E-02
    0.4300000000E+03    0.5049678280E-04    0.4462771655E-04    0.6809978420E+00    0.1242941561E-02    0.4886218645E-02
    0.4500000000E+03    0.5283981430E-04    0.4672777578E-04    0.6816162858E+00    0.1310997034E-02    0.4883650335E-02
    0.4700000000E+03    0.5523624422E-04    0.4887537531E-04    0.6821830074E+00    0.1380399383E-02    0.4880866348E-02
    0.4900000000E+03    0.5768725423E-04    0.5107158692E-04    0.6827042289E+00    0.1451197068E-02    0.4877875629E-02
    0.1000000000E+03    0.1940659433E-04    0.1670054588E-04    0.6379558336E+00    0.2729947339E-03    0.4860724468E-02
    0.3000000000E+03    0.3650926554E-04    0.3208171787E-04    0.6750232261E+00    0.8302252067E-03    0.4896596783E-02
    0.5000000000E+03    0.5893362718E-04    0.5218828467E-04    0.6829494540E+00    0.1487134664E-02    0.4876305060E-02
    0.7000000000E+03    0.8710630017E-04    0.7741676667E-04    0.6863990239E+00    0.2292356983E-02    0.4835111629E-02
    0.9000000000E+03    0.1229542760E-03    0.1094997120E-03    0.6883278557E+00    0.3308381517E-02    0.4775169739E-02
    0.1100000000E+04    0.1696843624E-03    0.1513098241E-03    0.6895591813E+00    0.4629089677E-02    0.4692628940E-02
    0.1300000000E+04    0.2325172072E-03    0.2075196944E-03    0.6904129705E+00    0.6404376452E-02    0.4579116526E-02
    0.1500000000E+04    0.3202144597E-03    0.2859695556E-03    0.6910394936E+00    0.8885055289E-02    0.4419887842E-02
    0.1700000000E+04    0.4479712705E-03    0.4002568354E-03    0.6915186426E+00    0.1250701972E-01    0.4189542493E-02
    0.1900000000E+04    0.6422974594E-03    0.5741074980E-03    0.6918968087E+00    0.1803484932E-01    0.3845300523E-02
    0.2100000000E+04    0.9450135392E-03    0.8449636568E-03    0.6922027723E+00    0.2668867352E-01    0.3325032370E-02
    0.2300000000E+04    0.1392753442E-02    0.1245672980E-02    0.6924553339E+00    0.3958825413E-01    0.2593179980E-02
    0.2500000000E+04    0.1923409274E-02    0.1720790189E-02    0.6926672935E+00    0.5508764706E-01    0.1800454577E-02
    0.2700000000E+04    0.2355364439E-02    0.2107863951E-02    0.6928476669E+00    0.6804524708E-01    0.1262896772E-02
    0.2900000000E+04    0.2626724421E-02    0.2351414296E-02    0.6930029874E+00    0.7658924963E-01    0.1034361711E-02
    0.3100000000E+04    0.2806033789E-02    0.2512686221E-02    0.6931381048E+00    0.8259340053E-01    0.9613387750E-03
    0.3300000000E+04    0.2948020317E-02    0.2640622402E-02    0.6932566949E+00    0.8759809764E-01    0.9418256554E-03
    0.3500000000E+04    0.3074629807E-02    0.2754854220E-02    0.6933615939E+00    0.9222696669E-01    0.9383404735E-03
    0.3700000000E+04    0.3193149981E-02    0.2861900308E-02    0.6934550252E+00    0.9668694861E-01    0.9393985150E-03
    0.3900000000E+04    0.3305949824E-02    0.2963877748E-02    0.6935387564E+00    0.1010437053E+00    0.9416640026E-03
    0.4100000000E+04    0.3413870723E-02    0.3061536360E-02    0.6936142103E+00    0.1053186933E+00    0.9441855289E-03
    0.4300000000E+04    0.3517286424E-02    0.3155207404E-02    0.6936825448E+00    0.1095198111E+00    0.9466972732E-03
    0.4500000000E+04    0.3616424727E-02    0.3245091600E-02    0.6937447122E+00    0.1136507861E+00    0.9491296596E-03
    0.4700000000E+04    0.3711464573E-02    0.3331346064E-02    0.6938015022E+00    0.1177140286E+00    0.9514688937E-03
    0.4900000000E+04    0.3802565483E-02    0.3414110671E-02    0.6938535759E+00    0.1217115012E+00    0.9537166046E-03
    0.1000000000E+04    0.1446930261E-03    0.1289507256E-03    0.6890047598E+00    0.3922985407E-02    0.4737130765E-02
    0.3000000000E+04    0.2723477944E-02    0.2438393903E-02    0.6930728188E+00    0.7978520344E-01    0.9868481199E-03
    0.5000000000E+04    0.3846685769E-02    0.3454225418E-02    0.6938780217E+00    0.1236861345E+00    0.9548078113E-03
    0.7000000000E+04    0.4555145201E-02    0.4102105312E-02    0.6942176701E+00    0.1601187259E+00    0.9731067111E-03
    0.9000000000E+04    0.5004211564E-02    0.4519013750E-02    0.6944031269E+00    0.1916093845E+00    0.9869392924E-03
    0.1100000000E+05    0.5272222618E-02    0.4773857119E-02    0.6945190180E+00    0.2191725627E+00    0.9980959311E-03
    0.1300000000E+05    0.5412637768E-02    0.4913798831E-02    0.6945977479E+00    0.2435528035E+00    0.1007463691E-02
    0.1500000000E+05    0.5462628449E-02    0.4971743347E-02    0.6946543652E+00    0.2653099205E+00    0.1015548462E-02
    0.1700000000E+05    0.5448445933E-02    0.4971016326E-02    0.6946967961E+00    0.2848738188E+00    0.1022666711E-02
    0.1900000000E+05    0.5388868654E-02    0.4928373500E-02    0.6947296050E+00    0.3025808374E+00    0.1029029878E-02
    0.2100000000E+05    0.5297470002E-02    0.4855982641E-02    0.6947556023E+00    0.3186984789E+00    0.1034786377E-02
    0.2300000000E+05    0.5184142011E-02    0.4762757295E-02    0.6947766105E+00    0.3334426304E+00    0.1040044471E-02
    0.2500000000E+05    0.5056138295E-02    0.4655271326E-02    0.6947938620E+00    0.3469898095E+00    0.1044885606E-02
    0.2700000000E+05    0.4918799742E-02    0.4538396580E-02    0.6948082192E+00    0.3594860363E+00    0.1049372625E-02
    0.2900000000E+05    0.4776066876E-02    0.4415754096E-02    0.6948203025E+00    0.3710533732E+00    0.1053555053E-02
    0.3100000000E+05    0.4630846299E-02    0.4290037626E-02    0.6948305701E+00    0.3817948206E+00    0.1057472625E-02
    0.3300000000E+05    0.4485275803E-02    0.4163248316E-02    0.6948393664E+00    0.3917980349E+00    0.1061157717E-02
    0.3500000000E+05    0.4340918150E-02    0.4036866750E-02    0.6948469560E+00    0.4011381891E+00    0.1064637065E-02
    0.3700000000E+05    0.4198903983E-02    0.3911980237E-02    0.6948535447E+00    0.4098802019E+00    0.1067933006E-02
    0.3900000000E+05    0.4060038105E-02    0.3789377777E-02    0.6948592953E+00    0.4180804922E+00    0.1071064400E-02
    0.4100000000E+05    0.3924879050E-02    0.3669621438E-02    0.6948643377E+00    0.4257883761E+00    0.1074047315E-02
    0.4300000000E+05    0.3793799046E-02    0.3553100347E-02    0.6948687773E+00    0.4330471899E+00    0.1076895556E-02
    0.4500000000E+05    0.3667029449E-02    0.3440071767E-02    0.6948726999E+00    0.4398951996E+00    0.1079621074E-02
    0.4700000000E+05    0.3544695310E-02    0.3330692507E-02    0.6948761766E+00    0.4463663452E+00    0.1082234283E-02
    0.4900000000E+05    0.3426841803E-02    0.3225043034E-02    0.6948792662E+00    0.4524908540E+00    0.1084744314E-02
    0.1000000000E+05    0.5157045376E-02    0.4663341361E-02    0.6944671321E+00    0.2058302338E+00    0.9927841954E-03
    0.3000000000E+05    0.4703618481E-02    0.4353141076E-02    0.6948256395E+00    0.3765215321E+00    0.1055544773E-02
    0.5000000000E+05    0.3369592644E-02    0.3173625902E-02    0.6948806816E+00    0.4554316771E+00    0.1085963192E-02
    0.7000000000E+05    0.2439216361E-02    0.2329377921E-02    0.6948972749E+00    0.5013102826E+00    0.1106460248E-02
    0.9000000000E+05    0.1823757405E-02    0.1761547153E-02    0.6949025775E+00    0.5312218680E+00    0.1122015997E-02
    0.1100000000E+06    0.1406789956E-02    0.1371933831E-02    0.6949034352E+00    0.5521934857E+00    0.1134591253E-02
    0.1300000000E+06    0.1114597886E-02    0.1096062069E-02    0.6949022706E+00    0.5676706817E+00    0.1145165864E-02
    0.1500000000E+06    0.9031615959E-03    0.8946694006E-03    0.6949001163E+00    0.5795398884E+00    0.1154301673E-02
    0.1700000000E+06    0.7457713312E-03    0.7436025381E-03    0.6948974672E+00    0.5889182143E+00    0.1162351455E-02
    0.1900000000E+06    0.6257115543E-03    0.6275820576E-03    0.6948945797E+00    0.5965078114E+00    0.1169551547E-02
    0.2100000000E+06    0.5321755939E-03    0.5366411227E-03    0.6948915938E+00    0.6027713265E+00    0.1176068181E-02
    0.2300000000E+06    0.4579605291E-03    0.4640854990E-03    0.6948885886E+00    0.6080255292E+00    0.1182022810E-02
    0.2500000000E+06    0.3981311013E-03    0.4052975204E-03    0.6948856097E+00    0.6124943434E+00    0.1187506927E-02
    0.2700000000E+06    0.3492213340E-03    0.3570147283E-03    0.6948826830E+00    0.6163403899E+00    0.1192591197E-02
    0.2900000000E+06    0.3087429781E-03    0.3168822367E-03    0.6948798231E+00    0.6196845306E+00    0.1197331363E-02
    0.3100000000E+06    0.2748742830E-03    0.2831673714E-03    0.6948770376E+00    0.6226184088E+00    0.1201772182E-02
    0.3300000000E+06    0.2462578166E-03    0.2545731706E-03    0.6948743300E+00    0.6252127412E+00    0.1205950146E-02
    0.3500000000E+06    0.2218660174E-03    0.2301136890E-03    0.6948717009E+00    0.6275229460E+00    0.1209895405E-02
    0.3700000000E+06    0.2009098662E-03    0.2090288734E-03    0.6948691493E+00    0.6295930532E+00    0.1213633163E-02
    0.3900000000E+06    0.1827756363E-03    0.1907253422E-03    0.6948666734E+00    0.6314584773E+00    0.1217184709E-02
    0.4100000000E+06    0.1669803103E-03    0.1747344659E-03    0.6948642706E+00    0.6331480195E+00    0.1220568188E-02
    0.4300000000E+06    0.1531396451E-03    0.1606822237E-03    0.6948619382E+00    0.6346853379E+00    0.1223799195E-02
    0.4500000000E+06    0.1409449560E-03    0.1482672089E-03    0.6948596732E+00    0.6360900435E+00    0.1226891234E-02
    0.4700000000E+06    0.1301460097E-03    0.1372443667E-03    0.6948574726E+00    0.6373785273E+00    0.1229856075E-02
    0.4900000000E+06    0.1205382603E-03    0.1274128213E-03    0.6948553335E+00    0.6385645938E+00    0.1232704044E-02
    0.1000000000E+06    0.1595950149E-02    0.1549229226E-02    0.6949033607E+00    0.5425589483E+00    0.1128601313E-02
    0.3000000000E+06    0.2910763118E-03    0.2993121757E-03    0.6948784208E+00    0.6211979184E+00    0.1199586742E-02
    0.5000000000E+06    0.1161272360E-03    0.1228907763E-03    0.6948542861E+00    0.6391229500E+00    0.1234087089E-02
    0.7000000000E+06    0.6187958860E-04    0.6674515934E-04    0.6948359391E+00    0.6469984862E+00    0.1257350156E-02
    0.9000000000E+06    0.3833782378E-04    0.4194346283E-04    0.6948212719E+00    0.6514183690E+00    0.1275010367E-02
    0.1100000000E+07    0.2605675259E-04    0.2882890099E-04    0.6948090645E+00    0.6542463096E+00    0.1289289255E-02
    0.1300000000E+07    0.1885561550E-04    0.2105446282E-04    0.6947986061E+00    0.6562106779E+00    0.1301297731E-02
    0.1500000000E+07    0.1427669153E-04    0.1606542569E-04    0.6947894527E+00    0.6576544757E+00    0.1311673060E-02
    0.1700000000E+07    0.1118639711E-04    0.1267165407E-04    0.6947813101E+00    0.6587603525E+00    0.1320815492E-02
    0.1900000000E+07    0.9003296379E-05    0.1025751207E-04    0.6947739734E+00    0.6596344813E+00    0.1328993219E-02
    0.2100000000E+07    0.7404297884E-05    0.8478372898E-05    0.6947672947E+00    0.6603427833E+00    0.1336394912E-02
    0.2300000000E+07    0.6198258220E-05    0.7129017353E-05    0.6947611631E+00    0.6609283483E+00    0.1343158434E-02
    0.2500000000E+07    0.5266247061E-05    0.6081006711E-05    0.6947554940E+00    0.6614205296E+00    0.1349387648E-02
    0.2700000000E+07    0.4531130371E-05    0.5250596192E-05    0.6947502210E+00    0.6618400129E+00    0.1355162783E-02
    0.2900000000E+07    0.3941112180E-05    0.4581276534E-05    0.6947452911E+00    0.6622017955E+00    0.1360547128E-02
    0.3100000000E+07    0.3460367833E-05    0.4033787596E-05    0.6947406614E+00    0.6625170151E+00    0.1365591501E-02
    0.3300000000E+07    0.3063480620E-05    0.3580159317E-05    0.6947362965E+00    0.6627941169E+00    0.1370337338E-02
    0.3500000000E+07    0.2732014249E-05    0.3200024627E-05    0.6947321671E+00    0.6630396201E+00    0.1374818879E-02
    0.3700000000E+07    0.2452333143E-05    0.2878265260E-05    0.6947282484E+00    0.6632586378E+00    0.1379064743E-02
    0.3900000000E+07    0.2214177210E-05    0.2603466691E-05    0.6947245195E+00    0.6634552364E+00    0.1383099105E-02
    0.4100000000E+07    0.2009706803E-05    0.2366879151E-05    0.6947209623E+00    0.6636326904E+00    0.1386942573E-02
    0.4300000000E+07    0.1832848628E-05    0.2161703686E-05    0.6947175614E+00    0.6637936665E+00    0.1390612858E-02
    0.4500000000E+07    0.1678838907E-05    0.1982591962E-05    0.6947143031E+00    0.6639403578E+00    0.1394125296E-02
    0.4700000000E+07    0.1543898660E-05    0.1825289670E-05    0.6947111758E+00    0.6640745850E+00    0.1397493255E-02
    0.4900000000E+07    0.1424999163E-05    0.1686378239E-05    0.6947081691E+00    0.6641978719E+00    0.1400728461E-02
    0.1000000000E+07    0.3131367543E-04    0.3446165594E-04    0.6948149134E+00    0.6529723188E+00    0.1282487599E-02
    0.3000000000E+07    0.3688865390E-05    0.4294264544E-05    0.6947429411E+00    0.6623646452E+00    0.1363109030E-02
    0.5000000000E+07    0.1370780102E-05    0.1622931545E-05    0.6947067080E+00    0.6642558224E+00    0.1402299561E-02
    0.7000000000E+07    0.7236981829E-06    0.8596678295E-06    0.6946820517E+00    0.6650675120E+00    0.1428726032E-02
    0.9000000000E+07    0.4547072066E-06    0.5379620751E-06    0.6946632505E+00    0.6655187699E+00    0.1448787978E-02
    0.1100000000E+08    0.3171616360E-06    0.3720021795E-06    0.6946480080E+00    0.6658060647E+00    0.1465008821E-02
    0.1300000000E+08    0.2371969310E-06    0.2749741374E-06    0.6946351656E+00    0.6660050290E+00    0.1478650493E-02
    0.1500000000E+08    0.1864431700E-06    0.2131840557E-06    0.6946240547E+00    0.6661509774E+00    0.1490436906E-02
    0.1700000000E+08    0.1521017061E-06    0.1713074922E-06    0.6946142538E+00    0.6662626129E+00    0.1500822735E-02
    0.1900000000E+08    0.1277041266E-06    0.1415490995E-06    0.6946054797E+00    0.6663507665E+00    0.1510112647E-02
    0.2100000000E+08    0.1096918709E-06    0.1195977048E-06    0.6945975325E+00    0.6664221445E+00    0.1518520971E-02
    0.2300000000E+08    0.9597376246E-07    0.1029089683E-06    0.6945902662E+00    0.6664811215E+00    0.1526204324E-02
    0.2500000000E+08    0.8525427609E-07    0.8990108828E-07    0.6945835704E+00    0.6665306726E+00    0.1533280692E-02
    0.2700000000E+08    0.7669528866E-07    0.7954782031E-07    0.6945773598E+00    0.6665728915E+00    0.1539841219E-02
