  Pressure (Pa) 22mC5-500 (mol/kg) 23mC5-500 (mol/kg) 24mC5-500 (mol/kg) 3mC6-500 (mol/kg) C7-500 (mol/kg)
    0.1000000000E+01    0.2240602352E-05    0.5146435919E-05    0.1266301988E+00    0.1545158008E-05    0.4202775745E-02
    0.3000000000E+01    0.4627426334E-05    0.1059815879E-04    0.2785121931E+00    0.3966786531E-05    0.4255915709E-02
    0.5000000000E+01    0.5827616664E-05    0.1332066246E-04    0.3664071038E+00    0.6194699706E-05    0.4285845089E-02
    0.7000000000E+01    0.6524750901E-05    0.1489359185E-04    0.4237154733E+00    0.8327542167E-05    0.4305568128E-02
    0.9000000000E+01    0.6974894550E-05    0.1590610830E-04    0.4640368276E+00    0.1039877562E-04    0.4319653294E-02
    0.1100000000E+02    0.7292059580E-05    0.1661932318E-04    0.4939490895E+00    0.1242520324E-04    0.4330266987E-02
    0.1300000000E+02    0.7533092634E-05    0.1716278108E-04    0.5170221901E+00    0.1441685412E-04    0.4338581720E-02
    0.1500000000E+02    0.7728703662E-05    0.1760608854E-04    0.5353610638E+00    0.1638035231E-04    0.4345290481E-02
    0.1700000000E+02    0.7896498074E-05    0.1798891439E-04    0.5502872164E+00    0.1832037759E-04    0.4350830287E-02
    0.1900000000E+02    0.8047035314E-05    0.1833489583E-04    0.5626721764E+00    0.2024039953E-04    0.4355490942E-02
    0.2100000000E+02    0.8186873448E-05    0.1865860510E-04    0.5731139940E+00    0.2214308561E-04    0.4359472522E-02
    0.2300000000E+02    0.8320196447E-05    0.1896926094E-04    0.5820367076E+00    0.2403054568E-04    0.4362917801E-02
    0.2500000000E+02    0.8449728565E-05    0.1927280704E-04    0.5897493417E+00    0.2590448706E-04    0.4365931513E-02
    0.2700000000E+02    0.8577269844E-05    0.1957312485E-04    0.5964824249E+00    0.2776631747E-04    0.4368592318E-02
    0.2900000000E+02    0.8704020785E-05    0.1987276611E-04    0.6024114262E+00    0.2961721593E-04    0.4370960495E-02
    0.3100000000E+02    0.8830785089E-05    0.2017340839E-04    0.6076722660E+00    0.3145818317E-04    0.4373083057E-02
    0.3300000000E+02    0.8958099457E-05    0.2047614551E-04    0.6123718646E+00    0.3329007833E-04    0.4374997243E-02
    0.3500000000E+02    0.9086318528E-05    0.2078167665E-04    0.6165954847E+00    0.3511364641E-04    0.4376732951E-02
    0.3700000000E+02    0.9215671490E-05    0.2109043177E-04    0.6204119509E+00    0.3692953907E-04    0.4378314480E-02
    0.3900000000E+02    0.9346300432E-05    0.2140265610E-04    0.6238774288E+00    0.3873833074E-04    0.4379761798E-02
    0.4100000000E+02    0.9478286688E-05    0.2171846781E-04    0.6270382076E+00    0.4054053129E-04    0.4381091474E-02
    0.4300000000E+02    0.9611669140E-05    0.2203789786E-04    0.6299327798E+00    0.4233659606E-04    0.4382317378E-02
    0.4500000000E+02    0.9746457073E-05    0.2236091766E-04    0.6325934160E+00    0.4412693396E-04    0.4383451219E-02
    0.4700000000E+02    0.9882639269E-05    0.2268745861E-04    0.6350473737E+00    0.4591191410E-04    0.4384502953E-02
    0.4900000000E+02    0.1002019049E-04    0.2301742578E-04    0.6373178339E+00    0.4769187112E-04    0.4385481105E-02
    0.1000000000E+02    0.7145702336E-05    0.1629009338E-04    0.4800247941E+00    0.1141685826E-04    0.4325305653E-02
    0.3000000000E+02    0.8767362630E-05    0.2002288268E-04    0.6051181026E+00    0.3053888430E-04    0.4372049954E-02
    0.5000000000E+02    0.1008946893E-04    0.2318365979E-04    0.6383905660E+00    0.4858006226E-04    0.4385944922E-02
    0.7000000000E+02    0.1153656576E-04    0.2665858777E-04    0.6537969314E+00    0.6614184908E-04    0.4392701931E-02
    0.9000000000E+02    0.1307246481E-04    0.3034619024E-04    0.6626813756E+00    0.8343165510E-04    0.4396595546E-02
    0.1100000000E+03    0.1466699979E-04    0.3417165486E-04    0.6684616726E+00    0.1005545579E-03    0.4399005389E-02
    0.1300000000E+03    0.1630235452E-04    0.3809206412E-04    0.6725226439E+00    0.1175737540E-03    0.4400526346E-02
    0.1500000000E+03    0.1796796043E-04    0.4208236584E-04    0.6755320260E+00    0.1345313260E-03    0.4401462193E-02
    0.1700000000E+03    0.1965732684E-04    0.4612735674E-04    0.6778514194E+00    0.1514572888E-03    0.4401986446E-02
    0.1900000000E+03    0.2136633320E-04    0.5021748483E-04    0.6796936888E+00    0.1683741489E-03    0.4402206478E-02
    0.2100000000E+03    0.2309229414E-04    0.5434658774E-04    0.6811923059E+00    0.1852994441E-03    0.4402192840E-02
    0.2300000000E+03    0.2483342729E-04    0.5851061894E-04    0.6824352067E+00    0.2022472658E-03    0.4401994109E-02
    0.2500000000E+03    0.2658853771E-04    0.6270689890E-04    0.6834826838E+00    0.2192292261E-03    0.4401645004E-02
    0.2700000000E+03    0.2835682386E-04    0.6693365765E-04    0.6843774574E+00    0.2362550991E-03    0.4401171106E-02
    0.2900000000E+03    0.3013775427E-04    0.7118974579E-04    0.6851506423E+00    0.2533332633E-03    0.4400591752E-02
    0.3100000000E+03    0.3193098689E-04    0.7547444665E-04    0.6858254382E+00    0.2704710152E-03    0.4399921869E-02
    0.3300000000E+03    0.3373631510E-04    0.7978735100E-04    0.6864194959E+00    0.2876747986E-03    0.4399173195E-02
    0.3500000000E+03    0.3555363063E-04    0.8412827162E-04    0.6869464826E+00    0.3049503749E-03    0.4398355106E-02
    0.3700000000E+03    0.3738289782E-04    0.8849718400E-04    0.6874171459E+00    0.3223029529E-03    0.4397475193E-02
    0.3900000000E+03    0.3922413522E-04    0.9289418445E-04    0.6878400536E+00    0.3397372891E-03    0.4396539676E-02
    0.4100000000E+03    0.4107740238E-04    0.9731946004E-04    0.6882221197E+00    0.3572577659E-03    0.4395553703E-02
    0.4300000000E+03    0.4294279025E-04    0.1017732668E-03    0.6885689854E+00    0.3748684548E-03    0.4394521577E-02
    0.4500000000E+03    0.4482041406E-04    0.1062559138E-03    0.6888852984E+00    0.3925731663E-03    0.4393446923E-02
    0.4700000000E+03    0.4671040801E-04    0.1107677510E-03    0.6891749231E+00    0.4103754910E-03    0.4392332815E-02
    0.4900000000E+03    0.4861292130E-04    0.1153091608E-03    0.6894410986E+00    0.4282788333E-03    0.4391181879E-02
    0.1000000000E+03    0.1386373745E-04    0.3224492302E-04    0.6658481426E+00    0.9200936845E-04    0.4397938839E-02
    0.3000000000E+03    0.3103284840E-04    0.7332855126E-04    0.6854991270E+00    0.2618942703E-03    0.4400267329E-02
    0.5000000000E+03    0.4956892266E-04    0.1175910821E-03    0.6895662645E+00    0.4372694060E-03    0.4390593319E-02
    0.7000000000E+03    0.6939014005E-04    0.1648913244E-03    0.6913226970E+00    0.6231156984E-03    0.4377296651E-02
    0.9000000000E+03    0.9068789919E-04    0.2157002711E-03    0.6923015242E+00    0.8222463208E-03    0.4361648444E-02
    0.1100000000E+04    0.1136904358E-03    0.2705679744E-03    0.6929253050E+00    0.1037143109E-02    0.4343969942E-02
    0.1300000000E+04    0.1386549518E-03    0.3301106755E-03    0.6933574187E+00    0.1270375082E-02    0.4324292484E-02
    0.1500000000E+04    0.1658752568E-03    0.3950307308E-03    0.6936743503E+00    0.1524789717E-02    0.4302513283E-02
    0.1700000000E+04    0.1956922660E-03    0.4661422882E-03    0.6939166765E+00    0.1803651964E-02    0.4278443418E-02
    0.1900000000E+04    0.2285065875E-03    0.5444015955E-03    0.6941079229E+00    0.2110779839E-02    0.4251822013E-02
    0.2100000000E+04    0.2647938836E-03    0.6309437860E-03    0.6942626685E+00    0.2450698170E-02    0.4222316250E-02
    0.2300000000E+04    0.3051240567E-03    0.7271287342E-03    0.6943904285E+00    0.2828825612E-02    0.4189513385E-02
    0.2500000000E+04    0.3501856179E-03    0.8345992465E-03    0.6944976770E+00    0.3251709920E-02    0.4152906585E-02
    0.2700000000E+04    0.4008169877E-03    0.9553557840E-03    0.6945889717E+00    0.3727329273E-02    0.4111874653E-02
    0.2900000000E+04    0.4580470159E-03    0.1091853182E-02    0.6946676139E+00    0.4265482260E-02    0.4065654774E-02
    0.3100000000E+04    0.5231476906E-03    0.1247126458E-02    0.6947360538E+00    0.4878295733E-02    0.4013306725E-02
    0.3300000000E+04    0.5977028139E-03    0.1424954745E-02    0.6947961476E+00    0.5580887825E-02    0.3953666510E-02
    0.3500000000E+04    0.6836972340E-03    0.1630074299E-02    0.6948493274E+00    0.6392231760E-02    0.3885287036E-02
    0.3700000000E+04    0.7836316509E-03    0.1868452589E-02    0.6948967158E+00    0.7336271397E-02    0.3806363660E-02
    0.3900000000E+04    0.9006671190E-03    0.2147633344E-02    0.6949392050E+00    0.8443332744E-02    0.3714644005E-02
    0.4100000000E+04    0.1038798940E-02    0.2477151883E-02    0.6949775133E+00    0.9751836490E-02    0.3607326126E-02
    0.4300000000E+04    0.1203046873E-02    0.2868989628E-02    0.6950122250E+00    0.1131019937E-01    0.3480960639E-02
    0.4500000000E+04    0.1399617776E-02    0.3337963252E-02    0.6950438208E+00    0.1317852454E-01    0.3331397882E-02
    0.4700000000E+04    0.1635930463E-02    0.3901785655E-02    0.6950726994E+00    0.1542905456E-01    0.3153872380E-02
    0.4900000000E+04    0.1920266483E-02    0.4580235141E-02    0.6950991943E+00    0.1814315675E-01    0.2943407793E-02
    0.1000000000E+04    0.1019607434E-03    0.2425900080E-03    0.6926445337E+00    0.9275681120E-03    0.4353056909E-02
    0.3000000000E+04    0.4895227761E-03    0.1166926307E-02    0.6947029816E+00    0.4561690681E-02    0.4040313650E-02
    0.5000000000E+04    0.2083009219E-02    0.4968575912E-02    0.6951116375E+00    0.1969961020E-01    0.2824445994E-02
    0.7000000000E+04    0.6133309924E-02    0.1464400234E-01    0.6952850014E+00    0.5980848979E-01    0.4289344182E-03
    0.9000000000E+04    0.7468653915E-02    0.1785362358E-01    0.6953802684E+00    0.7566892408E-01    0.3216346837E-03
    0.1100000000E+05    0.8454481799E-02    0.2023394412E-01    0.6954402068E+00    0.8890996184E-01    0.3245114234E-03
    0.1300000000E+05    0.9283121006E-02    0.2224261909E-01    0.6954812183E+00    0.1012246583E+00    0.3275420895E-03
    0.1500000000E+05    0.9981556098E-02    0.2394296842E-01    0.6955109330E+00    0.1127441014E+00    0.3301639726E-03
    0.1700000000E+05    0.1057050936E-01    0.2538361614E-01    0.6955333771E+00    0.1235660463E+00    0.3324735176E-03
    0.1900000000E+05    0.1106681429E-01    0.2660409708E-01    0.6955508739E+00    0.1337717709E+00    0.3345388047E-03
    0.2100000000E+05    0.1148426973E-01    0.2763684973E-01    0.6955648566E+00    0.1434295109E+00    0.3364077117E-03
    0.2300000000E+05    0.1183427567E-01    0.2850870001E-01    0.6955762565E+00    0.1525970078E+00    0.3381151962E-03
    0.2500000000E+05    0.1212631792E-01    0.2924199266E-01    0.6955857049E+00    0.1613234789E+00    0.3396875773E-03
    0.2700000000E+05    0.1236834170E-01    0.2985546348E-01    0.6955936441E+00    0.1696511593E+00    0.3411451753E-03
    0.2900000000E+05    0.1256704225E-01    0.3036491840E-01    0.6956003935E+00    0.1776165189E+00    0.3425040122E-03
    0.3100000000E+05    0.1272809319E-01    0.3078376707E-01    0.6956061890E+00    0.1852512333E+00    0.3437769490E-03
    0.3300000000E+05    0.1285632738E-01    0.3112344577E-01    0.6956112089E+00    0.1925829634E+00    0.3449744689E-03
    0.3500000000E+05    0.1295588131E-01    0.3139375516E-01    0.6956155899E+00    0.1996359874E+00    0.3461052312E-03
    0.3700000000E+05    0.1303031129E-01    0.3160313217E-01    0.6956194391E+00    0.2064317163E+00    0.3471764735E-03
    0.3900000000E+05    0.1308268754E-01    0.3175887025E-01    0.6956228409E+00    0.2129891172E+00    0.3481943073E-03
    0.4100000000E+05    0.1311567085E-01    0.3186729904E-01    0.6956258633E+00    0.2193250637E+00    0.3491639415E-03
    0.4300000000E+05    0.1313157550E-01    0.3193393179E-01    0.6956285613E+00    0.2254546266E+00    0.3500898521E-03
    0.4500000000E+05    0.1313242117E-01    0.3196358704E-01    0.6956309799E+00    0.2313913179E+00    0.3509759142E-03
    0.4700000000E+05    0.1311997593E-01    0.3196048956E-01    0.6956331564E+00    0.2371472954E+00    0.3518255057E-03
    0.4900000000E+05    0.1309579216E-01    0.3192835458E-01    0.6956351218E+00    0.2427335355E+00    0.3526415885E-03
    0.1000000000E+05    0.7983434972E-02    0.1909545552E-01    0.6954133200E+00    0.8241736281E-01    0.3228479225E-03
    0.3000000000E+05    0.1265195401E-01    0.3058491182E-01    0.6956033982E+00    0.1814733919E+00    0.3431505146E-03
    0.5000000000E+05    0.1307973195E-01    0.3190243730E-01    0.6956360336E+00    0.2454661477E+00    0.3530378928E-03
    0.7000000000E+05    0.1239927958E-01    0.3047790371E-01    0.6956477569E+00    0.2931914973E+00    0.3597033217E-03
    0.9000000000E+05    0.1141700411E-01    0.2825674705E-01    0.6956530017E+00    0.3312089143E+00    0.3647629627E-03
    0.1100000000E+06    0.1039564546E-01    0.2588830899E-01    0.6956555239E+00    0.3625950586E+00    0.3688536927E-03
    0.1300000000E+06    0.9428182107E-02    0.2361132551E-01    0.6956567000E+00    0.3890830304E+00    0.3722939086E-03
    0.1500000000E+06    0.8545452515E-02    0.2151131358E-01    0.6956571409E+00    0.4117751779E+00    0.3752662282E-03
    0.1700000000E+06    0.7753600417E-02    0.1961124175E-01    0.6956571531E+00    0.4314327353E+00    0.3778853374E-03
    0.1900000000E+06    0.7048780965E-02    0.1790770584E-01    0.6956569045E+00    0.4486117931E+00    0.3802280781E-03
    0.2100000000E+06    0.6423388330E-02    0.1638656642E-01    0.6956564929E+00    0.4637347728E+00    0.3823485049E-03
    0.2300000000E+06    0.5868795172E-02    0.1503002425E-01    0.6956559782E+00    0.4771316089E+00    0.3842861149E-03
    0.2500000000E+06    0.5376556032E-02    0.1381986229E-01    0.6956553982E+00    0.4890653144E+00    0.3860706629E-03
    0.2700000000E+06    0.4938904322E-02    0.1273888697E-01    0.6956547779E+00    0.4997488364E+00    0.3877251330E-03
    0.2900000000E+06    0.4548917918E-02    0.1177150041E-01    0.6956541338E+00    0.5093567110E+00    0.3892676557E-03
    0.3100000000E+06    0.4200530458E-02    0.1090385079E-01    0.6956534771E+00    0.5180334301E+00    0.3907127891E-03
    0.3300000000E+06    0.3888474294E-02    0.1012378287E-01    0.6956528157E+00    0.5258996258E+00    0.3920724033E-03
    0.3500000000E+06    0.3608197330E-02    0.9420700672E-02    0.6956521550E+00    0.5330567479E+00    0.3933563062E-03
    0.3700000000E+06    0.3355774246E-02    0.8785399031E-02    0.6956514985E+00    0.5395906671E+00    0.3945726969E-03
    0.3900000000E+06    0.3127821740E-02    0.8209892253E-02    0.6956508490E+00    0.5455744912E+00    0.3957285005E-03
    0.4100000000E+06    0.2921421801E-02    0.7687253146E-02    0.6956502081E+00    0.5510707936E+00    0.3968296199E-03
    0.4300000000E+06    0.2734054273E-02    0.7211467967E-02    0.6956495771E+00    0.5561333942E+00    0.3978811289E-03
    0.4500000000E+06    0.2563538587E-02    0.6777308766E-02    0.6956489568E+00    0.5608087958E+00    0.3988874204E-03
    0.4700000000E+06    0.2407983916E-02    0.6380222644E-02    0.6956483476E+00    0.5651373505E+00    0.3998523241E-03
    0.4900000000E+06    0.2265746798E-02    0.6016236505E-02    0.6956477497E+00    0.5691542148E+00    0.4007791988E-03
    0.1000000000E+06    0.1090322705E-01    0.2707070315E-01    0.6956544898E+00    0.3476026235E+00    0.3669051138E-03
    0.3000000000E+06    0.4369871355E-02    0.1132600659E-01    0.6956538065E+00    0.5138034272E+00    0.3900015995E-03
    0.5000000000E+06    0.2199167423E-02    0.5845552567E-02    0.6956474551E+00    0.5710555249E+00    0.4012293148E-03
    0.7000000000E+06    0.1302462261E-02    0.3524396416E-02    0.6956421336E+00    0.5984545745E+00    0.4088005822E-03
    0.9000000000E+06    0.8558973896E-03    0.2348181191E-02    0.6956377235E+00    0.6141206988E+00    0.4145486007E-03
    0.1100000000E+07    0.6035704104E-03    0.1674617484E-02    0.6956339834E+00    0.6241388200E+00    0.4191962311E-03
    0.1300000000E+07    0.4477528118E-03    0.1254117492E-02    0.6956307419E+00    0.6310513784E+00    0.4231049719E-03
    0.1500000000E+07    0.3450307615E-03    0.9743415437E-03    0.6956278825E+00    0.6360892175E+00    0.4264822012E-03
    0.1700000000E+07    0.2738411929E-03    0.7788970644E-03    0.6956253245E+00    0.6399146666E+00    0.4294581719E-03
    0.1900000000E+07    0.2225228468E-03    0.6370137760E-03    0.6956230098E+00    0.6429135855E+00    0.4321201640E-03
    0.2100000000E+07    0.1843335804E-03    0.5307636232E-03    0.6956208956E+00    0.6453250795E+00    0.4345295790E-03
    0.2300000000E+07    0.1551598882E-03    0.4491337466E-03    0.6956189494E+00    0.6473048012E+00    0.4367312846E-03
    0.2500000000E+07    0.1323785963E-03    0.3850584101E-03    0.6956171461E+00    0.6489582383E+00    0.4387590832E-03
    0.2700000000E+07    0.1142539127E-03    0.3338362902E-03    0.6956154657E+00    0.6503593131E+00    0.4406390863E-03
    0.2900000000E+07    0.9960064069E-04    0.2922411290E-03    0.6956138922E+00    0.6515613119E+00    0.4423918917E-03
    0.3100000000E+07    0.8758742872E-04    0.2579993647E-03    0.6956124125E+00    0.6526035837E+00    0.4440340393E-03
    0.3300000000E+07    0.7761732558E-04    0.2294714373E-03    0.6956110159E+00    0.6535157988E+00    0.4455790154E-03
    0.3500000000E+07    0.6925281284E-04    0.2054508548E-03    0.6956096932E+00    0.6543207407E+00    0.4470379634E-03
    0.3700000000E+07    0.6216736269E-04    0.1850338067E-03    0.6956084370E+00    0.6550361870E+00    0.4484201989E-03
    0.3900000000E+07    0.5611332178E-04    0.1675323796E-03    0.6956072406E+00    0.6556762084E+00    0.4497335902E-03
    0.4100000000E+07    0.5090012741E-04    0.1524154770E-03    0.6956060985E+00    0.6562520837E+00    0.4509848445E-03
    0.4300000000E+07    0.4637922730E-04    0.1392677777E-03    0.6956050059E+00    0.6567729575E+00    0.4521797265E-03
    0.4500000000E+07    0.4243344655E-04    0.1277607025E-03    0.6956039586E+00    0.6572463206E+00    0.4533232278E-03
    0.4700000000E+07    0.3896936469E-04    0.1176315364E-03    0.6956029528E+00    0.6576783670E+00    0.4544196997E-03
    0.4900000000E+07    0.3591176746E-04    0.1086681870E-03    0.6956019853E+00    0.6580742619E+00    0.4554729588E-03
    0.1000000000E+07    0.7134774419E-03    0.1968982935E-02    0.6956357820E+00    0.6196317942E+00    0.4169823451E-03
    0.3000000000E+07    0.9330578944E-04    0.2743156182E-03    0.6956131413E+00    0.6521003706E+00    0.4432258927E-03
    0.5000000000E+07    0.3451584423E-04    0.1045684197E-03    0.6956015150E+00    0.6582600366E+00    0.4559844511E-03
    0.7000000000E+07    0.1778451392E-04    0.5495620079E-04    0.6955935654E+00    0.6608401688E+00    0.4645881500E-03
    0.9000000000E+07    0.1080870521E-04    0.3389526534E-04    0.6955874903E+00    0.6622559159E+00    0.4711200125E-03
    0.1100000000E+08    0.7254008181E-05    0.2301505850E-04    0.6955825589E+00    0.6631498411E+00    0.4764014412E-03
    0.1300000000E+08    0.5201749667E-05    0.1666354634E-04    0.6955784007E+00    0.6637653924E+00    0.4808432217E-03
    0.1500000000E+08    0.3911160050E-05    0.1263200185E-04    0.6955748012E+00    0.6642150229E+00    0.4846810090E-03
    0.1700000000E+08    0.3047372837E-05    0.9912000703E-05    0.6955716247E+00    0.6645578251E+00    0.4880628172E-03
    0.1900000000E+08    0.2441129452E-05    0.7989511375E-05    0.6955687802E+00    0.6648278165E+00    0.4910878284E-03
    0.2100000000E+08    0.1999424773E-05    0.6579995522E-05    0.6955662032E+00    0.6650459611E+00    0.4938258173E-03
    0.2300000000E+08    0.1667721845E-05    0.5515511912E-05    0.6955638465E+00    0.6652258816E+00    0.4963277704E-03
    0.2500000000E+08    0.1412330961E-05    0.4691706623E-05    0.6955616746E+00    0.6653768133E+00    0.4986320998E-03
    0.2700000000E+08    0.1211532289E-05    0.4040943444E-05    0.6955596598E+00    0.6655052388E+00    0.5007684778E-03
