  Pressure (Pa) 22mC5-500 (mol/kg) 23mC5-500 (mol/kg) 24mC5-500 (mol/kg) 3mC6-500 (mol/kg) C7-500 (mol/kg)
    0.1000000000E+01    0.2256338585E-05    0.1295959955E-05    0.1266338943E+00    0.8387081040E-05    0.4181597505E-02
    0.3000000000E+01    0.4663132478E-05    0.2670755506E-05    0.2785299238E+00    0.2133048470E-04    0.4216051305E-02
    0.5000000000E+01    0.5881268732E-05    0.3362044623E-05    0.3664375867E+00    0.3322448650E-04    0.4233587135E-02
    0.7000000000E+01    0.6595743263E-05    0.3765582037E-05    0.4237560116E+00    0.4462265091E-04    0.4244639019E-02
    0.9000000000E+01    0.7063079889E-05    0.4028930348E-05    0.4640852223E+00    0.5571080376E-04    0.4252216306E-02
    0.1100000000E+02    0.7397512476E-05    0.4217499093E-05    0.4940037078E+00    0.6658164309E-04    0.4257684043E-02
    0.1300000000E+02    0.7656014773E-05    0.4363749817E-05    0.5170818272E+00    0.7729021540E-04    0.4261767231E-02
    0.1500000000E+02    0.7869377137E-05    0.4485131827E-05    0.5354248191E+00    0.8787272809E-04    0.4264889780E-02
    0.1700000000E+02    0.8055259444E-05    0.4591594614E-05    0.5503544043E+00    0.9835467436E-04    0.4267317064E-02
    0.1900000000E+02    0.8224259963E-05    0.4689070491E-05    0.5627422653E+00    0.1087549020E-03    0.4269224074E-02
    0.2100000000E+02    0.8382965576E-05    0.4781219593E-05    0.5731865650E+00    0.1190878692E-03    0.4270731055E-02
    0.2300000000E+02    0.8535582365E-05    0.4870359713E-05    0.5821114252E+00    0.1293649917E-03    0.4271923454E-02
    0.2500000000E+02    0.8684852034E-05    0.4957987114E-05    0.5898259336E+00    0.1395954955E-03    0.4272863716E-02
    0.2700000000E+02    0.8832588734E-05    0.5045080523E-05    0.5965606675E+00    0.1497869817E-03    0.4273598568E-02
    0.2900000000E+02    0.8980004628E-05    0.5132284787E-05    0.6024911333E+00    0.1599458143E-03    0.4274163695E-02
    0.3100000000E+02    0.9127913237E-05    0.5220025124E-05    0.6077532816E+00    0.1700773951E-03    0.4274586832E-02
    0.3300000000E+02    0.9276859684E-05    0.5308579983E-05    0.6124540565E+00    0.1801863646E-03    0.4274889873E-02
    0.3500000000E+02    0.9427205939E-05    0.5398128508E-05    0.6166787399E+00    0.1902767504E-03    0.4275090339E-02
    0.3700000000E+02    0.9579187672E-05    0.5488782035E-05    0.6204961722E+00    0.2003520807E-03    0.4275202420E-02
    0.3900000000E+02    0.9732952778E-05    0.5580605318E-05    0.6239625320E+00    0.2104154715E-03    0.4275237738E-02
    0.4100000000E+02    0.9888587849E-05    0.5673631024E-05    0.6271241193E+00    0.2204696946E-03    0.4275205904E-02
    0.4300000000E+02    0.1004613659E-04    0.5767869751E-05    0.6300194355E+00    0.2305172327E-03    0.4275114934E-02
    0.4500000000E+02    0.1020561276E-04    0.5863317012E-05    0.6326807590E+00    0.2405603223E-03    0.4274971573E-02
    0.4700000000E+02    0.1036700930E-04    0.5959958134E-05    0.6351353536E+00    0.2506009894E-03    0.4274781536E-02
    0.4900000000E+02    0.1053030492E-04    0.6057771722E-05    0.6374064059E+00    0.2606410788E-03    0.4274549695E-02
    0.1000000000E+02    0.7242502733E-05    0.4130047825E-05    0.4800764746E+00    0.6116936484E-04    0.4255158987E-02
    0.3000000000E+02    0.9053858151E-05    0.5176067756E-05    0.6051984818E+00    0.1650147052E-03    0.4274391527E-02
    0.5000000000E+02    0.1061265551E-04    0.6107110288E-05    0.6384794187E+00    0.2656614397E-03    0.4274419431E-02
    0.7000000000E+02    0.1234986301E-04    0.7148528590E-05    0.6538899108E+00    0.3663839721E-03    0.4270379533E-02
    0.9000000000E+02    0.1423254880E-04    0.8276891113E-05    0.6627768625E+00    0.4683651738E-03    0.4264678967E-02
    0.1100000000E+03    0.1623344874E-04    0.9475223554E-05    0.6685588861E+00    0.5722639764E-03    0.4258057567E-02
    0.1300000000E+03    0.1833772095E-04    0.1073456906E-04    0.6726211448E+00    0.6785345278E-03    0.4250815053E-02
    0.1500000000E+03    0.2053795997E-04    0.1205054997E-04    0.6756315410E+00    0.7875347024E-03    0.4243091975E-02
    0.1700000000E+03    0.2283107320E-04    0.1342139103E-04    0.6779517653E+00    0.8995732245E-03    0.4234959284E-02
    0.1900000000E+03    0.2521659945E-04    0.1484688566E-04    0.6797947361E+00    0.1014933590E-02    0.4226453222E-02
    0.2100000000E+03    0.2769579505E-04    0.1632784300E-04    0.6812939591E+00    0.1133887702E-02    0.4217590895E-02
    0.2300000000E+03    0.3027112197E-04    0.1786578163E-04    0.6825373925E+00    0.1256704422E-02    0.4208377932E-02
    0.2500000000E+03    0.3294595411E-04    0.1946275530E-04    0.6835853449E+00    0.1383655414E-02    0.4198812545E-02
    0.2700000000E+03    0.3572440704E-04    0.2112125283E-04    0.6844805476E+00    0.1515019475E-02    0.4188887790E-02
    0.2900000000E+03    0.3861124129E-04    0.2284414165E-04    0.6852541237E+00    0.1651085991E-02    0.4178592883E-02
    0.3100000000E+03    0.4161181116E-04    0.2463463846E-04    0.6859292793E+00    0.1792157897E-02    0.4167913976E-02
    0.3300000000E+03    0.4473204354E-04    0.2649629746E-04    0.6865236700E+00    0.1938554369E-02    0.4156834612E-02
    0.3500000000E+03    0.4797843730E-04    0.2843301073E-04    0.6870509669E+00    0.2090613399E-02    0.4145335984E-02
    0.3700000000E+03    0.5135807791E-04    0.3044901748E-04    0.6875219205E+00    0.2248694344E-02    0.4133397069E-02
    0.3900000000E+03    0.5487866386E-04    0.3254892030E-04    0.6879451013E+00    0.2413180549E-02    0.4120994662E-02
    0.4100000000E+03    0.5854854319E-04    0.3473770731E-04    0.6883274254E+00    0.2584482083E-02    0.4108103358E-02
    0.4300000000E+03    0.6237675885E-04    0.3702077948E-04    0.6886745354E+00    0.2763038656E-02    0.4094695475E-02
    0.4500000000E+03    0.6637310262E-04    0.3940398303E-04    0.6889910808E+00    0.2949322752E-02    0.4080740943E-02
    0.4700000000E+03    0.7054817746E-04    0.4189364683E-04    0.6892809270E+00    0.3143843038E-02    0.4066207157E-02
    0.4900000000E+03    0.7491346859E-04    0.4449662492E-04    0.6895473140E+00    0.3347148082E-02    0.4051058792E-02
    0.1000000000E+03    0.1521937436E-04    0.8868010792E-05    0.6659445630E+00    0.5200434205E-03    0.4261459168E-02
    0.3000000000E+03    0.4009695217E-04    0.2373072478E-04    0.6856027919E+00    0.1720976732E-02    0.4173302401E-02
    0.5000000000E+03    0.7717129518E-04    0.4584290400E-04    0.6896725824E+00    0.3452278222E-02    0.4043242309E-02
    0.7000000000E+03    0.1361125321E-03    0.8098326968E-04    0.6914307127E+00    0.6196053628E-02    0.3843053214E-02
    0.9000000000E+03    0.2397011621E-03    0.1427388476E-03    0.6924108117E+00    0.1103018046E-01    0.3504636730E-02
    0.1100000000E+04    0.4433918716E-03    0.2641857248E-03    0.6930356189E+00    0.2058970068E-01    0.2872649457E-02
    0.1300000000E+04    0.8424135029E-03    0.5021688622E-03    0.6934685976E+00    0.3951878423E-01    0.1734446649E-02
    0.1500000000E+04    0.1316917372E-02    0.7853883840E-03    0.6937862793E+00    0.6259321099E-01    0.6083650011E-03
    0.1700000000E+04    0.1582941449E-02    0.9444977894E-03    0.6940292691E+00    0.7637757775E-01    0.2427720197E-03
    0.1900000000E+04    0.1740466689E-02    0.1038995309E-02    0.6942211116E+00    0.8528341773E-01    0.1854632650E-03
    0.2100000000E+04    0.1870977080E-02    0.1117447578E-02    0.6943763989E+00    0.9309956545E-01    0.1786342013E-03
    0.2300000000E+04    0.1990543064E-02    0.1189432654E-02    0.6945046558E+00    0.1005744556E+00    0.1785191637E-03
    0.2500000000E+04    0.2101962722E-02    0.1256613517E-02    0.6946123636E+00    0.1078282971E+00    0.1792265403E-03
    0.2700000000E+04    0.2206027700E-02    0.1319456447E-02    0.6947040855E+00    0.1148856950E+00    0.1799903164E-03
    0.2900000000E+04    0.2303217903E-02    0.1378242115E-02    0.6947831274E+00    0.1217570121E+00    0.1807162507E-03
    0.3100000000E+04    0.2393945044E-02    0.1433210936E-02    0.6948519427E+00    0.1284501792E+00    0.1813975913E-03
    0.3300000000E+04    0.2478588944E-02    0.1484584702E-02    0.6949123907E+00    0.1349724225E+00    0.1820382373E-03
    0.3500000000E+04    0.2557504313E-02    0.1532570611E-02    0.6949659060E+00    0.1413305367E+00    0.1826427010E-03
    0.3700000000E+04    0.2631023206E-02    0.1577362697E-02    0.6950136129E+00    0.1475309479E+00    0.1832149267E-03
    0.3900000000E+04    0.2699456734E-02    0.1619142827E-02    0.6950564055E+00    0.1535797419E+00    0.1837582632E-03
    0.4100000000E+04    0.2763096566E-02    0.1658081569E-02    0.6950950034E+00    0.1594826881E+00    0.1842755625E-03
    0.4300000000E+04    0.2822216292E-02    0.1694338987E-02    0.6951299924E+00    0.1652452592E+00    0.1847692709E-03
    0.4500000000E+04    0.2877072687E-02    0.1728065369E-02    0.6951618539E+00    0.1708726507E+00    0.1852415026E-03
    0.4700000000E+04    0.2927906865E-02    0.1759401901E-02    0.6951909878E+00    0.1763697982E+00    0.1856940977E-03
    0.4900000000E+04    0.2974945353E-02    0.1788481285E-02    0.6952177284E+00    0.1817413933E+00    0.1861286672E-03
    0.1000000000E+04    0.3234209065E-03    0.1926524783E-03    0.6927543586E+00    0.1495090966E-01    0.3240233939E-02
    0.3000000000E+04    0.2349364989E-02    0.1406189404E-02    0.6948186855E+00    0.1251254014E+00    0.1810623002E-03
    0.5000000000E+04    0.2997108259E-02    0.1802213838E-02    0.6952302910E+00    0.1843815120E+00    0.1863396425E-03
    0.7000000000E+04    0.3286452203E-02    0.1984977196E-02    0.6954056786E+00    0.2315692359E+00    0.1898830335E-03
    0.9000000000E+04    0.3373056210E-02    0.2045923665E-02    0.6955024987E+00    0.2701528711E+00    0.1925677826E-03
    0.1100000000E+05    0.3344225562E-02    0.2036636973E-02    0.6955637025E+00    0.3023604674E+00    0.1947361021E-03
    0.1300000000E+05    0.3250507166E-02    0.1987188235E-02    0.6956057843E+00    0.3296949782E+00    0.1965583640E-03
    0.1500000000E+05    0.3121823676E-02    0.1915524673E-02    0.6956364279E+00    0.3532105458E+00    0.1981320347E-03
    0.1700000000E+05    0.2976132149E-02    0.1832522574E-02    0.6956596937E+00    0.3736707969E+00    0.1995182172E-03
    0.1900000000E+05    0.2824262501E-02    0.1744820871E-02    0.6956779277E+00    0.3916440787E+00    0.2007578001E-03
    0.2100000000E+05    0.2672712327E-02    0.1656464726E-02    0.6956925793E+00    0.4075631918E+00    0.2018795185E-03
    0.2300000000E+05    0.2525305944E-02    0.1569885878E-02    0.6957045918E+00    0.4217642222E+00    0.2029043534E-03
    0.2500000000E+05    0.2384201664E-02    0.1486501081E-02    0.6957146055E+00    0.4345125848E+00    0.2038481009E-03
    0.2700000000E+05    0.2250514688E-02    0.1407084434E-02    0.6957230697E+00    0.4460209725E+00    0.2047229568E-03
    0.2900000000E+05    0.2124708047E-02    0.1332002678E-02    0.6957303093E+00    0.4564620254E+00    0.2055385374E-03
    0.3100000000E+05    0.2006840768E-02    0.1261365711E-02    0.6957365648E+00    0.4659774659E+00    0.2063025616E-03
    0.3300000000E+05    0.1896726680E-02    0.1195123771E-02    0.6957420179E+00    0.4746848099E+00    0.2070213210E-03
    0.3500000000E+05    0.1794036504E-02    0.1133130555E-02    0.6957468085E+00    0.4826823804E+00    0.2077000132E-03
    0.3700000000E+05    0.1698363509E-02    0.1075184320E-02    0.6957510461E+00    0.4900531098E+00    0.2083429817E-03
    0.3900000000E+05    0.1609265578E-02    0.1021054606E-02    0.6957548173E+00    0.4968674631E+00    0.2089538948E-03
    0.4100000000E+05    0.1526291852E-02    0.9704995049E-03    0.6957581920E+00    0.5031857126E+00    0.2095358787E-03
    0.4300000000E+05    0.1448999279E-02    0.9232766625E-03    0.6957612266E+00    0.5090597264E+00    0.2100916199E-03
    0.4500000000E+05    0.1376962540E-02    0.8791501243E-03    0.6957639676E+00    0.5145343919E+00    0.2106234442E-03
    0.4700000000E+05    0.1309779609E-02    0.8378944203E-03    0.6957664535E+00    0.5196487553E+00    0.2111333789E-03
    0.4900000000E+05    0.1247074493E-02    0.7992968182E-03    0.6957687162E+00    0.5244369450E+00    0.2116232018E-03
    0.1000000000E+05    0.3369287964E-02    0.2047814468E-02    0.6955362119E+00    0.2869467502E+00    0.1937034670E-03
    0.3000000000E+05    0.2064789290E-02    0.1296128834E-02    0.6957335476E+00    0.4613276008E+00    0.2059265718E-03
    0.5000000000E+05    0.1217290983E-02    0.7809320853E-03    0.6957697726E+00    0.5267182332E+00    0.2118610686E-03
    0.7000000000E+05    0.7858435247E-03    0.5123510403E-03    0.6957839320E+00    0.5608639440E+00    0.2158617594E-03
    0.9000000000E+05    0.5453039748E-03    0.3600986663E-03    0.6957910329E+00    0.5817618314E+00    0.2188986521E-03
    0.1100000000E+06    0.3992458504E-03    0.2664456845E-03    0.6957950594E+00    0.5958384660E+00    0.2213539984E-03
    0.1300000000E+06    0.3044118559E-03    0.2049895937E-03    0.6957975027E+00    0.6059523746E+00    0.2234189003E-03
    0.1500000000E+06    0.2395340969E-03    0.1625665754E-03    0.6957990398E+00    0.6135646677E+00    0.2252029655E-03
    0.1700000000E+06    0.1932722282E-03    0.1320792172E-03    0.6958000190E+00    0.6194984951E+00    0.2267750291E-03
    0.1900000000E+06    0.1591607695E-03    0.1094435098E-03    0.6958006359E+00    0.6242523652E+00    0.2281812123E-03
    0.2100000000E+06    0.1333051291E-03    0.9217977572E-04    0.6958010082E+00    0.6281455596E+00    0.2294539590E-03
    0.2300000000E+06    0.1132498404E-03    0.7871369142E-04    0.6958012100E+00    0.6313919113E+00    0.2306169758E-03
    0.2500000000E+06    0.9738633935E-04    0.6800749370E-04    0.6958012904E+00    0.6341399543E+00    0.2316881219E-03
    0.2700000000E+06    0.8462600850E-04    0.5935490756E-04    0.6958012825E+00    0.6364960483E+00    0.2326811927E-03
    0.2900000000E+06    0.7421122146E-04    0.5226187494E-04    0.6958012095E+00    0.6385383367E+00    0.2336070702E-03
    0.3100000000E+06    0.6560175537E-04    0.4637444649E-04    0.6958010881E+00    0.6403255107E+00    0.2344744925E-03
    0.3300000000E+06    0.5840413445E-04    0.4143369386E-04    0.6958009303E+00    0.6419025015E+00    0.2352905843E-03
    0.3500000000E+06    0.5232634227E-04    0.3724667293E-04    0.6958007453E+00    0.6433042853E+00    0.2360612324E-03
    0.3700000000E+06    0.4714801716E-04    0.3366723005E-04    0.6958005396E+00    0.6445584932E+00    0.2367913579E-03
    0.3900000000E+06    0.4270037106E-04    0.3058301736E-04    0.6958003184E+00    0.6456872419E+00    0.2374851175E-03
    0.4100000000E+06    0.3885237266E-04    0.2790652445E-04    0.6958000857E+00    0.6467084424E+00    0.2381460543E-03
    0.4300000000E+06    0.3550105932E-04    0.2556876754E-04    0.6957998445E+00    0.6476367539E+00    0.2387772136E-03
    0.4500000000E+06    0.3256462695E-04    0.2351477296E-04    0.6957995973E+00    0.6484842892E+00    0.2393812321E-03
    0.4700000000E+06    0.2997742438E-04    0.2170029504E-04    0.6957993458E+00    0.6492611443E+00    0.2399604085E-03
    0.4900000000E+06    0.2768627548E-04    0.2008939725E-04    0.6957990916E+00    0.6499758008E+00    0.2405167588E-03
    0.1000000000E+06    0.4639077056E-03    0.3080398451E-03    0.6957933085E+00    0.5894270512E+00    0.2201844170E-03
    0.3000000000E+06    0.6970823020E-04    0.4918547035E-04    0.6958011540E+00    0.6394607341E+00    0.2340476102E-03
    0.5000000000E+06    0.2663782634E-04    0.1935087880E-04    0.6957989639E+00    0.6503120916E+00    0.2407869381E-03
    0.7000000000E+06    0.1393569985E-04    0.1031806996E-04    0.6957964505E+00    0.6550470120E+00    0.2453315621E-03
    0.9000000000E+06    0.8549269654E-05    0.6418877470E-05    0.6957941724E+00    0.6576989931E+00    0.2487818111E-03
    0.1100000000E+07    0.5776521103E-05    0.4384420937E-05    0.6957921559E+00    0.6593945134E+00    0.2515715666E-03
    0.1300000000E+07    0.4164683622E-05    0.3188830372E-05    0.6957903635E+00    0.6605719070E+00    0.2539178111E-03
    0.1500000000E+07    0.3145934238E-05    0.2426266798E-05    0.6957887558E+00    0.6614371778E+00    0.2559450201E-03
    0.1700000000E+07    0.2461406226E-05    0.1909870330E-05    0.6957873003E+00    0.6620999079E+00    0.2577313760E-03
    0.1900000000E+07    0.1979436622E-05    0.1543799522E-05    0.6957859715E+00    0.6626237591E+00    0.2593292675E-03
    0.2100000000E+07    0.1627329129E-05    0.1274748389E-05    0.6957847493E+00    0.6630482447E+00    0.2607755502E-03
    0.2300000000E+07    0.1362290933E-05    0.1071134679E-05    0.6957836180E+00    0.6633991872E+00    0.2620971557E-03
    0.2500000000E+07    0.1157803186E-05    0.9132729381E-06    0.6957825649E+00    0.6636941753E+00    0.2633143734E-03
    0.2700000000E+07    0.9967234475E-06    0.7883709534E-06    0.6957815797E+00    0.6639456031E+00    0.2644428767E-03
    0.2900000000E+07    0.8675721449E-06    0.6878210805E-06    0.6957806542E+00    0.6641624561E+00    0.2654950293E-03
    0.3100000000E+07    0.7624279050E-06    0.6056573833E-06    0.6957797814E+00    0.6643514076E+00    0.2664807592E-03
    0.3300000000E+07    0.6756818725E-06    0.5376382659E-06    0.6957789555E+00    0.6645175170E+00    0.2674081615E-03
    0.3500000000E+07    0.6032725700E-06    0.4806805946E-06    0.6957781717E+00    0.6646646907E+00    0.2682839251E-03
    0.3700000000E+07    0.5422005744E-06    0.4324993443E-06    0.6957774258E+00    0.6647959919E+00    0.2691136414E-03
    0.3900000000E+07    0.4902119035E-06    0.3913716439E-06    0.6957767142E+00    0.6649138573E+00    0.2699020336E-03
    0.4100000000E+07    0.4455862764E-06    0.3559784308E-06    0.6957760337E+00    0.6650202490E+00    0.2706531276E-03
    0.4300000000E+07    0.4069923526E-06    0.3252958407E-06    0.6957753819E+00    0.6651167646E+00    0.2713703837E-03
    0.4500000000E+07    0.3733867870E-06    0.2985192382E-06    0.6957747561E+00    0.6652047184E+00    0.2720567980E-03
    0.4700000000E+07    0.3439425780E-06    0.2750091344E-06    0.6957741545E+00    0.6652852015E+00    0.2727149826E-03
    0.4900000000E+07    0.3179973808E-06    0.2542520667E-06    0.6957735752E+00    0.6653591270E+00    0.2733472281E-03
    0.1000000000E+07    0.6959931660E-05    0.5255668985E-05    0.6957931335E+00    0.6586307728E+00    0.2502426727E-03
    0.3000000000E+07    0.8123931998E-06    0.6447385747E-06    0.6957802116E+00    0.6642600718E+00    0.2659956539E-03
    0.5000000000E+07    0.3061654277E-06    0.2447726977E-06    0.6957732933E+00    0.6653938761E+00    0.2736542646E-03
    0.7000000000E+07    0.1648210171E-06    0.1307677336E-06    0.6957685093E+00    0.6658806524E+00    0.2788188796E-03
    0.9000000000E+07    0.1058349511E-06    0.8268130739E-07    0.6957648316E+00    0.6661513350E+00    0.2827398434E-03
    0.1100000000E+08    0.7550395031E-07    0.5782462462E-07    0.6957618344E+00    0.6663236974E+00    0.2859102105E-03
    0.1300000000E+08    0.5775314963E-07    0.4325222364E-07    0.6957592996E+00    0.6664430857E+00    0.2885765603E-03
    0.1500000000E+08    0.4640361799E-07    0.3394207021E-07    0.6957571003E+00    0.6665306756E+00    0.2908803484E-03
    0.1700000000E+08    0.3866357880E-07    0.2760970632E-07    0.6957551556E+00    0.6665976832E+00    0.2929104230E-03
    0.1900000000E+08    0.3311923467E-07    0.2309241990E-07    0.6957534112E+00    0.6666506043E+00    0.2947263202E-03
    0.2100000000E+08    0.2899094981E-07    0.1974665442E-07    0.6957518285E+00    0.6666934612E+00    0.2963699235E-03
    0.2300000000E+08    0.2581936016E-07    0.1719221417E-07    0.6957503791E+00    0.6667288778E+00    0.2978718389E-03
    0.2500000000E+08    0.2331906217E-07    0.1519245685E-07    0.6957490417E+00    0.6667586387E+00    0.2992551242E-03
    0.2700000000E+08    0.2130485183E-07    0.1359365417E-07    0.6957477997E+00    0.6667840000E+00    0.3005375910E-03
