  Pressure (Pa) 22mC5-500 (mol/kg) 23mC5-500 (mol/kg) 24mC5-500 (mol/kg) 3mC6-500 (mol/kg) C7-500 (mol/kg)
    0.1000000000E+01    0.3709538318E-05    0.5319329394E-06    0.2142795160E+00    0.4000697893E-05    0.4187957815E-02
    0.3000000000E+01    0.6327012281E-05    0.9038359365E-06    0.3978436558E+00    0.1022888209E-04    0.4216418897E-02
    0.5000000000E+01    0.7306299522E-05    0.1041985738E-05    0.4800999986E+00    0.1595457736E-04    0.4228215068E-02
    0.7000000000E+01    0.7843406701E-05    0.1118042611E-05    0.5267775183E+00    0.2143705374E-04    0.4234839655E-02
    0.9000000000E+01    0.8226626117E-05    0.1172949544E-05    0.5568553201E+00    0.2676387427E-04    0.4239078318E-02
    0.1100000000E+02    0.8550613646E-05    0.1219985433E-05    0.5778515066E+00    0.3197888656E-04    0.4242004643E-02
    0.1300000000E+02    0.8852083367E-05    0.1264223112E-05    0.5933396860E+00    0.3710820405E-04    0.4244126628E-02
    0.1500000000E+02    0.9146707742E-05    0.1307784789E-05    0.6052359295E+00    0.4216904245E-04    0.4245717460E-02
    0.1700000000E+02    0.9441505651E-05    0.1351593323E-05    0.6146599284E+00    0.4717354502E-04    0.4246937781E-02
    0.1900000000E+02    0.9739627575E-05    0.1396043104E-05    0.6223097998E+00    0.5213070202E-04    0.4247888540E-02
    0.2100000000E+02    0.1004239720E-04    0.1441283575E-05    0.6286434261E+00    0.5704741671E-04    0.4248636526E-02
    0.2300000000E+02    0.1035024810E-04    0.1487347863E-05    0.6339736054E+00    0.6192914322E-04    0.4249227790E-02
    0.2500000000E+02    0.1066317701E-04    0.1534214184E-05    0.6385212980E+00    0.6678029066E-04    0.4249695168E-02
    0.2700000000E+02    0.1098097161E-04    0.1581836176E-05    0.6424470261E+00    0.7160449127E-04    0.4250062742E-02
    0.2900000000E+02    0.1130332778E-04    0.1630158167E-05    0.6458702154E+00    0.7640478484E-04    0.4250348603E-02
    0.3100000000E+02    0.1162991052E-04    0.1679122853E-05    0.6488815557E+00    0.8118374971E-04    0.4250566619E-02
    0.3300000000E+02    0.1196038536E-04    0.1728675070E-05    0.6515511534E+00    0.8594359825E-04    0.4250727611E-02
    0.3500000000E+02    0.1229443393E-04    0.1778763512E-05    0.6539340578E+00    0.9068624792E-04    0.4250840157E-02
    0.3700000000E+02    0.1263176103E-04    0.1829341368E-05    0.6560740972E+00    0.9541337534E-04    0.4250911149E-02
    0.3900000000E+02    0.1297209704E-04    0.1880366400E-05    0.6580065994E+00    0.1001264580E-03    0.4250946192E-02
    0.4100000000E+02    0.1331519795E-04    0.1931800740E-05    0.6597603573E+00    0.1048268071E-03    0.4250949897E-02
    0.4300000000E+02    0.1366084405E-04    0.1983610557E-05    0.6613590731E+00    0.1095155935E-03    0.4250926091E-02
    0.4500000000E+02    0.1400883813E-04    0.2035765679E-05    0.6628224357E+00    0.1141938686E-03    0.4250877982E-02
    0.4700000000E+02    0.1435900343E-04    0.2088239213E-05    0.6641669357E+00    0.1188625815E-03    0.4250808279E-02
    0.4900000000E+02    0.1471118158E-04    0.2141007182E-05    0.6654064894E+00    0.1235225931E-03    0.4250719288E-02
    0.1000000000E+02    0.8392996795E-05    0.1197031230E-05    0.5682105569E+00    0.2938344957E-04    0.4240666008E-02
    0.3000000000E+02    0.1146611198E-04    0.1654563698E-05    0.6474225774E+00    0.7879678744E-04    0.4250465355E-02
    0.5000000000E+02    0.1488798054E-04    0.2167494803E-05    0.6659906776E+00    0.1258495836E-03    0.4250668188E-02
    0.7000000000E+02    0.1850219896E-04    0.2708598196E-05    0.6742781887E+00    0.1720914136E-03    0.4248991657E-02
    0.9000000000E+02    0.2222204267E-04    0.3264922775E-05    0.6789718812E+00    0.2180576061E-03    0.4246573691E-02
    0.1100000000E+03    0.2601542889E-04    0.3831815427E-05    0.6819927939E+00    0.2640228065E-03    0.4243766559E-02
    0.1300000000E+03    0.2986942587E-04    0.4407450281E-05    0.6840998751E+00    0.3101559954E-03    0.4240717423E-02
    0.1500000000E+03    0.3377882353E-04    0.4991121824E-05    0.6856532726E+00    0.3565734480E-03    0.4237498988E-02
    0.1700000000E+03    0.3774190425E-04    0.5582623748E-05    0.6868458626E+00    0.4033616986E-03    0.4234151201E-02
    0.1900000000E+03    0.4175866963E-04    0.6181991825E-05    0.6877902581E+00    0.4505890668E-03    0.4230697625E-02
    0.2100000000E+03    0.4583002381E-04    0.6789386851E-05    0.6885566254E+00    0.4983120593E-03    0.4227152833E-02
    0.2300000000E+03    0.4995737006E-04    0.7405037511E-05    0.6891909605E+00    0.5465792008E-03    0.4223526113E-02
    0.2500000000E+03    0.5414240108E-04    0.8029211052E-05    0.6897246716E+00    0.5954334625E-03    0.4219823462E-02
    0.2700000000E+03    0.5838698595E-04    0.8662197726E-05    0.6901799371E+00    0.6449138772E-03    0.4216048734E-02
    0.2900000000E+03    0.6269310786E-04    0.9304302380E-05    0.6905728641E+00    0.6950566542E-03    0.4212204335E-02
    0.3100000000E+03    0.6706282972E-04    0.9955839931E-05    0.6909154326E+00    0.7458959758E-03    0.4208291656E-02
    0.3300000000E+03    0.7149827538E-04    0.1061713301E-04    0.6912167379E+00    0.7974645840E-03    0.4204311355E-02
    0.3500000000E+03    0.7600162009E-04    0.1128851082E-04    0.6914838097E+00    0.8497942225E-03    0.4200263548E-02
    0.3700000000E+03    0.8057508626E-04    0.1197030881E-04    0.6917221667E+00    0.9029159796E-03    0.4196147936E-02
    0.3900000000E+03    0.8522094262E-04    0.1266286861E-04    0.6919362019E+00    0.9568605593E-03    0.4191963898E-02
    0.4100000000E+03    0.8994150527E-04    0.1336653841E-04    0.6921294559E+00    0.1011658501E-02    0.4187710552E-02
    0.4300000000E+03    0.9473914003E-04    0.1408167338E-04    0.6923048138E+00    0.1067340359E-02    0.4183386804E-02
    0.4500000000E+03    0.9961626559E-04    0.1480863622E-04    0.6924646504E+00    0.1123936858E-02    0.4178991377E-02
    0.4700000000E+03    0.1045753571E-03    0.1554779773E-04    0.6926109381E+00    0.1181479025E-02    0.4174522842E-02
    0.4900000000E+03    0.1096189502E-03    0.1629953751E-04    0.6927453288E+00    0.1239998301E-02    0.4169979631E-02
    0.1000000000E+03    0.2411061106E-04    0.3547200118E-05    0.6806300832E+00    0.2410281363E-03    0.4245207020E-02
    0.3000000000E+03    0.6486988734E-04    0.9628872042E-05    0.6907498182E+00    0.7203871725E-03    0.4210256475E-02
    0.5000000000E+03    0.1121732447E-03    0.1668024543E-04    0.6928085071E+00    0.1269634320E-02    0.4167679498E-02
    0.7000000000E+03    0.1683785132E-03    0.2505684570E-04    0.6936939096E+00    0.1921934155E-02    0.4117277783E-02
    0.9000000000E+03    0.2366343342E-03    0.3522887781E-04    0.6941864039E+00    0.2715113132E-02    0.4056745361E-02
    0.1100000000E+04    0.3213647128E-03    0.4785614000E-04    0.6944999299E+00    0.3701510928E-02    0.3982614905E-02
    0.1300000000E+04    0.4290839754E-03    0.6390992637E-04    0.6947169803E+00    0.4958094537E-02    0.3889777602E-02
    0.1500000000E+04    0.5697405138E-03    0.8487351617E-04    0.6948761088E+00    0.6602576998E-02    0.3770532256E-02
    0.1700000000E+04    0.7590142044E-03    0.1130848655E-03    0.6949977454E+00    0.8820967392E-02    0.3612975971E-02
    0.1900000000E+04    0.1022187557E-02    0.1523141275E-03    0.6950937253E+00    0.1191428980E-01    0.3398429609E-02
    0.2100000000E+04    0.1399911478E-02    0.2086242227E-03    0.6951713781E+00    0.1636922617E-01    0.3098063012E-02
    0.2300000000E+04    0.1952532779E-02    0.2910184347E-03    0.6952354853E+00    0.2291550988E-01    0.2672213420E-02
    0.2500000000E+04    0.2742880030E-02    0.4088789211E-03    0.6952892989E+00    0.3233514192E-01    0.2088818706E-02
    0.2700000000E+04    0.3747772913E-02    0.5587772855E-03    0.6953351077E+00    0.4442522409E-01    0.1393973154E-02
    0.2900000000E+04    0.4748046638E-02    0.7080619573E-03    0.6953745689E+00    0.5665526818E-01    0.7754417617E-03
    0.3100000000E+04    0.5502651726E-02    0.8207847449E-03    0.6954089124E+00    0.6614920502E-01    0.3971954311E-03
    0.3300000000E+04    0.6004978603E-02    0.8959319233E-03    0.6954390695E+00    0.7275698871E-01    0.2268889254E-03
    0.3500000000E+04    0.6363832167E-02    0.9497091773E-03    0.6954657590E+00    0.7772494292E-01    0.1621558658E-03
    0.3700000000E+04    0.6656841771E-02    0.9936858577E-03    0.6954895440E+00    0.8196041074E-01    0.1393468208E-03
    0.3900000000E+04    0.6919356592E-02    0.1033131413E-02    0.6955108720E+00    0.8587997359E-01    0.1316471464E-03
    0.4100000000E+04    0.7165292848E-02    0.1070120292E-02    0.6955301033E+00    0.8964780334E-01    0.1292094290E-03
    0.4300000000E+04    0.7399957004E-02    0.1105443131E-02    0.6955475310E+00    0.9332572148E-01    0.1285816395E-03
    0.4500000000E+04    0.7625445891E-02    0.1139411870E-02    0.6955633961E+00    0.9693711723E-01    0.1285705717E-03
    0.4700000000E+04    0.7842685836E-02    0.1172163857E-02    0.6955778986E+00    0.1004913026E+00    0.1287650511E-03
    0.4900000000E+04    0.8052175636E-02    0.1203772682E-02    0.6955912058E+00    0.1039924586E+00    0.1290234611E-03
    0.1000000000E+04    0.2765943978E-03    0.4118404288E-04    0.6943588385E+00    0.3180075058E-02    0.4021652085E-02
    0.3000000000E+04    0.5162006854E-02    0.7698823974E-03    0.6953923163E+00    0.6181933520E-01    0.5543043559E-03
    0.5000000000E+04    0.8154123210E-02    0.1219164416E-02    0.6955974560E+00    0.1057239034E+00    0.1291598423E-03
    0.7000000000E+04    0.9849804738E-02    0.1476296484E-02    0.6956845956E+00    0.1379343035E+00    0.1315923379E-03
    0.9000000000E+04    0.1102008359E-01    0.1655635295E-02    0.6957325582E+00    0.1661991010E+00    0.1334476263E-03
    0.1100000000E+05    0.1180784661E-01    0.1778104952E-02    0.6957627884E+00    0.1912782340E+00    0.1349469760E-03
    0.1300000000E+05    0.1231400564E-01    0.1858516326E-02    0.6957835122E+00    0.2137394981E+00    0.1362075445E-03
    0.1500000000E+05    0.1261113553E-01    0.1907548331E-02    0.6957985575E+00    0.2340164463E+00    0.1372964556E-03
    0.1700000000E+05    0.1275223844E-01    0.1933021838E-02    0.6958099454E+00    0.2524464227E+00    0.1382558328E-03
    0.1900000000E+05    0.1277653242E-01    0.1940741652E-02    0.6958188423E+00    0.2692963530E+00    0.1391138852E-03
    0.2100000000E+05    0.1271336122E-01    0.1935065730E-02    0.6958259683E+00    0.2847806400E+00    0.1398904482E-03
    0.2300000000E+05    0.1258488833E-01    0.1919297805E-02    0.6958317917E+00    0.2990738406E+00    0.1406000111E-03
    0.2500000000E+05    0.1240798656E-01    0.1895963081E-02    0.6958366297E+00    0.3123198137E+00    0.1412534863E-03
    0.2700000000E+05    0.1219558446E-01    0.1867004962E-02    0.6958407051E+00    0.3246384330E+00    0.1418593017E-03
    0.2900000000E+05    0.1195763953E-01    0.1833927461E-02    0.6958441786E+00    0.3361305903E+00    0.1424241041E-03
    0.3100000000E+05    0.1170185080E-01    0.1797899628E-02    0.6958471692E+00    0.3468819759E+00    0.1429532298E-03
    0.3300000000E+05    0.1143418655E-01    0.1759833042E-02    0.6958497666E+00    0.3569659738E+00    0.1434510296E-03
    0.3500000000E+05    0.1115927926E-01    0.1720439918E-02    0.6958520399E+00    0.3664459046E+00    0.1439210976E-03
    0.3700000000E+05    0.1088072408E-01    0.1680277100E-02    0.6958540430E+00    0.3753767833E+00    0.1443664385E-03
    0.3900000000E+05    0.1060130620E-01    0.1639779663E-02    0.6958558187E+00    0.3838067102E+00    0.1447895896E-03
    0.4100000000E+05    0.1032317550E-01    0.1599286783E-02    0.6958574012E+00    0.3917779837E+00    0.1451927137E-03
    0.4300000000E+05    0.1004798163E-01    0.1559061790E-02    0.6958588184E+00    0.3993279970E+00    0.1455776697E-03
    0.4500000000E+05    0.9776979107E-02    0.1519307821E-02    0.6958600930E+00    0.4064899682E+00    0.1459460669E-03
    0.4700000000E+05    0.9511109601E-02    0.1480180113E-02    0.6958612440E+00    0.4132935390E+00    0.1462993081E-03
    0.4900000000E+05    0.9251066690E-02    0.1441795695E-02    0.6958622871E+00    0.4197652684E+00    0.1466386237E-03
    0.1000000000E+05    0.1145467864E-01    0.1722937385E-02    0.6957492210E+00    0.1790976862E+00    0.1342328385E-03
    0.3000000000E+05    0.1183156724E-01    0.1816220088E-02    0.6958457281E+00    0.3415940336E+00    0.1426928346E-03
    0.5000000000E+05    0.9123391932E-02    0.1422910272E-02    0.6958627723E+00    0.4228842522E+00    0.1468034036E-03
    0.7000000000E+05    0.6929939303E-02    0.1094778797E-02    0.6958691297E+00    0.4725496723E+00    0.1495750195E-03
    0.9000000000E+05    0.5357644167E-02    0.8555085837E-03    0.6958721313E+00    0.5060052457E+00    0.1516791079E-03
    0.1100000000E+06    0.4234607131E-02    0.6824092928E-03    0.6958737004E+00    0.5299844939E+00    0.1533803578E-03
    0.1300000000E+06    0.3417363066E-02    0.5551314035E-03    0.6958745486E+00    0.5479532707E+00    0.1548111226E-03
    0.1500000000E+06    0.2809020102E-02    0.4595533251E-03    0.6958749943E+00    0.5618827518E+00    0.1560473233E-03
    0.1700000000E+06    0.2346129263E-02    0.3862711938E-03    0.6958751994E+00    0.5729751055E+00    0.1571366428E-03
    0.1900000000E+06    0.1986799690E-02    0.3289992014E-03    0.6958752534E+00    0.5820033834E+00    0.1581110319E-03
    0.2100000000E+06    0.1702840162E-02    0.2834652259E-03    0.6958752092E+00    0.5894861054E+00    0.1589929671E-03
    0.2300000000E+06    0.1474862307E-02    0.2467066970E-03    0.6958750996E+00    0.5957833225E+00    0.1597988727E-03
    0.2500000000E+06    0.1289242602E-02    0.2166269529E-03    0.6958749460E+00    0.6011524222E+00    0.1605411219E-03
    0.2700000000E+06    0.1136213042E-02    0.1917131529E-03    0.6958747623E+00    0.6057820202E+00    0.1612292727E-03
    0.2900000000E+06    0.1008638435E-02    0.1708539275E-03    0.6958745583E+00    0.6098133292E+00    0.1618708648E-03
    0.3100000000E+06    0.9012173402E-03    0.1532192641E-03    0.6958743406E+00    0.6133540672E+00    0.1624719525E-03
    0.3300000000E+06    0.8099492362E-03    0.1381798625E-03    0.6958741141E+00    0.6164877672E+00    0.1630374723E-03
    0.3500000000E+06    0.7317723338E-03    0.1252519849E-03    0.6958738821E+00    0.6192801608E+00    0.1635715030E-03
    0.3700000000E+06    0.6643128946E-03    0.1140590778E-03    0.6958736472E+00    0.6217836514E+00    0.1640774546E-03
    0.3900000000E+06    0.6057087927E-03    0.1043046264E-03    0.6958734111E+00    0.6240405102E+00    0.1645582070E-03
    0.4100000000E+06    0.5544833818E-03    0.9575266078E-04    0.6958731752E+00    0.6260851981E+00    0.1650162154E-03
    0.4300000000E+06    0.5094540168E-03    0.8821355943E-04    0.6958729404E+00    0.6279460809E+00    0.1654535898E-03
    0.4500000000E+06    0.4696648168E-03    0.8153357363E-04    0.6958727075E+00    0.6296467128E+00    0.1658721573E-03
    0.4700000000E+06    0.4343366316E-03    0.7558700411E-04    0.6958724770E+00    0.6312068103E+00    0.1662735106E-03
    0.4900000000E+06    0.4028293787E-03    0.7027029199E-04    0.6958722493E+00    0.6326429995E+00    0.1666590466E-03
    0.1000000000E+06    0.4750139527E-02    0.7621137471E-03    0.6958730365E+00    0.5189148470E+00    0.1525699753E-03
    0.3000000000E+06    0.9526843177E-03    0.1616768158E-03    0.6958744508E+00    0.6116393180E+00    0.1621761404E-03
    0.5000000000E+06    0.3883394067E-03    0.6782069194E-04    0.6958721366E+00    0.6333191246E+00    0.1668462739E-03
    0.7000000000E+06    0.2087472346E-03    0.3716798584E-04    0.6958700582E+00    0.6428543580E+00    0.1699956004E-03
    0.9000000000E+06    0.1298840232E-03    0.2346616310E-04    0.6958682957E+00    0.6482012398E+00    0.1723865683E-03
    0.1100000000E+07    0.8846739646E-04    0.1617180005E-04    0.6958667836E+00    0.6516190481E+00    0.1743198349E-03
    0.1300000000E+07    0.6407934067E-04    0.1182884528E-04    0.6958654639E+00    0.6539911933E+00    0.1759457601E-03
    0.1500000000E+07    0.4852754403E-04    0.9033548916E-05    0.6958642942E+00    0.6557335061E+00    0.1773506008E-03
    0.1700000000E+07    0.3801063953E-04    0.7127974994E-05    0.6958632443E+00    0.6570672705E+00    0.1785885351E-03
    0.1900000000E+07    0.3057041875E-04    0.5770294423E-05    0.6958622918E+00    0.6581210296E+00    0.1796958669E-03
    0.2100000000E+07    0.2511522782E-04    0.4768524153E-05    0.6958614201E+00    0.6589745430E+00    0.1806981363E-03
    0.2300000000E+07    0.2099761838E-04    0.4008048369E-05    0.6958606163E+00    0.6596799156E+00    0.1816140061E-03
    0.2500000000E+07    0.1781394450E-04    0.3416986516E-05    0.6958598705E+00    0.6602726235E+00    0.1824575367E-03
    0.2700000000E+07    0.1530199505E-04    0.2948392704E-05    0.6958591748E+00    0.6607776559E+00    0.1832395892E-03
    0.2900000000E+07    0.1328546178E-04    0.2570545028E-05    0.6958585227E+00    0.6612131222E+00    0.1839687315E-03
    0.3100000000E+07    0.1164226802E-04    0.2261378976E-05    0.6958579089E+00    0.6615924669E+00    0.1846518436E-03
    0.3300000000E+07    0.1028572432E-04    0.2005159723E-05    0.6958573292E+00    0.6619258804E+00    0.1852945352E-03
    0.3500000000E+07    0.9152901319E-05    0.1790419972E-05    0.6958567798E+00    0.6622212272E+00    0.1859014416E-03
    0.3700000000E+07    0.8197225939E-05    0.1608641530E-05    0.6958562576E+00    0.6624846736E+00    0.1864764377E-03
    0.3900000000E+07    0.7383635076E-05    0.1453389017E-05    0.6958557601E+00    0.6627211224E+00    0.1870227964E-03
    0.4100000000E+07    0.6685324887E-05    0.1319726743E-05    0.6958552850E+00    0.6629345210E+00    0.1875433078E-03
    0.4300000000E+07    0.6081522566E-05    0.1203817648E-05    0.6958548302E+00    0.6631280828E+00    0.1880403696E-03
    0.4500000000E+07    0.5555928953E-05    0.1102642103E-05    0.6958543940E+00    0.6633044508E+00    0.1885160584E-03
    0.4700000000E+07    0.5095610777E-05    0.1013797289E-05    0.6958539750E+00    0.6634658183E+00    0.1889721840E-03
    0.4900000000E+07    0.4690200094E-05    0.9353517997E-06    0.6958535719E+00    0.6636140208E+00    0.1894103340E-03
    0.1000000000E+07    0.1062214746E-03    0.1930936429E-04    0.6958675124E+00    0.6500796983E+00    0.1733989265E-03
    0.3000000000E+07    0.1242328263E-04    0.2408479833E-05    0.6958582113E+00    0.6614091092E+00    0.1843156649E-03
    0.5000000000E+07    0.4505398784E-05    0.8995272351E-06    0.6958533758E+00    0.6636836786E+00    0.1896231123E-03
    0.7000000000E+07    0.2305647974E-05    0.4690348468E-06    0.6958500579E+00    0.6646590548E+00    0.1932022333E-03
    0.9000000000E+07    0.1398024777E-05    0.2882242726E-06    0.6958475173E+00    0.6652010624E+00    0.1959195055E-03
    0.1100000000E+08    0.9381257706E-06    0.1953703273E-06    0.6958454522E+00    0.6655460269E+00    0.1981166131E-03
    0.1300000000E+08    0.6734992431E-06    0.1413663736E-06    0.6958437091E+00    0.6657848740E+00    0.1999644352E-03
    0.1500000000E+08    0.5074293424E-06    0.1071727944E-06    0.6958421989E+00    0.6659600438E+00    0.2015610003E-03
    0.1700000000E+08    0.3964190441E-06    0.8414242707E-07    0.6958408653E+00    0.6660940076E+00    0.2029678801E-03
    0.1900000000E+08    0.3185622088E-06    0.6788405390E-07    0.6958396702E+00    0.6661997760E+00    0.2042263333E-03
    0.2100000000E+08    0.2618537789E-06    0.5597378711E-07    0.6958385869E+00    0.6662854039E+00    0.2053653854E-03
    0.2300000000E+08    0.2192683354E-06    0.4698410174E-07    0.6958375957E+00    0.6663561446E+00    0.2064062464E-03
    0.2500000000E+08    0.1864727284E-06    0.4002950003E-07    0.6958366818E+00    0.6664155708E+00    0.2073648955E-03
    0.2700000000E+08    0.1606767436E-06    0.3453684799E-07    0.6958358337E+00    0.6664661963E+00    0.2082536762E-03
