  Pressure (Pa) 22mC5-500 (mol/kg) 23mC5-500 (mol/kg) 24mC5-500 (mol/kg) 3mC6-500 (mol/kg) C7-500 (mol/kg)
    0.1000000000E+01    0.4704112638E-05    0.6754223400E-06    0.9949494719E-01    0.4325461655E-05    0.4232028440E-02
    0.3000000000E+01    0.1040436139E-04    0.1490234065E-05    0.2320852317E+00    0.1121503969E-04    0.4325704390E-02
    0.5000000000E+01    0.1363600094E-04    0.1949559212E-05    0.3164193818E+00    0.1758829375E-04    0.4385158808E-02
    0.7000000000E+01    0.1565250066E-04    0.2234709098E-05    0.3747856100E+00    0.2371051573E-04    0.4426771168E-02
    0.9000000000E+01    0.1700301500E-04    0.2424871103E-05    0.4175776118E+00    0.2967205446E-04    0.4457658163E-02
    0.1100000000E+02    0.1796105602E-04    0.2559357779E-05    0.4502952201E+00    0.3551835225E-04    0.4481563394E-02
    0.1300000000E+02    0.1867549428E-04    0.2659493471E-05    0.4761214005E+00    0.4127655354E-04    0.4500657137E-02
    0.1500000000E+02    0.1923286239E-04    0.2737628244E-05    0.4970260165E+00    0.4696459440E-04    0.4516287683E-02
    0.1700000000E+02    0.1968606799E-04    0.2801284052E-05    0.5142934810E+00    0.5259514917E-04    0.4529338263E-02
    0.1900000000E+02    0.2006877970E-04    0.2855227904E-05    0.5287970405E+00    0.5817761564E-04    0.4540412396E-02
    0.2100000000E+02    0.2040312470E-04    0.2902578849E-05    0.5411511112E+00    0.6371921952E-04    0.4549936942E-02
    0.2300000000E+02    0.2070403257E-04    0.2945431300E-05    0.5518005606E+00    0.6922567637E-04    0.4558222618E-02
    0.2500000000E+02    0.2098179673E-04    0.2985221755E-05    0.5610754165E+00    0.7470161164E-04    0.4565501177E-02
    0.2700000000E+02    0.2124364176E-04    0.3022952662E-05    0.5692256775E+00    0.8015083951E-04    0.4571949123E-02
    0.2900000000E+02    0.2149471300E-04    0.3059333421E-05    0.5764441840E+00    0.8557655507E-04    0.4577703345E-02
    0.3100000000E+02    0.2173871862E-04    0.3094871640E-05    0.5828820707E+00    0.9098147078E-04    0.4582871712E-02
    0.3300000000E+02    0.2197835616E-04    0.3129933580E-05    0.5886594628E+00    0.9636791613E-04    0.4587540422E-02
    0.3500000000E+02    0.2221560169E-04    0.3164785041E-05    0.5938730410E+00    0.1017379118E-03    0.4591779227E-02
    0.3700000000E+02    0.2245190955E-04    0.3199619507E-05    0.5986014951E+00    0.1070932261E-03    0.4595645204E-02
    0.3900000000E+02    0.2268835253E-04    0.3234577837E-05    0.6029095225E+00    0.1124354187E-03    0.4599185534E-02
    0.4100000000E+02    0.2292572166E-04    0.3269762245E-05    0.6068508060E+00    0.1177658749E-03    0.4602439575E-02
    0.4300000000E+02    0.2316459812E-04    0.3305246339E-05    0.6104702623E+00    0.1230858327E-03    0.4605440431E-02
    0.4500000000E+02    0.2340540577E-04    0.3341082420E-05    0.6138057610E+00    0.1283964048E-03    0.4608216165E-02
    0.4700000000E+02    0.2364844984E-04    0.3377306843E-05    0.6168894544E+00    0.1336985966E-03    0.4610790723E-02
    0.4900000000E+02    0.2389394563E-04    0.3413943981E-05    0.6197488174E+00    0.1389933207E-03    0.4613184680E-02
    0.1000000000E+02    0.1751983736E-04    0.2497459663E-05    0.4349594575E+00    0.3260762786E-04    0.4470322571E-02
    0.3000000000E+02    0.2161741065E-04    0.3077182198E-05    0.5797525711E+00    0.8828145931E-04    0.4580354935E-02
    0.5000000000E+02    0.2401766105E-04    0.3432422404E-05    0.6211018875E+00    0.1416381451E-03    0.4614319585E-02
    0.7000000000E+02    0.2663515658E-04    0.3824654921E-05    0.6406840578E+00    0.1943114732E-03    0.4630802908E-02
    0.9000000000E+02    0.2950278887E-04    0.4255183392E-05    0.6521051043E+00    0.2468719910E-03    0.4640193411E-02
    0.1100000000E+03    0.3257033563E-04    0.4715625363E-05    0.6595867728E+00    0.2996162237E-03    0.4645893004E-02
    0.1300000000E+03    0.3579835836E-04    0.5199839007E-05    0.6648672286E+00    0.3527296666E-03    0.4649372838E-02
    0.1500000000E+03    0.3916069086E-04    0.5703850612E-05    0.6687931995E+00    0.4063425749E-03    0.4651382870E-02
    0.1700000000E+03    0.4264031726E-04    0.6225114410E-05    0.6718265059E+00    0.4605541882E-03    0.4652349738E-02
    0.1900000000E+03    0.4622616049E-04    0.6761991972E-05    0.6742404546E+00    0.5154449065E-03    0.4652535956E-02
    0.2100000000E+03    0.4991103180E-04    0.7313431254E-05    0.6762071184E+00    0.5710830638E-03    0.4652112820E-02
    0.2300000000E+03    0.5369035281E-04    0.7878770248E-05    0.6778402352E+00    0.6275289912E-03    0.4651197293E-02
    0.2500000000E+03    0.5756134892E-04    0.8457614579E-05    0.6792179960E+00    0.6848376019E-03    0.4649872139E-02
    0.2700000000E+03    0.6152252918E-04    0.9049759259E-05    0.6803959255E+00    0.7430601184E-03    0.4648197625E-02
    0.2900000000E+03    0.6557334294E-04    0.9655137414E-05    0.6814145397E+00    0.8022452737E-03    0.4646218652E-02
    0.3100000000E+03    0.6971394845E-04    0.1027378591E-04    0.6823040964E+00    0.8624401778E-03    0.4643969291E-02
    0.3300000000E+03    0.7394505377E-04    0.1090582186E-04    0.6830876482E+00    0.9236909643E-03    0.4641475774E-02
    0.3500000000E+03    0.7826780568E-04    0.1155142629E-04    0.6837830664E+00    0.9860432859E-03    0.4638758515E-02
    0.3700000000E+03    0.8268371110E-04    0.1221083263E-04    0.6844044196E+00    0.1049542707E-02    0.4635833530E-02
    0.3900000000E+03    0.8719458103E-04    0.1288431852E-04    0.6849629335E+00    0.1114235024E-02    0.4632713431E-02
    0.4100000000E+03    0.9180249027E-04    0.1357220003E-04    0.6854676748E+00    0.1180166529E-02    0.4629408166E-02
    0.4300000000E+03    0.9650974866E-04    0.1427482743E-04    0.6859260465E+00    0.1247384242E-02    0.4625925548E-02
    0.4500000000E+03    0.1013188806E-03    0.1499258230E-04    0.6863441522E+00    0.1315936110E-02    0.4622271667E-02
    0.4700000000E+03    0.1062326105E-03    0.1572587547E-04    0.6867270697E+00    0.1385871186E-02    0.4618451192E-02
    0.4900000000E+03    0.1112538539E-03    0.1647514570E-04    0.6870790576E+00    0.1457239801E-02    0.4614467607E-02
    0.1000000000E+03    0.3101439486E-04    0.4482109294E-05    0.6561989762E+00    0.2732078358E-03    0.4643388078E-02
    0.3000000000E+03    0.6763238887E-04    0.9962797212E-05    0.6818738682E+00    0.8322136073E-03    0.4645125974E-02
    0.5000000000E+03    0.1138057547E-03    0.1685591674E-04    0.6872445996E+00    0.1493477801E-02    0.4612415461E-02
    0.7000000000E+03    0.1713577963E-03    0.2544048968E-04    0.6895690782E+00    0.2307274966E-02    0.4562996288E-02
    0.9000000000E+03    0.2445738865E-03    0.3635772907E-04    0.6908653917E+00    0.3339006556E-02    0.4496101176E-02
    0.1100000000E+04    0.3403259214E-03    0.5063314379E-04    0.6916916375E+00    0.4687856285E-02    0.4406566979E-02
    0.1300000000E+04    0.4697968482E-03    0.6993462540E-04    0.6922639495E+00    0.6513723094E-02    0.4284862880E-02
    0.1500000000E+04    0.6518937151E-03    0.9708180303E-04    0.6926836042E+00    0.9086925177E-02    0.4114634315E-02
    0.1700000000E+04    0.9196846867E-03    0.1370064876E-03    0.6930043616E+00    0.1288175381E-01    0.3867780053E-02
    0.1900000000E+04    0.1330984333E-02    0.1983327386E-03    0.6932574030E+00    0.1873256697E-01    0.3497189467E-02
    0.2100000000E+04    0.1974379123E-02    0.2942802611E-03    0.6934620560E+00    0.2793498024E-01    0.2937378311E-02
    0.2300000000E+04    0.2909996292E-02    0.4338423973E-03    0.6936309372E+00    0.4143242620E-01    0.2167855694E-02
    0.2500000000E+04    0.3959653704E-02    0.5904906758E-03    0.6937726315E+00    0.5681046923E-01    0.1388119198E-02
    0.2700000000E+04    0.4759057575E-02    0.7099069442E-03    0.6938931828E+00    0.6888292152E-01    0.9071522994E-03
    0.2900000000E+04    0.5252492363E-02    0.7837454433E-03    0.6939969691E+00    0.7673946787E-01    0.7173806256E-03
    0.3100000000E+04    0.5588720568E-02    0.8341659853E-03    0.6940872393E+00    0.8243321059E-01    0.6589943496E-03
    0.3300000000E+04    0.5863104096E-02    0.8753832038E-03    0.6941664548E+00    0.8730954677E-01    0.6435220237E-03
    0.3500000000E+04    0.6111250966E-02    0.9127059582E-03    0.6942365145E+00    0.9187474080E-01    0.6405835316E-03
    0.3700000000E+04    0.6344678804E-02    0.9478510786E-03    0.6942989067E+00    0.9629184598E-01    0.6411495858E-03
    0.3900000000E+04    0.6567128638E-02    0.9813755150E-03    0.6943548143E+00    0.1006120356E+00    0.6426436174E-03
    0.4100000000E+04    0.6779973164E-02    0.1013482920E-02    0.6944051890E+00    0.1048521864E+00    0.6443400025E-03
    0.4300000000E+04    0.6983867744E-02    0.1044269948E-02    0.6944508056E+00    0.1090187975E+00    0.6460377553E-03
    0.4500000000E+04    0.7179243655E-02    0.1073799865E-02    0.6944923010E+00    0.1131152000E+00    0.6476842856E-03
    0.4700000000E+04    0.7366455125E-02    0.1102124487E-02    0.6945302033E+00    0.1171437210E+00    0.6492687732E-03
    0.4900000000E+04    0.7545823534E-02    0.1129290785E-02    0.6945649546E+00    0.1211063346E+00    0.6507918808E-03
    0.1000000000E+04    0.2890643387E-03    0.4299085485E-04    0.6913197343E+00    0.3965651488E-02    0.4454638754E-02
    0.3000000000E+04    0.5432370918E-02    0.8107075190E-03    0.6940436245E+00    0.7974575284E-01    0.6792538412E-03
    0.5000000000E+04    0.7632661630E-02    0.1142453449E-02    0.6945812674E+00    0.1230634989E+00    0.6515314942E-03
    0.7000000000E+04    0.9024157890E-02    0.1354614664E-02    0.6948078301E+00    0.1591493603E+00    0.6639489618E-03
    0.9000000000E+04    0.9902871637E-02    0.1490660781E-02    0.6949314520E+00    0.1903173782E+00    0.6733502668E-03
    0.1100000000E+05    0.1042549246E-01    0.1573569356E-02    0.6950086551E+00    0.2175962903E+00    0.6809397371E-03
    0.1300000000E+05    0.1069810559E-01    0.1618943674E-02    0.6950610719E+00    0.2417345698E+00    0.6873160623E-03
    0.1500000000E+05    0.1079402151E-01    0.1637602940E-02    0.6950987446E+00    0.2632909710E+00    0.6928213847E-03
    0.1700000000E+05    0.1076476833E-01    0.1637180517E-02    0.6951269613E+00    0.2826920856E+00    0.6976700452E-03
    0.1900000000E+05    0.1064707318E-01    0.1623140073E-02    0.6951487661E+00    0.3002700883E+00    0.7020054001E-03
    0.2100000000E+05    0.1046741248E-01    0.1599438748E-02    0.6951660332E+00    0.3162881780E+00    0.7059281560E-03
    0.2300000000E+05    0.1024504547E-01    0.1568969961E-02    0.6951799777E+00    0.3309581465E+00    0.7095118205E-03
    0.2500000000E+05    0.9994077281E-02    0.1533865086E-02    0.6951914208E+00    0.3444527786E+00    0.7128117218E-03
    0.2700000000E+05    0.9724886842E-02    0.1495702668E-02    0.6952009373E+00    0.3569147771E+00    0.7158705685E-03
    0.2900000000E+05    0.9445130576E-02    0.1455655820E-02    0.6952089408E+00    0.3684633021E+00    0.7187220299E-03
    0.3100000000E+05    0.9160457717E-02    0.1414597518E-02    0.6952157362E+00    0.3791988404E+00    0.7213931282E-03
    0.3300000000E+05    0.8875026370E-02    0.1373176774E-02    0.6952215533E+00    0.3892068869E+00    0.7239058867E-03
    0.3500000000E+05    0.8591879862E-02    0.1331874348E-02    0.6952265679E+00    0.3985607651E+00    0.7262784956E-03
    0.3700000000E+05    0.8313223877E-02    0.1291043896E-02    0.6952309172E+00    0.4073238160E+00    0.7285261564E-03
    0.3900000000E+05    0.8040632268E-02    0.1250942642E-02    0.6952347096E+00    0.4155511167E+00    0.7306617048E-03
    0.4100000000E+05    0.7775201063E-02    0.1211754400E-02    0.6952380316E+00    0.4232908447E+00    0.7326960796E-03
    0.4300000000E+05    0.7517664471E-02    0.1173606991E-02    0.6952409532E+00    0.4305853710E+00    0.7346386802E-03
    0.4500000000E+05    0.7268482752E-02    0.1136585491E-02    0.6952435316E+00    0.4374721454E+00    0.7364976436E-03
    0.4700000000E+05    0.7027909127E-02    0.1100742359E-02    0.6952458141E+00    0.4439844184E+00    0.7382800619E-03
    0.4900000000E+05    0.6796040914E-02    0.1066105222E-02    0.6952478397E+00    0.4501518357E+00    0.7399921543E-03
    0.1000000000E+05    0.1020112897E-01    0.1537645774E-02    0.6949740959E+00    0.2043908896E+00    0.6773256809E-03
    0.3000000000E+05    0.9303118868E-02    0.1435208025E-02    0.6952124737E+00    0.3739270364E+00    0.7200786464E-03
    0.5000000000E+05    0.6683368971E-02    0.1049242251E-02    0.6952487666E+00    0.4531146249E+00    0.7408235678E-03
    0.7000000000E+05    0.4848530247E-02    0.7717767498E-03    0.6952595449E+00    0.4994430492E+00    0.7548063239E-03
    0.9000000000E+05    0.3630555123E-02    0.5845024587E-03    0.6952628599E+00    0.5297386403E+00    0.7654196601E-03
    0.1100000000E+06    0.2803356834E-02    0.4556858394E-03    0.6952632517E+00    0.5510063065E+00    0.7740001698E-03
    0.1300000000E+06    0.2222682492E-02    0.3643147762E-03    0.6952623227E+00    0.5667076299E+00    0.7812159652E-03
    0.1500000000E+06    0.1801965823E-02    0.2975272162E-03    0.6952607540E+00    0.5787473983E+00    0.7874502084E-03
    0.1700000000E+06    0.1488499488E-02    0.2473822512E-03    0.6952588706E+00    0.5882571586E+00    0.7929435143E-03
    0.1900000000E+06    0.1249215121E-02    0.2088433617E-03    0.6952568403E+00    0.5959495149E+00    0.7978570925E-03
    0.2100000000E+06    0.1062693591E-02    0.1786188185E-03    0.6952547541E+00    0.6022945363E+00    0.8023043413E-03
    0.2300000000E+06    0.9146378822E-03    0.1544944427E-03    0.6952526632E+00    0.6076142734E+00    0.8063681180E-03
    0.2500000000E+06    0.7952409791E-03    0.1349411262E-03    0.6952505964E+00    0.6121364450E+00    0.8101108403E-03
    0.2700000000E+06    0.6976093359E-03    0.1188775321E-03    0.6952485703E+00    0.6160264354E+00    0.8135807223E-03
    0.2900000000E+06    0.6167904368E-03    0.1055225562E-03    0.6952465937E+00    0.6194071466E+00    0.8168157953E-03
    0.3100000000E+06    0.5491561871E-03    0.9430112904E-04    0.6952446710E+00    0.6223717492E+00    0.8198465972E-03
    0.3300000000E+06    0.4920018740E-03    0.8478257629E-04    0.6952428040E+00    0.6249921182E+00    0.8226980269E-03
    0.3500000000E+06    0.4432792186E-03    0.7663936299E-04    0.6952409927E+00    0.6273245617E+00    0.8253906572E-03
    0.3700000000E+06    0.4014148922E-03    0.6961890682E-04    0.6952392362E+00    0.6294138010E+00    0.8279416861E-03
    0.3900000000E+06    0.3651847439E-03    0.6352395438E-04    0.6952375328E+00    0.6312957936E+00    0.8303656392E-03
    0.4100000000E+06    0.3336250948E-03    0.5819868244E-04    0.6952358806E+00    0.6329997716E+00    0.8326748984E-03
    0.4300000000E+06    0.3059691653E-03    0.5351869796E-04    0.6952342776E+00    0.6345497383E+00    0.8348801056E-03
    0.4500000000E+06    0.2816008401E-03    0.4938373871E-04    0.6952327215E+00    0.6359655834E+00    0.8369904752E-03
    0.4700000000E+06    0.2600205870E-03    0.4571227399E-04    0.6952312102E+00    0.6372639251E+00    0.8390140397E-03
    0.4900000000E+06    0.2408200189E-03    0.4243746160E-04    0.6952297417E+00    0.6384587542E+00    0.8409578442E-03
    0.1000000000E+06    0.3178829137E-02    0.5143371728E-03    0.6952632879E+00    0.5412339589E+00    0.7699129682E-03
    0.3000000000E+06    0.5815122784E-03    0.9967488908E-04    0.6952456254E+00    0.6209365477E+00    0.8183550593E-03
    0.5000000000E+06    0.2320045928E-03    0.4093115911E-04    0.6952290228E+00    0.6390211303E+00    0.8419018071E-03
    0.7000000000E+06    0.1235807879E-03    0.2222688174E-04    0.6952164432E+00    0.6469457794E+00    0.8577796988E-03
    0.9000000000E+06    0.7652553794E-04    0.1396362185E-04    0.6952063996E+00    0.6513865844E+00    0.8698337374E-03
    0.1100000000E+07    0.5197964331E-04    0.9594238264E-05    0.6951980461E+00    0.6542252245E+00    0.8795800134E-03
    0.1300000000E+07    0.3758855241E-04    0.7004169706E-05    0.6951908923E+00    0.6561957465E+00    0.8877766969E-03
    0.1500000000E+07    0.2843916180E-04    0.5342197418E-05    0.6951846330E+00    0.6576433858E+00    0.8948587140E-03
    0.1700000000E+07    0.2226532867E-04    0.4211757823E-05    0.6951790659E+00    0.6587518103E+00    0.9010992354E-03
    0.1900000000E+07    0.1790471747E-04    0.3407713248E-05    0.6951740505E+00    0.6596277092E+00    0.9066813058E-03
    0.2100000000E+07    0.1471146205E-04    0.2815230467E-05    0.6951694854E+00    0.6603372874E+00    0.9117336955E-03
    0.2300000000E+07    0.1230347912E-04    0.2365929562E-05    0.6951652947E+00    0.6609238003E+00    0.9163505006E-03
    0.2500000000E+07    0.1044304691E-04    0.2017015332E-05    0.6951614203E+00    0.6614167035E+00    0.9206026095E-03
    0.2700000000E+07    0.8975996514E-05    0.1740585295E-05    0.6951578168E+00    0.6618367481E+00    0.9245447820E-03
    0.2900000000E+07    0.7798809290E-05    0.1517812118E-05    0.6951544479E+00    0.6621989749E+00    0.9282202144E-03
    0.3100000000E+07    0.6839891615E-05    0.1335615930E-05    0.6951512843E+00    0.6625145516E+00    0.9316635930E-03
    0.3300000000E+07    0.6048453335E-05    0.1184678655E-05    0.6951483017E+00    0.6627919442E+00    0.9349032000E-03
    0.3500000000E+07    0.5387656131E-05    0.1058215423E-05    0.6951454801E+00    0.6630376872E+00    0.9379624042E-03
    0.3700000000E+07    0.4830256406E-05    0.9511901386E-06    0.6951428026E+00    0.6632569045E+00    0.9408607414E-03
    0.3900000000E+07    0.4355756452E-05    0.8598006620E-06    0.6951402547E+00    0.6634536708E+00    0.9436147120E-03
    0.4100000000E+07    0.3948495529E-05    0.7811326265E-06    0.6951378242E+00    0.6636312671E+00    0.9462383814E-03
    0.4300000000E+07    0.3596342517E-05    0.7129215621E-06    0.6951355005E+00    0.6637923645E+00    0.9487438387E-03
    0.4500000000E+07    0.3289782893E-05    0.6533862444E-06    0.6951332744E+00    0.6639391602E+00    0.9511415516E-03
    0.4700000000E+07    0.3021269756E-05    0.6011098858E-06    0.6951311377E+00    0.6640734776E+00    0.9534406450E-03
    0.4900000000E+07    0.2784755121E-05    0.5549540855E-06    0.6951290834E+00    0.6641968429E+00    0.9556491223E-03
    0.1000000000E+07    0.6248624794E-04    0.1147088437E-04    0.6952020480E+00    0.6529466795E+00    0.8749374197E-03
    0.3000000000E+07    0.7295633038E-05    0.1422295313E-05    0.6951528421E+00    0.6623620126E+00    0.9299690126E-03
    0.5000000000E+07    0.2676930646E-05    0.5338758520E-06    0.6951280851E+00    0.6642548288E+00    0.9567216188E-03
    0.7000000000E+07    0.1392176151E-05    0.2805337407E-06    0.6951112395E+00    0.6650669156E+00    0.9747616063E-03
    0.9000000000E+07    0.8603155550E-06    0.1739958095E-06    0.6950983942E+00    0.6655183132E+00    0.9884571273E-03
    0.1100000000E+08    0.5896209814E-06    0.1191741478E-06    0.6950879801E+00    0.6658056648E+00    0.9995306426E-03
    0.1300000000E+08    0.4330497307E-06    0.8721052127E-07    0.6950792054E+00    0.6660046523E+00    0.1008843546E-02
    0.1500000000E+08    0.3342174957E-06    0.6691476314E-07    0.6950716136E+00    0.6661506083E+00    0.1016889984E-02
    0.1700000000E+08    0.2677321922E-06    0.5320237893E-07    0.6950649166E+00    0.6662622434E+00    0.1023980326E-02
    0.1900000000E+08    0.2207849108E-06    0.4348961767E-07    0.6950589210E+00    0.6663503923E+00    0.1030322544E-02
    0.2100000000E+08    0.1863430018E-06    0.3634910167E-07    0.6950534903E+00    0.6664217632E+00    0.1036062945E-02
    0.2300000000E+08    0.1602824604E-06    0.3093938800E-07    0.6950485247E+00    0.6664807316E+00    0.1041308439E-02
    0.2500000000E+08    0.1400540199E-06    0.2673797584E-07    0.6950439489E+00    0.6665302733E+00    0.1046139569E-02
    0.2700000000E+08    0.1240122555E-06    0.2340629276E-07    0.6950397045E+00    0.6665724825E+00    0.1050618553E-02
