  Pressure (Pa) 22mC5-500 (mol/kg) 23mC5-500 (mol/kg) 24mC5-500 (mol/kg) 3mC6-500 (mol/kg) C7-500 (mol/kg)
    0.1000000000E+01    0.4741708616E-05    0.6810073528E-05    0.9949866659E-01    0.7997950953E-06    0.4194771043E-02
    0.3000000000E+01    0.1048802110E-04    0.1502659208E-04    0.2321058715E+00    0.2043351753E-05    0.4245246952E-02
    0.5000000000E+01    0.1375819074E-04    0.1967704422E-04    0.3164583971E+00    0.3184841616E-05    0.4275774870E-02
    0.7000000000E+01    0.1580921424E-04    0.2257979197E-04    0.3748411516E+00    0.4276258899E-05    0.4296971824E-02
    0.9000000000E+01    0.1719144831E-04    0.2452849700E-04    0.4176474543E+00    0.5335196070E-05    0.4312667503E-02
    0.1100000000E+02    0.1817902486E-04    0.2591720576E-04    0.4503773743E+00    0.6370476437E-05    0.4324808252E-02
    0.1300000000E+02    0.1892119130E-04    0.2695972116E-04    0.4762142041E+00    0.7387362077E-05    0.4334508149E-02
    0.1500000000E+02    0.1950473153E-04    0.2777991672E-04    0.4971281031E+00    0.8389326538E-05    0.4342454993E-02
    0.1700000000E+02    0.1998273129E-04    0.2845327611E-04    0.5144037277E+00    0.9378822792E-05    0.4349097713E-02
    0.1900000000E+02    0.2038899113E-04    0.2902766501E-04    0.5289145183E+00    0.1035766886E-04    0.4354742363E-02
    0.2100000000E+02    0.2074573925E-04    0.2953442372E-04    0.5412750457E+00    0.1132726210E-04    0.4359605066E-02
    0.2300000000E+02    0.2106798478E-04    0.2999461421E-04    0.5519303000E+00    0.1228870754E-04    0.4363842965E-02
    0.2500000000E+02    0.2136608512E-04    0.3042269630E-04    0.5612104079E+00    0.1324289922E-04    0.4367573166E-02
    0.2700000000E+02    0.2164731723E-04    0.3082877210E-04    0.5693654475E+00    0.1419057418E-04    0.4370884802E-02
    0.2900000000E+02    0.2191687004E-04    0.3122000022E-04    0.5765883245E+00    0.1513234965E-04    0.4373846965E-02
    0.3100000000E+02    0.2217848848E-04    0.3160151115E-04    0.5830302271E+00    0.1606874944E-04    0.4376514077E-02
    0.3300000000E+02    0.2243490138E-04    0.3197701393E-04    0.5888113251E+00    0.1700022325E-04    0.4378929615E-02
    0.3500000000E+02    0.2268811177E-04    0.3234920648E-04    0.5940283365E+00    0.1792716096E-04    0.4381128748E-02
    0.3700000000E+02    0.2293959739E-04    0.3272005832E-04    0.5987599823E+00    0.1884990360E-04    0.4383140252E-02
    0.3900000000E+02    0.2319045151E-04    0.3309100837E-04    0.6030709867E+00    0.1976875174E-04    0.4384987906E-02
    0.4100000000E+02    0.2344148317E-04    0.3346310549E-04    0.6070150553E+00    0.2068397218E-04    0.4386691546E-02
    0.4300000000E+02    0.2369328952E-04    0.3383710940E-04    0.6106371245E+00    0.2159580313E-04    0.4388267855E-02
    0.4500000000E+02    0.2394630864E-04    0.3421356418E-04    0.6139750808E+00    0.2250445853E-04    0.4389730969E-02
    0.4700000000E+02    0.2420085845E-04    0.3459285221E-04    0.6170610912E+00    0.2341013146E-04    0.4391092957E-02
    0.4900000000E+02    0.2445716569E-04    0.3497523416E-04    0.6199226436E+00    0.2431299698E-04    0.4392364181E-02
    0.1000000000E+02    0.1772328407E-04    0.2527666830E-04    0.4350356839E+00    0.5855409261E-05    0.4319099434E-02
    0.3000000000E+02    0.2204848062E-04    0.3141171077E-04    0.5798987610E+00    0.1560119185E-04    0.4375214464E-02
    0.5000000000E+02    0.2458602973E-04    0.3516764104E-04    0.6212767641E+00    0.2476342733E-04    0.4392968604E-02
    0.7000000000E+02    0.2727208172E-04    0.3919118917E-04    0.6408753735E+00    0.3365689944E-04    0.4401937696E-02
    0.9000000000E+02    0.3014616112E-04    0.4350522054E-04    0.6523074356E+00    0.4239004956E-04    0.4407355534E-02
    0.1100000000E+03    0.3316079433E-04    0.4802998108E-04    0.6597971783E+00    0.5101774004E-04    0.4410936588E-02
    0.1300000000E+03    0.3627764683E-04    0.5270568310E-04    0.6650839058E+00    0.5957289349E-04    0.4413423024E-02
    0.1500000000E+03    0.3947077833E-04    0.5749291665E-04    0.6690149495E+00    0.6807736238E-04    0.4415193779E-02
    0.1700000000E+03    0.4272285679E-04    0.6236574610E-04    0.6720524834E+00    0.7654666540E-04    0.4416464920E-02
    0.1900000000E+03    0.4602211763E-04    0.6730675745E-04    0.6744700362E+00    0.8499237515E-04    0.4417369814E-02
    0.2100000000E+03    0.4936040882E-04    0.7230399059E-04    0.6764398287E+00    0.9342344887E-04    0.4417995862E-02
    0.2300000000E+03    0.5273197032E-04    0.7734906098E-04    0.6780757010E+00    0.1018470267E-03    0.4418403081E-02
    0.2500000000E+03    0.5613266336E-04    0.8243598892E-04    0.6794559178E+00    0.1102689386E-03    0.4418634267E-02
    0.2700000000E+03    0.5955947355E-04    0.8756045156E-04    0.6806360585E+00    0.1186940409E-03    0.4418720884E-02
    0.2900000000E+03    0.6301018279E-04    0.9271929275E-04    0.6816566804E+00    0.1271264487E-03    0.4418686673E-02
    0.3100000000E+03    0.6648314768E-04    0.9791019400E-04    0.6825480735E+00    0.1355697003E-03    0.4418549936E-02
    0.3300000000E+03    0.6997714672E-04    0.1031314488E-03    0.6833333154E+00    0.1440268777E-03    0.4418325053E-02
    0.3500000000E+03    0.7349127285E-04    0.1083818044E-03    0.6840302978E+00    0.1525006961E-03    0.4418023502E-02
    0.3700000000E+03    0.7702485658E-04    0.1136603498E-03    0.6846531057E+00    0.1609935721E-03    0.4417654577E-02
    0.3900000000E+03    0.8057741009E-04    0.1189664337E-03    0.6852129784E+00    0.1695076765E-03    0.4417225898E-02
    0.4100000000E+03    0.8414858608E-04    0.1242996050E-03    0.6857189939E+00    0.1780449753E-03    0.4416743778E-02
    0.4300000000E+03    0.8773814696E-04    0.1296595684E-03    0.6861785644E+00    0.1866072627E-03    0.4416213502E-02
    0.4500000000E+03    0.9134594165E-04    0.1350461504E-03    0.6865978015E+00    0.1951961877E-03    0.4415639533E-02
    0.4700000000E+03    0.9497188781E-04    0.1404592744E-03    0.6869817901E+00    0.2038132753E-03    0.4415025667E-02
    0.4900000000E+03    0.9861595817E-04    0.1458989406E-03    0.6873347943E+00    0.2124599444E-03    0.4414375158E-02
    0.1000000000E+03    0.3163863506E-04    0.4574555967E-04    0.6564056232E+00    0.4671467831E-04    0.4409316912E-02
    0.3000000000E+03    0.6474396807E-04    0.9531085476E-04    0.6821169468E+00    0.1313465169E-03    0.4418630143E-02
    0.5000000000E+03    0.1004447938E-03    0.1486287444E-03    0.6875008256E+00    0.2167947900E-03    0.4414037055E-02
    0.7000000000E+03    0.1379935545E-03    0.2046559931E-03    0.6898331581E+00    0.3053311691E-03    0.4405865839E-02
    0.9000000000E+03    0.1775124190E-03    0.2635977072E-03    0.6911350308E+00    0.3980015824E-03    0.4395751018E-02
    0.1100000000E+04    0.2192213046E-03    0.3257911484E-03    0.6919655662E+00    0.4955790242E-03    0.4384206140E-02
    0.1300000000E+04    0.2633701032E-03    0.3916135199E-03    0.6925413660E+00    0.5987638623E-03    0.4371423399E-02
    0.1500000000E+04    0.3102320658E-03    0.4614748071E-03    0.6929639574E+00    0.7082574972E-03    0.4357465162E-02
    0.1700000000E+04    0.3601070962E-03    0.5358237210E-03    0.6932872504E+00    0.8248002076E-03    0.4342327898E-02
    0.1900000000E+04    0.4133273756E-03    0.6151565471E-03    0.6935425224E+00    0.9491966858E-03    0.4325967669E-02
    0.2100000000E+04    0.4702640127E-03    0.7000272900E-03    0.6937491665E+00    0.1082337470E-02    0.4308311189E-02
    0.2300000000E+04    0.5313346382E-03    0.7910591229E-03    0.6939198458E+00    0.1225219880E-02    0.4289260477E-02
    0.2500000000E+04    0.5970121598E-03    0.8889575149E-03    0.6940631793E+00    0.1378970461E-02    0.4268694236E-02
    0.2700000000E+04    0.6678349994E-03    0.9945255414E-03    0.6941852370E+00    0.1544870331E-02    0.4246467297E-02
    0.2900000000E+04    0.7444192025E-03    0.1108681973E-02    0.6942904169E+00    0.1724384692E-02    0.4222408678E-02
    0.3100000000E+04    0.8274728908E-03    0.1232482846E-02    0.6943819837E+00    0.1919197788E-02    0.4196318524E-02
    0.3300000000E+04    0.9178136207E-03    0.1367147369E-02    0.6944624115E+00    0.2131254745E-02    0.4167963956E-02
    0.3500000000E+04    0.1016389333E-02    0.1514089178E-02    0.6945336096E+00    0.2362812026E-02    0.4137073782E-02
    0.3700000000E+04    0.1124303724E-02    0.1674954186E-02    0.6945970748E+00    0.2616498533E-02    0.4103331930E-02
    0.3900000000E+04    0.1242847035E-02    0.1851666517E-02    0.6946539972E+00    0.2895389820E-02    0.4066369411E-02
    0.4100000000E+04    0.1373533443E-02    0.2046484293E-02    0.6947053347E+00    0.3203098344E-02    0.4025754570E-02
    0.4300000000E+04    0.1518146423E-02    0.2262067304E-02    0.6947518671E+00    0.3543883151E-02    0.3980981357E-02
    0.4500000000E+04    0.1678793580E-02    0.2501558827E-02    0.6947942356E+00    0.3922782772E-02    0.3931455335E-02
    0.4700000000E+04    0.1857972468E-02    0.2768683836E-02    0.6948329725E+00    0.4345775208E-02    0.3876477209E-02
    0.4900000000E+04    0.2058648617E-02    0.3067865446E-02    0.6948685229E+00    0.4819968310E-02    0.3815223835E-02
    0.1000000000E+04    0.1980780306E-03    0.2942651245E-03    0.6915916404E+00    0.4461325843E-03    0.4390141059E-02
    0.3000000000E+04    0.7850890547E-03    0.1169304815E-02    0.6943377319E+00    0.1819763987E-02    0.4209631267E-02
    0.5000000000E+04    0.2168124905E-02    0.3231083510E-02    0.6948852228E+00    0.5078849306E-02    0.3781947645E-02
    0.7000000000E+04    0.6788502972E-02    0.1012141916E-01    0.6951182220E+00    0.1610194495E-01    0.2452655130E-02
    0.9000000000E+04    0.1509063474E-01    0.2251600074E-01    0.6952466478E+00    0.3662368898E-01    0.5419605602E-03
    0.1100000000E+05    0.1812739069E-01    0.2707038060E-01    0.6953276925E+00    0.4522830757E-01    0.3461993600E-03
    0.1300000000E+05    0.2017164020E-01    0.3014871707E-01    0.6953833146E+00    0.5170933576E-01    0.3439656063E-03
    0.1500000000E+05    0.2194934693E-01    0.3283279358E-01    0.6954237405E+00    0.5776018329E-01    0.3465681859E-03
    0.1700000000E+05    0.2351771347E-01    0.3520712874E-01    0.6954543718E+00    0.6347954007E-01    0.3489898475E-03
    0.1900000000E+05    0.2490672134E-01    0.3731579019E-01    0.6954783283E+00    0.6890731690E-01    0.3511593261E-03
    0.2100000000E+05    0.2614062022E-01    0.3919443131E-01    0.6954975368E+00    0.7407575965E-01    0.3531224946E-03
    0.2300000000E+05    0.2723959528E-01    0.4087274892E-01    0.6955132504E+00    0.7901219174E-01    0.3549159762E-03
    0.2500000000E+05    0.2822058733E-01    0.4237568366E-01    0.6955263192E+00    0.8373997179E-01    0.3565674522E-03
    0.2700000000E+05    0.2909791160E-01    0.4372432525E-01    0.6955373398E+00    0.8827920257E-01    0.3580982948E-03
    0.2900000000E+05    0.2988374066E-01    0.4493661935E-01    0.6955467432E+00    0.9264729058E-01    0.3595253533E-03
    0.3100000000E+05    0.3058848529E-01    0.4602792521E-01    0.6955548480E+00    0.9685939284E-01    0.3608621503E-03
    0.3300000000E+05    0.3122109755E-01    0.4701145954E-01    0.6955618952E+00    0.1009287769E+00    0.3621197072E-03
    0.3500000000E+05    0.3178931384E-01    0.4789865264E-01    0.6955680700E+00    0.1048671130E+00    0.3633071269E-03
    0.3700000000E+05    0.3229985132E-01    0.4869943634E-01    0.6955735172E+00    0.1086847135E+00    0.3644320167E-03
    0.3900000000E+05    0.3275856776E-01    0.4942247831E-01    0.6955783516E+00    0.1123907292E+00    0.3655008002E-03
    0.4100000000E+05    0.3317059251E-01    0.5007537417E-01    0.6955826654E+00    0.1159933129E+00    0.3665189515E-03
    0.4300000000E+05    0.3354043433E-01    0.5066480581E-01    0.6955865333E+00    0.1194997558E+00    0.3674911744E-03
    0.4500000000E+05    0.3387207091E-01    0.5119667271E-01    0.6955900166E+00    0.1229166008E+00    0.3684215411E-03
    0.4700000000E+05    0.3416902342E-01    0.5167620140E-01    0.6955931659E+00    0.1262497397E+00    0.3693136006E-03
    0.4900000000E+05    0.3443441891E-01    0.5210803722E-01    0.6955960237E+00    0.1295044938E+00    0.3701704654E-03
    0.1000000000E+05    0.1689908072E-01    0.2522518612E-01    0.6952913077E+00    0.4158421795E-01    0.3732697594E-03
    0.3000000000E+05    0.3024565794E-01    0.4549652410E-01    0.6955509413E+00    0.9477197014E-01    0.3602042948E-03
    0.5000000000E+05    0.3455616535E-01    0.5230738233E-01    0.6955973545E+00    0.1311040011E+00    0.3705865702E-03
    0.7000000000E+05    0.3587134464E-01    0.5459013124E-01    0.6956149083E+00    0.1599401440E+00    0.3775847043E-03
    0.9000000000E+05    0.3591236481E-01    0.5491159120E-01    0.6956233467E+00    0.1844443168E+00    0.3828965775E-03
    0.1100000000E+06    0.3534239319E-01    0.5427049059E-01    0.6956278704E+00    0.2060642876E+00    0.3871910896E-03
    0.1300000000E+06    0.3446261080E-01    0.5312550035E-01    0.6956304099E+00    0.2255778743E+00    0.3908026018E-03
    0.1500000000E+06    0.3342533366E-01    0.5171159785E-01    0.6956318338E+00    0.2434511459E+00    0.3939228716E-03
    0.1700000000E+06    0.3231349427E-01    0.5015867690E-01    0.6956325846E+00    0.2599866821E+00    0.3966723182E-03
    0.1900000000E+06    0.3117460941E-01    0.4854252432E-01    0.6956329085E+00    0.2753935239E+00    0.3991316217E-03
    0.2100000000E+06    0.3003683119E-01    0.4690905406E-01    0.6956329515E+00    0.2898235134E+00    0.4013575347E-03
    0.2300000000E+06    0.2891714248E-01    0.4528676142E-01    0.6956328050E+00    0.3033916157E+00    0.4033915249E-03
    0.2500000000E+06    0.2782580710E-01    0.4369353353E-01    0.6956325281E+00    0.3161879660E+00    0.4052648309E-03
    0.2700000000E+06    0.2676891070E-01    0.4214056763E-01    0.6956321605E+00    0.3282853545E+00    0.4070015826E-03
    0.2900000000E+06    0.2574987313E-01    0.4063472276E-01    0.6956317296E+00    0.3397440620E+00    0.4086208141E-03
    0.3100000000E+06    0.2477038045E-01    0.3917998243E-01    0.6956312546E+00    0.3506150875E+00    0.4101378089E-03
    0.3300000000E+06    0.2383097668E-01    0.3777839252E-01    0.6956307491E+00    0.3609423640E+00    0.4115650284E-03
    0.3500000000E+06    0.2293144886E-01    0.3643067853E-01    0.6956302232E+00    0.3707643175E+00    0.4129127691E-03
    0.3700000000E+06    0.2207108304E-01    0.3513666102E-01    0.6956296841E+00    0.3801149884E+00    0.4141896383E-03
    0.3900000000E+06    0.2124883750E-01    0.3389554062E-01    0.6956291372E+00    0.3890248541E+00    0.4154029058E-03
    0.4100000000E+06    0.2046346158E-01    0.3270609668E-01    0.6956285865E+00    0.3975214442E+00    0.4165587688E-03
    0.4300000000E+06    0.1971357821E-01    0.3156682770E-01    0.6956280352E+00    0.4056298081E+00    0.4176625533E-03
    0.4500000000E+06    0.1899774156E-01    0.3047605150E-01    0.6956274854E+00    0.4133728771E+00    0.4187188710E-03
    0.4700000000E+06    0.1831447761E-01    0.2943197741E-01    0.6956269389E+00    0.4207717490E+00    0.4197317422E-03
    0.4900000000E+06    0.1766231257E-01    0.2843275842E-01    0.6956263969E+00    0.4278459154E+00    0.4207046929E-03
    0.1000000000E+06    0.3567996732E-01    0.5467525831E-01    0.6956259395E+00    0.1955562757E+00    0.3851454554E-03
    0.3000000000E+06    0.2525512820E-01    0.3990079969E-01    0.6956314967E+00    0.3452501444E+00    0.4093912548E-03
    0.5000000000E+06    0.1734743670E-01    0.2794938653E-01    0.6956261279E+00    0.4312669320E+00    0.4211771844E-03
    0.7000000000E+06    0.1235299968E-01    0.2019927096E-01    0.6956211120E+00    0.4864152340E+00    0.4291247929E-03
    0.9000000000E+06    0.9128682794E-02    0.1510638073E-01    0.6956168060E+00    0.5235842304E+00    0.4351584949E-03
    0.1100000000E+07    0.6969391066E-02    0.1164932878E-01    0.6956130895E+00    0.5496927043E+00    0.4400371036E-03
    0.1300000000E+07    0.5469971704E-02    0.9222314989E-02    0.6956098343E+00    0.5687056702E+00    0.4441400930E-03
    0.1500000000E+07    0.4394210141E-02    0.7464927296E-02    0.6956069427E+00    0.5829904116E+00    0.4476851518E-03
    0.1700000000E+07    0.3600024865E-02    0.6157155112E-02    0.6956043428E+00    0.5940143853E+00    0.4508090079E-03
    0.1900000000E+07    0.2998990540E-02    0.5160474098E-02    0.6956019813E+00    0.6027198975E+00    0.4536032804E-03
    0.2100000000E+07    0.2534238808E-02    0.4384939462E-02    0.6955998181E+00    0.6097319626E+00    0.4561324226E-03
    0.2300000000E+07    0.2168074402E-02    0.3770443735E-02    0.6955978221E+00    0.6154774674E+00    0.4584435327E-03
    0.2500000000E+07    0.1874819060E-02    0.3275749925E-02    0.6955959691E+00    0.6202557395E+00    0.4605720930E-03
    0.2700000000E+07    0.1636546350E-02    0.2871888272E-02    0.6955942396E+00    0.6242816531E+00    0.4625455128E-03
    0.2900000000E+07    0.1440463449E-02    0.2538068032E-02    0.6955926180E+00    0.6277127304E+00    0.4643854137E-03
    0.3100000000E+07    0.1277259253E-02    0.2259079081E-02    0.6955910913E+00    0.6306666426E+00    0.4661091577E-03
    0.3300000000E+07    0.1140035566E-02    0.2023599788E-02    0.6955896488E+00    0.6332327885E+00    0.4677309013E-03
    0.3500000000E+07    0.1023599428E-02    0.1823070154E-02    0.6955882815E+00    0.6354801290E+00    0.4692623417E-03
    0.3700000000E+07    0.9239845912E-03    0.1650925852E-02    0.6955869819E+00    0.6374625964E+00    0.4707132575E-03
    0.3900000000E+07    0.8381216565E-03    0.1502067707E-02    0.6955857433E+00    0.6392228991E+00    0.4720919081E-03
    0.4100000000E+07    0.7636066526E-03    0.1372487876E-02    0.6955845602E+00    0.6407952436E+00    0.4734053338E-03
    0.4300000000E+07    0.6985360390E-03    0.1259002231E-02    0.6955834278E+00    0.6422073129E+00    0.4746595860E-03
    0.4500000000E+07    0.6413873103E-03    0.1159055989E-02    0.6955823417E+00    0.6434817244E+00    0.4758599042E-03
    0.4700000000E+07    0.5909314121E-03    0.1070580610E-02    0.6955812982E+00    0.6446371188E+00    0.4770108561E-03
    0.4900000000E+07    0.5461676786E-03    0.9918871515E-03    0.6955802941E+00    0.6456889839E+00    0.4781164478E-03
    0.1000000000E+07    0.7946400194E-02    0.1321864732E-01    0.6956148827E+00    0.5377243093E+00    0.4377131933E-03
    0.3000000000E+07    0.1355229538E-02    0.2392503025E-02    0.6955918435E+00    0.6292431883E+00    0.4652608554E-03
    0.5000000000E+07    0.5256578259E-03    0.9557644389E-03    0.6955798058E+00    0.6461802285E+00    0.4786533542E-03
    0.7000000000E+07    0.2758988017E-03    0.5116301473E-03    0.6955715406E+00    0.6528288171E+00    0.4876845319E-03
    0.9000000000E+07    0.1692829170E-03    0.3186015285E-03    0.6955652121E+00    0.6563172161E+00    0.4945409250E-03
    0.1100000000E+08    0.1142501099E-03    0.2175888628E-03    0.6955600694E+00    0.6584513474E+00    0.5000847526E-03
    0.1300000000E+08    0.8222021005E-04    0.1581413499E-03    0.6955557300E+00    0.6598870251E+00    0.5047472124E-03
    0.1500000000E+08    0.6196671316E-04    0.1201979211E-03    0.6955519717E+00    0.6609171316E+00    0.5087756689E-03
    0.1700000000E+08    0.4835728059E-04    0.9449509378E-04    0.6955486540E+00    0.6616914671E+00    0.5123254906E-03
    0.1900000000E+08    0.3877716092E-04    0.7627310195E-04    0.6955456822E+00    0.6622943861E+00    0.5155007878E-03
    0.2100000000E+08    0.3178112657E-04    0.6288155168E-04    0.6955429894E+00    0.6627769326E+00    0.5183748020E-03
    0.2300000000E+08    0.2651787075E-04    0.5274894386E-04    0.6955405263E+00    0.6631717680E+00    0.5210010533E-03
    0.2500000000E+08    0.2245961353E-04    0.4489523429E-04    0.6955382561E+00    0.6635007462E+00    0.5234198620E-03
    0.2700000000E+08    0.1926509961E-04    0.3868333126E-04    0.6955361498E+00    0.6637790335E+00    0.5256623749E-03
