  Pressure (Pa) 22mC5-500 (mol/kg) 23mC5-500 (mol/kg) 24mC5-500 (mol/kg) 3mC6-500 (mol/kg) C7-500 (mol/kg)
    0.1000000000E+01    0.4719027548E-05    0.6776378515E-06    0.9949731500E-01    0.6017004319E-05    0.4213506347E-02
    0.3000000000E+01    0.1043872863E-04    0.1495337582E-05    0.2320981843E+00    0.1552314660E-04    0.4284596677E-02
    0.5000000000E+01    0.1368760831E-04    0.1957221922E-05    0.3164435713E+00    0.2430424048E-04    0.4329001132E-02
    0.7000000000E+01    0.1572040522E-04    0.2244791257E-05    0.3748196891E+00    0.3273696572E-04    0.4359902751E-02
    0.9000000000E+01    0.1708671066E-04    0.2437297950E-05    0.4176200787E+00    0.4094904506E-04    0.4382729941E-02
    0.1100000000E+02    0.1806026379E-04    0.2574088274E-05    0.4503447752E+00    0.4900455090E-04    0.4400312353E-02
    0.1300000000E+02    0.1879007287E-04    0.2676506991E-05    0.4761769822E+00    0.5694168252E-04    0.4414284879E-02
    0.1500000000E+02    0.1936276141E-04    0.2756917635E-05    0.4970867685E+00    0.6478564230E-04    0.4425661423E-02
    0.1700000000E+02    0.1983130060E-04    0.2822851564E-05    0.5143587111E+00    0.7255421754E-04    0.4435105434E-02
    0.1900000000E+02    0.2022940540E-04    0.2879082644E-05    0.5288661846E+00    0.8026058413E-04    0.4443069894E-02
    0.2100000000E+02    0.2057923794E-04    0.2928735093E-05    0.5412237054E+00    0.8791486470E-04    0.4449874987E-02
    0.2300000000E+02    0.2089575491E-04    0.2973907334E-05    0.5518762196E+00    0.9552506145E-04    0.4455753654E-02
    0.2500000000E+02    0.2118927127E-04    0.3016039048E-05    0.5611538172E+00    0.1030976474E-03    0.4460879555E-02
    0.2700000000E+02    0.2146702907E-04    0.3056135265E-05    0.5693065464E+00    0.1106379589E-03    0.4465384892E-02
    0.2900000000E+02    0.2173418804E-04    0.3094907515E-05    0.5765272879E+00    0.1181504654E-03    0.4469372153E-02
    0.3100000000E+02    0.2199446846E-04    0.3132865192E-05    0.5829672091E+00    0.1256389612E-03    0.4472922065E-02
    0.3300000000E+02    0.2225057814E-04    0.3170376080E-05    0.5887464621E+00    0.1331067055E-03    0.4476099112E-02
    0.3500000000E+02    0.2250450202E-04    0.3207707290E-05    0.5939617497E+00    0.1405565263E-03    0.4478955455E-02
    0.3700000000E+02    0.2275770219E-04    0.3245053448E-05    0.5986917804E+00    0.1479908995E-03    0.4481533760E-02
    0.3900000000E+02    0.2301125826E-04    0.3282556425E-05    0.6030012672E+00    0.1554120101E-03    0.4483869281E-02
    0.4100000000E+02    0.2326596733E-04    0.3320319335E-05    0.6069439064E+00    0.1628218000E-03    0.4485991415E-02
    0.4300000000E+02    0.2352241605E-04    0.3358416593E-05    0.6105646259E+00    0.1702220063E-03    0.4487924881E-02
    0.4500000000E+02    0.2378103327E-04    0.3396901237E-05    0.6139013049E+00    0.1776141921E-03    0.4489690620E-02
    0.4700000000E+02    0.2404212871E-04    0.3435810292E-05    0.6169861044E+00    0.1849997708E-03    0.4491306500E-02
    0.4900000000E+02    0.2430592188E-04    0.3475168751E-05    0.6198465063E+00    0.1923800273E-03    0.4492787863E-02
    0.1000000000E+02    0.1761131392E-04    0.2511041976E-05    0.4350056155E+00    0.4499358099E-04    0.4392055436E-02
    0.3000000000E+02    0.2186499903E-04    0.3113962425E-05    0.5798367156E+00    0.1218974997E-03    0.4471197419E-02
    0.5000000000E+02    0.2443887946E-04    0.3495021773E-05    0.6212000727E+00    0.1960685303E-03    0.4493482314E-02
    0.7000000000E+02    0.2725495891E-04    0.3916794819E-05    0.6407898301E+00    0.2697981859E-03    0.4502742417E-02
    0.9000000000E+02    0.3034913549E-04    0.4381031204E-05    0.6522157727E+00    0.3438982372E-03    0.4506711583E-02
    0.1100000000E+03    0.3367337414E-04    0.4879673651E-05    0.6597009388E+00    0.4188031722E-03    0.4507909295E-02
    0.1300000000E+03    0.3719021816E-04    0.5406875320E-05    0.6649840622E+00    0.4947965886E-03    0.4507418352E-02
    0.1500000000E+03    0.4087546199E-04    0.5958954503E-05    0.6689121625E+00    0.5720884270E-03    0.4505786478E-02
    0.1700000000E+03    0.4471410376E-04    0.6533665478E-05    0.6719472262E+00    0.6508484598E-03    0.4503322183E-02
    0.1900000000E+03    0.4869717129E-04    0.7129683461E-05    0.6743626623E+00    0.7312231467E-03    0.4500212843E-02
    0.2100000000E+03    0.5281969476E-04    0.7746287065E-05    0.6763306105E+00    0.8133450578E-03    0.4496578639E-02
    0.2300000000E+03    0.5707944545E-04    0.8383164455E-05    0.6779648540E+00    0.8973385872E-03    0.4492499763E-02
    0.2500000000E+03    0.6147614339E-04    0.9040293042E-05    0.6793436163E+00    0.9833236537E-03    0.4488031240E-02
    0.2700000000E+03    0.6601095026E-04    0.9717863185E-05    0.6805224456E+00    0.1071418244E-02    0.4483211494E-02
    0.2900000000E+03    0.7068613908E-04    0.1041622886E-04    0.6815418757E+00    0.1161740257E-02    0.4478067564E-02
    0.3100000000E+03    0.7550487607E-04    0.1113587525E-04    0.6824321781E+00    0.1254408902E-02    0.4472618392E-02
    0.3300000000E+03    0.8047107553E-04    0.1187739735E-04    0.6832164160E+00    0.1349545832E-02    0.4466876993E-02
    0.3500000000E+03    0.8558930366E-04    0.1264148586E-04    0.6839124691E+00    0.1447276076E-02    0.4460851897E-02
    0.3700000000E+03    0.9086471590E-04    0.1342891800E-04    0.6845344128E+00    0.1547728870E-02    0.4454548159E-02
    0.3900000000E+03    0.9630301802E-04    0.1424055197E-04    0.6850934786E+00    0.1651038403E-02    0.4447968057E-02
    0.4100000000E+03    0.1019104444E-03    0.1507732383E-04    0.6855987377E+00    0.1757344524E-02    0.4441111597E-02
    0.4300000000E+03    0.1076937493E-03    0.1594024631E-04    0.6860575969E+00    0.1866793427E-02    0.4433976871E-02
    0.4500000000E+03    0.1136602082E-03    0.1683040917E-04    0.6864761632E+00    0.1979538331E-02    0.4426560320E-02
    0.4700000000E+03    0.1198176267E-03    0.1774898065E-04    0.6868595171E+00    0.2095740170E-02    0.4418856924E-02
    0.4900000000E+03    0.1261743574E-03    0.1869720995E-04    0.6872119195E+00    0.2215568299E-02    0.4410860334E-02
    0.1000000000E+03    0.3198519331E-04    0.4626477074E-05    0.6563115233E+00    0.3812300636E-03    0.4507570966E-02
    0.3000000000E+03    0.7307733562E-04    0.1077335715E-04    0.6820015851E+00    0.1207773716E-02    0.4475380200E-02
    0.5000000000E+03    0.1294302295E-03    0.1918285961E-04    0.6873776613E+00    0.2276897629E-02    0.4406749768E-02
    0.7000000000E+03    0.2075923522E-03    0.3083833052E-04    0.6897053645E+00    0.3744454623E-02    0.4306605205E-02
    0.9000000000E+03    0.3213639229E-03    0.4779940508E-04    0.6910039889E+00    0.5877132416E-02    0.4160170726E-02
    0.1100000000E+04    0.4978825471E-03    0.7411309253E-04    0.6918320381E+00    0.9191093097E-02    0.3935915726E-02
    0.1300000000E+04    0.7933570762E-03    0.1181616487E-03    0.6924058309E+00    0.1475770068E-01    0.3569986966E-02
    0.1500000000E+04    0.1320702436E-02    0.1967884090E-03    0.6928267432E+00    0.2474988236E-01    0.2943102918E-02
    0.1700000000E+04    0.2208093950E-02    0.3291373339E-03    0.6931485945E+00    0.4173479263E-01    0.1959947574E-02
    0.1900000000E+04    0.3205272456E-02    0.4779579466E-03    0.6934026046E+00    0.6122793326E-01    0.1004939833E-02
    0.2100000000E+04    0.3831678657E-02    0.5715902842E-03    0.6936081273E+00    0.7408357341E-01    0.5914646045E-03
    0.2300000000E+04    0.4192404269E-02    0.6256507041E-03    0.6937777980E+00    0.8208049133E-01    0.4927271164E-03
    0.2500000000E+04    0.4467708414E-02    0.6670007008E-03    0.6939202154E+00    0.8857703653E-01    0.4747602791E-03
    0.2700000000E+04    0.4713883258E-02    0.7040315192E-03    0.6940414339E+00    0.9463449708E-01    0.4729424884E-03
    0.2900000000E+04    0.4943895493E-02    0.7386751000E-03    0.6941458399E+00    0.1004944244E+00    0.4741176720E-03
    0.3100000000E+04    0.5160926695E-02    0.7714040323E-03    0.6942366887E+00    0.1062110191E+00    0.4757705215E-03
    0.3300000000E+04    0.5366109579E-02    0.8023853313E-03    0.6943164469E+00    0.1117991206E+00    0.4774310980E-03
    0.3500000000E+04    0.5560133135E-02    0.8317199138E-03    0.6943870177E+00    0.1172652881E+00    0.4790184409E-03
    0.3700000000E+04    0.5743570586E-02    0.8594915416E-03    0.6944498930E+00    0.1226142074E+00    0.4805248764E-03
    0.3900000000E+04    0.5916947616E-02    0.8857769988E-03    0.6945062586E+00    0.1278500186E+00    0.4819557244E-03
    0.4100000000E+04    0.6080757786E-02    0.9106483870E-03    0.6945570689E+00    0.1329765995E+00    0.4833178517E-03
    0.4300000000E+04    0.6235467098E-02    0.9341737994E-03    0.6946031008E+00    0.1379976331E+00    0.4846176156E-03
    0.4500000000E+04    0.6381516232E-02    0.9564176482E-03    0.6946449930E+00    0.1429166297E+00    0.4858606031E-03
    0.4700000000E+04    0.6519322218E-02    0.9774409076E-03    0.6946832753E+00    0.1477369395E+00    0.4870516927E-03
    0.4900000000E+04    0.6649279904E-02    0.9973013268E-03    0.6947183910E+00    0.1524617616E+00    0.4881951585E-03
    0.1000000000E+04    0.3992268889E-03    0.5940647753E-04    0.6914592822E+00    0.7337909442E-02    0.4060726838E-02
    0.3000000000E+04    0.5053944739E-02    0.7552657472E-03    0.6941927894E+00    0.1033693649E+00    0.4749305418E-03
    0.5000000000E+04    0.6711433293E-02    0.1006812685E-02    0.6947348806E+00    0.1547893255E+00    0.4887502262E-03
    0.7000000000E+04    0.7623475856E-02    0.1147851932E-02    0.6949644045E+00    0.1970029910E+00    0.4980673745E-03
    0.9000000000E+04    0.8073233290E-02    0.1219882965E-02    0.6950902610E+00    0.2324318116E+00    0.5051213511E-03
    0.1100000000E+05    0.8231796005E-02    0.1248081328E-02    0.6951692647E+00    0.2626892717E+00    0.5108159063E-03
    0.1300000000E+05    0.8205829699E-02    0.1248216996E-02    0.6952231923E+00    0.2888961448E+00    0.5156002328E-03
    0.1500000000E+05    0.8063455452E-02    0.1230416444E-02    0.6952621683E+00    0.3118580679E+00    0.5197310391E-03
    0.1700000000E+05    0.7848981006E-02    0.1201307606E-02    0.6952915320E+00    0.3321712039E+00    0.5233691449E-03
    0.1900000000E+05    0.7591607863E-02    0.1165290341E-02    0.6953143620E+00    0.3502877817E+00    0.5266221108E-03
    0.2100000000E+05    0.7310743797E-02    0.1125313554E-02    0.6953325562E+00    0.3665582380E+00    0.5295654975E-03
    0.2300000000E+05    0.7019332695E-02    0.1083363714E-02    0.6953473474E+00    0.3812591804E+00    0.5322544582E-03
    0.2500000000E+05    0.6725990130E-02    0.1040779218E-02    0.6953595700E+00    0.3946124659E+00    0.5347305060E-03
    0.2700000000E+05    0.6436400095E-02    0.9984567565E-03    0.6953698089E+00    0.4067985442E+00    0.5370256857E-03
    0.2900000000E+05    0.6154243937E-02    0.9569891369E-03    0.6953784857E+00    0.4179659988E+00    0.5391652597E-03
    0.3100000000E+05    0.5881827025E-02    0.9167586814E-03    0.6953859116E+00    0.4282385056E+00    0.5411695032E-03
    0.3300000000E+05    0.5620506642E-02    0.8780013227E-03    0.6953923217E+00    0.4377200022E+00    0.5430549404E-03
    0.3500000000E+05    0.5370987091E-02    0.8408510535E-03    0.6953978963E+00    0.4464985876E+00    0.5448352198E-03
    0.3700000000E+05    0.5133524895E-02    0.8053710225E-03    0.6954027760E+00    0.4546495109E+00    0.5465217473E-03
    0.3900000000E+05    0.4908072389E-02    0.7715754432E-03    0.6954070722E+00    0.4622374898E+00    0.5481241539E-03
    0.4100000000E+05    0.4694378656E-02    0.7394451119E-03    0.6954108741E+00    0.4693185329E+00    0.5496506469E-03
    0.4300000000E+05    0.4492060669E-02    0.7089384399E-03    0.6954142540E+00    0.4759413873E+00    0.5511082791E-03
    0.4500000000E+05    0.4300653457E-02    0.6799993100E-03    0.6954172709E+00    0.4821487004E+00    0.5525031558E-03
    0.4700000000E+05    0.4119645408E-02    0.6525626715E-03    0.6954199738E+00    0.4879779599E+00    0.5538405982E-03
    0.4900000000E+05    0.3948502990E-02    0.6265585127E-03    0.6954224031E+00    0.4934622629E+00    0.5551252729E-03
    0.1000000000E+05    0.8181112775E-02    0.1238309701E-02    0.6951338484E+00    0.2481279058E+00    0.5081041927E-03
    0.3000000000E+05    0.6016715007E-02    0.9367016855E-03    0.6953823388E+00    0.4232072128E+00    0.5401831888E-03
    0.5000000000E+05    0.3866463013E-02    0.6140710871E-03    0.6954235262E+00    0.4960843559E+00    0.5557491275E-03
    0.7000000000E+05    0.2621119701E-02    0.4226637822E-03    0.6954376011E+00    0.5360376249E+00    0.5662411975E-03
    0.9000000000E+05    0.1876160207E-02    0.3062562898E-03    0.6954434173E+00    0.5611290250E+00    0.5742050599E-03
    0.1100000000E+06    0.1403197660E-02    0.2313979299E-03    0.6954458309E+00    0.5782842258E+00    0.5806436027E-03
    0.1300000000E+06    0.1086543719E-02    0.1807499702E-03    0.6954466018E+00    0.5907237977E+00    0.5860581345E-03
    0.1500000000E+06    0.8650197457E-03    0.1450003981E-03    0.6954465014E+00    0.6001423352E+00    0.5907361571E-03
    0.1700000000E+06    0.7043553757E-03    0.1188706097E-03    0.6954459117E+00    0.6075135261E+00    0.5948582139E-03
    0.1900000000E+06    0.5843007404E-03    0.9921109336E-04    0.6954450385E+00    0.6134352831E+00    0.5985452680E-03
    0.2100000000E+06    0.4923222235E-03    0.8405629536E-04    0.6954439995E+00    0.6182944238E+00    0.6018824075E-03
    0.2300000000E+06    0.4203472331E-03    0.7213110380E-04    0.6954428654E+00    0.6223519542E+00    0.6049318044E-03
    0.2500000000E+06    0.3629957002E-03    0.6258025867E-04    0.6954416797E+00    0.6257902050E+00    0.6077402938E-03
    0.2700000000E+06    0.3165746545E-03    0.5481331044E-04    0.6954404704E+00    0.6287403074E+00    0.6103440535E-03
    0.2900000000E+06    0.2784832932E-03    0.4841225078E-04    0.6954392553E+00    0.6312989341E+00    0.6127716204E-03
    0.3100000000E+06    0.2468483377E-03    0.4307455374E-04    0.6954380460E+00    0.6335388899E+00    0.6150459088E-03
    0.3300000000E+06    0.2202934925E-03    0.3857696677E-04    0.6954368502E+00    0.6355160311E+00    0.6171856018E-03
    0.3500000000E+06    0.1977896228E-03    0.3475186218E-04    0.6954356726E+00    0.6372739147E+00    0.6192061364E-03
    0.3700000000E+06    0.1785549754E-03    0.3147141526E-04    0.6954345164E+00    0.6388469999E+00    0.6211204173E-03
    0.3900000000E+06    0.1619872524E-03    0.2863678779E-04    0.6954333835E+00    0.6402629003E+00    0.6229393439E-03
    0.4100000000E+06    0.1476164489E-03    0.2617058811E-04    0.6954322747E+00    0.6415440006E+00    0.6246722072E-03
    0.4300000000E+06    0.1350715175E-03    0.2401152212E-04    0.6954311906E+00    0.6427086360E+00    0.6263269925E-03
    0.4500000000E+06    0.1240564203E-03    0.2211053730E-04    0.6954301311E+00    0.6437719666E+00    0.6279106140E-03
    0.4700000000E+06    0.1143326704E-03    0.2042800226E-04    0.6954290959E+00    0.6447466352E+00    0.6294290988E-03
    0.4900000000E+06    0.1057064292E-03    0.1893161599E-04    0.6954280847E+00    0.6456432683E+00    0.6308877335E-03
    0.1000000000E+06    0.1614670461E-02    0.2649743284E-03    0.6954449042E+00    0.5704466733E+00    0.5775766916E-03
    0.3000000000E+06    0.2619543735E-03    0.4562596892E-04    0.6954386494E+00    0.6324549208E+00    0.6139266707E-03
    0.5000000000E+06    0.1017540814E-03    0.1824474463E-04    0.6954275879E+00    0.6460651879E+00    0.6315960858E-03
    0.7000000000E+06    0.5359897870E-04    0.9795850747E-05    0.6954187433E+00    0.6520048985E+00    0.6435109614E-03
    0.9000000000E+06    0.3299988327E-04    0.6116839081E-05    0.6954115344E+00    0.6553302332E+00    0.6525564722E-03
    0.1100000000E+07    0.2234313490E-04    0.4187614049E-05    0.6954054723E+00    0.6574553754E+00    0.6598702578E-03
    0.1300000000E+07    0.1612827033E-04    0.3050167278E-05    0.6954002452E+00    0.6589306029E+00    0.6660212353E-03
    0.1500000000E+07    0.1219147371E-04    0.2323036155E-05    0.6953956501E+00    0.6600144556E+00    0.6713357676E-03
    0.1700000000E+07    0.9541964927E-05    0.1829810981E-05    0.6953915494E+00    0.6608444174E+00    0.6760188389E-03
    0.1900000000E+07    0.7674230807E-05    0.1479722018E-05    0.6953878454E+00    0.6615003356E+00    0.6802078048E-03
    0.2100000000E+07    0.6308492028E-05    0.1222162191E-05    0.6953844671E+00    0.6620317555E+00    0.6839992940E-03
    0.2300000000E+07    0.5279748938E-05    0.1027091477E-05    0.6953813607E+00    0.6624710487E+00    0.6874639159E-03
    0.2500000000E+07    0.4485597877E-05    0.8757571571E-06    0.6953784848E+00    0.6628402595E+00    0.6906548650E-03
    0.2700000000E+07    0.3859761679E-05    0.7559578722E-06    0.6953758070E+00    0.6631549192E+00    0.6936132334E-03
    0.2900000000E+07    0.3357812268E-05    0.6594749630E-06    0.6953733010E+00    0.6634262859E+00    0.6963714356E-03
    0.3100000000E+07    0.2949066282E-05    0.5806070528E-06    0.6953709457E+00    0.6636627192E+00    0.6989555005E-03
    0.3300000000E+07    0.2611782116E-05    0.5152975660E-06    0.6953687236E+00    0.6638705567E+00    0.7013866512E-03
    0.3500000000E+07    0.2330206480E-05    0.4605959241E-06    0.6953666200E+00    0.6640546904E+00    0.7036824239E-03
    0.3700000000E+07    0.2092699246E-05    0.4143140954E-06    0.6953646226E+00    0.6642189568E+00    0.7058574783E-03
    0.3900000000E+07    0.1890509114E-05    0.3748015136E-06    0.6953627210E+00    0.6643664069E+00    0.7079241966E-03
    0.4100000000E+07    0.1716954226E-05    0.3407939160E-06    0.6953609061E+00    0.6644994972E+00    0.7098931337E-03
    0.4300000000E+07    0.1566861597E-05    0.3113095895E-06    0.6953591702E+00    0.6646202281E+00    0.7117733613E-03
    0.4500000000E+07    0.1436176006E-05    0.2855767552E-06    0.6953575065E+00    0.6647302450E+00    0.7135727346E-03
    0.4700000000E+07    0.1321682226E-05    0.2629818456E-06    0.6953559092E+00    0.6648309135E+00    0.7152981010E-03
    0.4900000000E+07    0.1220804570E-05    0.2430320732E-06    0.6953543728E+00    0.6649233768E+00    0.7169554665E-03
    0.1000000000E+07    0.2689640905E-04    0.5014705908E-05    0.6954083827E+00    0.6564982116E+00    0.6563863640E-03
    0.3000000000E+07    0.3143316000E-05    0.6181237004E-06    0.6953721057E+00    0.6635484336E+00    0.6976838111E-03
    0.5000000000E+07    0.1174804805E-05    0.2339212253E-06    0.6953536261E+00    0.6649668387E+00    0.7177603289E-03
    0.7000000000E+07    0.6257134548E-06    0.1243590442E-06    0.6953410101E+00    0.6655755939E+00    0.7312986439E-03
    0.9000000000E+07    0.3971367374E-06    0.7818250635E-07    0.6953313736E+00    0.6659140410E+00    0.7415767061E-03
    0.1100000000E+08    0.2799810650E-06    0.5434442556E-07    0.6953235525E+00    0.6661295245E+00    0.7498870987E-03
    0.1300000000E+08    0.2116710411E-06    0.4039194285E-07    0.6953169576E+00    0.6662787644E+00    0.7568762406E-03
    0.1500000000E+08    0.1681707274E-06    0.3149428070E-07    0.6953112483E+00    0.6663882442E+00    0.7629149592E-03
    0.1700000000E+08    0.1386311817E-06    0.2545459343E-07    0.6953062094E+00    0.6664719902E+00    0.7682361686E-03
    0.1900000000E+08    0.1175650660E-06    0.2115524819E-07    0.6953016965E+00    0.6665381249E+00    0.7729959403E-03
    0.2100000000E+08    0.1019505828E-06    0.1797797839E-07    0.6952976073E+00    0.6665916778E+00    0.7773040702E-03
    0.2300000000E+08    0.9000996473E-07    0.1555775983E-07    0.6952938671E+00    0.6666359296E+00    0.7812407895E-03
    0.2500000000E+08    0.8064046292E-07    0.1366755230E-07    0.6952904196E+00    0.6666731116E+00    0.7848665417E-03
    0.2700000000E+08    0.7312769790E-07    0.1215997663E-07    0.6952872209E+00    0.6667047940E+00    0.7882280184E-03
