  Pressure (Pa) 22mC5-500 (mol/kg) 23mC5-500 (mol/kg) 24mC5-500 (mol/kg) 3mC6-500 (mol/kg) C7-500 (mol/kg)
    0.1000000000E+01    0.4693285834E-05    0.6738142193E-06    0.9949257948E-01    0.2793285561E-05    0.4250031443E-02
    0.3000000000E+01    0.1037903098E-04    0.1486473235E-05    0.2320722804E+00    0.7268151179E-05    0.4366558064E-02
    0.5000000000E+01    0.1359768543E-04    0.1943871436E-05    0.3163951959E+00    0.1141127565E-04    0.4441084916E-02
    0.7000000000E+01    0.1560184411E-04    0.2227189723E-05    0.3747515369E+00    0.1539137087E-04    0.4493398642E-02
    0.9000000000E+01    0.1694034980E-04    0.2415569091E-05    0.4175351533E+00    0.1926609654E-04    0.4532326704E-02
    0.1100000000E+02    0.1788654805E-04    0.2548297375E-05    0.4502456757E+00    0.2306451707E-04    0.4562532403E-02
    0.1300000000E+02    0.1858920696E-04    0.2646683736E-05    0.4760658315E+00    0.2680402297E-04    0.4586723429E-02
    0.1500000000E+02    0.1913479113E-04    0.2723068175E-05    0.4969652788E+00    0.3049612104E-04    0.4606583306E-02
    0.1700000000E+02    0.1957616065E-04    0.2784965615E-05    0.5142282670E+00    0.3414895191E-04    0.4623215433E-02
    0.1900000000E+02    0.1994694957E-04    0.2837137960E-05    0.5287279138E+00    0.3776855768E-04    0.4637374058E-02
    0.2100000000E+02    0.2026925918E-04    0.2882700433E-05    0.5410785358E+00    0.4135958788E-04    0.4649592808E-02
    0.2300000000E+02    0.2055799908E-04    0.2923744501E-05    0.5517249216E+00    0.4492572298E-04    0.4660260221E-02
    0.2500000000E+02    0.2082344702E-04    0.2961704346E-05    0.5609970370E+00    0.4846994328E-04    0.4669666159E-02
    0.2700000000E+02    0.2107281495E-04    0.2997580557E-05    0.5691448306E+00    0.5199470756E-04    0.4678031435E-02
    0.2900000000E+02    0.2131123793E-04    0.3032081015E-05    0.5763611030E+00    0.5550207633E-04    0.4685527337E-02
    0.3100000000E+02    0.2154241559E-04    0.3065712067E-05    0.5827969561E+00    0.5899379939E-04    0.4692288865E-02
    0.3300000000E+02    0.2176903829E-04    0.3098838918E-05    0.5885724882E+00    0.6247137974E-04    0.4698423924E-02
    0.3500000000E+02    0.2199307597E-04    0.3131726464E-05    0.5937843579E+00    0.6593612130E-04    0.4704019846E-02
    0.3700000000E+02    0.2221597772E-04    0.3164567410E-05    0.5985112360E+00    0.6938916518E-04    0.4709148109E-02
    0.3900000000E+02    0.2243881173E-04    0.3197501940E-05    0.6028178045E+00    0.7283151771E-04    0.4713867811E-02
    0.4100000000E+02    0.2266236497E-04    0.3230631669E-05    0.6067577330E+00    0.7626407254E-04    0.4718228259E-02
    0.4300000000E+02    0.2288721505E-04    0.3264029676E-05    0.6103759267E+00    0.7968762814E-04    0.4722270936E-02
    0.4500000000E+02    0.2311378262E-04    0.3297747788E-05    0.6137102455E+00    0.8310290194E-04    0.4726031011E-02
    0.4700000000E+02    0.2334236999E-04    0.3331821929E-05    0.6167928334E+00    0.8651054178E-04    0.4729538508E-02
    0.4900000000E+02    0.2357318981E-04    0.3366276082E-05    0.6196511580E+00    0.8991113543E-04    0.4732819220E-02
    0.1000000000E+02    0.1745123748E-04    0.2487276529E-05    0.4349133089E+00    0.2117357662E-04    0.4548319131E-02
    0.3000000000E+02    0.2142754454E-04    0.3048979637E-05    0.5796684501E+00    0.5724979448E-04    0.4688992606E-02
    0.5000000000E+02    0.2368948426E-04    0.3383650635E-05    0.6210037320E+00    0.9160895913E-04    0.4734381620E-02
    0.7000000000E+02    0.2614654371E-04    0.3752014076E-05    0.6405783189E+00    0.1253040251E-03    0.4757822201E-02
    0.9000000000E+02    0.2882980852E-04    0.4155106235E-05    0.6519944717E+00    0.1587004965E-03    0.4772351642E-02
    0.1100000000E+03    0.3168783456E-04    0.4584363207E-05    0.6594726445E+00    0.1919852287E-03    0.4782250464E-02
    0.1300000000E+03    0.3468011247E-04    0.5033483849E-05    0.6647504341E+00    0.2252720800E-03    0.4789375239E-02
    0.1500000000E+03    0.3777943459E-04    0.5498339365E-05    0.6686742767E+00    0.2586382139E-03    0.4794675618E-02
    0.1700000000E+03    0.4096772816E-04    0.5976226529E-05    0.6717058269E+00    0.2921399085E-03    0.4798693993E-02
    0.1900000000E+03    0.4423282386E-04    0.6465344153E-05    0.6741182889E+00    0.3258205186E-03    0.4801765688E-02
    0.2100000000E+03    0.4756639510E-04    0.6964470608E-05    0.6760836692E+00    0.3597149084E-03    0.4804110760E-02
    0.2300000000E+03    0.5096267375E-04    0.7472766559E-05    0.6777156599E+00    0.3938521089E-03    0.4805880510E-02
    0.2500000000E+03    0.5441763922E-04    0.7989651908E-05    0.6790924198E+00    0.4282570033E-03    0.4807182918E-02
    0.2700000000E+03    0.5792849474E-04    0.8514727024E-05    0.6802694500E+00    0.4629514469E-03    0.4808097436E-02
    0.2900000000E+03    0.6149332081E-04    0.9047720986E-05    0.6812872488E+00    0.4979550386E-03    0.4808684023E-02
    0.3100000000E+03    0.6511084066E-04    0.9588456750E-05    0.6821760603E+00    0.5332856694E-03    0.4808988907E-02
    0.3300000000E+03    0.6878025797E-04    0.1013682718E-04    0.6829589264E+00    0.5689599241E-03    0.4809048375E-02
    0.3500000000E+03    0.7250114255E-04    0.1069277822E-04    0.6836537102E+00    0.6049933806E-03    0.4808891366E-02
    0.3700000000E+03    0.7627334824E-04    0.1125629687E-04    0.6842744731E+00    0.6414008393E-03    0.4808541264E-02
    0.3900000000E+03    0.8009695325E-04    0.1182740249E-04    0.6848324355E+00    0.6781965009E-03    0.4808017186E-02
    0.4100000000E+03    0.8397221602E-04    0.1240614035E-04    0.6853366594E+00    0.7153941077E-03    0.4807334922E-02
    0.4300000000E+03    0.8789954225E-04    0.1299257689E-04    0.6857945438E+00    0.7530070566E-03    0.4806507626E-02
    0.4500000000E+03    0.9187946011E-04    0.1358679611E-04    0.6862121892E+00    0.7910484917E-03    0.4805546341E-02
    0.4700000000E+03    0.9591260122E-04    0.1418889683E-04    0.6865946706E+00    0.8295313807E-03    0.4804460397E-02
    0.4900000000E+03    0.9999968620E-04    0.1479899064E-04    0.6869462443E+00    0.8684685792E-03    0.4803257723E-02
    0.1000000000E+03    0.3023986676E-04    0.4366918402E-05    0.6560864659E+00    0.1753485807E-03    0.4777732995E-02
    0.3000000000E+03    0.6329555351E-04    0.9317129252E-05    0.6817461966E+00    0.5155784108E-03    0.4808869212E-02
    0.5000000000E+03    0.1020637044E-03    0.1510707292E-04    0.6871115867E+00    0.8881115447E-03    0.4802614767E-02
    0.7000000000E+03    0.1464078854E-03    0.2172362987E-04    0.6894328427E+00    0.1307987395E-02    0.4784830879E-02
    0.9000000000E+03    0.1974367606E-03    0.2933442589E-04    0.6907268471E+00    0.1788801719E-02    0.4759156768E-02
    0.1100000000E+04    0.2567479550E-03    0.3817862226E-04    0.6915512907E+00    0.2346750711E-02    0.4726115297E-02
    0.1300000000E+04    0.3264878370E-03    0.4857672712E-04    0.6921221230E+00    0.3002669398E-02    0.4685081413E-02
    0.1500000000E+04    0.4095561772E-03    0.6096139277E-04    0.6925405209E+00    0.3784355217E-02    0.4634652821E-02
    0.1700000000E+04    0.5099368840E-03    0.7592685012E-04    0.6928601852E+00    0.4729862664E-02    0.4572626845E-02
    0.1900000000E+04    0.6332109240E-03    0.9430546358E-04    0.6931122587E+00    0.5892483455E-02    0.4495777903E-02
    0.2100000000E+04    0.7873547624E-03    0.1172868623E-03    0.6933160427E+00    0.7348467237E-02    0.4399443812E-02
    0.2300000000E+04    0.9839842074E-03    0.1466035285E-03    0.6934841351E+00    0.9209074595E-02    0.4276865830E-02
    0.2500000000E+04    0.1240250327E-02    0.1848137218E-03    0.6936251068E+00    0.1163905360E-01    0.4118210917E-02
    0.2700000000E+04    0.1581498304E-02    0.2356983980E-03    0.6937449913E+00    0.1488285175E-01    0.3909309536E-02
    0.2900000000E+04    0.2044028193E-02    0.3046737964E-03    0.6938481584E+00    0.1929278235E-01    0.3630701756E-02
    0.3100000000E+04    0.2674177929E-02    0.3986564610E-03    0.6939378505E+00    0.2532395230E-01    0.3259555723E-02
    0.3300000000E+04    0.3511526307E-02    0.5235611114E-03    0.6940165238E+00    0.3337977883E-01    0.2781736517E-02
    0.3500000000E+04    0.4536766312E-02    0.6765283219E-03    0.6940860728E+00    0.4331724769E-01    0.2223363896E-02
    0.3700000000E+04    0.5609736738E-02    0.8366750804E-03    0.6941479823E+00    0.5383873809E-01    0.1680348453E-02
    0.3900000000E+04    0.6528499732E-02    0.9738874768E-03    0.6942034321E+00    0.6301958061E-01    0.1269300682E-02
    0.4100000000E+04    0.7201904429E-02    0.1074553712E-02    0.6942533716E+00    0.6995208655E-01    0.1025828288E-02
    0.4300000000E+04    0.7676778955E-02    0.1145638305E-02    0.6942985733E+00    0.7504441412E-01    0.9051624504E-03
    0.4500000000E+04    0.8033757725E-02    0.1199156697E-02    0.6943396722E+00    0.7904671579E-01    0.8514813277E-03
    0.4700000000E+04    0.8329030102E-02    0.1243485328E-02    0.6943771950E+00    0.8248919512E-01    0.8292788713E-03
    0.4900000000E+04    0.8592261662E-02    0.1283047546E-02    0.6944115821E+00    0.8565381926E-01    0.8208835098E-03
    0.1000000000E+04    0.2259376378E-03    0.3358450526E-04    0.6911802396E+00    0.2056964873E-02    0.4743576340E-02
    0.3000000000E+04    0.2335120709E-02    0.3480867857E-03    0.6938945200E+00    0.2207556626E-01    0.3458045315E-02
    0.5000000000E+04    0.8716610812E-02    0.1301749366E-02    0.6944277181E+00    0.8717721526E-01    0.8191663886E-03
    0.7000000000E+04    0.1077957896E-01    0.1613093749E-02    0.6946513221E+00    0.1149435349E+00    0.8297612726E-03
    0.9000000000E+04    0.1230915860E-01    0.1845624133E-02    0.6947727112E+00    0.1396381362E+00    0.8415068243E-03
    0.1100000000E+05    0.1343927396E-01    0.2018961027E-02    0.6948481154E+00    0.1618770897E+00    0.8509895770E-03
    0.1300000000E+05    0.1426140364E-01    0.2146507626E-02    0.6948990227E+00    0.1820586024E+00    0.8589565144E-03
    0.1500000000E+05    0.1484409028E-01    0.2238324817E-02    0.6949353933E+00    0.2004946705E+00    0.8658351453E-03
    0.1700000000E+05    0.1523937404E-01    0.2302066382E-02    0.6949624639E+00    0.2174334863E+00    0.8718932886E-03
    0.1900000000E+05    0.1548722571E-01    0.2343623709E-02    0.6949832446E+00    0.2330751974E+00    0.8773100675E-03
    0.2100000000E+05    0.1561865992E-01    0.2367578796E-02    0.6949995853E+00    0.2475832162E+00    0.8822113142E-03
    0.2300000000E+05    0.1565795820E-01    0.2377527940E-02    0.6950126837E+00    0.2610924729E+00    0.8866888757E-03
    0.2500000000E+05    0.1562428065E-01    0.2376316585E-02    0.6950233481E+00    0.2737155331E+00    0.8908118837E-03
    0.2700000000E+05    0.1553285054E-01    0.2366212075E-02    0.6950321430E+00    0.2855471951E+00    0.8946337021E-03
    0.2900000000E+05    0.1539583594E-01    0.2349032345E-02    0.6950394738E+00    0.2966679896E+00    0.8981964001E-03
    0.3100000000E+05    0.1522301334E-01    0.2326242891E-02    0.6950456393E+00    0.3071468762E+00    0.9015337412E-03
    0.3300000000E+05    0.1502227249E-01    0.2299030623E-02    0.6950508637E+00    0.3170433427E+00    0.9046732430E-03
    0.3500000000E+05    0.1480000414E-01    0.2268360644E-02    0.6950553189E+00    0.3264090570E+00    0.9076376338E-03
    0.3700000000E+05    0.1456140033E-01    0.2235020301E-02    0.6950591384E+00    0.3352891789E+00    0.9104459074E-03
    0.3900000000E+05    0.1431068912E-01    0.2199653638E-02    0.6950624274E+00    0.3437234107E+00    0.9131141017E-03
    0.4100000000E+05    0.1405131909E-01    0.2162788549E-02    0.6950652699E+00    0.3517468462E+00    0.9156558843E-03
    0.4300000000E+05    0.1378610571E-01    0.2124858324E-02    0.6950677336E+00    0.3593906621E+00    0.9180829996E-03
    0.4500000000E+05    0.1351734792E-01    0.2086218861E-02    0.6950698740E+00    0.3666826846E+00    0.9204056145E-03
    0.4700000000E+05    0.1324692170E-01    0.2047162494E-02    0.6950717365E+00    0.3736478570E+00    0.9226325902E-03
    0.4900000000E+05    0.1297635549E-01    0.2007929160E-02    0.6950733587E+00    0.3803086292E+00    0.9247716975E-03
    0.1000000000E+05    0.1291780119E-01    0.1938762192E-02    0.6948144125E+00    0.1510373390E+00    0.8464739579E-03
    0.3000000000E+05    0.1531336834E-01    0.2338258859E-02    0.6950426867E+00    0.3019837526E+00    0.8998913934E-03
    0.5000000000E+05    0.1284141780E-01    0.1988309055E-02    0.6950740897E+00    0.3835312801E+00    0.9258104738E-03
    0.7000000000E+05    0.1033157434E-01    0.1618303348E-02    0.6950815745E+00    0.4360360048E+00    0.9432805867E-03
    0.9000000000E+05    0.8327940892E-02    0.1317357447E-02    0.6950823906E+00    0.4728065446E+00    0.9565408276E-03
    0.1100000000E+06    0.6792688955E-02    0.1083713924E-02    0.6950807627E+00    0.4999409012E+00    0.9672612009E-03
    0.1300000000E+06    0.5617332059E-02    0.9029646922E-03    0.6950781356E+00    0.5207265039E+00    0.9762764729E-03
    0.1500000000E+06    0.4707974484E-02    0.7618912310E-03    0.6950750999E+00    0.5371128584E+00    0.9840653795E-03
    0.1700000000E+06    0.3994686067E-02    0.6503926758E-03    0.6950719241E+00    0.5503324483E+00    0.9909285521E-03
    0.1900000000E+06    0.3427229774E-02    0.5610935605E-03    0.6950687379E+00    0.5612021577E+00    0.9970674097E-03
    0.2100000000E+06    0.2969654302E-02    0.4886519111E-03    0.6950656057E+00    0.5702839122E+00    0.1002623635E-02
    0.2300000000E+06    0.2596033944E-02    0.4291782313E-03    0.6950625589E+00    0.5779762013E+00    0.1007700750E-02
    0.2500000000E+06    0.2287447475E-02    0.3798108968E-03    0.6950596120E+00    0.5845689473E+00    0.1012376742E-02
    0.2700000000E+06    0.2029899509E-02    0.3384184601E-03    0.6950567698E+00    0.5902777723E+00    0.1016711849E-02
    0.2900000000E+06    0.1812897089E-02    0.3033930153E-03    0.6950540325E+00    0.5952661353E+00    0.1020753589E-02
    0.3100000000E+06    0.1628469463E-02    0.2735063874E-03    0.6950513971E+00    0.5996600530E+00    0.1024540114E-02
    0.3300000000E+06    0.1470486173E-02    0.2478092145E-03    0.6950488597E+00    0.6035581370E+00    0.1028102535E-02
    0.3500000000E+06    0.1334176946E-02    0.2255593694E-03    0.6950464154E+00    0.6070385893E+00    0.1031466554E-02
    0.3700000000E+06    0.1215789373E-02    0.2061705923E-03    0.6950440591E+00    0.6101641747E+00    0.1034653660E-02
    0.3900000000E+06    0.1112341741E-02    0.1891751909E-03    0.6950417859E+00    0.6129858169E+00    0.1037681999E-02
    0.4100000000E+06    0.1021442385E-02    0.1741966363E-03    0.6950395909E+00    0.6155452414E+00    0.1040567043E-02
    0.4300000000E+06    0.9411560913E-03    0.1609292027E-03    0.6950374695E+00    0.6178769458E+00    0.1043322086E-02
    0.4500000000E+06    0.8699042064E-03    0.1491226775E-03    0.6950354174E+00    0.6200096872E+00    0.1045958643E-02
    0.4700000000E+06    0.8063891528E-03    0.1385707607E-03    0.6950334305E+00    0.6219676196E+00    0.1048486747E-02
    0.4900000000E+06    0.7495368222E-03    0.1291021794E-03    0.6950315051E+00    0.6237711728E+00    0.1050915201E-02
    0.1000000000E+06    0.7508555490E-02    0.1192992188E-02    0.6950817610E+00    0.4873305339E+00    0.9621547135E-03
    0.3000000000E+06    0.1717031285E-02    0.2878722631E-03    0.6950527023E+00    0.5975306881E+00    0.1022676666E-02
    0.5000000000E+06    0.7233234891E-03    0.1247284715E-03    0.6950305643E+00    0.6246205952E+00    0.1052094522E-02
    0.7000000000E+06    0.3945496011E-03    0.6934554091E-04    0.6950142538E+00    0.6366181711E+00    0.1071931134E-02
    0.9000000000E+06    0.2475313171E-03    0.4413793986E-04    0.6950013787E+00    0.6433540100E+00    0.1086990385E-02
    0.1100000000E+07    0.1695026911E-03    0.3057673703E-04    0.6949907364E+00    0.6476593023E+00    0.1099166438E-02
    0.1300000000E+07    0.1232371047E-03    0.2244693683E-04    0.6949816581E+00    0.6506461407E+00    0.1109406522E-02
    0.1500000000E+07    0.9358989561E-04    0.1718882020E-04    0.6949737363E+00    0.6528388509E+00    0.1118254016E-02
    0.1700000000E+07    0.7346776952E-04    0.1359134250E-04    0.6949667046E+00    0.6545165920E+00    0.1126050204E-02
    0.1900000000E+07    0.5919200354E-04    0.1102103028E-04    0.6949603793E+00    0.6558415283E+00    0.1133023773E-02
    0.2100000000E+07    0.4870128467E-04    0.9120271499E-05    0.6949546288E+00    0.6569142605E+00    0.1139335602E-02
    0.2300000000E+07    0.4076815115E-04    0.7674705966E-05    0.6949493550E+00    0.6578004882E+00    0.1145103248E-02
    0.2500000000E+07    0.3462486941E-04    0.6549461429E-05    0.6949444833E+00    0.6585449288E+00    0.1150415274E-02
    0.2700000000E+07    0.2977138037E-04    0.5656215204E-05    0.6949399552E+00    0.6591790697E+00    0.1155340094E-02
    0.2900000000E+07    0.2587069427E-04    0.4935152326E-05    0.6949357245E+00    0.6597257219E+00    0.1159931673E-02
    0.3100000000E+07    0.2268903176E-04    0.4344588188E-05    0.6949317534E+00    0.6602018147E+00    0.1164233347E-02
    0.3300000000E+07    0.2006010707E-04    0.3854747274E-05    0.6949280114E+00    0.6606201760E+00    0.1168280449E-02
    0.3500000000E+07    0.1786303696E-04    0.3443898456E-05    0.6949244726E+00    0.6609907027E+00    0.1172102174E-02
    0.3700000000E+07    0.1600824448E-04    0.3095878915E-05    0.6949211157E+00    0.6613211528E+00    0.1175722928E-02
    0.3900000000E+07    0.1442821486E-04    0.2798464185E-05    0.6949179224E+00    0.6616176930E+00    0.1179163326E-02
    0.4100000000E+07    0.1307128498E-04    0.2542269188E-05    0.6949148771E+00    0.6618852868E+00    0.1182440939E-02
    0.4300000000E+07    0.1189738016E-04    0.2319991309E-05    0.6949119663E+00    0.6621279745E+00    0.1185570871E-02
    0.4500000000E+07    0.1087503055E-04    0.2125878985E-05    0.6949091783E+00    0.6623490779E+00    0.1188566200E-02
    0.4700000000E+07    0.9979246531E-05    0.1955352130E-05    0.6949065030E+00    0.6625513534E+00    0.1191438324E-02
    0.4900000000E+07    0.9189981615E-05    0.1804726755E-05    0.6949039313E+00    0.6627371074E+00    0.1194197243E-02
    0.1000000000E+07    0.2030290083E-03    0.3642334642E-04    0.6949958285E+00    0.6457204192E+00    0.1093366441E-02
    0.3000000000E+07    0.2420165167E-04    0.4625644172E-05    0.6949337085E+00    0.6599717064E+00    0.1162116378E-02
    0.5000000000E+07    0.8830096988E-05    0.1735919898E-05    0.6949026818E+00    0.6628244085E+00    0.1195537048E-02
    0.7000000000E+07    0.4540046514E-05    0.9080040288E-06    0.6948816120E+00    0.6640463932E+00    0.1218073171E-02
    0.9000000000E+07    0.2765369481E-05    0.5595011035E-06    0.6948655618E+00    0.6647250697E+00    0.1235181879E-02
    0.1100000000E+08    0.1864360703E-05    0.3802555695E-06    0.6948525579E+00    0.6651568759E+00    0.1249015021E-02
    0.1300000000E+08    0.1345028597E-05    0.2758777835E-06    0.6948416063E+00    0.6654557846E+00    0.1260648716E-02
    0.1500000000E+08    0.1018587820E-05    0.2097176642E-06    0.6948321344E+00    0.6656749690E+00    0.1270700286E-02
    0.1700000000E+08    0.8000309704E-06    0.1651122704E-06    0.6948237815E+00    0.6658425739E+00    0.1279557465E-02
    0.1900000000E+08    0.6465032903E-06    0.1335926929E-06    0.6948163052E+00    0.6659748909E+00    0.1287480062E-02
    0.2100000000E+08    0.5344987345E-06    0.1104809375E-06    0.6948095348E+00    0.6660820044E+00    0.1294650852E-02
    0.2300000000E+08    0.4502504015E-06    0.9302026024E-07    0.6948033454E+00    0.6661704901E+00    0.1301203393E-02
    0.2500000000E+08    0.3852607148E-06    0.7949970391E-07    0.6947976427E+00    0.6662448196E+00    0.1307238302E-02
    0.2700000000E+08    0.3340539343E-06    0.6881129822E-07    0.6947923540E+00    0.6663081389E+00    0.1312833303E-02
