  Pressure (Pa) 22mC5-500 (mol/kg) 23mC5-500 (mol/kg) 24mC5-500 (mol/kg) 3mC6-500 (mol/kg) C7-500 (mol/kg)
    0.1000000000E+01    0.5299459923E-05    0.5331047713E-05    0.3665910910E-01    0.3007158902E-05    0.4219137077E-02
    0.3000000000E+01    0.1400329935E-04    0.1407053762E-04    0.9947928990E-01    0.7752117264E-05    0.4318713279E-02
    0.5000000000E+01    0.2088310377E-04    0.2096420099E-04    0.1513514320E+00    0.1212841704E-04    0.4399443354E-02
    0.7000000000E+01    0.2642578141E-04    0.2650687006E-04    0.1949081690E+00    0.1632489243E-04    0.4467342874E-02
    0.9000000000E+01    0.3095993108E-04    0.3103203381E-04    0.2320006860E+00    0.2040567705E-04    0.4525391055E-02
    0.1100000000E+02    0.3471755955E-04    0.3477491021E-04    0.2639686381E+00    0.2440298875E-04    0.4575643915E-02
    0.1300000000E+02    0.3786710036E-04    0.3790609804E-04    0.2918054202E+00    0.2833605894E-04    0.4619607080E-02
    0.1500000000E+02    0.4053356178E-04    0.4055208968E-04    0.3162632491E+00    0.3221758911E-04    0.4658416174E-02
    0.1700000000E+02    0.4281146281E-04    0.4280843211E-04    0.3379221679E+00    0.3605655156E-04    0.4692946072E-02
    0.1900000000E+02    0.4477342575E-04    0.4474846378E-04    0.3572366406E+00    0.3985959717E-04    0.4723882482E-02
    0.2100000000E+02    0.4647603944E-04    0.4642927304E-04    0.3745677920E+00    0.4363183831E-04    0.4751770813E-02
    0.2300000000E+02    0.4796395176E-04    0.4789585471E-04    0.3902062007E+00    0.4737731790E-04    0.4777050511E-02
    0.2500000000E+02    0.4927278308E-04    0.4918406759E-04    0.4043883232E+00    0.5109930685E-04    0.4800079716E-02
    0.2700000000E+02    0.5043123674E-04    0.5032277561E-04    0.4173085347E+00    0.5480050164E-04    0.4821153317E-02
    0.2900000000E+02    0.5146265180E-04    0.5133542221E-04    0.4291280911E+00    0.5848316037E-04    0.4840516379E-02
    0.3100000000E+02    0.5238616148E-04    0.5224120435E-04    0.4399818954E+00    0.6214919938E-04    0.4858374285E-02
    0.3300000000E+02    0.5321756857E-04    0.5305595900E-04    0.4499836693E+00    0.6580026380E-04    0.4874900483E-02
    0.3500000000E+02    0.5397001448E-04    0.5379284039E-04    0.4592299535E+00    0.6943778005E-04    0.4890242488E-02
    0.3700000000E+02    0.5465449616E-04    0.5446284287E-04    0.4678032343E+00    0.7306299586E-04    0.4904526577E-02
    0.3900000000E+02    0.5528026927E-04    0.5507520843E-04    0.4757744116E+00    0.7667701110E-04    0.4917861488E-02
    0.4100000000E+02    0.5585516550E-04    0.5563774732E-04    0.4832047637E+00    0.8028080210E-04    0.4930341383E-02
    0.4300000000E+02    0.5638584437E-04    0.5615709227E-04    0.4901475264E+00    0.8387524085E-04    0.4942048220E-02
    0.4500000000E+02    0.5687799467E-04    0.5663890165E-04    0.4966491702E+00    0.8746111060E-04    0.4953053674E-02
    0.4700000000E+02    0.5733649659E-04    0.5708802303E-04    0.5027504422E+00    0.9103911844E-04    0.4963420715E-02
    0.4900000000E+02    0.5776555331E-04    0.5750862568E-04    0.5084872207E+00    0.9460990568E-04    0.4973204892E-02
    0.1000000000E+02    0.3292407422E-04    0.3298936700E-04    0.2485564817E+00    0.2241336355E-04    0.4551387487E-02
    0.3000000000E+02    0.5193683778E-04    0.5180061159E-04    0.4346681600E+00    0.6031814885E-04    0.4849621965E-02
    0.5000000000E+02    0.5797019490E-04    0.5770937690E-04    0.5112289818E+00    0.9639277614E-04    0.4977894003E-02
    0.7000000000E+02    0.6117964911E-04    0.6088153219E-04    0.5529720475E+00    0.1317894411E-03    0.5050486031E-02
    0.9000000000E+02    0.6362633026E-04    0.6334934529E-04    0.5792484736E+00    0.1669067278E-03    0.5097606275E-02
    0.1100000000E+03    0.6590279594E-04    0.6568578848E-04    0.5973106415E+00    0.2019484363E-03    0.5130803772E-02
    0.1300000000E+03    0.6820885861E-04    0.6807860428E-04    0.6104895708E+00    0.2370390770E-03    0.5155485914E-02
    0.1500000000E+03    0.7061541087E-04    0.7059112226E-04    0.6205296848E+00    0.2722634379E-03    0.5174537859E-02
    0.1700000000E+03    0.7314574584E-04    0.7324174204E-04    0.6284329394E+00    0.3076837779E-03    0.5189647188E-02
    0.1900000000E+03    0.7580451561E-04    0.7603184806E-04    0.6348158503E+00    0.3433484702E-03    0.5201870867E-02
    0.2100000000E+03    0.7858906658E-04    0.7895654361E-04    0.6400785757E+00    0.3792968077E-03    0.5211906896E-02
    0.2300000000E+03    0.8149414580E-04    0.8200899978E-04    0.6444921716E+00    0.4155618803E-03    0.5220236104E-02
    0.2500000000E+03    0.8451390857E-04    0.8518224324E-04    0.6482467705E+00    0.4521723988E-03    0.5227201332E-02
    0.2700000000E+03    0.8764276475E-04    0.8846986327E-04    0.6514796837E+00    0.4891539061E-03    0.5233054137E-02
    0.2900000000E+03    0.9087570828E-04    0.9186625030E-04    0.6542925533E+00    0.5265296118E-03    0.5237983606E-02
    0.3100000000E+03    0.9420841369E-04    0.9536663159E-04    0.6567622278E+00    0.5643209868E-03    0.5242134834E-02
    0.3300000000E+03    0.9763722946E-04    0.9896702290E-04    0.6589478874E+00    0.6025481977E-03    0.5245621151E-02
    0.3500000000E+03    0.1011591287E-03    0.1026641500E-03    0.6608958461E+00    0.6412304333E-03    0.5248532457E-02
    0.3700000000E+03    0.1047716455E-03    0.1064553646E-03    0.6626428674E+00    0.6803861540E-03    0.5250941035E-02
    0.3900000000E+03    0.1084728105E-03    0.1103385645E-03    0.6642185058E+00    0.7200332872E-03    0.5252905698E-02
    0.4100000000E+03    0.1122610907E-03    0.1143121224E-03    0.6656467909E+00    0.7601893825E-03    0.5254474803E-02
    0.4300000000E+03    0.1161353357E-03    0.1183748250E-03    0.6669474609E+00    0.8008717379E-03    0.5255688481E-02
    0.4500000000E+03    0.1200947318E-03    0.1225258195E-03    0.6681368799E+00    0.8420975033E-03    0.5256580312E-02
    0.4700000000E+03    0.1241387620E-03    0.1267645698E-03    0.6692287287E+00    0.8838837676E-03    0.5257178599E-02
    0.4900000000E+03    0.1282671723E-03    0.1310908191E-03    0.6702345338E+00    0.9262476323E-03    0.5257507351E-02
    0.1000000000E+03    0.6476870856E-04    0.6451774570E-04    0.5890452027E+00    0.1844280191E-03    0.5115523677E-02
    0.3000000000E+03    0.9252983430E-04    0.9360370831E-04    0.6555662422E+00    0.5453720539E-03    0.5240148785E-02
    0.5000000000E+03    0.1303630053E-03    0.1332867442E-03    0.6707082851E+00    0.9476515282E-03    0.5257577172E-02
    0.7000000000E+03    0.1768138205E-03    0.1819112465E-03    0.6774097268E+00    0.1410386554E-02    0.5248482561E-02
    0.9000000000E+03    0.2327619251E-03    0.2404081324E-03    0.6811881630E+00    0.1952664659E-02    0.5224162975E-02
    0.1100000000E+04    0.3003149223E-03    0.3109884453E-03    0.6836127131E+00    0.2598681664E-02    0.5186992094E-02
    0.1300000000E+04    0.3827228719E-03    0.3970514778E-03    0.6852999598E+00    0.3381254753E-02    0.5136407234E-02
    0.1500000000E+04    0.4847352389E-03    0.5035589595E-03    0.6865414850E+00    0.4346529487E-02    0.5070033152E-02
    0.1700000000E+04    0.6133093810E-03    0.6377757933E-03    0.6874930612E+00    0.5561249319E-02    0.4983672311E-02
    0.1900000000E+04    0.7788018782E-03    0.8105145659E-03    0.6882454685E+00    0.7124415659E-02    0.4870741897E-02
    0.2100000000E+04    0.9968984295E-03    0.1038151288E-02    0.6888551853E+00    0.9186033886E-02    0.4721201042E-02
    0.2300000000E+04    0.1291565920E-02    0.1345709307E-02    0.6893591892E+00    0.1197594117E-01    0.4519943216E-02
    0.2500000000E+04    0.1698778899E-02    0.1770754743E-02    0.6897827036E+00    0.1584094508E-01    0.4245090236E-02
    0.2700000000E+04    0.2267832950E-02    0.2364780208E-02    0.6901435233E+00    0.2126110168E-01    0.3868803002E-02
    0.2900000000E+04    0.3047118270E-02    0.3178378975E-02    0.6904545612E+00    0.2872140198E-01    0.3369713463E-02
    0.3100000000E+04    0.4027202156E-02    0.4201853674E-02    0.6907254145E+00    0.3817606577E-01    0.2772575373E-02
    0.3300000000E+04    0.5060906312E-02    0.5281736301E-02    0.6909633646E+00    0.4827165941E-01    0.2192356147E-02
    0.3500000000E+04    0.5928989122E-02    0.6189195559E-02    0.6911740355E+00    0.5692713385E-01    0.1770316447E-02
    0.3700000000E+04    0.6547399031E-02    0.6836354868E-02    0.6913618401E+00    0.6330123564E-01    0.1537956598E-02
    0.3900000000E+04    0.6979661257E-02    0.7289384709E-02    0.6915302889E+00    0.6795825168E-01    0.1432794318E-02
    0.4100000000E+04    0.7309774402E-02    0.7635900777E-02    0.6916822100E+00    0.7167922729E-01    0.1390802861E-02
    0.4300000000E+04    0.7589290537E-02    0.7929695232E-02    0.6918199066E+00    0.7494952055E-01    0.1376020251E-02
    0.4500000000E+04    0.7842950481E-02    0.8196588441E-02    0.6919452736E+00    0.7800349032E-01    0.1372238445E-02
    0.4700000000E+04    0.8081614599E-02    0.8447914504E-02    0.6920598843E+00    0.8094407363E-01    0.1372759309E-02
    0.4900000000E+04    0.8309953341E-02    0.8688545869E-02    0.6921650554E+00    0.8381512778E-01    0.1374906079E-02
    0.1000000000E+04    0.2649140455E-03    0.2740059734E-03    0.6825197784E+00    0.2260902925E-02    0.5207171879E-02
    0.3000000000E+04    0.3517528306E-02    0.3669578015E-02    0.6905945105E+00    0.3324812360E-01    0.3078429028E-02
    0.5000000000E+04    0.8420945620E-02    0.8805575379E-02    0.6922144552E+00    0.8523094444E-01    0.1376228044E-02
    0.7000000000E+04    0.1030322344E-01    0.1079725423E-01    0.6929030977E+00    0.1116088500E+00    0.1402587949E-02
    0.9000000000E+04    0.1167707741E-01    0.1226256011E-01    0.6932817226E+00    0.1349772210E+00    0.1422789904E-02
    0.1100000000E+05    0.1267430246E-01    0.1333667963E-01    0.6935199217E+00    0.1559303754E+00    0.1439038169E-02
    0.1300000000E+05    0.1338780088E-01    0.1411505585E-01    0.6936828387E+00    0.1749019973E+00    0.1452656081E-02
    0.1500000000E+05    0.1388492585E-01    0.1466701565E-01    0.6938008074E+00    0.1922210530E+00    0.1464393674E-02
    0.1700000000E+05    0.1421539560E-01    0.1504384067E-01    0.6938898440E+00    0.2081419923E+00    0.1474718111E-02
    0.1900000000E+05    0.1441649046E-01    0.1528407033E-01    0.6939591932E+00    0.2228650627E+00    0.1483940516E-02
    0.2100000000E+05    0.1451654896E-01    0.1541707159E-01    0.6940145598E+00    0.2365503118E+00    0.1492278740E-02
    0.2300000000E+05    0.1453737119E-01    0.1546549495E-01    0.6940596514E+00    0.2493274507E+00    0.1499891387E-02
    0.2500000000E+05    0.1449590340E-01    0.1544699723E-01    0.6940969808E+00    0.2613029375E+00    0.1506897585E-02
    0.2700000000E+05    0.1440543945E-01    0.1537547151E-01    0.6941283095E+00    0.2725651533E+00    0.1513389136E-02
    0.2900000000E+05    0.1427649133E-01    0.1526193919E-01    0.6941549086E+00    0.2831882438E+00    0.1519438303E-02
    0.3100000000E+05    0.1411742892E-01    0.1511520619E-01    0.6941777176E+00    0.2932350127E+00    0.1525103013E-02
    0.3300000000E+05    0.1393495632E-01    0.1494235217E-01    0.6941974454E+00    0.3027591275E+00    0.1530430426E-02
    0.3500000000E+05    0.1373447067E-01    0.1474909948E-01    0.6942146367E+00    0.3118068228E+00    0.1535459459E-02
    0.3700000000E+05    0.1352033535E-01    0.1454009449E-01    0.6942297170E+00    0.3204182298E+00    0.1540222605E-02
    0.3900000000E+05    0.1329609020E-01    0.1431912426E-01    0.6942430228E+00    0.3286284241E+00    0.1544747285E-02
    0.4100000000E+05    0.1306461456E-01    0.1408928499E-01    0.6942548241E+00    0.3364682599E+00    0.1549056850E-02
    0.4300000000E+05    0.1282825493E-01    0.1385311398E-01    0.6942653397E+00    0.3439650393E+00    0.1553171352E-02
    0.4500000000E+05    0.1258892561E-01    0.1361269394E-01    0.6942747488E+00    0.3511430550E+00    0.1557108145E-02
    0.4700000000E+05    0.1234818867E-01    0.1336973597E-01    0.6942831992E+00    0.3580240324E+00    0.1560882343E-02
    0.4900000000E+05    0.1210731789E-01    0.1312564599E-01    0.6942908145E+00    0.3646274930E+00    0.1564507197E-02
    0.1000000000E+05    0.1221624575E-01    0.1284182098E-01    0.6934130798E+00    0.1457256972E+00    0.1431306730E-02
    0.3000000000E+05    0.1420027105E-01    0.1519224465E-01    0.6941667381E+00    0.2882801222E+00    0.1522315549E-02
    0.5000000000E+05    0.1198716438E-01    0.1300354581E-01    0.6942943419E+00    0.3678307275E+00    0.1566267324E-02
    0.7000000000E+05    0.9741983431E-02    0.1068945198E-01    0.6943391800E+00    0.4208311170E+00    0.1595856781E-02
    0.9000000000E+05    0.7926031604E-02    0.8781692930E-02    0.6943585508E+00    0.4589130062E+00    0.1618303455E-02
    0.1100000000E+06    0.6515344962E-02    0.7279754752E-02    0.6943673086E+00    0.4875305055E+00    0.1636444836E-02
    0.1300000000E+06    0.5422222253E-02    0.6103550792E-02    0.6943708734E+00    0.5097310543E+00    0.1651697552E-02
    0.1500000000E+06    0.4567866352E-02    0.5176090359E-02    0.6943716379E+00    0.5273853021E+00    0.1664873431E-02
    0.1700000000E+06    0.3892067859E-02    0.4436835869E-02    0.6943707961E+00    0.5417112116E+00    0.1676482013E-02
    0.1900000000E+06    0.3350687909E-02    0.3840612945E-02    0.6943689971E+00    0.5535356564E+00    0.1686864558E-02
    0.2100000000E+06    0.2911612600E-02    0.3354126944E-02    0.6943666162E+00    0.5634384766E+00    0.1696261046E-02
    0.2300000000E+06    0.2551364403E-02    0.2952787116E-02    0.6943638811E+00    0.5718372030E+00    0.1704846787E-02
    0.2500000000E+06    0.2252611808E-02    0.2618285259E-02    0.6943609346E+00    0.5790393197E+00    0.1712753818E-02
    0.2700000000E+06    0.2002411235E-02    0.2336848253E-02    0.6943578691E+00    0.5852757187E+00    0.1720084116E-02
    0.2900000000E+06    0.1790978678E-02    0.2097998098E-02    0.6943547452E+00    0.5907227721E+00    0.1726918111E-02
    0.3100000000E+06    0.1610829822E-02    0.1893673586E-02    0.6943516035E+00    0.5955172710E+00    0.1733320378E-02
    0.3300000000E+06    0.1456173629E-02    0.1717604918E-02    0.6943484712E+00    0.5997667656E+00    0.1739343562E-02
    0.3500000000E+06    0.1322480418E-02    0.1564864664E-02    0.6943453668E+00    0.6035568620E+00    0.1745031159E-02
    0.3700000000E+06    0.1206170839E-02    0.1431542162E-02    0.6943423024E+00    0.6069564642E+00    0.1750419526E-02
    0.3900000000E+06    0.1104389373E-02    0.1314504933E-02    0.6943392863E+00    0.6100215991E+00    0.1755539370E-02
    0.4100000000E+06    0.1014837547E-02    0.1211222047E-02    0.6943363235E+00    0.6127982487E+00    0.1760416863E-02
    0.4300000000E+06    0.9356497893E-03    0.1119631975E-02    0.6943334172E+00    0.6153244739E+00    0.1765074500E-02
    0.4500000000E+06    0.8653000626E-03    0.1038042766E-02    0.6943305690E+00    0.6176320279E+00    0.1769531756E-02
    0.4700000000E+06    0.8025309514E-03    0.9650559012E-03    0.6943277795E+00    0.6197475947E+00    0.1773805607E-02
    0.4900000000E+06    0.7462992985E-03    0.8995077024E-03    0.6943250486E+00    0.6216937491E+00    0.1777910944E-02
    0.1000000000E+06    0.7175414575E-02    0.7984698992E-02    0.6943638098E+00    0.4741776550E+00    0.1627804035E-02
    0.3000000000E+06    0.1697389653E-02    0.1991948013E-02    0.6943531746E+00    0.5931942812E+00    0.1730169678E-02
    0.5000000000E+06    0.7203570700E-03    0.8692122574E-03    0.6943237049E+00    0.6226094164E+00    0.1779904584E-02
    0.7000000000E+06    0.3941532958E-03    0.4846144255E-03    0.6942996183E+00    0.6354677946E+00    0.1813436723E-02
    0.9000000000E+06    0.2477620479E-03    0.3089473242E-03    0.6942798256E+00    0.6426105162E+00    0.1838891349E-02
    0.1100000000E+07    0.1699213576E-03    0.2142721469E-03    0.6942631102E+00    0.6471393663E+00    0.1859471555E-02
    0.1300000000E+07    0.1237134149E-03    0.1574537835E-03    0.6942486592E+00    0.6502620364E+00    0.1876778957E-02
    0.1500000000E+07    0.9407850229E-04    0.1206780760E-03    0.6942359328E+00    0.6525434190E+00    0.1891732254E-02
    0.1700000000E+07    0.7395150390E-04    0.9550299300E-04    0.6942245608E+00    0.6542822427E+00    0.1904908432E-02
    0.1900000000E+07    0.5966429090E-04    0.7750788185E-04    0.6942142793E+00    0.6556510494E+00    0.1916694100E-02
    0.2100000000E+07    0.4915987391E-04    0.6419526015E-04    0.6942048945E+00    0.6567563583E+00    0.1927361221E-02
    0.2300000000E+07    0.4121263910E-04    0.5406723302E-04    0.6941962600E+00    0.6576674445E+00    0.1937108524E-02
    0.2500000000E+07    0.3505564847E-04    0.4618093119E-04    0.6941882624E+00    0.6584312893E+00    0.1946085717E-02
    0.2700000000E+07    0.3018916769E-04    0.3991868645E-04    0.6941808125E+00    0.6590808699E+00    0.1954408444E-02
    0.2900000000E+07    0.2627631471E-04    0.3486207066E-04    0.6941738385E+00    0.6596400110E+00    0.1962167929E-02
    0.3100000000E+07    0.2308331729E-04    0.3071941102E-04    0.6941672820E+00    0.6601263505E+00    0.1969437420E-02
    0.3300000000E+07    0.2044385142E-04    0.2728231840E-04    0.6941610946E+00    0.6605532241E+00    0.1976276644E-02
    0.3500000000E+07    0.1823697721E-04    0.2439867394E-04    0.6941552361E+00    0.6609309005E+00    0.1982734948E-02
    0.3700000000E+07    0.1637305573E-04    0.2195531697E-04    0.6941496725E+00    0.6612674144E+00    0.1988853585E-02
    0.3900000000E+07    0.1478451122E-04    0.1986664634E-04    0.6941443747E+00    0.6615691426E+00    0.1994667399E-02
    0.4100000000E+07    0.1341962341E-04    0.1806693345E-04    0.6941393180E+00    0.6618412102E+00    0.2000206091E-02
    0.4300000000E+07    0.1223826538E-04    0.1650502680E-04    0.6941344808E+00    0.6620877832E+00    0.2005495188E-02
    0.4500000000E+07    0.1120892026E-04    0.1514063370E-04    0.6941298443E+00    0.6623122826E+00    0.2010556794E-02
    0.4700000000E+07    0.1030655635E-04    0.1394166397E-04    0.6941253922E+00    0.6625175442E+00    0.2015410178E-02
    0.4900000000E+07    0.9511089651E-05    0.1288230250E-04    0.6941211100E+00    0.6627059378E+00    0.2020072238E-02
    0.1000000000E+07    0.2033801162E-03    0.2551044276E-03    0.6942711421E+00    0.6451036630E+00    0.1849668384E-02
    0.3000000000E+07    0.2460150240E-04    0.3269109637E-04    0.6941705113E+00    0.6598913635E+00    0.1965859916E-02
    0.5000000000E+07    0.9148235349E-05    0.1239826649E-04    0.6941190286E+00    0.6627944455E+00    0.2022336249E-02
    0.7000000000E+07    0.4812276778E-05    0.6565896839E-05    0.6940838534E+00    0.6640309938E+00    0.2060417053E-02
    0.9000000000E+07    0.3007516697E-05    0.4102205637E-05    0.6940569807E+00    0.6647158427E+00    0.2089325681E-02
    0.1100000000E+08    0.2084855057E-05    0.2830151984E-05    0.6940351708E+00    0.6651508468E+00    0.2112698889E-02
    0.1300000000E+08    0.1548970503E-05    0.2086302173E-05    0.6940167822E+00    0.6654516338E+00    0.2132355324E-02
    0.1500000000E+08    0.1209338170E-05    0.1612690515E-05    0.6940008651E+00    0.6656720212E+00    0.2149338239E-02
    0.1700000000E+08    0.9799429534E-06    0.1291857660E-05    0.6939868197E+00    0.6658404471E+00    0.2164302872E-02
    0.1900000000E+08    0.8173008148E-06    0.1064010900E-05    0.6939742422E+00    0.6659733527E+00    0.2177688278E-02
    0.2100000000E+08    0.6974897371E-06    0.8960676028E-06    0.6939628480E+00    0.6660809048E+00    0.2189803319E-02
    0.2300000000E+08    0.6064553214E-06    0.7684983271E-06    0.6939524281E+00    0.6661697282E+00    0.2200873688E-02
    0.2500000000E+08    0.5354940333E-06    0.6691603190E-06    0.6939428252E+00    0.6662443244E+00    0.2211069412E-02
    0.2700000000E+08    0.4789781744E-06    0.5901754880E-06    0.6939339172E+00    0.6663078595E+00    0.2220521830E-02
