  Pressure (Pa) 22mC5-500 (mol/kg) 23mC5-500 (mol/kg) 24mC5-500 (mol/kg) 3mC6-500 (mol/kg) C7-500 (mol/kg)
    0.1000000000E+01    0.5340926256E-05    0.3070952588E-05    0.3666069322E-01    0.8387579140E-05    0.4185290708E-02
    0.3000000000E+01    0.1409763072E-04    0.8096340958E-05    0.9949095873E-01    0.2133384501E-04    0.4238385311E-02
    0.5000000000E+01    0.2102504210E-04    0.1206383341E-04    0.1513784506E+00    0.3323257775E-04    0.4278511563E-02
    0.7000000000E+01    0.2661343909E-04    0.1525820137E-04    0.1949529891E+00    0.4463707660E-04    0.4311783260E-02
    0.9000000000E+01    0.3119236941E-04    0.1787057795E-04    0.2320642060E+00    0.5573305164E-04    0.4340010591E-02
    0.1100000000E+02    0.3499427985E-04    0.2003563731E-04    0.2640508916E+00    0.6661313929E-04    0.4364300818E-02
    0.1300000000E+02    0.3818786554E-04    0.2185102132E-04    0.2919059632E+00    0.7733234921E-04    0.4385433584E-02
    0.1500000000E+02    0.4089831460E-04    0.2338911903E-04    0.3163813838E+00    0.8792686524E-04    0.4403987309E-02
    0.1700000000E+02    0.4322028081E-04    0.2470460927E-04    0.3380570728E+00    0.9842216478E-04    0.4420403940E-02
    0.1900000000E+02    0.4522649290E-04    0.2583946324E-04    0.3573874473E+00    0.1088370849E-03    0.4435028245E-02
    0.2100000000E+02    0.4697362656E-04    0.2682635454E-04    0.3747336300E+00    0.1191860765E-03    0.4448133654E-02
    0.2300000000E+02    0.4850640214E-04    0.2769103761E-04    0.3903862229E+00    0.1294805506E-03    0.4459940043E-02
    0.2500000000E+02    0.4986050146E-04    0.2845403967E-04    0.4045817203E+00    0.1397297305E-03    0.4470626357E-02
    0.2700000000E+02    0.5106468059E-04    0.2913188566E-04    0.4175145420E+00    0.1499412158E-03    0.4480339779E-02
    0.2900000000E+02    0.5214232430E-04    0.2973799894E-04    0.4293459913E+00    0.1601213705E-03    0.4489202524E-02
    0.3100000000E+02    0.5311260579E-04    0.3028337286E-04    0.4402110187E+00    0.1702755975E-03    0.4497316943E-02
    0.3300000000E+02    0.5399136309E-04    0.3077707797E-04    0.4502233921E+00    0.1804085389E-03    0.4504769424E-02
    0.3500000000E+02    0.5479176890E-04    0.3122664947E-04    0.4594796962E+00    0.1905242252E-03    0.4511633399E-02
    0.3700000000E+02    0.5552484810E-04    0.3163838637E-04    0.4680624586E+00    0.2006261876E-03    0.4517971695E-02
    0.3900000000E+02    0.5619988149E-04    0.3201758466E-04    0.4760426176E+00    0.2107175460E-03    0.4523838392E-02
    0.4100000000E+02    0.5682472350E-04    0.3236872077E-04    0.4834814872E+00    0.2208010766E-03    0.4529280299E-02
    0.4300000000E+02    0.5740605436E-04    0.3269559705E-04    0.4904323359E+00    0.2308792669E-03    0.4534338141E-02
    0.4500000000E+02    0.5794958176E-04    0.3300145805E-04    0.4969416648E+00    0.2409543586E-03    0.4539047522E-02
    0.4700000000E+02    0.5846020335E-04    0.3328908408E-04    0.5030502487E+00    0.2510283836E-03    0.4543439707E-02
    0.4900000000E+02    0.5894213839E-04    0.3356086710E-04    0.5087939913E+00    0.2611031926E-03    0.4547542266E-02
    0.1000000000E+02    0.3317869694E-04    0.1900221611E-04    0.2486294008E+00    0.6119606132E-04    0.4352593373E-02
    0.3000000000E+02    0.5263982598E-04    0.3001767138E-04    0.4348917525E+00    0.1652014189E-03    0.4493347540E-02
    0.5000000000E+02    0.5917350836E-04    0.3369147422E-04    0.5115391116E+00    0.2661414260E-03    0.4549492675E-02
    0.7000000000E+02    0.6296054604E-04    0.3584766305E-04    0.5533358706E+00    0.3672946462E-03    0.4577960646E-02
    0.9000000000E+02    0.6607353920E-04    0.3765431366E-04    0.5796487502E+00    0.4698519294E-03    0.4593718279E-02
    0.1100000000E+03    0.6911316446E-04    0.3944364970E-04    0.5977373585E+00    0.5744823804E-03    0.4602460331E-02
    0.1300000000E+03    0.7228645918E-04    0.4132724367E-04    0.6109364217E+00    0.6816520860E-03    0.4606836962E-02
    0.1500000000E+03    0.7567145142E-04    0.4334552816E-04    0.6209924436E+00    0.7917325038E-03    0.4608250622E-02
    0.1700000000E+03    0.7929881202E-04    0.4551340935E-04    0.6289086344E+00    0.9050475912E-03    0.4607512395E-02
    0.1900000000E+03    0.8318098150E-04    0.4783631732E-04    0.6353023101E+00    0.1021897802E-02    0.4605122332E-02
    0.2100000000E+03    0.8732361108E-04    0.5031640199E-04    0.6405741638E+00    0.1142573839E-02    0.4601403466E-02
    0.2300000000E+03    0.9173034950E-04    0.5295506571E-04    0.6449956220E+00    0.1267365366E-02    0.4596571574E-02
    0.2500000000E+03    0.9640492163E-04    0.5575402703E-04    0.6487570826E+00    0.1396567031E-02    0.4590774013E-02
    0.2700000000E+03    0.1013520442E-03    0.5871576587E-04    0.6519960522E+00    0.1530483021E-02    0.4584112531E-02
    0.2900000000E+03    0.1065778271E-03    0.6184370252E-04    0.6548143192E+00    0.1669430766E-02    0.4576657268E-02
    0.3100000000E+03    0.1120899462E-03    0.6514226350E-04    0.6572888446E+00    0.1813744184E-02    0.4568455654E-02
    0.3300000000E+03    0.1178977195E-03    0.6861690334E-04    0.6594788965E+00    0.1963776700E-02    0.4559538250E-02
    0.3500000000E+03    0.1240121488E-03    0.7227411378E-04    0.6614308582E+00    0.2119904180E-02    0.4549922650E-02
    0.3700000000E+03    0.1304459558E-03    0.7612143521E-04    0.6631815491E+00    0.2282527904E-02    0.4539616153E-02
    0.3900000000E+03    0.1372136278E-03    0.8016747694E-04    0.6647605689E+00    0.2452077651E-02    0.4528617598E-02
    0.4100000000E+03    0.1443314799E-03    0.8442194941E-04    0.6661919844E+00    0.2629014964E-02    0.4516918630E-02
    0.4300000000E+03    0.1518177370E-03    0.8889570976E-04    0.6674955649E+00    0.2813836667E-02    0.4504504570E-02
    0.4500000000E+03    0.1596926376E-03    0.9360082149E-04    0.6686877001E+00    0.3007078673E-02    0.4491354990E-02
    0.4700000000E+03    0.1679785614E-03    0.9855062874E-04    0.6697820929E+00    0.3209320157E-02    0.4477444074E-02
    0.4900000000E+03    0.1767001813E-03    0.1037598459E-03    0.6707902881E+00    0.3421188135E-02    0.4462740807E-02
    0.1000000000E+03    0.6758493186E-04    0.3854159190E-04    0.5894596671E+00    0.5218758474E-03    0.4598759170E-02
    0.3000000000E+03    0.1092975513E-03    0.6347133828E-04    0.6560904959E+00    0.1740895168E-02    0.4572647503E-02
    0.5000000000E+03    0.1812327580E-03    0.1064667318E-03    0.6712651819E+00    0.3530942319E-02    0.4455080946E-02
    0.7000000000E+03    0.3032965777E-03    0.1793161893E-03    0.6779842741E+00    0.6440295402E-02    0.4248067818E-02
    0.9000000000E+03    0.5285513888E-03    0.3136672950E-03    0.6817745127E+00    0.1174605541E-01    0.3873864929E-02
    0.1100000000E+04    0.9901047178E-03    0.5889207748E-03    0.6842078545E+00    0.2262604141E-01    0.3143843565E-02
    0.1300000000E+04    0.1865782728E-02    0.1111287796E-02    0.6859020862E+00    0.4349602887E-01    0.1886520316E-02
    0.1500000000E+04    0.2724245004E-02    0.1623891448E-02    0.6871494010E+00    0.6461359495E-01    0.9168228898E-03
    0.1700000000E+04    0.3163426638E-02    0.1886814787E-02    0.6881059209E+00    0.7629318388E-01    0.6832775280E-03
    0.1900000000E+04    0.3452075657E-02    0.2060122923E-02    0.6888626433E+00    0.8463336298E-01    0.6545943096E-03
    0.2100000000E+04    0.3702361975E-02    0.2210678361E-02    0.6894761901E+00    0.9225059924E-01    0.6544677502E-03
    0.2300000000E+04    0.3933299439E-02    0.2349809189E-02    0.6899836387E+00    0.9958303315E-01    0.6576019871E-03
    0.2500000000E+04    0.4148388578E-02    0.2479591092E-02    0.6904102843E+00    0.1067003663E+00    0.6608763376E-03
    0.2700000000E+04    0.4348928521E-02    0.2600787072E-02    0.6907739753E+00    0.1136201153E+00    0.6639440135E-03
    0.2900000000E+04    0.4535864652E-02    0.2713949937E-02    0.6910876654E+00    0.1203521613E+00    0.6667942993E-03
    0.3100000000E+04    0.4710041764E-02    0.2819573378E-02    0.6913609838E+00    0.1269048855E+00    0.6694520306E-03
    0.3300000000E+04    0.4872242155E-02    0.2918114647E-02    0.6916012373E+00    0.1332860436E+00    0.6719415320E-03
    0.3500000000E+04    0.5023194480E-02    0.3009999782E-02    0.6918140705E+00    0.1395029179E+00    0.6742832290E-03
    0.3700000000E+04    0.5163578362E-02    0.3095626293E-02    0.6920039129E+00    0.1455623663E+00    0.6764940834E-03
    0.3900000000E+04    0.5294028148E-02    0.3175365349E-02    0.6921742892E+00    0.1514708549E+00    0.6785882875E-03
    0.4100000000E+04    0.5415136309E-02    0.3249563752E-02    0.6923280391E+00    0.1572344860E+00    0.6805778306E-03
    0.4300000000E+04    0.5527456552E-02    0.3318545745E-02    0.6924674758E+00    0.1628590236E+00    0.6824729327E-03
    0.4500000000E+04    0.5631506678E-02    0.3382614671E-02    0.6925945027E+00    0.1683499166E+00    0.6842823765E-03
    0.4700000000E+04    0.5727771212E-02    0.3442054502E-02    0.6927107003E+00    0.1737123206E+00    0.6860137658E-03
    0.4900000000E+04    0.5816703816E-02    0.3497131240E-02    0.6928173919E+00    0.1789511170E+00    0.6876737278E-03
    0.1000000000E+04    0.7165414221E-03    0.4257760809E-03    0.6831108048E+00    0.1617095381E-01    0.3570899107E-02
    0.3000000000E+04    0.4624497869E-02    0.2767674737E-02    0.6912288690E+00    0.1236504420E+00    0.6681456247E-03
    0.5000000000E+04    0.5858554525E-02    0.3523111979E-02    0.6928675287E+00    0.1815256175E+00    0.6884787678E-03
    0.7000000000E+04    0.6400589366E-02    0.3866483368E-02    0.6935684613E+00    0.2275308545E+00    0.7019284274E-03
    0.9000000000E+04    0.6557478597E-02    0.3978222867E-02    0.6939563185E+00    0.2652016216E+00    0.7120470282E-03
    0.1100000000E+05    0.6497287197E-02    0.3957717901E-02    0.6942019438E+00    0.2967482678E+00    0.7201855517E-03
    0.1300000000E+05    0.6315774696E-02    0.3861990643E-02    0.6943710886E+00    0.3236320451E+00    0.7270067343E-03
    0.1500000000E+05    0.6069056055E-02    0.3724732790E-02    0.6944944296E+00    0.3468637188E+00    0.7328861879E-03
    0.1700000000E+05    0.5790612670E-02    0.3566246945E-02    0.6945881955E+00    0.3671689242E+00    0.7380578701E-03
    0.1900000000E+05    0.5500588687E-02    0.3398898094E-02    0.6946617728E+00    0.3850849055E+00    0.7426775960E-03
    0.2100000000E+05    0.5211074675E-02    0.3230224632E-02    0.6947209649E+00    0.4010198083E+00    0.7468544706E-03
    0.2300000000E+05    0.4929208736E-02    0.3064772877E-02    0.6947695518E+00    0.4152905088E+00    0.7506679273E-03
    0.2500000000E+05    0.4659045177E-02    0.2905208427E-02    0.6948101002E+00    0.4281476015E+00    0.7541776307E-03
    0.2700000000E+05    0.4402704951E-02    0.2753004497E-02    0.6948444133E+00    0.4397924165E+00    0.7574295577E-03
    0.2900000000E+05    0.4161096228E-02    0.2608875984E-02    0.6948737951E+00    0.4503889217E+00    0.7604599021E-03
    0.3100000000E+05    0.3934371791E-02    0.2473057134E-02    0.6948992113E+00    0.4600722469E+00    0.7632976765E-03
    0.3300000000E+05    0.3722222240E-02    0.2345481104E-02    0.6949213923E+00    0.4689549170E+00    0.7659665013E-03
    0.3500000000E+05    0.3524065081E-02    0.2225896958E-02    0.6949409006E+00    0.4771314961E+00    0.7684858681E-03
    0.3700000000E+05    0.3339166933E-02    0.2113946197E-02    0.6949581763E+00    0.4846821043E+00    0.7708720528E-03
    0.3900000000E+05    0.3166722301E-02    0.2009212834E-02    0.6949735685E+00    0.4916751216E+00    0.7731387886E-03
    0.4100000000E+05    0.3005903920E-02    0.1911255992E-02    0.6949873579E+00    0.4981692927E+00    0.7752977714E-03
    0.4300000000E+05    0.2855894380E-02    0.1819630906E-02    0.6949997722E+00    0.5042153874E+00    0.7773590457E-03
    0.4500000000E+05    0.2715905389E-02    0.1733902164E-02    0.6950109986E+00    0.5098575225E+00    0.7793313026E-03
    0.4700000000E+05    0.2585188879E-02    0.1653651777E-02    0.6950211920E+00    0.5151342251E+00    0.7812221134E-03
    0.4900000000E+05    0.2463042750E-02    0.1578483786E-02    0.6950304817E+00    0.5200792959E+00    0.7830381147E-03
    0.1000000000E+05    0.6547325987E-02    0.3980228104E-02    0.6940915678E+00    0.2816359536E+00    0.7163129576E-03
    0.3000000000E+05    0.4045884594E-02    0.2539926583E-02    0.6948869486E+00    0.4553372300E+00    0.7619012747E-03
    0.5000000000E+05    0.2404977344E-02    0.1542688578E-02    0.6950348224E+00    0.5224369162E+00    0.7839199174E-03
    0.7000000000E+05    0.1560138638E-02    0.1016868759E-02    0.6950933497E+00    0.5578224022E+00    0.7987442095E-03
    0.9000000000E+05    0.1085926630E-02    0.7167647899E-03    0.6951231255E+00    0.5795266495E+00    0.8099903834E-03
    0.1100000000E+06    0.7967710500E-03    0.5313926470E-03    0.6951403042E+00    0.5941380349E+00    0.8190797849E-03
    0.1300000000E+06    0.6085065398E-03    0.4094161132E-03    0.6951509562E+00    0.6046196996E+00    0.8267220495E-03
    0.1500000000E+06    0.4794628809E-03    0.3250562697E-03    0.6951578477E+00    0.6124940184E+00    0.8333238566E-03
    0.1700000000E+06    0.3873165889E-03    0.2643474636E-03    0.6951624076E+00    0.6186204467E+00    0.8391404631E-03
    0.1900000000E+06    0.3192983000E-03    0.2192264953E-03    0.6951654422E+00    0.6235197264E+00    0.8443428272E-03
    0.2100000000E+06    0.2676975745E-03    0.1847856280E-03    0.6951674379E+00    0.6275252462E+00    0.8490511721E-03
    0.2300000000E+06    0.2276442434E-03    0.1579032214E-03    0.6951687031E+00    0.6308600930E+00    0.8533533231E-03
    0.2500000000E+06    0.1959433561E-03    0.1365186040E-03    0.6951694420E+00    0.6336790553E+00    0.8573154292E-03
    0.2700000000E+06    0.1704302475E-03    0.1192277453E-03    0.6951697939E+00    0.6360928349E+00    0.8609885795E-03
    0.2900000000E+06    0.1495970333E-03    0.1050475888E-03    0.6951698570E+00    0.6381826611E+00    0.8644130685E-03
    0.3100000000E+06    0.1323677084E-03    0.9327333023E-04    0.6951697015E+00    0.6400094652E+00    0.8676212480E-03
    0.3300000000E+06    0.1179580573E-03    0.8338905229E-04    0.6951693792E+00    0.6416198348E+00    0.8706394937E-03
    0.3500000000E+06    0.1057857626E-03    0.7501010719E-04    0.6951689286E+00    0.6430499919E+00    0.8734895972E-03
    0.3700000000E+06    0.9541118943E-04    0.6784499420E-04    0.6951683789E+00    0.6443285189E+00    0.8761897737E-03
    0.3900000000E+06    0.8649745764E-04    0.6166954881E-04    0.6951677524E+00    0.6454782682E+00    0.8787554077E-03
    0.4100000000E+06    0.7878294993E-04    0.5630910332E-04    0.6951670664E+00    0.6465177274E+00    0.8811996121E-03
    0.4300000000E+06    0.7206202424E-04    0.5162592607E-04    0.6951663346E+00    0.6474620126E+00    0.8835336567E-03
    0.4500000000E+06    0.6617124962E-04    0.4751022759E-04    0.6951655675E+00    0.6483236022E+00    0.8857672993E-03
    0.4700000000E+06    0.6097943083E-04    0.4387362161E-04    0.6951647738E+00    0.6491128875E+00    0.8879090457E-03
    0.4900000000E+06    0.5638027628E-04    0.4064430425E-04    0.6951639600E+00    0.6498385910E+00    0.8899663558E-03
    0.1000000000E+06    0.9249008620E-03    0.6137966550E-03    0.6951327932E+00    0.5874853724E+00    0.8147504443E-03
    0.3000000000E+06    0.1405864974E-03    0.9889560087E-04    0.6951698029E+00    0.6391257471E+00    0.8660424269E-03
    0.5000000000E+06    0.5427516866E-04    0.3916356924E-04    0.6951635475E+00    0.6501799499E+00    0.8909654339E-03
    0.7000000000E+06    0.2873597564E-04    0.2103521063E-04    0.6951551265E+00    0.6549770167E+00    0.9077698720E-03
    0.9000000000E+06    0.1786987117E-04    0.1319247337E-04    0.6951472309E+00    0.6576558905E+00    0.9205267984E-03
    0.1100000000E+07    0.1225618600E-04    0.9091001595E-05    0.6951401366E+00    0.6593654458E+00    0.9308411502E-03
    0.1300000000E+07    0.8980056384E-05    0.6674785969E-05    0.6951337775E+00    0.6605510857E+00    0.9395154549E-03
    0.1500000000E+07    0.6900630361E-05    0.5129682570E-05    0.6951280430E+00    0.6614216160E+00    0.9470100593E-03
    0.1700000000E+07    0.5497072922E-05    0.4080484837E-05    0.6951228319E+00    0.6620879093E+00    0.9536140892E-03
    0.1900000000E+07    0.4504094188E-05    0.3334564016E-05    0.6951180612E+00    0.6626142891E+00    0.9595212754E-03
    0.2100000000E+07    0.3774993354E-05    0.2784677052E-05    0.6951136640E+00    0.6630406362E+00    0.9648679031E-03
    0.2300000000E+07    0.3223276491E-05    0.2367221173E-05    0.6951095869E+00    0.6633929909E+00    0.9697535578E-03
    0.2500000000E+07    0.2795253339E-05    0.2042510746E-05    0.6951057865E+00    0.6636890772E+00    0.9742532626E-03
    0.2700000000E+07    0.2456156630E-05    0.1784728891E-05    0.6951022276E+00    0.6639413773E+00    0.9784249707E-03
    0.2900000000E+07    0.2182661951E-05    0.1576484479E-05    0.6950988810E+00    0.6641589357E+00    0.9823143970E-03
    0.3100000000E+07    0.1958644213E-05    0.1405709869E-05    0.6950957227E+00    0.6643484666E+00    0.9859582500E-03
    0.3300000000E+07    0.1772663557E-05    0.1263815166E-05    0.6950927322E+00    0.6645150587E+00    0.9893864604E-03
    0.3500000000E+07    0.1616419512E-05    0.1144548933E-05    0.6950898923E+00    0.6646626393E+00    0.9926237591E-03
    0.3700000000E+07    0.1483769435E-05    0.1043272205E-05    0.6950871883E+00    0.6647942873E+00    0.9956908204E-03
    0.3900000000E+07    0.1370087463E-05    0.9564828005E-06    0.6950846076E+00    0.6649124512E+00    0.9986051064E-03
    0.4100000000E+07    0.1271835331E-05    0.8814958702E-06    0.6950821392E+00    0.6650191020E+00    0.1001381502E-02
    0.4300000000E+07    0.1186268595E-05    0.8162246265E-06    0.6950797735E+00    0.6651158445E+00    0.1004032801E-02
    0.4500000000E+07    0.1111231553E-05    0.7590268611E-06    0.6950775021E+00    0.6652039984E+00    0.1006570080E-02
    0.4700000000E+07    0.1045011482E-05    0.7085956000E-06    0.6950753176E+00    0.6652846591E+00    0.1009002996E-02
    0.4900000000E+07    0.9862333732E-06    0.6638799480E-06    0.6950732134E+00    0.6653587433E+00    0.1011340020E-02
    0.1000000000E+07    0.1465468270E-04    0.1084862491E-04    0.6951435854E+00    0.6585956950E+00    0.9259279799E-03
    0.3000000000E+07    0.2065271665E-05    0.1487015927E-05    0.6950972797E+00    0.6642568548E+00    0.9841650117E-03
    0.5000000000E+07    0.9592782865E-06    0.6433924596E-06    0.6950721896E+00    0.6653935656E+00    0.1012474941E-02
    0.7000000000E+07    0.6261055852E-06    0.3920223991E-06    0.6950547988E+00    0.6658812807E+00    0.1031564865E-02
    0.9000000000E+07    0.4752797602E-06    0.2807462529E-06    0.6950414185E+00    0.6661524376E+00    0.1046057379E-02
    0.1100000000E+08    0.3910186700E-06    0.2202383130E-06    0.6950305114E+00    0.6663251033E+00    0.1057775249E-02
    0.1300000000E+08    0.3374909069E-06    0.1828816083E-06    0.6950212869E+00    0.6664447143E+00    0.1067630023E-02
    0.1500000000E+08    0.3004308585E-06    0.1577415218E-06    0.6950132837E+00    0.6665324825E+00    0.1076144618E-02
    0.1700000000E+08    0.2731536731E-06    0.1397368790E-06    0.6950062085E+00    0.6665996408E+00    0.1083647471E-02
    0.1900000000E+08    0.2521452160E-06    0.1262238940E-06    0.6949998631E+00    0.6666526940E+00    0.1090358659E-02
    0.2100000000E+08    0.2353928263E-06    0.1157057700E-06    0.6949941071E+00    0.6666956698E+00    0.1096433005E-02
    0.2300000000E+08    0.2216645909E-06    0.1072776188E-06    0.6949888373E+00    0.6667311953E+00    0.1101983644E-02
    0.2500000000E+08    0.2101654212E-06    0.1003628985E-06    0.6949839758E+00    0.6667610573E+00    0.1107095805E-02
    0.2700000000E+08    0.2003594684E-06    0.9457813390E-07    0.6949794621E+00    0.6667865132E+00    0.1111835327E-02
