  Pressure (Pa) 22mC5-500 (mol/kg) 23mC5-500 (mol/kg) 24mC5-500 (mol/kg) 3mC6-500 (mol/kg) C7-500 (mol/kg)
    0.1000000000E+01    0.4456345912E-05    0.3198058863E-05    0.1266258175E+00    0.7204873991E-06    0.4229501782E-02
    0.3000000000E+01    0.9198547606E-05    0.6582038227E-05    0.2784908699E+00    0.1866190146E-05    0.4311247746E-02
    0.5000000000E+01    0.1157181892E-04    0.8263476775E-05    0.3663700060E+00    0.2923922281E-05    0.4358737692E-02
    0.7000000000E+01    0.1294101761E-04    0.9227943910E-05    0.4236656360E+00    0.3938067918E-05    0.4390291287E-02
    0.9000000000E+01    0.1381748617E-04    0.9843079856E-05    0.4639768085E+00    0.4923777178E-05    0.4412947937E-02
    0.1100000000E+02    0.1442884997E-04    0.1027178352E-04    0.4938808298E+00    0.5888684948E-05    0.4430102200E-02
    0.1300000000E+02    0.1488856640E-04    0.1059484541E-04    0.5169471487E+00    0.6837359997E-05    0.4443603426E-02
    0.1500000000E+02    0.1525790219E-04    0.1085565612E-04    0.5352803502E+00    0.7772826166E-05    0.4454548433E-02
    0.1700000000E+02    0.1557196217E-04    0.1107893016E-04    0.5502016883E+00    0.8697223473E-05    0.4463630404E-02
    0.1900000000E+02    0.1585178838E-04    0.1127938387E-04    0.5625825085E+00    0.9612140908E-05    0.4471309717E-02
    0.2100000000E+02    0.1611043915E-04    0.1146608208E-04    0.5730207258E+00    0.1051880175E-04    0.4477904573E-02
    0.2300000000E+02    0.1635623764E-04    0.1164475337E-04    0.5819402768E+00    0.1141817472E-04    0.4483642249E-02
    0.2500000000E+02    0.1659459686E-04    0.1181908624E-04    0.5896501081E+00    0.1231104458E-04    0.4488689601E-02
    0.2700000000E+02    0.1682908815E-04    0.1199148532E-04    0.5963806881E+00    0.1319805902E-04    0.4493172027E-02
    0.2900000000E+02    0.1706208889E-04    0.1216352794E-04    0.6023074379E+00    0.1407976102E-04    0.4497185682E-02
    0.3100000000E+02    0.1729518671E-04    0.1233624795E-04    0.6075662401E+00    0.1495661183E-04    0.4500805606E-02
    0.3300000000E+02    0.1752943833E-04    0.1251031662E-04    0.6122639844E+00    0.1582900777E-04    0.4504091261E-02
    0.3500000000E+02    0.1776553875E-04    0.1268616038E-04    0.6164859084E+00    0.1669729277E-04    0.4507090419E-02
    0.3700000000E+02    0.1800393403E-04    0.1286403881E-04    0.6203008160E+00    0.1756176785E-04    0.4509841922E-02
    0.3900000000E+02    0.1824489762E-04    0.1304409724E-04    0.6237648556E+00    0.1842269857E-04    0.4512377702E-02
    0.4100000000E+02    0.1848858277E-04    0.1322640256E-04    0.6269243023E+00    0.1928032075E-04    0.4514724269E-02
    0.4300000000E+02    0.1873505893E-04    0.1341096794E-04    0.6298176362E+00    0.2013484514E-04    0.4516903825E-02
    0.4500000000E+02    0.1898433729E-04    0.1359777005E-04    0.6324771177E+00    0.2098646111E-04    0.4518935120E-02
    0.4700000000E+02    0.1923638879E-04    0.1378676110E-04    0.6349299954E+00    0.2183533964E-04    0.4520834105E-02
    0.4900000000E+02    0.1949115701E-04    0.1397787737E-04    0.6371994426E+00    0.2268163588E-04    0.4522614442E-02
    0.1000000000E+02    0.1414752935E-04    0.1007447663E-04    0.4799604457E+00    0.5408498062E-05    0.4422073580E-02
    0.3000000000E+02    0.1717854949E-04    0.1224975443E-04    0.6050130708E+00    0.1451876670E-04    0.4499040831E-02
    0.5000000000E+02    0.1961953710E-04    0.1407420970E-04    0.6382716913E+00    0.2310386029E-04    0.4523463862E-02
    0.7000000000E+02    0.2230800546E-04    0.1609311884E-04    0.6536706942E+00    0.3144140355E-04    0.4536379606E-02
    0.9000000000E+02    0.2516800906E-04    0.1824041292E-04    0.6625503936E+00    0.3962770385E-04    0.4544650379E-02
    0.1100000000E+03    0.2813748940E-04    0.2046805369E-04    0.6683272894E+00    0.4771166702E-04    0.4550501379E-02
    0.1300000000E+03    0.3117978761E-04    0.2274845563E-04    0.6723856526E+00    0.5572270844E-04    0.4554896563E-02
    0.1500000000E+03    0.3427307156E-04    0.2506544497E-04    0.6753929405E+00    0.6368037782E-04    0.4558330497E-02
    0.1700000000E+03    0.3740384399E-04    0.2740913629E-04    0.6777105953E+00    0.7159856500E-04    0.4561087043E-02
    0.1900000000E+03    0.4056345314E-04    0.2977325437E-04    0.6795513844E+00    0.7948762514E-04    0.4563342721E-02
    0.2100000000E+03    0.4374618332E-04    0.3215369120E-04    0.6810487165E+00    0.8735556549E-04    0.4565214108E-02
    0.2300000000E+03    0.4694816747E-04    0.3454769282E-04    0.6822904839E+00    0.9520875862E-04    0.4566781887E-02
    0.2500000000E+03    0.5016674198E-04    0.3695338083E-04    0.6833369487E+00    0.1030523960E-03    0.4568104034E-02
    0.2700000000E+03    0.5340004945E-04    0.3936945970E-04    0.6842308086E+00    0.1108907897E-03    0.4569223506E-02
    0.2900000000E+03    0.5664678591E-04    0.4179503165E-04    0.6850031615E+00    0.1187275807E-03    0.4570172956E-02
    0.3100000000E+03    0.5990603537E-04    0.4422947609E-04    0.6856771939E+00    0.1265658868E-03    0.4570977748E-02
    0.3300000000E+03    0.6317715874E-04    0.4667236905E-04    0.6862705466E+00    0.1344084112E-03    0.4571657951E-02
    0.3500000000E+03    0.6645971758E-04    0.4912342823E-04    0.6867968786E+00    0.1422575228E-03    0.4572229701E-02
    0.3700000000E+03    0.6975342088E-04    0.5158247468E-04    0.6872669308E+00    0.1501153176E-03    0.4572706157E-02
    0.3900000000E+03    0.7305808704E-04    0.5404940569E-04    0.6876892658E+00    0.1579836667E-03    0.4573098176E-02
    0.4100000000E+03    0.7637361661E-04    0.5652417533E-04    0.6880707931E+00    0.1658642530E-03    0.4573414824E-02
    0.4300000000E+03    0.7969997216E-04    0.5900678021E-04    0.6884171499E+00    0.1737586013E-03    0.4573663736E-02
    0.4500000000E+03    0.8303716354E-04    0.6149724908E-04    0.6887329811E+00    0.1816681020E-03    0.4573851406E-02
    0.4700000000E+03    0.8638523674E-04    0.6399563502E-04    0.6890221481E+00    0.1895940307E-03    0.4573983395E-02
    0.4900000000E+03    0.8974426552E-04    0.6650200957E-04    0.6892878878E+00    0.1975375639E-03    0.4574064504E-02
    0.1000000000E+03    0.2664180853E-04    0.1934626613E-04    0.6657153357E+00    0.4368033531E-04    0.4547802126E-02
    0.3000000000E+03    0.5827489192E-04    0.4301117517E-04    0.6853512566E+00    0.1226463667E-03    0.4570592074E-02
    0.5000000000E+03    0.9142791730E-04    0.6775821888E-04    0.6894128435E+00    0.2015162762E-03    0.4574087302E-02
    0.7000000000E+03    0.1257063874E-03    0.9332717926E-04    0.6911658505E+00    0.2822453506E-03    0.4572646973E-02
    0.9000000000E+03    0.1612434998E-03    0.1198264027E-03    0.6921421896E+00    0.3656535742E-03    0.4568756407E-02
    0.1100000000E+04    0.1982007070E-03    0.1473797741E-03    0.6927640111E+00    0.4522862789E-03    0.4563281274E-02
    0.1300000000E+04    0.2367390029E-03    0.1761090111E-03    0.6931945056E+00    0.5425935084E-03    0.4556610659E-02
    0.1500000000E+04    0.2770203931E-03    0.2061358226E-03    0.6935100554E+00    0.6369930248E-03    0.4548941554E-02
    0.1700000000E+04    0.3192119248E-03    0.2375853068E-03    0.6937511750E+00    0.7358994618E-03    0.4540377527E-02
    0.1900000000E+04    0.3634893937E-03    0.2705888865E-03    0.6939413498E+00    0.8397409202E-03    0.4530970212E-02
    0.2100000000E+04    0.4100406175E-03    0.3052868335E-03    0.6940951308E+00    0.9489702845E-03    0.4520739068E-02
    0.2300000000E+04    0.4590684887E-03    0.3418305896E-03    0.6942220134E+00    0.1064074255E-02    0.4509681608E-02
    0.2500000000E+04    0.5107940056E-03    0.3803850520E-03    0.6943284567E+00    0.1185581522E-02    0.4497778967E-02
    0.2700000000E+04    0.5654594377E-03    0.4211309497E-03    0.6944190072E+00    0.1314070878E-02    0.4484998965E-02
    0.2900000000E+04    0.6233317575E-03    0.4642674119E-03    0.6944969575E+00    0.1450179747E-02    0.4471297730E-02
    0.3100000000E+04    0.6847064538E-03    0.5100148179E-03    0.6945647505E+00    0.1594613536E-02    0.4456620412E-02
    0.3300000000E+04    0.7499118429E-03    0.5586180176E-03    0.6946242369E+00    0.1748156109E-02    0.4440901283E-02
    0.3500000000E+04    0.8193139995E-03    0.6103500108E-03    0.6946768441E+00    0.1911681730E-02    0.4424063368E-02
    0.3700000000E+04    0.8933224429E-03    0.6655161912E-03    0.6947236909E+00    0.2086168796E-02    0.4406017701E-02
    0.3900000000E+04    0.9723967353E-03    0.7244592688E-03    0.6947656661E+00    0.2272715775E-02    0.4386662232E-02
    0.4100000000E+04    0.1057054172E-02    0.7875650078E-03    0.6948034852E+00    0.2472559773E-02    0.4365880391E-02
    0.4300000000E+04    0.1147878782E-02    0.8552689393E-03    0.6948377304E+00    0.2687098275E-02    0.4343539310E-02
    0.4500000000E+04    0.1245531883E-02    0.9280642381E-03    0.6948688801E+00    0.2917914666E-02    0.4319487639E-02
    0.4700000000E+04    0.1350764505E-02    0.1006510988E-02    0.6948973313E+00    0.3166808284E-02    0.4293552949E-02
    0.4900000000E+04    0.1464432020E-02    0.1091247097E-02    0.6949234160E+00    0.3435829857E-02    0.4265538630E-02
    0.1000000000E+04    0.1795345074E-03    0.1334636710E-03    0.6924841681E+00    0.4085374969E-03    0.4566186236E-02
    0.3000000000E+04    0.6535616127E-03    0.4868000580E-03    0.6945319964E+00    0.1521309005E-02    0.4464084932E-02
    0.5000000000E+04    0.1524728882E-02    0.1136197410E-02    0.6949356601E+00    0.3578608368E-02    0.4250682669E-02
    0.7000000000E+04    0.3528113175E-02    0.2629883604E-02    0.6951056839E+00    0.8344266478E-02    0.3763923950E-02
    0.9000000000E+04    0.9363053649E-02    0.6981893445E-02    0.6951984237E+00    0.2239205921E-01    0.2433488409E-02
    0.1100000000E+05    0.1822417610E-01    0.1359786251E-01    0.6952563225E+00    0.4444599825E-01    0.7734576410E-03
    0.1300000000E+05    0.2163023081E-01    0.1615114488E-01    0.6952956205E+00    0.5401134173E-01    0.5359374302E-03
    0.1500000000E+05    0.2376705446E-01    0.1775969150E-01    0.6953238557E+00    0.6075014043E-01    0.5286801163E-03
    0.1700000000E+05    0.2563257665E-01    0.1916743793E-01    0.6953449969E+00    0.6703031357E-01    0.5318494921E-03
    0.1900000000E+05    0.2730514328E-01    0.2043252155E-01    0.6953613287E+00    0.7301253465E-01    0.5351262760E-03
    0.2100000000E+05    0.2880983141E-01    0.2157337941E-01    0.6953742571E+00    0.7873144213E-01    0.5381135936E-03
    0.2300000000E+05    0.3016598638E-01    0.2260421776E-01    0.6953846939E+00    0.8421175736E-01    0.5408440806E-03
    0.2500000000E+05    0.3139011589E-01    0.2353716428E-01    0.6953932553E+00    0.8947475807E-01    0.5433585839E-03
    0.2700000000E+05    0.3249646603E-01    0.2438269095E-01    0.6954003724E+00    0.9453908296E-01    0.5456895282E-03
    0.2900000000E+05    0.3349739405E-01    0.2514988655E-01    0.6954063553E+00    0.9942114786E-01    0.5478625326E-03
    0.3100000000E+05    0.3440366635E-01    0.2584667440E-01    0.6954114328E+00    0.1041354739E+00    0.5498981644E-03
    0.3300000000E+05    0.3522470201E-01    0.2647999041E-01    0.6954157772E+00    0.1086949581E+00    0.5518131885E-03
    0.3500000000E+05    0.3596877334E-01    0.2705592975E-01    0.6954195204E+00    0.1131110984E+00    0.5536214535E-03
    0.3700000000E+05    0.3664317205E-01    0.2757986836E-01    0.6954227652E+00    0.1173941818E+00    0.5553345336E-03
    0.3900000000E+05    0.3725434758E-01    0.2805656420E-01    0.6954255929E+00    0.1215534432E+00    0.5569622029E-03
    0.4100000000E+05    0.3780802292E-01    0.2849024197E-01    0.6954280683E+00    0.1255971995E+00    0.5585127911E-03
    0.4300000000E+05    0.3830929207E-01    0.2888466449E-01    0.6954302439E+00    0.1295329628E+00    0.5599934567E-03
    0.4500000000E+05    0.3876270232E-01    0.2924319293E-01    0.6954321627E+00    0.1333675382E+00    0.5614103969E-03
    0.4700000000E+05    0.3917232414E-01    0.2956883803E-01    0.6954338599E+00    0.1371071068E+00    0.5627690134E-03
    0.4900000000E+05    0.3954181071E-01    0.2986430372E-01    0.6954353649E+00    0.1407572975E+00    0.5640740432E-03
    0.1000000000E+05    0.1437758396E-01    0.1072411215E-01    0.6952304069E+00    0.3468584406E-01    0.1407818830E-02
    0.3000000000E+05    0.3396174443E-01    0.2550662666E-01    0.6954089953E+00    0.1017984370E+00    0.5488963950E-03
    0.5000000000E+05    0.3971254348E-01    0.3000148967E-01    0.6954360531E+00    0.1425504996E+00    0.5647077880E-03
    0.7000000000E+05    0.4166498740E-01    0.3163912420E-01    0.6954440156E+00    0.1747606520E+00    0.5753666654E-03
    0.9000000000E+05    0.4190459631E-01    0.3196843941E-01    0.6954464053E+00    0.2018740576E+00    0.5834576078E-03
    0.1100000000E+06    0.4129277292E-01    0.3163450478E-01    0.6954466188E+00    0.2255446840E+00    0.5899991044E-03
    0.1300000000E+06    0.4023842935E-01    0.3094647466E-01    0.6954458532E+00    0.2466861706E+00    0.5955003305E-03
    0.1500000000E+06    0.3895466530E-01    0.3006726410E-01    0.6954446164E+00    0.2658559925E+00    0.6002533230E-03
    0.1700000000E+06    0.3755994220E-01    0.2908863563E-01    0.6954431502E+00    0.2834209002E+00    0.6044414837E-03
    0.1900000000E+06    0.3612308893E-01    0.2806475637E-01    0.6954415791E+00    0.2996369771E+00    0.6081876954E-03
    0.2100000000E+06    0.3468522958E-01    0.2702863036E-01    0.6954399704E+00    0.3146919214E+00    0.6115783993E-03
    0.2300000000E+06    0.3327125449E-01    0.2600074236E-01    0.6954383617E+00    0.3287289521E+00    0.6146767573E-03
    0.2500000000E+06    0.3189617390E-01    0.2499387430E-01    0.6954367743E+00    0.3418610854E+00    0.6175303515E-03
    0.2700000000E+06    0.3056880537E-01    0.2401591918E-01    0.6954352198E+00    0.3541800521E+00    0.6201759368E-03
    0.2900000000E+06    0.2929399856E-01    0.2307159125E-01    0.6954337048E+00    0.3657620831E+00    0.6226425061E-03
    0.3100000000E+06    0.2807402154E-01    0.2216350030E-01    0.6954322322E+00    0.3766717878E+00    0.6249533398E-03
    0.3300000000E+06    0.2690944852E-01    0.2129284582E-01    0.6954308032E+00    0.3869648286E+00    0.6271274198E-03
    0.3500000000E+06    0.2579974106E-01    0.2045987616E-01    0.6954294175E+00    0.3966898151E+00    0.6291804302E-03
    0.3700000000E+06    0.2474363590E-01    0.1966419828E-01    0.6954280742E+00    0.4058896756E+00    0.6311254821E-03
    0.3900000000E+06    0.2373940743E-01    0.1890499029E-01    0.6954267721E+00    0.4146026740E+00    0.6329736496E-03
    0.4100000000E+06    0.2278504739E-01    0.1818114900E-01    0.6954255095E+00    0.4228631784E+00    0.6347343725E-03
    0.4300000000E+06    0.2187838879E-01    0.1749139352E-01    0.6954242847E+00    0.4307022533E+00    0.6364157638E-03
    0.4500000000E+06    0.2101719165E-01    0.1683433845E-01    0.6954230962E+00    0.4381481248E+00    0.6380248488E-03
    0.4700000000E+06    0.2019920230E-01    0.1620854573E-01    0.6954219421E+00    0.4452265525E+00    0.6395677512E-03
    0.4900000000E+06    0.1942219408E-01    0.1561256138E-01    0.6954208209E+00    0.4519611310E+00    0.6410498423E-03
    0.1000000000E+06    0.4167312859E-01    0.3186026668E-01    0.6954466845E+00    0.2140713714E+00    0.5868831322E-03
    0.3000000000E+06    0.2867708871E-01    0.2261291440E-01    0.6954329631E+00    0.3712973129E+00    0.6238161161E-03
    0.5000000000E+06    0.1904837643E-01    0.1532529516E-01    0.6954202721E+00    0.4552063202E+00    0.6417695860E-03
    0.7000000000E+06    0.1324181740E-01    0.1081630177E-01    0.6954106753E+00    0.5064987241E+00    0.6538761060E-03
    0.9000000000E+06    0.9624129610E-02    0.7957635925E-02    0.6954030195E+00    0.5400453955E+00    0.6630671417E-03
    0.1100000000E+07    0.7262681485E-02    0.6066566172E-02    0.6953966550E+00    0.5631805243E+00    0.6704986065E-03
    0.1300000000E+07    0.5652898144E-02    0.4763374524E-02    0.6953912064E+00    0.5798462178E+00    0.6767485611E-03
    0.1500000000E+07    0.4513491139E-02    0.3832493248E-02    0.6953864401E+00    0.5922918346E+00    0.6821486155E-03
    0.1700000000E+07    0.3680799608E-02    0.3146785480E-02    0.6953822017E+00    0.6018681521E+00    0.6869070502E-03
    0.1900000000E+07    0.3055480828E-02    0.2628237129E-02    0.6953783841E+00    0.6094233686E+00    0.6911634299E-03
    0.2100000000E+07    0.2574853416E-02    0.2227177113E-02    0.6953749095E+00    0.6155112313E+00    0.6950159376E-03
    0.2300000000E+07    0.2197981435E-02    0.1910913340E-02    0.6953717204E+00    0.6205057136E+00    0.6985363184E-03
    0.2500000000E+07    0.1897304722E-02    0.1657285382E-02    0.6953687722E+00    0.6246669545E+00    0.7017786229E-03
    0.2700000000E+07    0.1653763714E-02    0.1450874596E-02    0.6953660305E+00    0.6281806522E+00    0.7047846040E-03
    0.2900000000E+07    0.1453861033E-02    0.1280701986E-02    0.6953634675E+00    0.6311824170E+00    0.7075871979E-03
    0.3100000000E+07    0.1287834782E-02    0.1138787285E-02    0.6953610608E+00    0.6337732944E+00    0.7102128522E-03
    0.3300000000E+07    0.1148490866E-02    0.1019222310E-02    0.6953587920E+00    0.6360299334E+00    0.7126831316E-03
    0.3500000000E+07    0.1030437589E-02    0.9175602341E-03    0.6953566459E+00    0.6380114127E+00    0.7150158543E-03
    0.3700000000E+07    0.9295724343E-03    0.8304040680E-03    0.6953546094E+00    0.6397639258E+00    0.7172259161E-03
    0.3900000000E+07    0.8427307980E-03    0.7551237130E-03    0.6953526717E+00    0.6413240610E+00    0.7193258983E-03
    0.4100000000E+07    0.7674410547E-03    0.6896578385E-03    0.6953508234E+00    0.6427211400E+00    0.7213265257E-03
    0.4300000000E+07    0.7017508340E-03    0.6323728148E-03    0.6953490564E+00    0.6439789122E+00    0.7232370160E-03
    0.4500000000E+07    0.6441018828E-03    0.5819607261E-03    0.6953473636E+00    0.6451168013E+00    0.7250653507E-03
    0.4700000000E+07    0.5932386332E-03    0.5373645989E-03    0.6953457390E+00    0.6461508353E+00    0.7268184875E-03
    0.4900000000E+07    0.5481405159E-03    0.4977228712E-03    0.6953441771E+00    0.6470943487E+00    0.7285025290E-03
    0.1000000000E+07    0.8324921830E-02    0.6919983132E-02    0.6953997037E+00    0.5526147737E+00    0.6669586553E-03
    0.3000000000E+07    0.1367112682E-02    0.1206621871E-02    0.6953622458E+00    0.6325239470E+00    0.7089206954E-03
    0.5000000000E+07    0.5274859632E-03    0.4795336128E-03    0.6953434181E+00    0.6475357252E+00    0.7293203460E-03
    0.7000000000E+07    0.2763978263E-03    0.2562809757E-03    0.6953306135E+00    0.6535639704E+00    0.7430765708E-03
    0.9000000000E+07    0.1694619145E-03    0.1594753606E-03    0.6953208533E+00    0.6567781341E+00    0.7535200715E-03
    0.1100000000E+08    0.1143232918E-03    0.1088709908E-03    0.6953129429E+00    0.6587674301E+00    0.7619642339E-03
    0.1300000000E+08    0.8225086596E-04    0.7910713322E-04    0.6953062797E+00    0.6601173780E+00    0.7690658805E-03
    0.1500000000E+08    0.6197790602E-04    0.6011670267E-04    0.6953005161E+00    0.6610925503E+00    0.7752018068E-03
    0.1700000000E+08    0.4835872639E-04    0.4725569355E-04    0.6952954330E+00    0.6618295670E+00    0.7806086755E-03
    0.1900000000E+08    0.3877341009E-04    0.3813942777E-04    0.6952908832E+00    0.6624059715E+00    0.7854450703E-03
    0.2100000000E+08    0.3177448804E-04    0.3144060738E-04    0.6952867629E+00    0.6628689990E+00    0.7898225540E-03
    0.2300000000E+08    0.2650959100E-04    0.2637247741E-04    0.6952829961E+00    0.6632490453E+00    0.7938226490E-03
    0.2500000000E+08    0.2245039888E-04    0.2244449956E-04    0.6952795256E+00    0.6635665476E+00    0.7975067719E-03
    0.2700000000E+08    0.1925536584E-04    0.1933784738E-04    0.6952763070E+00    0.6638357495E+00    0.8009223655E-03
