  Pressure (Pa) 22mC5-500 (mol/kg) 23mC5-500 (mol/kg) 24mC5-500 (mol/kg) 3mC6-500 (mol/kg) C7-500 (mol/kg)
    0.1000000000E+01    0.3512935278E-05    0.2016122510E-05    0.2487138210E+00    0.3061079271E-05    0.4145532733E-02
    0.3000000000E+01    0.5678382532E-05    0.3247950013E-05    0.4351456088E+00    0.7548887291E-05    0.4168511948E-02
    0.5000000000E+01    0.6498426227E-05    0.3714316156E-05    0.5118863251E+00    0.1161166366E-04    0.4173819736E-02
    0.7000000000E+01    0.7011534059E-05    0.4009731464E-05    0.5537388620E+00    0.1547154471E-04    0.4176106355E-02
    0.9000000000E+01    0.7431290198E-05    0.4254755769E-05    0.5800883448E+00    0.1920202793E-04    0.4177286353E-02
    0.1100000000E+02    0.7820523015E-05    0.4484248424E-05    0.5982026990E+00    0.2283953021E-04    0.4177933277E-02
    0.1300000000E+02    0.8201247904E-05    0.4710143601E-05    0.6114208278E+00    0.2640558449E-04    0.4178281943E-02
    0.1500000000E+02    0.8581836381E-05    0.4936820437E-05    0.6214915354E+00    0.2991431017E-04    0.4178446939E-02
    0.1700000000E+02    0.8965480094E-05    0.5165841679E-05    0.6294193943E+00    0.3337562362E-04    0.4178490982E-02
    0.1900000000E+02    0.9353249298E-05    0.5397645216E-05    0.6358225754E+00    0.3679684013E-04    0.4178451323E-02
    0.2100000000E+02    0.9745314866E-05    0.5632209886E-05    0.6411023334E+00    0.4018355963E-04    0.4178351486E-02
    0.2300000000E+02    0.1014147093E-04    0.5869334827E-05    0.6455304789E+00    0.4354019462E-04    0.4178207054E-02
    0.2500000000E+02    0.1054136811E-04    0.6108760868E-05    0.6492976804E+00    0.4687030365E-04    0.4178028753E-02
    0.2700000000E+02    0.1094461935E-04    0.6350223539E-05    0.6525416407E+00    0.5017681186E-04    0.4177824204E-02
    0.2900000000E+02    0.1135084738E-04    0.6593475269E-05    0.6553642938E+00    0.5346216238E-04    0.4177598964E-02
    0.3100000000E+02    0.1175970448E-04    0.6838293446E-05    0.6578427109E+00    0.5672842360E-04    0.4177357177E-02
    0.3300000000E+02    0.1217087915E-04    0.7084481997E-05    0.6600362451E+00    0.5997736719E-04    0.4177101995E-02
    0.3500000000E+02    0.1258409653E-04    0.7331870101E-05    0.6619913459E+00    0.6321052607E-04    0.4176835853E-02
    0.3700000000E+02    0.1299911618E-04    0.7580309789E-05    0.6637448857E+00    0.6642923846E-04    0.4176560660E-02
    0.3900000000E+02    0.1341572863E-04    0.7829673218E-05    0.6653265064E+00    0.6963468179E-04    0.4176277933E-02
    0.4100000000E+02    0.1383375179E-04    0.8079850034E-05    0.6667603094E+00    0.7282789933E-04    0.4175988890E-02
    0.4300000000E+02    0.1425302745E-04    0.8330744954E-05    0.6680660922E+00    0.7600982131E-04    0.4175694520E-02
    0.4500000000E+02    0.1467341817E-04    0.8582275640E-05    0.6692602680E+00    0.7918128184E-04    0.4175395632E-02
    0.4700000000E+02    0.1509480439E-04    0.8834370852E-05    0.6703565591E+00    0.8234303275E-04    0.4175092895E-02
    0.4900000000E+02    0.1551708203E-04    0.9086968863E-05    0.6713665270E+00    0.8549575482E-04    0.4174786863E-02
    0.1000000000E+02    0.7627858305E-05    0.4370426145E-05    0.5899131700E+00    0.2103082638E-04    0.4177657621E-02
    0.3000000000E+02    0.1155496764E-04    0.6715701422E-05    0.6566424723E+00    0.5509756223E-04    0.4177479922E-02
    0.5000000000E+02    0.1572852632E-04    0.9213439395E-05    0.6718422645E+00    0.8706892571E-04    0.4174632761E-02
    0.7000000000E+02    0.1998755953E-04    0.1175949606E-04    0.6785741258E+00    0.1181833727E-03    0.4171458492E-02
    0.9000000000E+02    0.2428115103E-04    0.1432416677E-04    0.6823726978E+00    0.1488609016E-03    0.4168209127E-02
    0.1100000000E+03    0.2859593441E-04    0.1690010082E-04    0.6848122027E+00    0.1793129165E-03    0.4164942561E-02
    0.1300000000E+03    0.3292932153E-04    0.1948615430E-04    0.6865113366E+00    0.2096664446E-03    0.4161674883E-02
    0.1500000000E+03    0.3728224011E-04    0.2208313782E-04    0.6877627363E+00    0.2400063748E-03    0.4158409877E-02
    0.1700000000E+03    0.4165679802E-04    0.2469248015E-04    0.6887227698E+00    0.2703937158E-03    0.4155147148E-02
    0.1900000000E+03    0.4605544498E-04    0.2731576106E-04    0.6894825840E+00    0.3008747405E-03    0.4151884821E-02
    0.2100000000E+03    0.5048065628E-04    0.2995454169E-04    0.6900988981E+00    0.3314860517E-03    0.4148620551E-02
    0.2300000000E+03    0.5493481585E-04    0.3261030622E-04    0.6906088563E+00    0.3622576071E-03    0.4145351919E-02
    0.2500000000E+03    0.5942017987E-04    0.3528444718E-04    0.6910378016E+00    0.3932146304E-03    0.4142076590E-02
    0.2700000000E+03    0.6393887334E-04    0.3797826799E-04    0.6914036176E+00    0.4243788769E-03    0.4138792367E-02
    0.2900000000E+03    0.6849289977E-04    0.4069299173E-04    0.6917192850E+00    0.4557695025E-03    0.4135497202E-02
    0.3100000000E+03    0.7308415540E-04    0.4342977170E-04    0.6919944540E+00    0.4874036796E-03    0.4132189193E-02
    0.3300000000E+03    0.7771444418E-04    0.4618970174E-04    0.6922364480E+00    0.5192970456E-03    0.4128866570E-02
    0.3500000000E+03    0.8238549188E-04    0.4897382573E-04    0.6924509252E+00    0.5514640368E-03    0.4125527680E-02
    0.3700000000E+03    0.8709895889E-04    0.5178314595E-04    0.6926423261E+00    0.5839181425E-03    0.4122170973E-02
    0.3900000000E+03    0.9185645157E-04    0.5461863037E-04    0.6928141846E+00    0.6166721011E-03    0.4118794986E-02
    0.4100000000E+03    0.9665953206E-04    0.5748121900E-04    0.6929693482E+00    0.6497380552E-03    0.4115398331E-02
    0.4300000000E+03    0.1015097270E-03    0.6037182926E-04    0.6931101368E+00    0.6831276745E-03    0.4111979689E-02
    0.4500000000E+03    0.1064085348E-03    0.6329136081E-04    0.6932384593E+00    0.7168522562E-03    0.4108537794E-02
    0.4700000000E+03    0.1113574325E-03    0.6624069954E-04    0.6933559011E+00    0.7509228062E-03    0.4105071427E-02
    0.4900000000E+03    0.1163578814E-03    0.6922072126E-04    0.6934637897E+00    0.7853501076E-03    0.4101579411E-02
    0.1000000000E+03    0.2643618403E-04    0.1561086982E-04    0.6837122696E+00    0.1641058551E-03    0.4166576534E-02
    0.3000000000E+03    0.7078375920E-04    0.4205855505E-04    0.6918614286E+00    0.4715551382E-03    0.4133844916E-02
    0.5000000000E+03    0.1188778911E-03    0.7072250993E-04    0.6935145086E+00    0.8027008630E-03    0.4099823426E-02
    0.7000000000E+03    0.1723398273E-03    0.1025817037E-03    0.6942253133E+00    0.1171012365E-02    0.4063089425E-02
    0.9000000000E+03    0.2326695889E-03    0.1385327502E-03    0.6946207835E+00    0.1587237551E-02    0.4022567767E-02
    0.1100000000E+04    0.3015779930E-03    0.1795963422E-03    0.6948726453E+00    0.2063413323E-02    0.3977169346E-02
    0.1300000000E+04    0.3811781810E-03    0.2270325863E-03    0.6950470920E+00    0.2614372339E-02    0.3925627734E-02
    0.1500000000E+04    0.4741794551E-03    0.2824568754E-03    0.6951750551E+00    0.3259144571E-02    0.3866374216E-02
    0.1700000000E+04    0.5841372293E-03    0.3479890447E-03    0.6952729251E+00    0.4022738165E-02    0.3797397910E-02
    0.1900000000E+04    0.7158012523E-03    0.4264610925E-03    0.6953501974E+00    0.4938618910E-02    0.3716063628E-02
    0.2100000000E+04    0.8756119086E-03    0.5217132264E-03    0.6954127530E+00    0.6052253670E-02    0.3618863673E-02
    0.2300000000E+04    0.1072405272E-02    0.6390144744E-03    0.6954644288E+00    0.7426166935E-02    0.3501081052E-02
    0.2500000000E+04    0.1318382672E-02    0.7856412193E-03    0.6955078347E+00    0.9146943793E-02    0.3356355733E-02
    0.2700000000E+04    0.1630325142E-02    0.9716021446E-03    0.6955448076E+00    0.1133411756E-01    0.3176207003E-02
    0.2900000000E+04    0.2030731618E-02    0.1210318497E-02    0.6955766781E+00    0.1414881688E-01    0.2949761355E-02
    0.3100000000E+04    0.2547657552E-02    0.1518530788E-02    0.6956044335E+00    0.1779375652E-01    0.2664456856E-02
    0.3300000000E+04    0.3209938293E-02    0.1913455417E-02    0.6956288219E+00    0.2248134173E-01    0.2309571478E-02
    0.3500000000E+04    0.4031688245E-02    0.2403547291E-02    0.6956504203E+00    0.2832625299E-01    0.1885492323E-02
    0.3700000000E+04    0.4983265233E-02    0.2971185717E-02    0.6956696812E+00    0.3514001950E-01    0.1418643258E-02
    0.3900000000E+04    0.5970094424E-02    0.3560028356E-02    0.6956869642E+00    0.4227405611E-01    0.9681517645E-03
    0.4100000000E+04    0.6866362274E-02    0.4095068848E-02    0.6957025587E+00    0.4884491851E-01    0.6007711475E-03
    0.4300000000E+04    0.7593679207E-02    0.4529531903E-02    0.6957167005E+00    0.5428627282E-01    0.3479289144E-03
    0.4500000000E+04    0.8153026313E-02    0.4863951742E-02    0.6957295831E+00    0.5858580127E-01    0.1961398617E-03
    0.4700000000E+04    0.8588272386E-02    0.5124447808E-02    0.6957413673E+00    0.6203882690E-01    0.1129562912E-03
    0.4900000000E+04    0.8944922911E-02    0.5338133663E-02    0.6957521878E+00    0.6495918294E-01    0.6972517983E-04
    0.1000000000E+04    0.2659309176E-03    0.1583535889E-03    0.6947592894E+00    0.1816985471E-02    0.4000551676E-02
    0.3000000000E+04    0.2272734108E-02    0.1354606295E-02    0.6955910188E+00    0.1585369640E-01    0.2815252897E-02
    0.5000000000E+04    0.9104298894E-02    0.5433695073E-02    0.6957572728E+00    0.6629287148E-01    0.5693306213E-04
    0.7000000000E+04    0.1153269704E-01    0.6894351282E-02    0.6958284015E+00    0.8851287246E-01    0.2668103844E-04
    0.9000000000E+04    0.1339678008E-01    0.8021586560E-02    0.6958678391E+00    0.1081877121E+00    0.2702694678E-04
    0.1100000000E+05    0.1486782034E-01    0.8916372620E-02    0.6958928828E+00    0.1261300642E+00    0.2733048397E-04
    0.1300000000E+05    0.1602620580E-01    0.9625806235E-02    0.6959101828E+00    0.1426083429E+00    0.2758573257E-04
    0.1500000000E+05    0.1693349613E-01    0.1018599849E-01    0.6959228410E+00    0.1578347270E+00    0.2780623507E-04
    0.1700000000E+05    0.1763749864E-01    0.1062503168E-01    0.6959324985E+00    0.1719796197E+00    0.2800051519E-04
    0.1900000000E+05    0.1817577470E-01    0.1096500184E-01    0.6959401051E+00    0.1851815619E+00    0.2817428184E-04
    0.2100000000E+05    0.1857814423E-01    0.1122347830E-01    0.6959462482E+00    0.1975544514E+00    0.2833154980E-04
    0.2300000000E+05    0.1886850335E-01    0.1141456349E-01    0.6959513107E+00    0.2091928828E+00    0.2847525195E-04
    0.2500000000E+05    0.1906616279E-01    0.1154967370E-01    0.6959555529E+00    0.2201761544E+00    0.2860759736E-04
    0.2700000000E+05    0.1918684656E-01    0.1163812202E-01    0.6959591577E+00    0.2305713153E+00    0.2873029217E-04
    0.2900000000E+05    0.1924344613E-01    0.1168755880E-01    0.6959622577E+00    0.2404355087E+00    0.2884468207E-04
    0.3100000000E+05    0.1924659631E-01    0.1170430820E-01    0.6959649508E+00    0.2498177954E+00    0.2895184748E-04
    0.3300000000E+05    0.1920511956E-01    0.1169362803E-01    0.6959673116E+00    0.2587605865E+00    0.2905266926E-04
    0.3500000000E+05    0.1912637194E-01    0.1165991223E-01    0.6959693972E+00    0.2673007791E+00    0.2914787519E-04
    0.3700000000E+05    0.1901651491E-01    0.1160685006E-01    0.6959712526E+00    0.2754706655E+00    0.2923807361E-04
    0.3900000000E+05    0.1888073061E-01    0.1153755227E-01    0.6959729134E+00    0.2832986664E+00    0.2932377831E-04
    0.4100000000E+05    0.1872339356E-01    0.1145465186E-01    0.6959744082E+00    0.2908099260E+00    0.2940542724E-04
    0.4300000000E+05    0.1854820877E-01    0.1136038514E-01    0.6959757605E+00    0.2980268000E+00    0.2948339679E-04
    0.4500000000E+05    0.1835832332E-01    0.1125665735E-01    0.6959769893E+00    0.3049692569E+00    0.2955801285E-04
    0.4700000000E+05    0.1815641724E-01    0.1114509610E-01    0.6959781105E+00    0.3116552108E+00    0.2962955950E-04
    0.4900000000E+05    0.1794477790E-01    0.1102709518E-01    0.6959791375E+00    0.3181007988E+00    0.2969828588E-04
    0.1000000000E+05    0.1417589032E-01    0.8494791183E-02    0.6958816198E+00    0.1173571352E+00    0.2718588974E-04
    0.3000000000E+05    0.1925111298E-01    0.1169966843E-01    0.6959636500E+00    0.2451840984E+00    0.2889910872E-04
    0.5000000000E+05    0.1783593097E-01    0.1096606048E-01    0.6959796192E+00    0.3212380707E+00    0.2973166117E-04
    0.7000000000E+05    0.1549438098E-01    0.9620726347E-02    0.6959862768E+00    0.3742745875E+00    0.3029304541E-04
    0.9000000000E+05    0.1326712733E-01    0.8308576723E-02    0.6959898704E+00    0.4139495109E+00    0.3071923200E-04
    0.1100000000E+06    0.1135732677E-01    0.7166504362E-02    0.6959920895E+00    0.4448375855E+00    0.3106382720E-04
    0.1300000000E+06    0.9768242988E-02    0.6205593863E-02    0.6959935782E+00    0.4695404512E+00    0.3135363699E-04
    0.1500000000E+06    0.8455834550E-02    0.5404771383E-02    0.6959946348E+00    0.4897003065E+00    0.3160403825E-04
    0.1700000000E+06    0.7370574371E-02    0.4737425875E-02    0.6959954156E+00    0.5064224736E+00    0.3182468879E-04
    0.1900000000E+06    0.6468724525E-02    0.4179103236E-02    0.6959960104E+00    0.5204835766E+00    0.3202206005E-04
    0.2100000000E+06    0.5714436895E-02    0.3709310603E-02    0.6959964742E+00    0.5324465476E+00    0.3220070456E-04
    0.2300000000E+06    0.5079137921E-02    0.3311464405E-02    0.6959968427E+00    0.5427293915E+00    0.3236394901E-04
    0.2500000000E+06    0.4540269519E-02    0.2972321100E-02    0.6959971399E+00    0.5516486673E+00    0.3251429960E-04
    0.2700000000E+06    0.4080044029E-02    0.2681340449E-02    0.6959973824E+00    0.5594481346E+00    0.3265369229E-04
    0.2900000000E+06    0.3684393984E-02    0.2430121283E-02    0.6959975823E+00    0.5663182310E+00    0.3278365425E-04
    0.3100000000E+06    0.3342137588E-02    0.2211940468E-02    0.6959977483E+00    0.5724096527E+00    0.3290541181E-04
    0.3300000000E+06    0.3044332261E-02    0.2021388992E-02    0.6959978871E+00    0.5778430236E+00    0.3301996485E-04
    0.3500000000E+06    0.2783778978E-02    0.1854089044E-02    0.6959980037E+00    0.5827159043E+00    0.3312813957E-04
    0.3700000000E+06    0.2554643222E-02    0.1706475273E-02    0.6959981021E+00    0.5871079513E+00    0.3323062664E-04
    0.3900000000E+06    0.2352164699E-02    0.1575625754E-02    0.6959981852E+00    0.5910847695E+00    0.3332800944E-04
    0.4100000000E+06    0.2172434184E-02    0.1459131046E-02    0.6959982557E+00    0.5947008240E+00    0.3342078524E-04
    0.4300000000E+06    0.2012221106E-02    0.1354992348E-02    0.6959983154E+00    0.5980016664E+00    0.3350938145E-04
    0.4500000000E+06    0.1868839570E-02    0.1261541892E-02    0.6959983659E+00    0.6010256550E+00    0.3359416815E-04
    0.4700000000E+06    0.1740043606E-02    0.1177380375E-02    0.6959984086E+00    0.6038052972E+00    0.3367546796E-04
    0.4900000000E+06    0.1623944756E-02    0.1101327492E-02    0.6959984446E+00    0.6063683055E+00    0.3375356385E-04
    0.1000000000E+06    0.1227034095E-01    0.7714276404E-02    0.6959910993E+00    0.4302994064E+00    0.3089968046E-04
    0.3000000000E+06    0.3507196517E-02    0.2317266276E-02    0.6959976691E+00    0.5694531251E+00    0.3284549149E-04
    0.5000000000E+06    0.1570148021E-02    0.1066022977E-02    0.6959984603E+00    0.6075761310E+00    0.3379148947E-04
    0.7000000000E+06    0.8797492637E-03    0.6085793380E-03    0.6959985796E+00    0.6246551061E+00    0.3442943401E-04
    0.9000000000E+06    0.5601616431E-03    0.3930722211E-03    0.6959985226E+00    0.6342201934E+00    0.3491376452E-04
    0.1100000000E+07    0.3871519123E-03    0.2748213824E-03    0.6959984069E+00    0.6403038628E+00    0.3530538190E-04
    0.1300000000E+07    0.2832508808E-03    0.2030220161E-03    0.6959982713E+00    0.6445035434E+00    0.3563474311E-04
    0.1500000000E+07    0.2160759751E-03    0.1561699765E-03    0.6959981307E+00    0.6475728379E+00    0.3591932052E-04
    0.1700000000E+07    0.1701843235E-03    0.1239048501E-03    0.6959979914E+00    0.6499121034E+00    0.3617008855E-04
    0.1900000000E+07    0.1374633378E-03    0.1007366767E-03    0.6959978563E+00    0.6517531777E+00    0.3639440104E-04
    0.2100000000E+07    0.1133232829E-03    0.8353602554E-04    0.6959977263E+00    0.6532393954E+00    0.3659743144E-04
    0.2300000000E+07    0.9501056477E-04    0.7041286089E-04    0.6959976018E+00    0.6544640507E+00    0.3678296022E-04
    0.2500000000E+07    0.8079258602E-04    0.6017081774E-04    0.6959974827E+00    0.6554904403E+00    0.3695383547E-04
    0.2700000000E+07    0.6953530514E-04    0.5202257730E-04    0.6959973690E+00    0.6563630015E+00    0.3711225728E-04
    0.2900000000E+07    0.6047138074E-04    0.4543275339E-04    0.6959972602E+00    0.6571138385E+00    0.3725996122E-04
    0.3100000000E+07    0.5306665644E-04    0.4002694561E-04    0.6959971560E+00    0.6577667172E+00    0.3739834091E-04
    0.3300000000E+07    0.4694007309E-04    0.3553692434E-04    0.6959970562E+00    0.6583396036E+00    0.3752853272E-04
    0.3500000000E+07    0.4181391135E-04    0.3176642440E-04    0.6959969604E+00    0.6588463290E+00    0.3765147557E-04
    0.3700000000E+07    0.3748191884E-04    0.2856914355E-04    0.6959968684E+00    0.6592977140E+00    0.3776795440E-04
    0.3900000000E+07    0.3378833809E-04    0.2583421004E-04    0.6959967799E+00    0.6597023439E+00    0.3787863220E-04
    0.4100000000E+07    0.3061377527E-04    0.2347635527E-04    0.6959966946E+00    0.6600671174E+00    0.3798407412E-04
    0.4300000000E+07    0.2786547446E-04    0.2142912712E-04    0.6959966124E+00    0.6603976409E+00    0.3808476590E-04
    0.4500000000E+07    0.2547049545E-04    0.1964011408E-04    0.6959965330E+00    0.6606985174E+00    0.3818112814E-04
    0.4700000000E+07    0.2337084536E-04    0.1806752691E-04    0.6959964562E+00    0.6609735609E+00    0.3827352748E-04
    0.4900000000E+07    0.2151995012E-04    0.1667771373E-04    0.6959963819E+00    0.6612259588E+00    0.3836228552E-04
    0.1000000000E+07    0.4618094773E-03    0.3260217863E-03    0.6959984688E+00    0.6375679269E+00    0.3511883539E-04
    0.3000000000E+07    0.5658832991E-04    0.4260062443E-04    0.6959972075E+00    0.6574512866E+00    0.3733024034E-04
    0.5000000000E+07    0.2067570062E-04    0.1604259529E-04    0.6959963457E+00    0.6613445213E+00    0.3840538901E-04
    0.7000000000E+07    0.1059774651E-04    0.8388060870E-05    0.6959957199E+00    0.6629999268E+00    0.3913043113E-04
    0.9000000000E+07    0.6422195795E-05    0.5158813898E-05    0.6959952282E+00    0.6639158403E+00    0.3968088744E-04
    0.1100000000E+08    0.4302061946E-05    0.3496503814E-05    0.6959948225E+00    0.6644972308E+00    0.4012597279E-04
    0.1300000000E+08    0.3080887353E-05    0.2528350243E-05    0.6959944766E+00    0.6648990470E+00    0.4050030219E-04
    0.1500000000E+08    0.2314201294E-05    0.1914830877E-05    0.6959941747E+00    0.6651933500E+00    0.4082373344E-04
    0.1700000000E+08    0.1801691817E-05    0.1501405620E-05    0.6959939067E+00    0.6654181962E+00    0.4110873926E-04
    0.1900000000E+08    0.1442334035E-05    0.1209473548E-05    0.6959936654E+00    0.6655955777E+00    0.4136367752E-04
    0.2100000000E+08    0.1180709040E-05    0.9955985961E-06    0.6959934459E+00    0.6657390888E+00    0.4159442802E-04
    0.2300000000E+08    0.9843626581E-06    0.8341775551E-06    0.6959932444E+00    0.6658575851E+00    0.4180528734E-04
    0.2500000000E+08    0.8332679360E-06    0.7093182509E-06    0.6959930582E+00    0.6659570826E+00    0.4199949244E-04
    0.2700000000E+08    0.7145247892E-06    0.6107293452E-06    0.6959928849E+00    0.6660418116E+00    0.4217954381E-04
