  Pressure (Pa) 22mC5-500 (mol/kg) 23mC5-500 (mol/kg) 24mC5-500 (mol/kg) 3mC6-500 (mol/kg) C7-500 (mol/kg)
    0.1000000000E+01    0.3814218783E-05    0.2189940348E-05    0.2142851559E+00    0.5103333492E-05    0.4145614927E-02
    0.3000000000E+01    0.6551266311E-05    0.3748612300E-05    0.3978635532E+00    0.1259172462E-04    0.4169262841E-02
    0.5000000000E+01    0.7631042644E-05    0.4360931684E-05    0.4801294796E+00    0.1937781559E-04    0.4174897823E-02
    0.7000000000E+01    0.8260075029E-05    0.4719791419E-05    0.5268135016E+00    0.2583121887E-04    0.4177304238E-02
    0.9000000000E+01    0.8729969630E-05    0.4990932405E-05    0.5568959901E+00    0.3207410091E-04    0.4178490572E-02
    0.1100000000E+02    0.9136974882E-05    0.5228416397E-05    0.5778957280E+00    0.3816693969E-04    0.4179077363E-02
    0.1300000000E+02    0.9518724849E-05    0.5453081300E-05    0.5933867046E+00    0.4414546646E-04    0.4179324353E-02
    0.1500000000E+02    0.9891483985E-05    0.5673767652E-05    0.6052852187E+00    0.5003309359E-04    0.4179360328E-02
    0.1700000000E+02    0.1026268044E-04    0.5894410043E-05    0.6147111052E+00    0.5584625318E-04    0.4179256607E-02
    0.1900000000E+02    0.1063576257E-04    0.6116763006E-05    0.6223625765E+00    0.6159705998E-04    0.4179055915E-02
    0.2100000000E+02    0.1101227942E-04    0.6341558208E-05    0.6286975806E+00    0.6729478306E-04    0.4178785403E-02
    0.2300000000E+02    0.1139284032E-04    0.6569032577E-05    0.6340289623E+00    0.7294672266E-04    0.4178463136E-02
    0.2500000000E+02    0.1177758244E-04    0.6799182413E-05    0.6385777163E+00    0.7855876386E-04    0.4178101592E-02
    0.2700000000E+02    0.1216640793E-04    0.7031890293E-05    0.6425043902E+00    0.8413574265E-04    0.4177709652E-02
    0.2900000000E+02    0.1255910758E-04    0.7266989910E-05    0.6459284296E+00    0.8968169706E-04    0.4177293800E-02
    0.3100000000E+02    0.1295542619E-04    0.7504299464E-05    0.6489405395E+00    0.9520004514E-04    0.4176858875E-02
    0.3300000000E+02    0.1335509721E-04    0.7743638660E-05    0.6516108386E+00    0.1006937142E-03    0.4176408551E-02
    0.3500000000E+02    0.1375786071E-04    0.7984836996E-05    0.6539943856E+00    0.1061652369E-03    0.4175945667E-02
    0.3700000000E+02    0.1416347224E-04    0.8227737386E-05    0.6561350170E+00    0.1116168243E-03    0.4175472446E-02
    0.3900000000E+02    0.1457170664E-04    0.8472197285E-05    0.6580680670E+00    0.1170504221E-03    0.4174990648E-02
    0.4100000000E+02    0.1498235907E-04    0.8718088515E-05    0.6598223339E+00    0.1224677544E-03    0.4174501685E-02
    0.4300000000E+02    0.1539524467E-04    0.8965296442E-05    0.6614215244E+00    0.1278703589E-03    0.4174006697E-02
    0.4500000000E+02    0.1581019733E-04    0.9213718862E-05    0.6628853313E+00    0.1332596149E-03    0.4173506616E-02
    0.4700000000E+02    0.1622706821E-04    0.9463264806E-05    0.6642302484E+00    0.1386367662E-03    0.4173002208E-02
    0.4900000000E+02    0.1664572419E-04    0.9713853359E-05    0.6654701947E+00    0.1440029394E-03    0.4172494106E-02
    0.1000000000E+02    0.8938238623E-05    0.5112160729E-05    0.5682531158E+00    0.3513666105E-04    0.4178838184E-02
    0.3000000000E+02    0.1275683117E-04    0.7385379875E-05    0.6474811857E+00    0.9244412870E-04    0.4177078469E-02
    0.5000000000E+02    0.1685568389E-04    0.9839515802E-05    0.6660545709E+00    0.1466822332E-03    0.4172238838E-02
    0.7000000000E+02    0.2112576136E-04    0.1239380854E-04    0.6743450001E+00    0.1998991461E-03    0.4167030164E-02
    0.9000000000E+02    0.2549578259E-04    0.1500563113E-04    0.6790406461E+00    0.2527932006E-03    0.4161733119E-02
    0.1100000000E+03    0.2994140906E-04    0.1766097368E-04    0.6820630059E+00    0.3057210273E-03    0.4156404829E-02
    0.1300000000E+03    0.3445445311E-04    0.2035535262E-04    0.6841712274E+00    0.3589020424E-03    0.4151056370E-02
    0.1500000000E+03    0.3903300089E-04    0.2308790552E-04    0.6857255619E+00    0.4124877524E-03    0.4145686273E-02
    0.1700000000E+03    0.4367783989E-04    0.2585929674E-04    0.6869189448E+00    0.4665916329E-03    0.4140289351E-02
    0.1900000000E+03    0.4839100925E-04    0.2867088114E-04    0.6878640265E+00    0.5213040613E-03    0.4134859452E-02
    0.2100000000E+03    0.5317515999E-04    0.3152434108E-04    0.6886309980E+00    0.5767005822E-03    0.4129390383E-02
    0.2300000000E+03    0.5803325650E-04    0.3442152009E-04    0.6892658724E+00    0.6328468418E-03    0.4123876206E-02
    0.2500000000E+03    0.6296843277E-04    0.3736434487E-04    0.6898000703E+00    0.6898017129E-03    0.4118311315E-02
    0.2700000000E+03    0.6798392319E-04    0.4035478902E-04    0.6902557792E+00    0.7476193714E-03    0.4112690417E-02
    0.2900000000E+03    0.7308303069E-04    0.4339485751E-04    0.6906491132E+00    0.8063507337E-03    0.4107008500E-02
    0.3100000000E+03    0.7826911423E-04    0.4648658160E-04    0.6909920579E+00    0.8660444851E-03    0.4101260776E-02
    0.3300000000E+03    0.8354558658E-04    0.4963201924E-04    0.6912937129E+00    0.9267478422E-03    0.4095442645E-02
    0.3500000000E+03    0.8891591747E-04    0.5283325811E-04    0.6915611112E+00    0.9885071316E-03    0.4089549646E-02
    0.3700000000E+03    0.9438363975E-04    0.5609242027E-04    0.6917997745E+00    0.1051368243E-02    0.4083577424E-02
    0.3900000000E+03    0.9995235701E-04    0.5941166733E-04    0.6920140981E+00    0.1115376995E-02    0.4077521696E-02
    0.4100000000E+03    0.1056257520E-03    0.6279320603E-04    0.6922076246E+00    0.1180579430E-02    0.4071378225E-02
    0.4300000000E+03    0.1114075957E-03    0.6623929388E-04    0.6923832407E+00    0.1247022072E-02    0.4065142793E-02
    0.4500000000E+03    0.1173017558E-03    0.6975224488E-04    0.6925433228E+00    0.1314752142E-02    0.4058811182E-02
    0.4700000000E+03    0.1233122066E-03    0.7333443521E-04    0.6926898443E+00    0.1383817753E-02    0.4052379153E-02
    0.4900000000E+03    0.1294430375E-03    0.7698830891E-04    0.6928244583E+00    0.1454268083E-02    0.4045842429E-02
    0.1000000000E+03    0.2770987134E-04    0.1632826729E-04    0.6806996192E+00    0.2792370689E-03    0.4159071709E-02
    0.3000000000E+03    0.7566498844E-04    0.4493413464E-04    0.6908262590E+00    0.8360743328E-03    0.4104143155E-02
    0.5000000000E+03    0.1325549074E-03    0.7884291074E-04    0.6928877445E+00    0.1490028216E-02    0.4042533456E-02
    0.7000000000E+03    0.2022350399E-03    0.1203686334E-03    0.6937749235E+00    0.2291246110E-02    0.3969741868E-02
    0.9000000000E+03    0.2900116973E-03    0.1726777119E-03    0.6942687250E+00    0.3302340287E-02    0.3880674697E-02
    0.1100000000E+04    0.4038080336E-03    0.2404945976E-03    0.6945832873E+00    0.4616087377E-02    0.3768202700E-02
    0.1300000000E+04    0.5560504749E-03    0.3312282340E-03    0.6948011977E+00    0.6378125506E-02    0.3621543788E-02
    0.1500000000E+04    0.7669002062E-03    0.4568998657E-03    0.6949610618E+00    0.8825450230E-02    0.3423774998E-02
    0.1700000000E+04    0.1069543939E-02    0.6372998974E-03    0.6950833417E+00    0.1234999320E-01    0.3148177444E-02
    0.1900000000E+04    0.1516546714E-02    0.9037822083E-03    0.6951798934E+00    0.1757742269E-01    0.2755204175E-02
    0.2100000000E+04    0.2175287178E-02    0.1296559493E-02    0.6952580612E+00    0.2532438158E-01    0.2202007900E-02
    0.2300000000E+04    0.3067897342E-02    0.1828920378E-02    0.6953226371E+00    0.3591033128E-01    0.1500623002E-02
    0.2500000000E+04    0.4039790899E-02    0.2408819888E-02    0.6953768808E+00    0.4759953224E-01    0.8161908040E-03
    0.2700000000E+04    0.4827192533E-02    0.2879008791E-02    0.6954230871E+00    0.5730887339E-01    0.3631873038E-03
    0.2900000000E+04    0.5362766462E-02    0.3199238576E-02    0.6954629180E+00    0.6418416836E-01    0.1525671752E-03
    0.3100000000E+04    0.5742432173E-02    0.3426616750E-02    0.6954976069E+00    0.6929996623E-01    0.7298740944E-04
    0.3300000000E+04    0.6049703969E-02    0.3610907762E-02    0.6955280884E+00    0.7361894395E-01    0.4548846923E-04
    0.3500000000E+04    0.6323906607E-02    0.3775550900E-02    0.6955550836E+00    0.7759874845E-01    0.3630951003E-04
    0.3700000000E+04    0.6580375688E-02    0.3929686854E-02    0.6955791578E+00    0.8141808708E-01    0.3331011595E-04
    0.3900000000E+04    0.6824836787E-02    0.4076726565E-02    0.6956007601E+00    0.8514279095E-01    0.3236919951E-04
    0.4100000000E+04    0.7059509487E-02    0.4217990159E-02    0.6956202524E+00    0.8879720222E-01    0.3211159861E-04
    0.4300000000E+04    0.7285368723E-02    0.4354055444E-02    0.6956379291E+00    0.9239087367E-01    0.3207989778E-04
    0.4500000000E+04    0.7502946841E-02    0.4485236316E-02    0.6956540321E+00    0.9592811896E-01    0.3212174568E-04
    0.4700000000E+04    0.7712614190E-02    0.4611750173E-02    0.6956687625E+00    0.9941137882E-01    0.3218630414E-04
    0.4900000000E+04    0.7914677101E-02    0.4733776372E-02    0.6956822884E+00    0.1028424031E+00    0.3225662704E-04
    0.1000000000E+04    0.3430157019E-03    0.2042650795E-03    0.6944417043E+00    0.3913868544E-02    0.3827928968E-02
    0.3000000000E+04    0.5565660866E-02    0.3320704855E-02    0.6954808409E+00    0.6688820944E-01    0.1026744906E-03
    0.5000000000E+04    0.8012944123E-02    0.4793157621E-02    0.6956886447E+00    0.1045387937E+00    0.3229201246E-04
    0.7000000000E+04    0.9639178075E-02    0.5780343842E-02    0.6957775630E+00    0.1360380663E+00    0.3290222244E-04
    0.9000000000E+04    0.1075094794E-01    0.6462680235E-02    0.6958268689E+00    0.1636058868E+00    0.3336616320E-04
    0.1100000000E+05    0.1149284098E-01    0.6924919291E-02    0.6958581816E+00    0.1880359625E+00    0.3374109760E-04
    0.1300000000E+05    0.1196515769E-01    0.7225989981E-02    0.6958798137E+00    0.2099108405E+00    0.3405632204E-04
    0.1500000000E+05    0.1223896872E-01    0.7407755885E-02    0.6958956424E+00    0.2296685447E+00    0.3432862150E-04
    0.1700000000E+05    0.1236554610E-01    0.7500504631E-02    0.6959077197E+00    0.2476454785E+00    0.3456852944E-04
    0.1900000000E+05    0.1238244763E-01    0.7526492076E-02    0.6959172326E+00    0.2641048890E+00    0.3478309979E-04
    0.2100000000E+05    0.1231754400E-01    0.7502290376E-02    0.6959249156E+00    0.2792562449E+00    0.3497729266E-04
    0.2300000000E+05    0.1219174534E-01    0.7440379408E-02    0.6959312476E+00    0.2932687345E+00    0.3515473124E-04
    0.2500000000E+05    0.1202088458E-01    0.7350247377E-02    0.6959365538E+00    0.3062808632E+00    0.3531814435E-04
    0.2700000000E+05    0.1181704173E-01    0.7239165790E-02    0.6959410629E+00    0.3184074027E+00    0.3546963944E-04
    0.2900000000E+05    0.1158949016E-01    0.7112744014E-02    0.6959449407E+00    0.3297445096E+00    0.3561087862E-04
    0.3100000000E+05    0.1134538245E-01    0.6975331886E-02    0.6959483098E+00    0.3403735510E+00    0.3574319635E-04
    0.3300000000E+05    0.1109025395E-01    0.6830315850E-02    0.6959512632E+00    0.3503640058E+00    0.3586768055E-04
    0.3500000000E+05    0.1082839687E-01    0.6680339363E-02    0.6959538725E+00    0.3597756923E+00    0.3598523002E-04
    0.3700000000E+05    0.1056314108E-01    0.6527468694E-02    0.6959561939E+00    0.3686604992E+00    0.3609659609E-04
    0.3900000000E+05    0.1029706690E-01    0.6373318850E-02    0.6959582719E+00    0.3770637462E+00    0.3620241326E-04
    0.4100000000E+05    0.1003216777E-01    0.6219150070E-02    0.6959601423E+00    0.3850252639E+00    0.3630322238E-04
    0.4300000000E+05    0.9769975608E-02    0.6065942346E-02    0.6959618344E+00    0.3925802589E+00    0.3639948826E-04
    0.4500000000E+05    0.9511657978E-02    0.5914453405E-02    0.6959633721E+00    0.3997600142E+00    0.3649161335E-04
    0.4700000000E+05    0.9258094029E-02    0.5765264096E-02    0.6959647752E+00    0.4065924602E+00    0.3657994845E-04
    0.4900000000E+05    0.9009934098E-02    0.5618814156E-02    0.6959660605E+00    0.4131026436E+00    0.3666480123E-04
    0.1000000000E+05    0.1116103372E-01    0.6717146578E-02    0.6958440989E+00    0.1761727116E+00    0.3356251692E-04
    0.3000000000E+05    0.1146912687E-01    0.7045180405E-02    0.6959466824E+00    0.3351429463E+00    0.3567807966E-04
    0.5000000000E+05    0.8888033089E-02    0.5546722372E-02    0.6959666633E+00    0.4162440227E+00    0.3670600781E-04
    0.7000000000E+05    0.6785951015E-02    0.4289310803E-02    0.6959749971E+00    0.4666105778E+00    0.3739910902E-04
    0.9000000000E+05    0.5267918589E-02    0.3365466939E-02    0.6959794974E+00    0.5008976513E+00    0.3792528327E-04
    0.1100000000E+06    0.4176778835E-02    0.2692840989E-02    0.6959822776E+00    0.5256322711E+00    0.3835072028E-04
    0.1300000000E+06    0.3378775539E-02    0.2195773501E-02    0.6959841437E+00    0.5442385504E+00    0.3870851729E-04
    0.1500000000E+06    0.2782433733E-02    0.1821037063E-02    0.6959854686E+00    0.5586936728E+00    0.3901765964E-04
    0.1700000000E+06    0.2327281681E-02    0.1532829920E-02    0.6959864482E+00    0.5702173152E+00    0.3929007136E-04
    0.1900000000E+06    0.1973098335E-02    0.1307036191E-02    0.6959871948E+00    0.5796004400E+00    0.3953374230E-04
    0.2100000000E+06    0.1692657317E-02    0.1127165952E-02    0.6959877774E+00    0.5873768861E+00    0.3975429318E-04
    0.2300000000E+06    0.1467145518E-02    0.9817283727E-03    0.6959882405E+00    0.5939190329E+00    0.3995583119E-04
    0.2500000000E+06    0.1283292908E-02    0.8625590902E-03    0.6959886141E+00    0.5994939657E+00    0.4014145050E-04
    0.2700000000E+06    0.1131554881E-02    0.7637480232E-03    0.6959889193E+00    0.6042978775E+00    0.4031354129E-04
    0.2900000000E+06    0.1004941107E-02    0.6809417824E-03    0.6959891710E+00    0.6084779039E+00    0.4047398902E-04
    0.3100000000E+06    0.8982463021E-03    0.6108817365E-03    0.6959893802E+00    0.6121464140E+00    0.4062430769E-04
    0.3300000000E+06    0.8075351546E-03    0.5510925177E-03    0.6959895552E+00    0.6153906151E+00    0.4076573177E-04
    0.3500000000E+06    0.7297909598E-03    0.4996682169E-03    0.6959897024E+00    0.6182791625E+00    0.4089928127E-04
    0.3700000000E+06    0.6626717085E-03    0.4551231364E-03    0.6959898267E+00    0.6208668034E+00    0.4102580891E-04
    0.3900000000E+06    0.6043379692E-03    0.4162859436E-03    0.6959899319E+00    0.6231977017E+00    0.4114603490E-04
    0.4100000000E+06    0.5533295700E-03    0.3822234864E-03    0.6959900211E+00    0.6253078579E+00    0.4126057318E-04
    0.4300000000E+06    0.5084759895E-03    0.3521851974E-03    0.6959900968E+00    0.6272268992E+00    0.4136995143E-04
    0.4500000000E+06    0.4688303815E-03    0.3255620010E-03    0.6959901611E+00    0.6289794199E+00    0.4147462654E-04
    0.4700000000E+06    0.4336204071E-03    0.3018555758E-03    0.6959902155E+00    0.6305860002E+00    0.4157499682E-04
    0.4900000000E+06    0.4022111744E-03    0.2806551060E-03    0.6959902614E+00    0.6320639872E+00    0.4167141160E-04
    0.1000000000E+06    0.4678425137E-02    0.3003025836E-02    0.6959810369E+00    0.5141989264E+00    0.3814806517E-04
    0.3000000000E+06    0.9493748031E-03    0.6444886676E-03    0.6959892803E+00    0.6103701474E+00    0.4055033165E-04
    0.5000000000E+06    0.3877639273E-03    0.2708856918E-03    0.6959902815E+00    0.6327594476E+00    0.4171823340E-04
    0.7000000000E+06    0.2085765466E-03    0.1485518562E-03    0.6959904378E+00    0.6425410975E+00    0.4250581927E-04
    0.9000000000E+06    0.1298167342E-03    0.9381660989E-04    0.6959903714E+00    0.6480011646E+00    0.4310375745E-04
    0.1100000000E+07    0.8843574698E-04    0.6466433389E-04    0.6959902304E+00    0.6514801618E+00    0.4358723473E-04
    0.1300000000E+07    0.6406255285E-04    0.4730313084E-04    0.6959900637E+00    0.6538890998E+00    0.4399385249E-04
    0.1500000000E+07    0.4851782903E-04    0.3612704518E-04    0.6959898901E+00    0.6556552577E+00    0.4434518160E-04
    0.1700000000E+07    0.3800463415E-04    0.2850744601E-04    0.6959897179E+00    0.6570053603E+00    0.4465477075E-04
    0.1900000000E+07    0.3056650961E-04    0.2307825840E-04    0.6959895505E+00    0.6580708054E+00    0.4493169877E-04
    0.2100000000E+07    0.2511257526E-04    0.1907210315E-04    0.6959893893E+00    0.6589329681E+00    0.4518235266E-04
    0.2300000000E+07    0.2099575603E-04    0.1603078561E-04    0.6959892347E+00    0.6596449230E+00    0.4541139963E-04
    0.2500000000E+07    0.1781259919E-04    0.1366692339E-04    0.6959890869E+00    0.6602427574E+00    0.4562235585E-04
    0.2700000000E+07    0.1530099953E-04    0.1179281000E-04    0.6959889455E+00    0.6607518611E+00    0.4581793750E-04
    0.2900000000E+07    0.1328470973E-04    0.1028160239E-04    0.6959888102E+00    0.6611906151E+00    0.4600028722E-04
    0.3100000000E+07    0.1164168966E-04    0.9045069362E-05    0.6959886806E+00    0.6615726534E+00    0.4617112558E-04
    0.3300000000E+07    0.1028527256E-04    0.8020288342E-05    0.6959885563E+00    0.6619083016E+00    0.4633185544E-04
    0.3500000000E+07    0.9152543587E-05    0.7161400906E-05    0.6959884371E+00    0.6622055232E+00    0.4648363601E-04
    0.3700000000E+07    0.8196939226E-05    0.6434341382E-05    0.6959883224E+00    0.6624705580E+00    0.4662743633E-04
    0.3900000000E+07    0.7383402806E-05    0.5813373061E-05    0.6959882121E+00    0.6627083644E+00    0.4676407490E-04
    0.4100000000E+07    0.6685134918E-05    0.5278756494E-05    0.6959881059E+00    0.6629229326E+00    0.4689424944E-04
    0.4300000000E+07    0.6081365863E-05    0.4815145776E-05    0.6959880033E+00    0.6631175093E+00    0.4701855964E-04
    0.4500000000E+07    0.5555798699E-05    0.4410464060E-05    0.6959879043E+00    0.6632947636E+00    0.4713752473E-04
    0.4700000000E+07    0.5095501763E-05    0.4055101288E-05    0.6959878085E+00    0.6634569098E+00    0.4725159738E-04
    0.4900000000E+07    0.4690108295E-05    0.3741332731E-05    0.6959877159E+00    0.6636058002E+00    0.4736117461E-04
    0.1000000000E+07    0.1061761406E-03    0.7720488825E-04    0.6959903061E+00    0.6499144045E+00    0.4335693090E-04
    0.3000000000E+07    0.1242262449E-04    0.9633412466E-05    0.6959887447E+00    0.6613880138E+00    0.4608705118E-04
    0.5000000000E+07    0.4505314366E-05    0.3598040230E-05    0.6959876706E+00    0.6636757722E+00    0.4741438850E-04
    0.7000000000E+07    0.2305628830E-05    0.1876122132E-05    0.6959868888E+00    0.6646549299E+00    0.4830949698E-04
    0.9000000000E+07    0.1398020199E-05    0.1152891644E-05    0.6959862735E+00    0.6651985288E+00    0.4898906832E-04
    0.1100000000E+08    0.9381257058E-06    0.7814796459E-06    0.6959857651E+00    0.6655443114E+00    0.4953855263E-04
    0.1300000000E+08    0.6735008553E-06    0.5654653049E-06    0.6959853311E+00    0.6657836345E+00    0.5000068436E-04
    0.1500000000E+08    0.5074316395E-06    0.4286916362E-06    0.6959849520E+00    0.6659591058E+00    0.5039997918E-04
    0.1700000000E+08    0.3964216262E-06    0.3365704737E-06    0.6959846151E+00    0.6660932725E+00    0.5075183546E-04
    0.1900000000E+08    0.3185648986E-06    0.2715371308E-06    0.6959843115E+00    0.6661991842E+00    0.5106657151E-04
    0.2100000000E+08    0.2618564924E-06    0.2238961356E-06    0.6959840352E+00    0.6662849170E+00    0.5135144629E-04
    0.2300000000E+08    0.2192710316E-06    0.1879374254E-06    0.6959837813E+00    0.6663557370E+00    0.5161176422E-04
    0.2500000000E+08    0.1864753872E-06    0.1601190277E-06    0.6959835465E+00    0.6664152243E+00    0.5185152150E-04
    0.2700000000E+08    0.1606793555E-06    0.1381484165E-06    0.6959833279E+00    0.6664658982E+00    0.5207380516E-04
