  Pressure (Pa) 22mC5-500 (mol/kg) 23mC5-500 (mol/kg) 24mC5-500 (mol/kg) 3mC6-500 (mol/kg) C7-500 (mol/kg)
    0.1000000000E+01    0.4471144228E-05    0.4492670210E-05    0.1266284246E+00    0.7514956090E-06    0.4211983188E-02
    0.3000000000E+01    0.9232085126E-05    0.9249719270E-05    0.2785036556E+00    0.1935973817E-05    0.4274578221E-02
    0.5000000000E+01    0.1162143247E-04    0.1162044157E-04    0.3663923903E+00    0.3026998295E-05    0.4310394913E-02
    0.7000000000E+01    0.1300541326E-04    0.1298606010E-04    0.4236958656E+00    0.4071903338E-05    0.4334107948E-02
    0.9000000000E+01    0.1389584233E-04    0.1386176233E-04    0.4640133780E+00    0.5086789230E-05    0.4351099419E-02
    0.1100000000E+02    0.1452058497E-04    0.1447585599E-04    0.4939225829E+00    0.6079754026E-05    0.4363942800E-02
    0.1300000000E+02    0.1499324133E-04    0.1494159594E-04    0.5169932077E+00    0.7055637044E-05    0.4374035517E-02
    0.1500000000E+02    0.1537517127E-04    0.1531982565E-04    0.5353300419E+00    0.8017637791E-05    0.4382204942E-02
    0.1700000000E+02    0.1570154437E-04    0.1564521259E-04    0.5502544881E+00    0.8968018639E-05    0.4388973425E-02
    0.1900000000E+02    0.1599344982E-04    0.1593840852E-04    0.5626380007E+00    0.9908458182E-05    0.4394687634E-02
    0.2100000000E+02    0.1626398156E-04    0.1621214115E-04    0.5730785758E+00    0.1084024786E-04    0.4399587051E-02
    0.2300000000E+02    0.1652149047E-04    0.1647445920E-04    0.5820002114E+00    0.1176440978E-04    0.4403842652E-02
    0.2500000000E+02    0.1677141159E-04    0.1673054943E-04    0.5897119011E+00    0.1268177154E-04    0.4407579922E-02
    0.2700000000E+02    0.1701733419E-04    0.1698379690E-04    0.5964441505E+00    0.1359301587E-04    0.4410893136E-02
    0.2900000000E+02    0.1726165040E-04    0.1723642519E-04    0.6023724096E+00    0.1449871488E-04    0.4413854567E-02
    0.3100000000E+02    0.1750596029E-04    0.1748989456E-04    0.6076325847E+00    0.1539935437E-04    0.4416520604E-02
    0.3300000000E+02    0.1775133106E-04    0.1774515570E-04    0.6123315842E+00    0.1629535162E-04    0.4418935922E-02
    0.3500000000E+02    0.1799846674E-04    0.1800281492E-04    0.6165546615E+00    0.1718706860E-04    0.4421136403E-02
    0.3700000000E+02    0.1824782117E-04    0.1826324375E-04    0.6203706333E+00    0.1807482207E-04    0.4423151218E-02
    0.3900000000E+02    0.1849967464E-04    0.1852665273E-04    0.6238356589E+00    0.1895889133E-04    0.4425004346E-02
    0.4100000000E+02    0.1875418638E-04    0.1879314169E-04    0.6269960222E+00    0.1983952439E-04    0.4426715688E-02
    0.4300000000E+02    0.1901143115E-04    0.1906273461E-04    0.6298902112E+00    0.2071694280E-04    0.4428301910E-02
    0.4500000000E+02    0.1927142486E-04    0.1933540371E-04    0.6325504929E+00    0.2159134559E-04    0.4429777085E-02
    0.4700000000E+02    0.1953414271E-04    0.1961108650E-04    0.6350041213E+00    0.2246291243E-04    0.4431153181E-02
    0.4900000000E+02    0.1979953209E-04    0.1988969772E-04    0.6372742748E+00    0.2333180632E-04    0.4432440449E-02
    0.1000000000E+02    0.1423263718E-04    0.1419273666E-04    0.4799997322E+00    0.5585658720E-05    0.4357934306E-02
    0.3000000000E+02    0.1738372928E-04    0.1736298565E-04    0.6050787448E+00    0.1494963955E-04    0.4415221482E-02
    0.5000000000E+02    0.1993320689E-04    0.2003007076E-04    0.6383468613E+00    0.2376529780E-04    0.4433053581E-02
    0.7000000000E+02    0.2272588792E-04    0.2296495557E-04    0.6537510716E+00    0.3232485132E-04    0.4442269973E-02
    0.9000000000E+02    0.2568813367E-04    0.2607753821E-04    0.6626341911E+00    0.4072938625E-04    0.4448016510E-02
    0.1100000000E+03    0.2875900505E-04    0.2930172779E-04    0.6684135694E+00    0.4903015688E-04    0.4451959206E-02
    0.1300000000E+03    0.3190249850E-04    0.3259958555E-04    0.6724738524E+00    0.5725796150E-04    0.4454818701E-02
    0.1500000000E+03    0.3509721042E-04    0.3594891355E-04    0.6754826908E+00    0.6543325712E-04    0.4456964173E-02
    0.1700000000E+03    0.3832994538E-04    0.3933618602E-04    0.6778016379E+00    0.7357057439E-04    0.4458607202E-02
    0.1900000000E+03    0.4159227618E-04    0.4275285112E-04    0.6796435305E+00    0.8168074641E-04    0.4459879157E-02
    0.2100000000E+03    0.4487866140E-04    0.4619333887E-04    0.6811418222E+00    0.8977215228E-04    0.4460866670E-02
    0.2300000000E+03    0.4818537391E-04    0.4965393926E-04    0.6823844370E+00    0.9785146397E-04    0.4461629603E-02
    0.2500000000E+03    0.5150986568E-04    0.5313214276E-04    0.6834316591E+00    0.1059241210E-03    0.4462210908E-02
    0.2700000000E+03    0.5485037706E-04    0.5662623734E-04    0.6843262027E+00    0.1139946460E-03    0.4462642358E-02
    0.2900000000E+03    0.5820568849E-04    0.6013505395E-04    0.6850991783E+00    0.1220668624E-03    0.4462948070E-02
    0.3100000000E+03    0.6157495822E-04    0.6365780098E-04    0.6857737819E+00    0.1301440492E-03    0.4463146746E-02
    0.3300000000E+03    0.6495761340E-04    0.6719395387E-04    0.6863676618E+00    0.1382290537E-03    0.4463253160E-02
    0.3500000000E+03    0.6835327563E-04    0.7074317986E-04    0.6868944831E+00    0.1463243761E-03    0.4463279173E-02
    0.3700000000E+03    0.7176170888E-04    0.7430528569E-04    0.6873649918E+00    0.1544322332E-03    0.4463234439E-02
    0.3900000000E+03    0.7518278255E-04    0.7788018065E-04    0.6877877542E+00    0.1625546085E-03    0.4463126913E-02
    0.4100000000E+03    0.7861644486E-04    0.8146785009E-04    0.6881696834E+00    0.1706932905E-03    0.4462963223E-02
    0.4300000000E+03    0.8206270340E-04    0.8506833616E-04    0.6885164194E+00    0.1788499039E-03    0.4462748944E-02
    0.4500000000E+03    0.8552161080E-04    0.8868172368E-04    0.6888326094E+00    0.1870259345E-03    0.4462488807E-02
    0.4700000000E+03    0.8899325403E-04    0.9230812961E-04    0.6891221170E+00    0.1952227496E-03    0.4462186858E-02
    0.4900000000E+03    0.9247774630E-04    0.9594769525E-04    0.6893881805E+00    0.2034416143E-03    0.4461846580E-02
    0.1000000000E+03    0.2721268702E-04    0.2767853886E-04    0.6658004621E+00    0.4489049862E-04    0.4450156330E-02
    0.3000000000E+03    0.5988861967E-04    0.6189472419E-04    0.6854475649E+00    0.1261046476E-03    0.4463059786E-02
    0.5000000000E+03    0.9422485185E-04    0.9777246228E-04    0.6895132924E+00    0.2075596863E-03    0.4461663028E-02
    0.7000000000E+03    0.1298806945E-03    0.1350034736E-03    0.6912688331E+00    0.2913294704E-03    0.4456538814E-02
    0.9000000000E+03    0.1670247242E-03    0.1737763229E-03    0.6922469976E+00    0.3783146814E-03    0.4449473894E-02
    0.1100000000E+04    0.2058525252E-03    0.2143000473E-03    0.6928702467E+00    0.4691397818E-03    0.4441070035E-02
    0.1300000000E+04    0.2465616648E-03    0.2567832051E-03    0.6933019142E+00    0.5643402629E-03    0.4431582225E-02
    0.1500000000E+04    0.2893548191E-03    0.3014386226E-03    0.6936184603E+00    0.6644293009E-03    0.4421125385E-02
    0.1700000000E+04    0.3344449940E-03    0.3484893927E-03    0.6938604463E+00    0.7699296229E-03    0.4409745315E-02
    0.1900000000E+04    0.3820603560E-03    0.3981741556E-03    0.6940513878E+00    0.8813927217E-03    0.4397448092E-02
    0.2100000000E+04    0.4324487141E-03    0.4507518953E-03    0.6942058569E+00    0.9994130237E-03    0.4384213727E-02
    0.2300000000E+04    0.4858819486E-03    0.5065066244E-03    0.6943333636E+00    0.1124640185E-02    0.4370002898E-02
    0.2500000000E+04    0.5426606479E-03    0.5657522605E-03    0.6944403782E+00    0.1257791096E-02    0.4354760275E-02
    0.2700000000E+04    0.6031191754E-03    0.6288379371E-03    0.6945314556E+00    0.1399662524E-02    0.4338415955E-02
    0.2900000000E+04    0.6676313660E-03    0.6961539646E-03    0.6946098949E+00    0.1551145068E-02    0.4320885758E-02
    0.3100000000E+04    0.7366170530E-03    0.7681386534E-03    0.6946781441E+00    0.1713239001E-02    0.4302070723E-02
    0.3300000000E+04    0.8105496398E-03    0.8452862253E-03    0.6947380582E+00    0.1887072563E-02    0.4281856005E-02
    0.3500000000E+04    0.8899649616E-03    0.9281560705E-03    0.6947910680E+00    0.2073923337E-02    0.4260109221E-02
    0.3700000000E+04    0.9754717204E-03    0.1017383646E-02    0.6948382950E+00    0.2275243394E-02    0.4236678268E-02
    0.3900000000E+04    0.1067763831E-02    0.1113693370E-02    0.6948806307E+00    0.2492689065E-02    0.4211388601E-02
    0.4100000000E+04    0.1167635081E-02    0.1217913932E-02    0.6949187924E+00    0.2728156296E-02    0.4184039884E-02
    0.4300000000E+04    0.1275996578E-02    0.1330996510E-02    0.6949533639E+00    0.2983822780E-02    0.4154401960E-02
    0.4500000000E+04    0.1393897557E-02    0.1454036509E-02    0.6949848254E+00    0.3262198261E-02    0.4122210018E-02
    0.4700000000E+04    0.1522550214E-02    0.1588299488E-02    0.6950135749E+00    0.3566184639E-02    0.4087158835E-02
    0.4900000000E+04    0.1663359318E-02    0.1735252095E-02    0.6950399457E+00    0.3899147794E-02    0.4048895953E-02
    0.1000000000E+04    0.1862158638E-03    0.1938063168E-03    0.6925897283E+00    0.4232127343E-03    0.4445418771E-02
    0.3000000000E+04    0.7015367872E-03    0.7315332492E-03    0.6946451657E+00    0.1630798329E-02    0.4311645633E-02
    0.5000000000E+04    0.1738822729E-02    0.1814009245E-02    0.6950523286E+00    0.4077695126E-02    0.4028435115E-02
    0.7000000000E+04    0.4506029298E-02    0.4702487057E-02    0.6952246720E+00    0.1066298123E-01    0.3299955416E-02
    0.9000000000E+04    0.1254879966E-01    0.1310239251E-01    0.6953191572E+00    0.3015196267E-01    0.1400359459E-02
    0.1100000000E+05    0.1861419773E-01    0.1944992065E-01    0.6953784593E+00    0.4581163293E-01    0.4454253943E-03
    0.1300000000E+05    0.2104654643E-01    0.2200878174E-01    0.6954189329E+00    0.5311851876E-01    0.3950608303E-03
    0.1500000000E+05    0.2300602910E-01    0.2407640105E-01    0.6954481811E+00    0.5950700227E-01    0.3962436891E-03
    0.1700000000E+05    0.2474231253E-01    0.2591298473E-01    0.6954702128E+00    0.6554524246E-01    0.3989376254E-03
    0.1900000000E+05    0.2629199428E-01    0.2755629531E-01    0.6954873396E+00    0.7129026129E-01    0.4014122136E-03
    0.2100000000E+05    0.2767879545E-01    0.2903072825E-01    0.6955009866E+00    0.7677296363E-01    0.4036543669E-03
    0.2300000000E+05    0.2892246768E-01    0.3035660346E-01    0.6955120792E+00    0.8201913729E-01    0.4057029951E-03
    0.2500000000E+05    0.3003979740E-01    0.3155120051E-01    0.6955212440E+00    0.8705104949E-01    0.4075895326E-03
    0.2700000000E+05    0.3104514440E-01    0.3262931013E-01    0.6955289199E+00    0.9188806581E-01    0.4093383524E-03
    0.2900000000E+05    0.3195085896E-01    0.3360366119E-01    0.6955354234E+00    0.9654711767E-01    0.4109686779E-03
    0.3100000000E+05    0.3276761603E-01    0.3448526288E-01    0.6955409884E+00    0.1010430803E+00    0.4124959397E-03
    0.3300000000E+05    0.3350468551E-01    0.3528368151E-01    0.6955457910E+00    0.1053890818E+00    0.4139327155E-03
    0.3500000000E+05    0.3417015216E-01    0.3600726586E-01    0.6955499667E+00    0.1095967575E+00    0.4152893953E-03
    0.3700000000E+05    0.3477109600E-01    0.3666333201E-01    0.6955536211E+00    0.1136764608E+00    0.4165746626E-03
    0.3900000000E+05    0.3531374093E-01    0.3725831574E-01    0.6955568377E+00    0.1176374388E+00    0.4177958501E-03
    0.4100000000E+05    0.3580357798E-01    0.3779789894E-01    0.6955596835E+00    0.1214879798E+00    0.4189592074E-03
    0.4300000000E+05    0.3624546816E-01    0.3828711505E-01    0.6955622127E+00    0.1252355372E+00    0.4200701050E-03
    0.4500000000E+05    0.3664372851E-01    0.3873043744E-01    0.6955644697E+00    0.1288868349E+00    0.4211331923E-03
    0.4700000000E+05    0.3700220467E-01    0.3913185388E-01    0.6955664911E+00    0.1324479564E+00    0.4221525219E-03
    0.4900000000E+05    0.3732433220E-01    0.3949492948E-01    0.6955683074E+00    0.1359244216E+00    0.4231316479E-03
    0.1000000000E+05    0.1652493764E-01    0.1726011902E-01    0.6953518760E+00    0.4016339691E-01    0.6645047517E-03
    0.3000000000E+05    0.3236974768E-01    0.3405542686E-01    0.6955383111E+00    0.9881462691E-01    0.4117443476E-03
    0.5000000000E+05    0.3747273969E-01    0.3966310134E-01    0.6955691468E+00    0.1376324953E+00    0.4236071286E-03
    0.7000000000E+05    0.3913175098E-01    0.4163682410E-01    0.6955796488E+00    0.1683581779E+00    0.4316042079E-03
    0.9000000000E+05    0.3927647117E-01    0.4198630589E-01    0.6955839630E+00    0.1943255970E+00    0.4376746675E-03
    0.1100000000E+06    0.3868004574E-01    0.4152392325E-01    0.6955857309E+00    0.2171006438E+00    0.4425826337E-03
    0.1300000000E+06    0.3770242416E-01    0.4063176027E-01    0.6955862715E+00    0.2375370952E+00    0.4467101193E-03
    0.1500000000E+06    0.3652874396E-01    0.3950867674E-01    0.6955861626E+00    0.2561513963E+00    0.4502762282E-03
    0.1700000000E+06    0.3526100431E-01    0.3826576883E-01    0.6955856897E+00    0.2732811466E+00    0.4534185600E-03
    0.1900000000E+06    0.3395812159E-01    0.3696829021E-01    0.6955850069E+00    0.2891608895E+00    0.4562293091E-03
    0.2100000000E+06    0.3265517987E-01    0.3565590886E-01    0.6955842019E+00    0.3039618238E+00    0.4587733297E-03
    0.2300000000E+06    0.3137339297E-01    0.3435325179E-01    0.6955833274E+00    0.3178141354E+00    0.4610980099E-03
    0.2500000000E+06    0.3012557400E-01    0.3307573162E-01    0.6955824160E+00    0.3308202815E+00    0.4632390493E-03
    0.2700000000E+06    0.2891928711E-01    0.3183292772E-01    0.6955814882E+00    0.3430632637E+00    0.4652240240E-03
    0.2900000000E+06    0.2775873787E-01    0.3063062974E-01    0.6955805572E+00    0.3546119823E+00    0.4670746864E-03
    0.3100000000E+06    0.2664594596E-01    0.2947211606E-01    0.6955796318E+00    0.3655248157E+00    0.4688085033E-03
    0.3300000000E+06    0.2558149330E-01    0.2835897727E-01    0.6955787175E+00    0.3758520827E+00    0.4704397164E-03
    0.3500000000E+06    0.2456501304E-01    0.2729165975E-01    0.6955778177E+00    0.3856377791E+00    0.4719800929E-03
    0.3700000000E+06    0.2359551524E-01    0.2626983233E-01    0.6955769348E+00    0.3949208313E+00    0.4734394698E-03
    0.3900000000E+06    0.2267160760E-01    0.2529263780E-01    0.6955760700E+00    0.4037360206E+00    0.4748261559E-03
    0.4100000000E+06    0.2179164670E-01    0.2435886811E-01    0.6955752241E+00    0.4121146778E+00    0.4761472334E-03
    0.4300000000E+06    0.2095384277E-01    0.2346708768E-01    0.6955743972E+00    0.4200852153E+00    0.4774087896E-03
    0.4500000000E+06    0.2015633254E-01    0.2261572104E-01    0.6955735893E+00    0.4276735428E+00    0.4786160951E-03
    0.4700000000E+06    0.1939723005E-01    0.2180311543E-01    0.6955728002E+00    0.4349033962E+00    0.4797737447E-03
    0.4900000000E+06    0.1867466189E-01    0.2102758555E-01    0.6955720296E+00    0.4417966035E+00    0.4808857682E-03
    0.1000000000E+06    0.3904262700E-01    0.4182667653E-01    0.6955850564E+00    0.2060481070E+00    0.4402447737E-03
    0.3000000000E+06    0.2719630889E-01    0.3004576832E-01    0.6955800934E+00    0.3601445740E+00    0.4679552449E-03
    0.5000000000E+06    0.1832650234E-01    0.2065319653E-01    0.6955716510E+00    0.4451233189E+00    0.4814257974E-03
    0.7000000000E+06    0.1287006086E-01    0.1472326944E-01    0.6955649170E+00    0.4981451200E+00    0.4905094488E-03
    0.9000000000E+06    0.9419029047E-02    0.1090633682E-01    0.6955594336E+00    0.5332596630E+00    0.4974056277E-03
    0.1100000000E+07    0.7142150066E-02    0.8354040596E-02    0.6955548251E+00    0.5576560799E+00    0.5029816022E-03
    0.1300000000E+07    0.5578114713E-02    0.6581620351E-02    0.6955508529E+00    0.5753044387E+00    0.5076710867E-03
    0.1500000000E+07    0.4464912855E-02    0.5308469530E-02    0.6955473621E+00    0.5885129392E+00    0.5117228865E-03
    0.1700000000E+07    0.3647995967E-02    0.4366729437E-02    0.6955442476E+00    0.5986857552E+00    0.5152932741E-03
    0.1900000000E+07    0.3032587435E-02    0.3652306934E-02    0.6955414351E+00    0.6067125761E+00    0.5184869647E-03
    0.2100000000E+07    0.2558419394E-02    0.3098394557E-02    0.6955388702E+00    0.6131778929E+00    0.5213776254E-03
    0.2300000000E+07    0.2185893773E-02    0.2660748662E-02    0.6955365122E+00    0.6184781764E+00    0.5240190868E-03
    0.2500000000E+07    0.1888223839E-02    0.2309232028E-02    0.6955343295E+00    0.6228900555E+00    0.5264519033E-03
    0.2700000000E+07    0.1646814052E-02    0.2022793982E-02    0.6955322974E+00    0.6266114094E+00    0.5287074024E-03
    0.2900000000E+07    0.1448454705E-02    0.1786397592E-02    0.6955303960E+00    0.6297869418E+00    0.5308102965E-03
    0.3100000000E+07    0.1283567517E-02    0.1589084474E-02    0.6955286091E+00    0.6325245646E+00    0.5327804294E-03
    0.3300000000E+07    0.1145078676E-02    0.1422723959E-02    0.6955269234E+00    0.6349061719E+00    0.5346339812E-03
    0.3500000000E+07    0.1027677137E-02    0.1281185281E-02    0.6955253278E+00    0.6369948949E+00    0.5363843214E-03
    0.3700000000E+07    0.9273156019E-03    0.1159777804E-02    0.6955238130E+00    0.6388400921E+00    0.5380426263E-03
    0.3900000000E+07    0.8408680014E-03    0.1054865012E-02    0.6955223709E+00    0.6404808493E+00    0.5396183359E-03
    0.4100000000E+07    0.7658900628E-03    0.9635935385E-03    0.6955209948E+00    0.6419484775E+00    0.5411194971E-03
    0.4300000000E+07    0.7004491404E-03    0.8836998099E-03    0.6955196786E+00    0.6432683255E+00    0.5425530262E-03
    0.4500000000E+07    0.6430014098E-03    0.8133699925E-03    0.6955184173E+00    0.6444611138E+00    0.5439249117E-03
    0.4700000000E+07    0.5923019969E-03    0.7511371441E-03    0.6955172064E+00    0.6455439299E+00    0.5452403743E-03
    0.4900000000E+07    0.5473383559E-03    0.6958047225E-03    0.6955160419E+00    0.6465309804E+00    0.5465039927E-03
    0.1000000000E+07    0.8168843447E-02    0.9508675402E-02    0.6955570374E+00    0.5464978143E+00    0.5003255038E-03
    0.3000000000E+07    0.1362317754E-02    0.1683418760E-02    0.6955294891E+00    0.6312048622E+00    0.5318108723E-03
    0.5000000000E+07    0.5267419937E-03    0.6704117247E-03    0.6955154759E+00    0.6469923896E+00    0.5471176412E-03
    0.7000000000E+07    0.2761885759E-03    0.3585250221E-03    0.6955059172E+00    0.6532695714E+00    0.5574396632E-03
    0.9000000000E+07    0.1693819146E-03    0.2231613690E-03    0.6954986208E+00    0.6565936286E+00    0.5652760338E-03
    0.1100000000E+08    0.1142864075E-03    0.1523707950E-03    0.6954927024E+00    0.6586409263E+00    0.5716122218E-03
    0.1300000000E+08    0.8223157451E-04    0.1107243139E-03    0.6954877143E+00    0.6600251937E+00    0.5769410618E-03
    0.1500000000E+08    0.6196685827E-04    0.8414855269E-04    0.6954833980E+00    0.6610223525E+00    0.5815452769E-03
    0.1700000000E+08    0.4835195229E-04    0.6614880628E-04    0.6954795901E+00    0.6617743030E+00    0.5856024439E-03
    0.1900000000E+08    0.3876902915E-04    0.5338923008E-04    0.6954761810E+00    0.6623613168E+00    0.5892315547E-03
    0.2100000000E+08    0.3177153126E-04    0.4401279564E-04    0.6954730931E+00    0.6628321536E+00    0.5925163195E-03
    0.2300000000E+08    0.2650752448E-04    0.3691861719E-04    0.6954702697E+00    0.6632181165E+00    0.5955179086E-03
    0.2500000000E+08    0.2244891198E-04    0.3142023593E-04    0.6954676680E+00    0.6635402096E+00    0.5982824053E-03
    0.2700000000E+08    0.1925426938E-04    0.2707145615E-04    0.6954652549E+00    0.6638130459E+00    0.6008454086E-03
