  Pressure (Pa) 22mC5-500 (mol/kg) 23mC5-500 (mol/kg) 24mC5-500 (mol/kg) 3mC6-500 (mol/kg) C7-500 (mol/kg)
    0.1000000000E+01    0.4171103707E-05    0.1796992589E-05    0.1741150408E+00    0.8168927126E-05    0.4145590867E-02
    0.3000000000E+01    0.7757358388E-05    0.3331243516E-05    0.3481500322E+00    0.2017082508E-04    0.4170145233E-02
    0.5000000000E+01    0.9316081099E-05    0.3994026945E-05    0.4351379532E+00    0.3106342277E-04    0.4176347245E-02
    0.7000000000E+01    0.1020121557E-04    0.4370315495E-05    0.4873214583E+00    0.4143668870E-04    0.4179032142E-02
    0.9000000000E+01    0.1080929749E-04    0.4630217440E-05    0.5221067057E+00    0.5148534977E-04    0.4180318233E-02
    0.1100000000E+02    0.1128958280E-04    0.4837266215E-05    0.5469515212E+00    0.6130569437E-04    0.4180891909E-02
    0.1300000000E+02    0.1170728791E-04    0.5018981232E-05    0.5655841818E+00    0.7095455575E-04    0.4181051288E-02
    0.1500000000E+02    0.1209383544E-04    0.5188488960E-05    0.5800757043E+00    0.8046914267E-04    0.4180948411E-02
    0.1700000000E+02    0.1246540812E-04    0.5352468727E-05    0.5916685884E+00    0.8987555309E-04    0.4180669322E-02
    0.1900000000E+02    0.1283072307E-04    0.5514465191E-05    0.6011534616E+00    0.9919301830E-04    0.4180266453E-02
    0.2100000000E+02    0.1319460750E-04    0.5676403539E-05    0.6090573805E+00    0.1084362471E-03    0.4179773578E-02
    0.2300000000E+02    0.1355976509E-04    0.5839333519E-05    0.6157452142E+00    0.1176168219E-03    0.4179213417E-02
    0.2500000000E+02    0.1392769887E-04    0.6003815645E-05    0.6214775744E+00    0.1267440796E-03    0.4178601795E-02
    0.2700000000E+02    0.1429921550E-04    0.6170130692E-05    0.6264455704E+00    0.1358256938E-03    0.4177950062E-02
    0.2900000000E+02    0.1467471098E-04    0.6338397390E-05    0.6307925305E+00    0.1448680737E-03    0.4177266548E-02
    0.3100000000E+02    0.1505433719E-04    0.6508640395E-05    0.6346280564E+00    0.1538766473E-03    0.4176557499E-02
    0.3300000000E+02    0.1543810127E-04    0.6680830396E-05    0.6380373922E+00    0.1628560664E-03    0.4175827679E-02
    0.3500000000E+02    0.1582592591E-04    0.6854908130E-05    0.6410878348E+00    0.1718103589E-03    0.4175080776E-02
    0.3700000000E+02    0.1621768649E-04    0.7030798908E-05    0.6438332208E+00    0.1807430449E-03    0.4174319684E-02
    0.3900000000E+02    0.1661323392E-04    0.7208421404E-05    0.6463171319E+00    0.1896572257E-03    0.4173546699E-02
    0.4100000000E+02    0.1701240889E-04    0.7387692962E-05    0.6485752253E+00    0.1985556534E-03    0.4172763664E-02
    0.4300000000E+02    0.1741505059E-04    0.7568532722E-05    0.6506369567E+00    0.2074407863E-03    0.4171972069E-02
    0.4500000000E+02    0.1782100193E-04    0.7750863410E-05    0.6525268723E+00    0.2163148337E-03    0.4171173131E-02
    0.4700000000E+02    0.1823011262E-04    0.7934612274E-05    0.6542655907E+00    0.2251797914E-03    0.4170367848E-02
    0.4900000000E+02    0.1864224085E-04    0.8119711508E-05    0.6558705583E+00    0.2340374714E-03    0.4169557046E-02
    0.1000000000E+02    0.1106020063E-04    0.4738142687E-05    0.5354848657E+00    0.5641990170E-04    0.4180670534E-02
    0.3000000000E+02    0.1486400476E-04    0.6423272761E-05    0.6327684106E+00    0.1493762794E-03    0.4176914889E-02
    0.5000000000E+02    0.1884939473E-04    0.8212747702E-05    0.6566276174E+00    0.2384641045E-03    0.4169149795E-02
    0.7000000000E+02    0.2312369454E-04    0.1013167296E-04    0.6674130560E+00    0.3269510606E-03    0.4160832325E-02
    0.9000000000E+02    0.2760047834E-04    0.1213985100E-04    0.6735595567E+00    0.4159794836E-03    0.4152323208E-02
    0.1100000000E+03    0.3224265840E-04    0.1422075500E-04    0.6775302947E+00    0.5061607253E-03    0.4143688912E-02
    0.1300000000E+03    0.3703551860E-04    0.1636802660E-04    0.6803068214E+00    0.5978968576E-03    0.4134935631E-02
    0.1500000000E+03    0.4197452862E-04    0.1857983787E-04    0.6823574554E+00    0.6914893831E-03    0.4126053413E-02
    0.1700000000E+03    0.4706026607E-04    0.2085660102E-04    0.6839339511E+00    0.7871860958E-03    0.4117027603E-02
    0.1900000000E+03    0.5229613835E-04    0.2319995654E-04    0.6851837088E+00    0.8852045999E-03    0.4107842294E-02
    0.2100000000E+03    0.5768728535E-04    0.2561229175E-04    0.6861987670E+00    0.9857454704E-03    0.4098481398E-02
    0.2300000000E+03    0.6324002256E-04    0.2809649913E-04    0.6870395631E+00    0.1089000274E-02    0.4088928937E-02
    0.2500000000E+03    0.6896154985E-04    0.3065585154E-04    0.6877474240E+00    0.1195156823E-02    0.4079169041E-02
    0.2700000000E+03    0.7485979944E-04    0.3329393804E-04    0.6883515661E+00    0.1304402856E-02    0.4069185863E-02
    0.2900000000E+03    0.8094336102E-04    0.3601463316E-04    0.6888732287E+00    0.1416928772E-02    0.4058963456E-02
    0.3100000000E+03    0.8722145190E-04    0.3882208561E-04    0.6893282225E+00    0.1532929792E-02    0.4048485650E-02
    0.3300000000E+03    0.9370391511E-04    0.4172071879E-04    0.6897285599E+00    0.1652607761E-02    0.4037735927E-02
    0.3500000000E+03    0.1004012357E-03    0.4471523924E-04    0.6900835309E+00    0.1776172731E-02    0.4026697310E-02
    0.3700000000E+03    0.1073245701E-03    0.4781065049E-04    0.6904004331E+00    0.1903844412E-02    0.4015352249E-02
    0.3900000000E+03    0.1144857849E-03    0.5101227117E-04    0.6906850786E+00    0.2035853567E-02    0.4003682516E-02
    0.4100000000E+03    0.1218975046E-03    0.5432575656E-04    0.6909421535E+00    0.2172443371E-02    0.3991669101E-02
    0.4300000000E+03    0.1295731651E-03    0.5775712319E-04    0.6911754783E+00    0.2313870798E-02    0.3979292102E-02
    0.4500000000E+03    0.1375270753E-03    0.6131277650E-04    0.6913881986E+00    0.2460408038E-02    0.3966530626E-02
    0.4700000000E+03    0.1457744848E-03    0.6499954134E-04    0.6915829283E+00    0.2612343986E-02    0.3953362674E-02
    0.4900000000E+03    0.1543316584E-03    0.6882469556E-04    0.6917618568E+00    0.2769985803E-02    0.3939765034E-02
    0.1000000000E+03    0.2990214374E-04    0.1317175739E-04    0.6757376808E+00    0.4608977031E-03    0.4148020700E-02
    0.3000000000E+03    0.8405748990E-04    0.3740724476E-04    0.6891082340E+00    0.1474482453E-02    0.4053757501E-02
    0.5000000000E+03    0.1587317872E-03    0.7079157588E-04    0.6918459847E+00    0.2851047807E-02    0.3932797465E-02
    0.7000000000E+03    0.2680727961E-03    0.1196649627E-03    0.6930258740E+00    0.4867165964E-02    0.3763853912E-02
    0.9000000000E+03    0.4401746999E-03    0.1965917619E-03    0.6936830368E+00    0.8049973898E-02    0.3509079233E-02
    0.1100000000E+04    0.7340729082E-03    0.3279725646E-03    0.6941018290E+00    0.1350989749E-01    0.3093769171E-02
    0.1300000000E+04    0.1266685287E-02    0.5661102886E-03    0.6943920197E+00    0.2347140353E-01    0.2385072052E-02
    0.1500000000E+04    0.2138207009E-02    0.9559161515E-03    0.6946049504E+00    0.3996264818E-01    0.1331974568E-02
    0.1700000000E+04    0.3027066140E-02    0.1353781719E-02    0.6947678439E+00    0.5720094876E-01    0.4520618246E-03
    0.1900000000E+04    0.3566155546E-02    0.1595500506E-02    0.6948964783E+00    0.6822891267E-01    0.1288386928E-03
    0.2100000000E+04    0.3907547877E-02    0.1748937965E-02    0.6950006294E+00    0.7572041001E-01    0.5723696268E-04
    0.2300000000E+04    0.4186969278E-02    0.1874749957E-02    0.6950866769E+00    0.8217729628E-01    0.4371041049E-04
    0.2500000000E+04    0.4442121321E-02    0.1989788023E-02    0.6951589614E+00    0.8829935251E-01    0.4134217428E-04
    0.2700000000E+04    0.4681587180E-02    0.2097884500E-02    0.6952205386E+00    0.9424137724E-01    0.4104085561E-04
    0.2900000000E+04    0.4907654492E-02    0.2200056118E-02    0.6952736221E+00    0.1000391352E+00    0.4111536881E-04
    0.3100000000E+04    0.5121309668E-02    0.2296737794E-02    0.6953198547E+00    0.1057038835E+00    0.4125232477E-04
    0.3300000000E+04    0.5323249240E-02    0.2388235141E-02    0.6953604813E+00    0.1112417370E+00    0.4139393766E-04
    0.3500000000E+04    0.5514083066E-02    0.2474815391E-02    0.6953964624E+00    0.1166575808E+00    0.4153007221E-04
    0.3700000000E+04    0.5694376613E-02    0.2556726304E-02    0.6954285511E+00    0.1219558699E+00    0.4165946911E-04
    0.3900000000E+04    0.5864661179E-02    0.2634200714E-02    0.6954573458E+00    0.1271408011E+00    0.4178246159E-04
    0.4100000000E+04    0.6025437596E-02    0.2707458167E-02    0.6954833287E+00    0.1322163588E+00    0.4189960678E-04
    0.4300000000E+04    0.6177178513E-02    0.2776705912E-02    0.6955068918E+00    0.1371863336E+00    0.4201143708E-04
    0.4500000000E+04    0.6320330267E-02    0.2842139724E-02    0.6955283578E+00    0.1420543354E+00    0.4211842385E-04
    0.4700000000E+04    0.6455314586E-02    0.2903944640E-02    0.6955479944E+00    0.1468238042E+00    0.4222097972E-04
    0.4900000000E+04    0.6582530140E-02    0.2962295639E-02    0.6955660256E+00    0.1514980202E+00    0.4231946670E-04
    0.1000000000E+04    0.5662206729E-03    0.2529356990E-03    0.6939133166E+00    0.1038807663E-01    0.3328402366E-02
    0.3000000000E+04    0.5015987047E-02    0.2249062757E-02    0.6952975092E+00    0.1028877057E+00    0.4118171657E-04
    0.5000000000E+04    0.6643343269E-02    0.2990228004E-02    0.6955744994E+00    0.1538003920E+00    0.4236728556E-04
    0.7000000000E+04    0.7533165400E-02    0.3403319068E-02    0.6956930453E+00    0.1955363644E+00    0.4317086397E-04
    0.9000000000E+04    0.7969125150E-02    0.3613096662E-02    0.6957587877E+00    0.2305566022E+00    0.4378016694E-04
    0.1100000000E+05    0.8120747510E-02    0.3694421586E-02    0.6958005424E+00    0.2604825645E+00    0.4427247579E-04
    0.1300000000E+05    0.8092855969E-02    0.3693803559E-02    0.6958293902E+00    0.2864301998E+00    0.4468632789E-04
    0.1500000000E+05    0.7951997516E-02    0.3640931675E-02    0.6958505004E+00    0.3091960091E+00    0.4504379182E-04
    0.1700000000E+05    0.7741273930E-02    0.3555156839E-02    0.6958666082E+00    0.3293662495E+00    0.4535871223E-04
    0.1900000000E+05    0.7489010831E-02    0.3449288781E-02    0.6958792966E+00    0.3473838932E+00    0.4564035818E-04
    0.2100000000E+05    0.7214000497E-02    0.3331898161E-02    0.6958895449E+00    0.3635912580E+00    0.4589524622E-04
    0.2300000000E+05    0.6928765265E-02    0.3208753704E-02    0.6958979914E+00    0.3782580570E+00    0.4612813577E-04
    0.2500000000E+05    0.6641639221E-02    0.3083741962E-02    0.6959050699E+00    0.3916003969E+00    0.4634261099E-04
    0.2700000000E+05    0.6358124071E-02    0.2959468621E-02    0.6959110856E+00    0.4037939818E+00    0.4654143965E-04
    0.2900000000E+05    0.6081788156E-02    0.2837658832E-02    0.6959162591E+00    0.4149835045E+00    0.4672680447E-04
    0.3100000000E+05    0.5814871607E-02    0.2719427923E-02    0.6959207542E+00    0.4252894651E+00    0.4690045777E-04
    0.3300000000E+05    0.5558698974E-02    0.2605466897E-02    0.6959246948E+00    0.4348132151E+00    0.4706382804E-04
    0.3500000000E+05    0.5313963573E-02    0.2496170980E-02    0.6959281765E+00    0.4436407536E+00    0.4721809542E-04
    0.3700000000E+05    0.5080925174E-02    0.2391729528E-02    0.6959312741E+00    0.4518456268E+00    0.4736424632E-04
    0.3900000000E+05    0.4859548359E-02    0.2292189385E-02    0.6959340471E+00    0.4594911746E+00    0.4750311380E-04
    0.4100000000E+05    0.4649599866E-02    0.2197499789E-02    0.6959365433E+00    0.4666322929E+00    0.4763540789E-04
    0.4300000000E+05    0.4450717263E-02    0.2107544341E-02    0.6959388015E+00    0.4733168325E+00    0.4776173880E-04
    0.4500000000E+05    0.4262457456E-02    0.2022163795E-02    0.6959408538E+00    0.4795867209E+00    0.4788263483E-04
    0.4700000000E+05    0.4084330891E-02    0.1941172327E-02    0.6959427266E+00    0.4854788701E+00    0.4799855651E-04
    0.4900000000E+05    0.3915825574E-02    0.1864369110E-02    0.6959444420E+00    0.4910259193E+00    0.4810990771E-04
    0.1000000000E+05    0.8072795718E-02    0.3666412340E-02    0.6957817631E+00    0.2460774475E+00    0.4403799953E-04
    0.3000000000E+05    0.5947052055E-02    0.2778044616E-02    0.6959185829E+00    0.4202401964E+00    0.4681499920E-04
    0.5000000000E+05    0.3835018978E-02    0.1827473307E-02    0.6959452467E+00    0.4936792151E+00    0.4816398235E-04
    0.7000000000E+05    0.2605779845E-02    0.1260710321E-02    0.6959563731E+00    0.5341952999E+00    0.4907350788E-04
    0.9000000000E+05    0.1867903577E-02    0.9148191956E-03    0.6959623842E+00    0.5597059156E+00    0.4976396430E-04
    0.1100000000E+06    0.1398355103E-02    0.6918687462E-03    0.6959660995E+00    0.5771625015E+00    0.5032222289E-04
    0.1300000000E+06    0.1083491077E-02    0.5407845488E-03    0.6959685945E+00    0.5898209733E+00    0.5079171969E-04
    0.1500000000E+06    0.8629743845E-03    0.4340232052E-03    0.6959703668E+00    0.5994017952E+00    0.5119736972E-04
    0.1700000000E+06    0.7029113396E-03    0.3559264889E-03    0.6959716779E+00    0.6068959460E+00    0.5155482085E-04
    0.1900000000E+06    0.5832339317E-03    0.2971323436E-03    0.6959726777E+00    0.6129127911E+00    0.5187455792E-04
    0.2100000000E+06    0.4915022492E-03    0.2517889964E-03    0.6959734583E+00    0.6178468348E+00    0.5216395675E-04
    0.2300000000E+06    0.4196947447E-03    0.2160957194E-03    0.6959740792E+00    0.6219643444E+00    0.5242840695E-04
    0.2500000000E+06    0.3624605136E-03    0.1875008706E-03    0.6959745806E+00    0.6254513288E+00    0.5267196878E-04
    0.2700000000E+06    0.3161239500E-03    0.1642415602E-03    0.6959749903E+00    0.6284415430E+00    0.5289777869E-04
    0.2900000000E+06    0.2780949672E-03    0.1450690061E-03    0.6959753285E+00    0.6310335677E+00    0.5310831079E-04
    0.3100000000E+06    0.2465071122E-03    0.1290789823E-03    0.6959756098E+00    0.6333016196E+00    0.5330555177E-04
    0.3300000000E+06    0.2199885596E-03    0.1156039336E-03    0.6959758455E+00    0.6353026165E+00    0.5349112150E-04
    0.3500000000E+06    0.1975131761E-03    0.1041424600E-03    0.6959760439E+00    0.6370809254E+00    0.5366635844E-04
    0.3700000000E+06    0.1783012688E-03    0.9431210816E-04    0.6959762115E+00    0.6386716313E+00    0.5383238151E-04
    0.3900000000E+06    0.1617519834E-03    0.8581707976E-04    0.6959763537E+00    0.6401028382E+00    0.5399013576E-04
    0.4100000000E+06    0.1473963449E-03    0.7842571191E-04    0.6959764744E+00    0.6413973184E+00    0.5414042680E-04
    0.4300000000E+06    0.1348640528E-03    0.7195449424E-04    0.6959765769E+00    0.6425737171E+00    0.5428394703E-04
    0.4500000000E+06    0.1238596197E-03    0.6625654343E-04    0.6959766641E+00    0.6436474447E+00    0.5442129599E-04
    0.4700000000E+06    0.1141449697E-03    0.6121317029E-04    0.6959767381E+00    0.6446313477E+00    0.5455299631E-04
    0.4900000000E+06    0.1055265753E-03    0.5672762703E-04    0.6959768007E+00    0.6455362196E+00    0.5467950639E-04
    0.1000000000E+06    0.1608409042E-02    0.7919207443E-03    0.6959644413E+00    0.5691865883E+00    0.5005629960E-04
    0.3000000000E+06    0.2615911856E-03    0.1367224804E-03    0.6959754755E+00    0.6322041919E+00    0.5320848397E-04
    0.5000000000E+06    0.1015777577E-03    0.5466862782E-04    0.6959768282E+00    0.6459619294E+00    0.5474094332E-04
    0.7000000000E+06    0.5346385305E-04    0.2933999922E-04    0.6959770474E+00    0.6519487351E+00    0.5577436747E-04
    0.9000000000E+06    0.3288362313E-04    0.1831053427E-04    0.6959769663E+00    0.6552948881E+00    0.5655894529E-04
    0.1100000000E+07    0.2223860808E-04    0.1252731388E-04    0.6959767839E+00    0.6574310371E+00    0.5719333367E-04
    0.1300000000E+07    0.1603214232E-04    0.9118062033E-05    0.6959765659E+00    0.6589127860E+00    0.5772687133E-04
    0.1500000000E+07    0.1210182391E-04    0.6939005996E-05    0.6959763381E+00    0.6600008199E+00    0.5818786246E-04
    0.1700000000E+07    0.9457544370E-05    0.5461194553E-05    0.6959761114E+00    0.6608336229E+00    0.5859408490E-04
    0.1900000000E+07    0.7594162815E-05    0.4412466600E-05    0.6959758905E+00    0.6614915594E+00    0.5895745139E-04
    0.2100000000E+07    0.6232128571E-05    0.3641089235E-05    0.6959756776E+00    0.6620244645E+00    0.5928634259E-04
    0.2300000000E+07    0.5206592740E-05    0.3056999392E-05    0.6959754733E+00    0.6624648819E+00    0.5958688253E-04
    0.2500000000E+07    0.4415256357E-05    0.2603977865E-05    0.6959752777E+00    0.6628349642E+00    0.5986368492E-04
    0.2700000000E+07    0.3791917885E-05    0.2245448388E-05    0.6959750905E+00    0.6631503129E+00    0.6012031378E-04
    0.2900000000E+07    0.3292205599E-05    0.1956775516E-05    0.6959749112E+00    0.6634222335E+00    0.6035958055E-04
    0.3100000000E+07    0.2885479198E-05    0.1720870697E-05    0.6959747394E+00    0.6636591186E+00    0.6058374284E-04
    0.3300000000E+07    0.2550030675E-05    0.1525576289E-05    0.6959745747E+00    0.6638673293E+00    0.6079464143E-04
    0.3500000000E+07    0.2270133417E-05    0.1362050111E-05    0.6959744164E+00    0.6640517748E+00    0.6099379732E-04
    0.3700000000E+07    0.2034168805E-05    0.1223735740E-05    0.6959742643E+00    0.6642163042E+00    0.6118248206E-04
    0.3900000000E+07    0.1833403108E-05    0.1105687725E-05    0.6959741178E+00    0.6643639779E+00    0.6136176961E-04
    0.4100000000E+07    0.1661168986E-05    0.1004118425E-05    0.6959739766E+00    0.6644972600E+00    0.6153257550E-04
    0.4300000000E+07    0.1512305576E-05    0.9160869898E-06    0.6959738404E+00    0.6646181565E+00    0.6169568657E-04
    0.4500000000E+07    0.1382767870E-05    0.8392816882E-06    0.6959737087E+00    0.6647283173E+00    0.6185178415E-04
    0.4700000000E+07    0.1269349319E-05    0.7718648754E-06    0.6959735814E+00    0.6648291116E+00    0.6200146220E-04
    0.4900000000E+07    0.1169481661E-05    0.7123608011E-06    0.6959734581E+00    0.6649216853E+00    0.6214524165E-04
    0.1000000000E+07    0.2678657658E-04    0.1500659734E-04    0.6959768822E+00    0.6564691463E+00    0.5689114360E-04
    0.3000000000E+07    0.3078744028E-05    0.1833079978E-05    0.6959748244E+00    0.6635446182E+00    0.6047342623E-04
    0.5000000000E+07    0.1123964470E-05    0.6851930918E-06    0.6959733979E+00    0.6649651974E+00    0.6221506512E-04
    0.7000000000E+07    0.5822732020E-06    0.3590240342E-06    0.6959723566E+00    0.6655745389E+00    0.6338956203E-04
    0.9000000000E+07    0.3585110180E-06    0.2221213358E-06    0.6959715354E+00    0.6659132102E+00    0.6428124577E-04
    0.1100000000E+08    0.2448133958E-06    0.1517697155E-06    0.6959708558E+00    0.6661287928E+00    0.6500223827E-04
    0.1300000000E+08    0.1791447221E-06    0.1107966759E-06    0.6959702748E+00    0.6662780782E+00    0.6560861281E-04
    0.1500000000E+08    0.1377486748E-06    0.8480584096E-07    0.6959697667E+00    0.6663875771E+00    0.6613253720E-04
    0.1700000000E+08    0.1099377062E-06    0.6726185663E-07    0.6959693146E+00    0.6664713279E+00    0.6659421611E-04
    0.1900000000E+08    0.9032508341E-07    0.5484611590E-07    0.6959689070E+00    0.6665374593E+00    0.6700718849E-04
    0.2100000000E+08    0.7595544598E-07    0.4572640293E-07    0.6959685355E+00    0.6665910041E+00    0.6738097907E-04
    0.2300000000E+08    0.6509691771E-07    0.3882320771E-07    0.6959681940E+00    0.6666352449E+00    0.6772254793E-04
    0.2500000000E+08    0.5667961350E-07    0.3346653018E-07    0.6959678778E+00    0.6666724139E+00    0.6803713860E-04
    0.2700000000E+08    0.5001339549E-07    0.2922241979E-07    0.6959675833E+00    0.6667040822E+00    0.6832880167E-04
