  Pressure (Pa) 22mC5-500 (mol/kg) 23mC5-500 (mol/kg) 24mC5-500 (mol/kg) 3mC6-500 (mol/kg) C7-500 (mol/kg)
    0.1000000000E+01    0.4226491674E-05    0.6063808862E-06    0.1513955382E+00    0.2125926149E-05    0.4234783165E-02
    0.3000000000E+01    0.8221232758E-05    0.1175618772E-05    0.3164541386E+00    0.5520253734E-05    0.4314750085E-02
    0.5000000000E+01    0.1002092828E-04    0.1429930938E-05    0.4046982430E+00    0.8659119490E-05    0.4357958097E-02
    0.7000000000E+01    0.1100431133E-04    0.1568121670E-05    0.4596274031E+00    0.1167209826E-04    0.4385472101E-02
    0.9000000000E+01    0.1162393354E-04    0.1655073307E-05    0.4971119143E+00    0.1460343914E-04    0.4404691500E-02
    0.1100000000E+02    0.1206352253E-04    0.1716963506E-05    0.5243231686E+00    0.1747544014E-04    0.4418965324E-02
    0.1300000000E+02    0.1240823533E-04    0.1765842418E-05    0.5449754686E+00    0.2030144164E-04    0.4430039691E-02
    0.1500000000E+02    0.1270125994E-04    0.1807774337E-05    0.5611851561E+00    0.2309027041E-04    0.4438917596E-02
    0.1700000000E+02    0.1296594362E-04    0.1846008634E-05    0.5742465011E+00    0.2584817125E-04    0.4446217773E-02
    0.1900000000E+02    0.1321550074E-04    0.1882365301E-05    0.5849955279E+00    0.2857977938E-04    0.4452343469E-02
    0.2100000000E+02    0.1345765642E-04    0.1917894887E-05    0.5939963297E+00    0.3128866197E-04    0.4457569238E-02
    0.2300000000E+02    0.1369702249E-04    0.1953214612E-05    0.6016433169E+00    0.3397764289E-04    0.4462088794E-02
    0.2500000000E+02    0.1393638010E-04    0.1988688933E-05    0.6082205566E+00    0.3664900893E-04    0.4466042929E-02
    0.2700000000E+02    0.1417740317E-04    0.2024530830E-05    0.6139378383E+00    0.3930464686E-04    0.4469536568E-02
    0.2900000000E+02    0.1442108114E-04    0.2060860663E-05    0.6189534616E+00    0.4194613789E-04    0.4472649599E-02
    0.3100000000E+02    0.1466797365E-04    0.2097741392E-05    0.6233891200E+00    0.4457482482E-04    0.4475443992E-02
    0.3300000000E+02    0.1491836767E-04    0.2135200148E-05    0.6273399035E+00    0.4719186109E-04    0.4477968602E-02
    0.3500000000E+02    0.1517237646E-04    0.2173241714E-05    0.6308811919E+00    0.4979824735E-04    0.4480262505E-02
    0.3700000000E+02    0.1543000295E-04    0.2211857071E-05    0.6340735102E+00    0.5239485929E-04    0.4482357353E-02
    0.3900000000E+02    0.1569118088E-04    0.2251028882E-05    0.6369660156E+00    0.5498246914E-04    0.4484279078E-02
    0.4100000000E+02    0.1595580166E-04    0.2290735037E-05    0.6395990470E+00    0.5756176262E-04    0.4486049148E-02
    0.4300000000E+02    0.1622373218E-04    0.2330950950E-05    0.6420060172E+00    0.6013335236E-04    0.4487685498E-02
    0.4500000000E+02    0.1649482644E-04    0.2371651046E-05    0.6442148386E+00    0.6269778873E-04    0.4489203241E-02
    0.4700000000E+02    0.1676893336E-04    0.2412809715E-05    0.6462490100E+00    0.6525556871E-04    0.4490615207E-02
    0.4900000000E+02    0.1704590174E-04    0.2454401910E-05    0.6481284560E+00    0.6780714307E-04    0.4491932368E-02
    0.1000000000E+02    0.1185952215E-04    0.1688199660E-05    0.5117183284E+00    0.1604588417E-04    0.4412313695E-02
    0.3000000000E+02    0.1454410263E-04    0.2079229818E-05    0.6212373126E+00    0.4326200582E-04    0.4474083309E-02
    0.5000000000E+02    0.1718541253E-04    0.2475353003E-05    0.6490155700E+00    0.6908073288E-04    0.4492558401E-02
    0.7000000000E+02    0.2009335469E-04    0.2911956017E-05    0.6616944678E+00    0.9430990463E-04    0.4501827323E-02
    0.9000000000E+02    0.2316103757E-04    0.3372099717E-05    0.6689538315E+00    0.1192294231E-03    0.4507383675E-02
    0.1100000000E+03    0.2633020070E-04    0.3846995602E-05    0.6736563452E+00    0.1439817083E-03    0.4510997487E-02
    0.1300000000E+03    0.2957029742E-04    0.4332127218E-05    0.6769504149E+00    0.1686528699E-03    0.4513435184E-02
    0.1500000000E+03    0.3286442032E-04    0.4825029195E-05    0.6793862816E+00    0.1933006305E-03    0.4515090485E-02
    0.1700000000E+03    0.3620274138E-04    0.5324285774E-05    0.6812606016E+00    0.2179664988E-03    0.4516189757E-02
    0.1900000000E+03    0.3957934585E-04    0.5829055427E-05    0.6827474367E+00    0.2426819076E-03    0.4516873993E-02
    0.2100000000E+03    0.4299060407E-04    0.6338829071E-05    0.6839556513E+00    0.2674716327E-03    0.4517236426E-02
    0.2300000000E+03    0.4643428306E-04    0.6853299268E-05    0.6849568239E+00    0.2923558450E-03    0.4517341640E-02
    0.2500000000E+03    0.4990903651E-04    0.7372285672E-05    0.6857999507E+00    0.3173514117E-03    0.4517236052E-02
    0.2700000000E+03    0.5341409931E-04    0.7895690657E-05    0.6865196999E+00    0.3424727609E-03    0.4516954051E-02
    0.2900000000E+03    0.5694909774E-04    0.8423471907E-05    0.6871412920E+00    0.3677324780E-03    0.4516521752E-02
    0.3100000000E+03    0.6051392799E-04    0.8955624974E-05    0.6876835129E+00    0.3931417281E-03    0.4515959411E-02
    0.3300000000E+03    0.6410867623E-04    0.9492171871E-05    0.6881606427E+00    0.4187105653E-03    0.4515283019E-02
    0.3500000000E+03    0.6773356498E-04    0.1003315345E-04    0.6885837303E+00    0.4444481625E-03    0.4514505397E-02
    0.3700000000E+03    0.7138891633E-04    0.1057862423E-04    0.6889614583E+00    0.4703629871E-03    0.4513636957E-02
    0.3900000000E+03    0.7507512633E-04    0.1112864878E-04    0.6893007440E+00    0.4964629362E-03    0.4512686256E-02
    0.4100000000E+03    0.7879264699E-04    0.1168329923E-04    0.6896071666E+00    0.5227554432E-03    0.4511660395E-02
    0.4300000000E+03    0.8254197335E-04    0.1224265346E-04    0.6898852757E+00    0.5492475629E-03    0.4510565317E-02
    0.4500000000E+03    0.8632363423E-04    0.1280679387E-04    0.6901388184E+00    0.5759460401E-03    0.4509406035E-02
    0.4700000000E+03    0.9013818554E-04    0.1337580644E-04    0.6903709086E+00    0.6028573652E-03    0.4508186806E-02
    0.4900000000E+03    0.9398620536E-04    0.1394978007E-04    0.6905841553E+00    0.6299878208E-03    0.4506911267E-02
    0.1000000000E+03    0.2473527683E-04    0.3608051540E-05    0.6715321331E+00    0.1316202124E-03    0.4509372809E-02
    0.3000000000E+03    0.5872778223E-04    0.8689001104E-05    0.6874213431E+00    0.3804177601E-03    0.4516255752E-02
    0.5000000000E+03    0.9592295177E-04    0.1423865574E-04    0.6906844144E+00    0.6436371387E-03    0.4506253373E-02
    0.7000000000E+03    0.1365694179E-03    0.2030010591E-04    0.6920900051E+00    0.9295674243E-03    0.4490700957E-02
    0.9000000000E+03    0.1813349563E-03    0.2697437615E-04    0.6928720140E+00    0.1244038765E-02    0.4471323178E-02
    0.1100000000E+04    0.2310111794E-03    0.3438004797E-04    0.6933697009E+00    0.1593020734E-02    0.4448473208E-02
    0.1300000000E+04    0.2865414503E-03    0.4265804091E-04    0.6937140563E+00    0.1983366289E-02    0.4422042105E-02
    0.1500000000E+04    0.3490740869E-03    0.5197971856E-04    0.6939663433E+00    0.2423321117E-02    0.4391666834E-02
    0.1700000000E+04    0.4200315804E-03    0.6255727410E-04    0.6941590385E+00    0.2923061823E-02    0.4356780037E-02
    0.1900000000E+04    0.5012022490E-03    0.7465742709E-04    0.6943109598E+00    0.3495370902E-02    0.4316602996E-02
    0.2100000000E+04    0.5948647496E-03    0.8862000801E-04    0.6944337620E+00    0.4156540334E-02    0.4270106316E-02
    0.2300000000E+04    0.7039602620E-03    0.1048836488E-03    0.6945350484E+00    0.4927616942E-02    0.4215942162E-02
    0.2500000000E+04    0.8323334549E-03    0.1240217326E-03    0.6946199897E+00    0.5836145866E-02    0.4152343554E-02
    0.2700000000E+04    0.9850719753E-03    0.1467930430E-03    0.6946922246E+00    0.6918631797E-02    0.4076981010E-02
    0.2900000000E+04    0.1168984509E-02    0.1742130938E-03    0.6947543876E+00    0.8224015848E-02    0.3986763080E-02
    0.3100000000E+04    0.1393265203E-02    0.2076532768E-03    0.6948084333E+00    0.9818530396E-02    0.3877566894E-02
    0.3300000000E+04    0.1670382113E-02    0.2489734731E-03    0.6948558418E+00    0.1179223873E-01    0.3743895970E-02
    0.3500000000E+04    0.2017153483E-02    0.3006827675E-03    0.6948977548E+00    0.1426706740E-01    0.3578508192E-02
    0.3700000000E+04    0.2455715397E-02    0.3660841337E-03    0.6949350667E+00    0.1740432257E-01    0.3372194646E-02
    0.3900000000E+04    0.3013359613E-02    0.4492508966E-03    0.6949684883E+00    0.2140453805E-01    0.3114240347E-02
    0.4100000000E+04    0.3718604604E-02    0.5544417833E-03    0.6949985916E+00    0.2648087018E-01    0.2794811797E-02
    0.4300000000E+04    0.4588591447E-02    0.6842222905E-03    0.6950258417E+00    0.3277046458E-01    0.2411341507E-02
    0.4500000000E+04    0.5604219015E-02    0.8357563889E-03    0.6950506211E+00    0.4015615092E-01    0.1979744915E-02
    0.4700000000E+04    0.6685535566E-02    0.9971329254E-03    0.6950732469E+00    0.4808447996E-01    0.1543275844E-02
    0.4900000000E+04    0.7706231446E-02    0.1149519742E-02    0.6950939845E+00    0.5565832248E-01    0.1161339734E-02
    0.1000000000E+04    0.2055043826E-03    0.3057758841E-04    0.6931457620E+00    0.1413814483E-02    0.4460331863E-02
    0.3000000000E+04    0.1275388300E-02    0.1900776643E-03    0.6947823234E+00    0.8980150084E-02    0.3934844173E-02
    0.5000000000E+04    0.8158381320E-02    0.1217051222E-02    0.6951037165E+00    0.5905565136E-01    0.1005481536E-02
    0.7000000000E+04    0.1182199548E-01    0.1766321579E-02    0.6952386631E+00    0.8993046104E-01    0.4621866943E-03
    0.9000000000E+04    0.1379848884E-01    0.2064825957E-02    0.6953120384E+00    0.1102554406E+00    0.4677909542E-03
    0.1100000000E+05    0.1537196709E-01    0.2303780420E-02    0.6953576990E+00    0.1288403645E+00    0.4730501309E-03
    0.1300000000E+05    0.1662220770E-01    0.2494866155E-02    0.6953885857E+00    0.1459513099E+00    0.4774718456E-03
    0.1500000000E+05    0.1760964324E-01    0.2646936810E-02    0.6954106990E+00    0.1617879110E+00    0.4812907716E-03
    0.1700000000E+05    0.1838202962E-01    0.2766998007E-02    0.6954271950E+00    0.1765131673E+00    0.4846549744E-03
    0.1900000000E+05    0.1897747091E-01    0.2860647340E-02    0.6954398885E+00    0.1902615864E+00    0.4876635664E-03
    0.2100000000E+05    0.1942663339E-01    0.2932396540E-02    0.6954498957E+00    0.2031452296E+00    0.4903862167E-03
    0.2300000000E+05    0.1975439036E-01    0.2985910916E-02    0.6954579392E+00    0.2152582834E+00    0.4928738027E-03
    0.2500000000E+05    0.1998105923E-01    0.3024189496E-02    0.6954645073E+00    0.2266805567E+00    0.4951646344E-03
    0.2700000000E+05    0.2012334220E-01    0.3049702111E-02    0.6954699409E+00    0.2374801873E+00    0.4972882934E-03
    0.2900000000E+05    0.2019504925E-01    0.3064494780E-02    0.6954744852E+00    0.2477157575E+00    0.4992681067E-03
    0.3100000000E+05    0.2020765899E-01    0.3070271523E-02    0.6954783209E+00    0.2574379642E+00    0.5011228002E-03
    0.3300000000E+05    0.2017075761E-01    0.3068458436E-02    0.6954815838E+00    0.2666909487E+00    0.5028676387E-03
    0.3500000000E+05    0.2009238532E-01    0.3060254291E-02    0.6954843780E+00    0.2755133644E+00    0.5045152326E-03
    0.3700000000E+05    0.1997931188E-01    0.3046670801E-02    0.6954867842E+00    0.2839392406E+00    0.5060761217E-03
    0.3900000000E+05    0.1983725717E-01    0.3028564896E-02    0.6954888663E+00    0.2919986866E+00    0.5075592069E-03
    0.4100000000E+05    0.1967106908E-01    0.3006664761E-02    0.6954906754E+00    0.2997184692E+00    0.5089720744E-03
    0.4300000000E+05    0.1948486787E-01    0.2981590985E-02    0.6954922525E+00    0.3071224897E+00    0.5103212436E-03
    0.4500000000E+05    0.1928216385E-01    0.2953873827E-02    0.6954936313E+00    0.3142321803E+00    0.5116123589E-03
    0.4700000000E+05    0.1906595406E-01    0.2923967400E-02    0.6954948395E+00    0.3210668347E+00    0.5128503401E-03
    0.4900000000E+05    0.1883880188E-01    0.2892261380E-02    0.6954958999E+00    0.3276438864E+00    0.5140395021E-03
    0.1000000000E+05    0.1463001029E-01    0.2190927653E-02    0.6953372799E+00    0.1197463431E+00    0.4705447713E-03
    0.3000000000E+05    0.2020810225E-01    0.3068415148E-02    0.6954764823E+00    0.2526381324E+00    0.5002100690E-03
    0.5000000000E+05    0.1872182137E-01    0.2875840100E-02    0.6954963808E+00    0.3308408092E+00    0.5146169827E-03
    0.7000000000E+05    0.1619726377E-01    0.2512799661E-02    0.6955015827E+00    0.3844201798E+00    0.5243298236E-03
    0.9000000000E+05    0.1380147050E-01    0.2159660866E-02    0.6955026123E+00    0.4238793827E+00    0.5317029156E-03
    0.1100000000E+06    0.1175991411E-01    0.1854271138E-02    0.6955020723E+00    0.4542151448E+00    0.5376641579E-03
    0.1300000000E+06    0.1007270779E-01    0.1599099544E-02    0.6955008636E+00    0.4782384524E+00    0.5426774742E-03
    0.1500000000E+06    0.8688163481E-02    0.1387817677E-02    0.6954993600E+00    0.4976949707E+00    0.5470089607E-03
    0.1700000000E+06    0.7549813593E-02    0.1212771512E-02    0.6954977347E+00    0.5137396589E+00    0.5508257337E-03
    0.1900000000E+06    0.6608609173E-02    0.1067066594E-02    0.6954960738E+00    0.5271710758E+00    0.5542397670E-03
    0.2100000000E+06    0.5824859454E-02    0.9450074982E-03    0.6954944215E+00    0.5385598436E+00    0.5573298295E-03
    0.2300000000E+06    0.5167262656E-02    0.8420381297E-03    0.6954928010E+00    0.5483244683E+00    0.5601534778E-03
    0.2500000000E+06    0.4611330185E-02    0.7545550334E-03    0.6954912240E+00    0.5567785547E+00    0.5627540720E-03
    0.2700000000E+06    0.4137902932E-02    0.6797138919E-03    0.6954896961E+00    0.5641614286E+00    0.5651651057E-03
    0.2900000000E+06    0.3731931770E-02    0.6152637360E-03    0.6954882191E+00    0.5706586480E+00    0.5674129997E-03
    0.3100000000E+06    0.3381525696E-02    0.5594143421E-03    0.6954867929E+00    0.5764161069E+00    0.5695189692E-03
    0.3300000000E+06    0.3077224597E-02    0.5107332073E-03    0.6954854163E+00    0.5815499538E+00    0.5715003123E-03
    0.3500000000E+06    0.2811447894E-02    0.4680664516E-03    0.6954840875E+00    0.5861536993E+00    0.5733713218E-03
    0.3700000000E+06    0.2578076905E-02    0.4304782961E-03    0.6954828043E+00    0.5903033991E+00    0.5751439459E-03
    0.3900000000E+06    0.2372137600E-02    0.3972047050E-03    0.6954815645E+00    0.5940614880E+00    0.5768282765E-03
    0.4100000000E+06    0.2189558458E-02    0.3676177481E-03    0.6954803657E+00    0.5974796570E+00    0.5784329162E-03
    0.4300000000E+06    0.2026984546E-02    0.3411980657E-03    0.6954792058E+00    0.6006010381E+00    0.5799652586E-03
    0.4500000000E+06    0.1881633844E-02    0.3175134723E-03    0.6954780826E+00    0.6034618818E+00    0.5814317057E-03
    0.4700000000E+06    0.1751185469E-02    0.2962022261E-03    0.6954769941E+00    0.6060928593E+00    0.5828378383E-03
    0.4900000000E+06    0.1633692122E-02    0.2769598650E-03    0.6954759385E+00    0.6085200830E+00    0.5841885513E-03
    0.1000000000E+06    0.1273418045E-01    0.2000478979E-02    0.6955024632E+00    0.4399787489E+00    0.5348245714E-03
    0.3000000000E+06    0.3550424120E-02    0.5863608295E-03    0.6954874997E+00    0.5736219855E+00    0.5684825642E-03
    0.5000000000E+06    0.1579279910E-02    0.2680324238E-03    0.6954754224E+00    0.6096644026E+00    0.5848444946E-03
    0.7000000000E+06    0.8827337125E-03    0.1526510319E-03    0.6954664501E+00    0.6258917398E+00    0.5958778890E-03
    0.9000000000E+06    0.5614238461E-03    0.9848344651E-04    0.6954593436E+00    0.6350351598E+00    0.6042542674E-03
    0.1100000000E+07    0.3877866051E-03    0.6881346689E-04    0.6954534586E+00    0.6408809266E+00    0.6110270572E-03
    0.1300000000E+07    0.2836133771E-03    0.5081667337E-04    0.6954484327E+00    0.6449335709E+00    0.6167230712E-03
    0.1500000000E+07    0.2163047114E-03    0.3908044459E-04    0.6954440435E+00    0.6479057317E+00    0.6216445214E-03
    0.1700000000E+07    0.1703408306E-03    0.3100157605E-04    0.6954401452E+00    0.6501775001E+00    0.6259812250E-03
    0.1900000000E+07    0.1375778341E-03    0.2520220019E-04    0.6954366370E+00    0.6519697732E+00    0.6298603747E-03
    0.2100000000E+07    0.1134118199E-03    0.2089750975E-04    0.6954334465E+00    0.6534195627E+00    0.6333714502E-03
    0.2300000000E+07    0.9508222853E-04    0.1761378444E-04    0.6954305197E+00    0.6546163033E+00    0.6365798371E-03
    0.2500000000E+07    0.8085279736E-04    0.1505129260E-04    0.6954278153E+00    0.6556208280E+00    0.6395347948E-03
    0.2700000000E+07    0.6958744561E-04    0.1301284676E-04    0.6954253013E+00    0.6564759415E+00    0.6422743753E-03
    0.2900000000E+07    0.6051764197E-04    0.1136439095E-04    0.6954229519E+00    0.6572126316E+00    0.6448285954E-03
    0.3100000000E+07    0.5310850706E-04    0.1001219753E-04    0.6954207465E+00    0.6578538796E+00    0.6472215584E-03
    0.3300000000E+07    0.4697852660E-04    0.8889128638E-05    0.6954186679E+00    0.6584170870E+00    0.6494729175E-03
    0.3500000000E+07    0.4184968578E-04    0.7946065718E-05    0.6954167021E+00    0.6589156711E+00    0.6515989118E-03
    0.3700000000E+07    0.3751553501E-04    0.7146398302E-05    0.6954148371E+00    0.6593601421E+00    0.6536131165E-03
    0.3900000000E+07    0.3382018196E-04    0.6462384594E-05    0.6954130629E+00    0.6597588501E+00    0.6555269980E-03
    0.4100000000E+07    0.3064413847E-04    0.5872690774E-05    0.6954113707E+00    0.6601185123E+00    0.6573503304E-03
    0.4300000000E+07    0.2789458132E-04    0.5360691933E-05    0.6954097532E+00    0.6604445932E+00    0.6590915144E-03
    0.4500000000E+07    0.2549852140E-04    0.4913276592E-05    0.6954082039E+00    0.6607415837E+00    0.6607578241E-03
    0.4700000000E+07    0.2339792968E-04    0.4519991092E-05    0.6954067170E+00    0.6610132085E+00    0.6623556006E-03
    0.4900000000E+07    0.2154620493E-04    0.4172417720E-05    0.6954052877E+00    0.6612625827E+00    0.6638904055E-03
    0.1000000000E+07    0.4626883882E-03    0.8165544634E-04    0.6954562755E+00    0.6382486158E+00    0.6078008613E-03
    0.3000000000E+07    0.5663223540E-04    0.1065596153E-04    0.6954218323E+00    0.6575439893E+00    0.6460439152E-03
    0.5000000000E+07    0.2070157608E-04    0.4013583900E-05    0.6954045932E+00    0.6613797627E+00    0.6646357493E-03
    0.7000000000E+07    0.1061877401E-04    0.2099301235E-05    0.6953928802E+00    0.6630184670E+00    0.6771729476E-03
    0.9000000000E+07    0.6440637364E-05    0.1291675909E-05    0.6953839555E+00    0.6639273126E+00    0.6866910091E-03
    0.1100000000E+08    0.4318768362E-05    0.8758974854E-06    0.6953767236E+00    0.6645050610E+00    0.6943869174E-03
    0.1300000000E+08    0.3096304946E-05    0.6337132944E-06    0.6953706325E+00    0.6649047562E+00    0.7008592837E-03
    0.1500000000E+08    0.2328605597E-05    0.4802203201E-06    0.6953653640E+00    0.6651977166E+00    0.7064515106E-03
    0.1700000000E+08    0.1815269486E-05    0.3767724757E-06    0.6953607176E+00    0.6654216597E+00    0.7113792872E-03
    0.1900000000E+08    0.1455219351E-05    0.3037132353E-06    0.6953565587E+00    0.6655984050E+00    0.7157871432E-03
    0.2100000000E+08    0.1193002800E-05    0.2501796508E-06    0.6953527923E+00    0.6657414514E+00    0.7197767547E-03
    0.2300000000E+08    0.9961429849E-06    0.2097682976E-06    0.6953493490E+00    0.6658595982E+00    0.7234224197E-03
    0.2500000000E+08    0.8445969153E-06    0.1785042987E-06    0.6953461765E+00    0.6659588266E+00    0.7267801121E-03
    0.2700000000E+08    0.7254527770E-06    0.1538134891E-06    0.6953432341E+00    0.6660433442E+00    0.7298930704E-03
