  Pressure (Pa) 22mC5-500 (mol/kg) 23mC5-500 (mol/kg) 24mC5-500 (mol/kg) 3mC6-500 (mol/kg) C7-500 (mol/kg)
    0.1000000000E+01    0.4247064712E-05    0.1828310886E-05    0.1514001731E+00    0.3007010583E-05    0.4209611951E-02
    0.3000000000E+01    0.8268095055E-05    0.3547736464E-05    0.3164746646E+00    0.7751133920E-05    0.4264325311E-02
    0.5000000000E+01    0.1009055235E-04    0.4320813527E-05    0.4047321837E+00    0.1212610210E-04    0.4293186490E-02
    0.7000000000E+01    0.1109509257E-04    0.4744812539E-05    0.4596715900E+00    0.1632083841E-04    0.4311408193E-02
    0.9000000000E+01    0.1173492221E-04    0.5014672163E-05    0.4971640178E+00    0.2039951211E-04    0.4324047868E-02
    0.1100000000E+02    0.1219409438E-04    0.5209070215E-05    0.5243815422E+00    0.2439435913E-04    0.4333370388E-02
    0.1300000000E+02    0.1255795625E-04    0.5364241705E-05    0.5450389293E+00    0.2832462164E-04    0.4340551410E-02
    0.1500000000E+02    0.1286981824E-04    0.5498433930E-05    0.5612528315E+00    0.3220300824E-04    0.4346264569E-02
    0.1700000000E+02    0.1315311185E-04    0.5621432459E-05    0.5743177315E+00    0.3603849637E-04    0.4350924724E-02
    0.1900000000E+02    0.1342111236E-04    0.5738724344E-05    0.5850698025E+00    0.3983774084E-04    0.4354801914E-02
    0.2100000000E+02    0.1368159066E-04    0.5853481574E-05    0.5940732453E+00    0.4360585714E-04    0.4358079806E-02
    0.2300000000E+02    0.1393919401E-04    0.5967571561E-05    0.6017225492E+00    0.4734689075E-04    0.4360887877E-02
    0.2500000000E+02    0.1419673169E-04    0.6082100174E-05    0.6083018411E+00    0.5106411478E-04    0.4363320154E-02
    0.2700000000E+02    0.1445590038E-04    0.6197716481E-05    0.6140209560E+00    0.5476022754E-04    0.4365446659E-02
    0.2900000000E+02    0.1471770832E-04    0.6314789915E-05    0.6190382291E+00    0.5843748873E-04    0.4367320671E-02
    0.3100000000E+02    0.1498273086E-04    0.6433516339E-05    0.6234753820E+00    0.6209781608E-04    0.4368983488E-02
    0.3300000000E+02    0.1525126828E-04    0.6553983070E-05    0.6274275274E+00    0.6574285593E-04    0.4370467650E-02
    0.3500000000E+02    0.1552344524E-04    0.6676209530E-05    0.6309700635E+00    0.6937403578E-04    0.4371799165E-02
    0.3700000000E+02    0.1579927458E-04    0.6800173054E-05    0.6341635302E+00    0.7299260427E-04    0.4372999087E-02
    0.3900000000E+02    0.1607869863E-04    0.6925825472E-05    0.6370570971E+00    0.7659966209E-04    0.4374084656E-02
    0.4100000000E+02    0.1636161642E-04    0.7053103832E-05    0.6396911135E+00    0.8019618628E-04    0.4375070134E-02
    0.4300000000E+02    0.1664790155E-04    0.7181937370E-05    0.6420990012E+00    0.8378304945E-04    0.4375967428E-02
    0.4500000000E+02    0.1693741406E-04    0.7312252037E-05    0.6443086799E+00    0.8736103537E-04    0.4376786566E-02
    0.4700000000E+02    0.1723000824E-04    0.7443973399E-05    0.6463436547E+00    0.9093085159E-04    0.4377536057E-02
    0.4900000000E+02    0.1752553777E-04    0.7577028491E-05    0.6482238557E+00    0.9449313979E-04    0.4378223172E-02
    0.1000000000E+02    0.1198036646E-04    0.5118443388E-05    0.5117737394E+00    0.2240600970E-04    0.4329034204E-02
    0.3000000000E+02    0.1484979394E-04    0.6373939069E-05    0.6213228452E+00    0.6026966056E-04    0.4368176269E-02
    0.5000000000E+02    0.1767435824E-04    0.7644034073E-05    0.6491113306E+00    0.9627164556E-04    0.4378545327E-02
    0.7000000000E+02    0.2077326467E-04    0.9039026286E-05    0.6617957776E+00    0.1315649220E-03    0.4382855132E-02
    0.9000000000E+02    0.2404263884E-04    0.1050944160E-04    0.6690587833E+00    0.1665481153E-03    0.4384737488E-02
    0.1100000000E+03    0.2742580568E-04    0.1202962098E-04    0.6737639475E+00    0.2014247265E-03    0.4385354232E-02
    0.1300000000E+03    0.3089327189E-04    0.1358648478E-04    0.6770600744E+00    0.2363187567E-03    0.4385204749E-02
    0.1500000000E+03    0.3442893981E-04    0.1517299819E-04    0.6794976095E+00    0.2713143373E-03    0.4384543600E-02
    0.1700000000E+03    0.3802366660E-04    0.1678521981E-04    0.6813733261E+00    0.3064729561E-03    0.4383515941E-02
    0.1900000000E+03    0.4167215558E-04    0.1842090108E-04    0.6828613583E+00    0.3418421216E-03    0.4382211383E-02
    0.2100000000E+03    0.4537135875E-04    0.2007877460E-04    0.6840706181E+00    0.3774601798E-03    0.4380688609E-02
    0.2300000000E+03    0.4911960624E-04    0.2175816967E-04    0.6850727169E+00    0.4133591996E-03    0.4378987837E-02
    0.2500000000E+03    0.5291610743E-04    0.2345879358E-04    0.6859166744E+00    0.4495668014E-03    0.4377137628E-02
    0.2700000000E+03    0.5676065268E-04    0.2518060173E-04    0.6866371760E+00    0.4861073710E-03    0.4375158856E-02
    0.2900000000E+03    0.6065342859E-04    0.2692371763E-04    0.6872594552E+00    0.5230028962E-03    0.4373067134E-02
    0.3100000000E+03    0.6459490004E-04    0.2868838219E-04    0.6878023083E+00    0.5602735616E-03    0.4370874354E-02
    0.3300000000E+03    0.6858573306E-04    0.3047492065E-04    0.6882800231E+00    0.5979381837E-03    0.4368589719E-02
    0.3500000000E+03    0.7262674324E-04    0.3228372077E-04    0.6887036552E+00    0.6360145356E-03    0.4366220428E-02
    0.3700000000E+03    0.7671886080E-04    0.3411521795E-04    0.6890818920E+00    0.6745195966E-03    0.4363772170E-02
    0.3900000000E+03    0.8086310640E-04    0.3596988519E-04    0.6894216554E+00    0.7134697456E-03    0.4361249465E-02
    0.4100000000E+03    0.8506057444E-04    0.3784822612E-04    0.6897285281E+00    0.7528809148E-03    0.4358655920E-02
    0.4300000000E+03    0.8931242138E-04    0.3975077015E-04    0.6900070627E+00    0.7927687135E-03    0.4355994413E-02
    0.4500000000E+03    0.9361985758E-04    0.4167806922E-04    0.6902610087E+00    0.8331485301E-03    0.4353267239E-02
    0.4700000000E+03    0.9798414164E-04    0.4363069546E-04    0.6904934823E+00    0.8740356161E-03    0.4350476212E-02
    0.4900000000E+03    0.1024065766E-03    0.4560923973E-04    0.6907070943E+00    0.9154451571E-03    0.4347622752E-02
    0.1000000000E+03    0.2572226725E-04    0.1126432166E-04    0.6716385026E+00    0.1839907612E-03    0.4385164501E-02
    0.3000000000E+03    0.6261803976E-04    0.2780333768E-04    0.6875398288E+00    0.5415901325E-03    0.4371982747E-02
    0.5000000000E+03    0.1046400193E-03    0.4660842066E-04    0.6908075298E+00    0.9363505909E-03    0.4346172962E-02
    0.7000000000E+03    0.1527151202E-03    0.6811211758E-04    0.6922160004E+00    0.1385677858E-02    0.4314033026E-02
    0.9000000000E+03    0.2084354894E-03    0.9303087630E-04    0.6930001055E+00    0.1906046337E-02    0.4275688211E-02
    0.1100000000E+04    0.2738928501E-03    0.1223018830E-03    0.6934994434E+00    0.2517678792E-02    0.4230169637E-02
    0.1300000000E+04    0.3518880609E-03    0.1571786608E-03    0.6938451625E+00    0.3247265368E-02    0.4175831052E-02
    0.1500000000E+04    0.4462656729E-03    0.1993812606E-03    0.6940986123E+00    0.4131326823E-02    0.4110277697E-02
    0.1700000000E+04    0.5624282164E-03    0.2513265489E-03    0.6942923219E+00    0.5221189554E-02    0.4030100810E-02
    0.1900000000E+04    0.7081402818E-03    0.3164880841E-03    0.6944451433E+00    0.6590722378E-02    0.3930419419E-02
    0.2100000000E+04    0.8947948749E-03    0.3999628717E-03    0.6945687551E+00    0.8348546078E-02    0.3804158972E-02
    0.2300000000E+04    0.1139374399E-02    0.5093491281E-03    0.6946707772E+00    0.1065704595E-01    0.3640974990E-02
    0.2500000000E+04    0.1467262762E-02    0.6560054475E-03    0.6947563930E+00    0.1375993902E-01    0.3425835892E-02
    0.2700000000E+04    0.1915283614E-02    0.8564126127E-03    0.6948292508E+00    0.1801302063E-01    0.3137893330E-02
    0.2900000000E+04    0.2530978223E-02    0.1131856178E-02    0.6948919927E+00    0.2388117269E-01    0.2752532466E-02
    0.3100000000E+04    0.3354704765E-02    0.1500427917E-02    0.6949465791E+00    0.3177444480E-01    0.2255072599E-02
    0.3300000000E+04    0.4363128776E-02    0.1951751108E-02    0.6949944949E+00    0.4151361394E-01    0.1676796007E-02
    0.3500000000E+04    0.5405936487E-02    0.2418642474E-02    0.6950368859E+00    0.5170952140E-01    0.1125527898E-02
    0.3700000000E+04    0.6281091230E-02    0.2810721585E-02    0.6950746497E+00    0.6044038361E-01    0.7223439632E-03
    0.3900000000E+04    0.6913761732E-02    0.3094454729E-02    0.6951085000E+00    0.6695472596E-01    0.4926660129E-03
    0.4100000000E+04    0.7361641271E-02    0.3295595641E-02    0.6951390109E+00    0.7176398329E-01    0.3825246596E-03
    0.4300000000E+04    0.7704171152E-02    0.3449655920E-02    0.6951666496E+00    0.7560632720E-01    0.3345262546E-03
    0.4500000000E+04    0.7992718279E-02    0.3579606241E-02    0.6951918004E+00    0.7896517267E-01    0.3146877621E-03
    0.4700000000E+04    0.8253219297E-02    0.3697047329E-02    0.6952147820E+00    0.8208620007E-01    0.3068571675E-03
    0.4900000000E+04    0.8497584013E-02    0.3807306248E-02    0.6952358608E+00    0.8508242668E-01    0.3040174266E-03
    0.1000000000E+04    0.2397918525E-03    0.1070528756E-03    0.6932747224E+00    0.2198971826E-02    0.4253912938E-02
    0.3000000000E+04    0.2915833642E-02    0.1304048575E-02    0.6949202032E+00    0.2756278258E-01    0.2517508218E-02
    0.5000000000E+04    0.8615516032E-02    0.3860547693E-02    0.6952457583E+00    0.8655074870E-01    0.3034666598E-03
    0.7000000000E+04    0.1061259281E-01    0.4765214525E-02    0.6953834777E+00    0.1138014315E+00    0.3075790093E-03
    0.9000000000E+04    0.1208789096E-01    0.5438535264E-02    0.6954589450E+00    0.1380347188E+00    0.3119217089E-03
    0.1100000000E+05    0.1317128484E-01    0.5937562117E-02    0.6955062906E+00    0.1598241452E+00    0.3154301857E-03
    0.1300000000E+05    0.1395496082E-01    0.6302838530E-02    0.6955385908E+00    0.1795810896E+00    0.3183791951E-03
    0.1500000000E+05    0.1450718859E-01    0.6564444876E-02    0.6955619229E+00    0.1976241673E+00    0.3209261890E-03
    0.1700000000E+05    0.1487928558E-01    0.6745037816E-02    0.6955794913E+00    0.2142042910E+00    0.3231699165E-03
    0.1900000000E+05    0.1511033217E-01    0.6861909168E-02    0.6955931429E+00    0.2295220261E+00    0.3251764776E-03
    0.2100000000E+05    0.1523043132E-01    0.6928410064E-02    0.6956040164E+00    0.2437398664E+00    0.3269923361E-03
    0.2300000000E+05    0.1526300411E-01    0.6954954593E-02    0.6956128510E+00    0.2569910782E+00    0.3286514232E-03
    0.2500000000E+05    0.1522643352E-01    0.6949739059E-02    0.6956201470E+00    0.2693861802E+00    0.3301792887E-03
    0.2700000000E+05    0.1513525948E-01    0.6919265314E-02    0.6956262551E+00    0.2810177639E+00    0.3315956613E-03
    0.2900000000E+05    0.1500105952E-01    0.6868726810E-02    0.6956314280E+00    0.2919641285E+00    0.3329160984E-03
    0.3100000000E+05    0.1483310593E-01    0.6802296967E-02    0.6956358523E+00    0.3022920583E+00    0.3341530888E-03
    0.3300000000E+05    0.1463886181E-01    0.6723347062E-02    0.6956396687E+00    0.3120589677E+00    0.3353168130E-03
    0.3500000000E+05    0.1442435923E-01    0.6634612585E-02    0.6956429853E+00    0.3213145777E+00    0.3364156813E-03
    0.3700000000E+05    0.1419449048E-01    0.6538321494E-02    0.6956458864E+00    0.3301022382E+00    0.3374567229E-03
    0.3900000000E+05    0.1395323424E-01    0.6436293958E-02    0.6956484386E+00    0.3384599809E+00    0.3384458740E-03
    0.4100000000E+05    0.1370383268E-01    0.6330020571E-02    0.6956506954E+00    0.3464213653E+00    0.3393881943E-03
    0.4300000000E+05    0.1344893110E-01    0.6220724145E-02    0.6956526999E+00    0.3540161639E+00    0.3402880317E-03
    0.4500000000E+05    0.1319068890E-01    0.6109408866E-02    0.6956544877E+00    0.3612709205E+00    0.3411491506E-03
    0.4700000000E+05    0.1293086825E-01    0.5996899650E-02    0.6956560878E+00    0.3682094108E+00    0.3419748322E-03
    0.4900000000E+05    0.1267090535E-01    0.5883873847E-02    0.6956575247E+00    0.3748530216E+00    0.3427679542E-03
    0.1000000000E+05    0.1267215194E-01    0.5707011817E-02    0.6954850695E+00    0.1492066671E+00    0.3137592326E-03
    0.3000000000E+05    0.1492079800E-01    0.6837270964E-02    0.6956337240E+00    0.2972016114E+00    0.3335443412E-03
    0.5000000000E+05    0.1254124464E-01    0.5827344968E-02    0.6956581885E+00    0.3780703567E+00    0.3431531102E-03
    0.7000000000E+05    0.1012554052E-01    0.4759391179E-02    0.6956664629E+00    0.4307777161E+00    0.3496312074E-03
    0.9000000000E+05    0.8188138185E-02    0.3886624400E-02    0.6956698225E+00    0.4680280454E+00    0.3545488158E-03
    0.1100000000E+06    0.6696511057E-02    0.3205735960E-02    0.6956711651E+00    0.4956924629E+00    0.3585247895E-03
    0.1300000000E+06    0.5549769226E-02    0.2676761967E-02    0.6956715389E+00    0.5169769767E+00    0.3618685397E-03
    0.1500000000E+06    0.4659451418E-02    0.2262446518E-02    0.6956714019E+00    0.5338061790E+00    0.3647575388E-03
    0.1700000000E+06    0.3959087787E-02    0.1934039429E-02    0.6956709805E+00    0.5474094331E+00    0.3673032448E-03
    0.1900000000E+06    0.3400593139E-02    0.1670390792E-02    0.6956703962E+00    0.5586083938E+00    0.3695803390E-03
    0.2100000000E+06    0.2949360682E-02    0.1456090413E-02    0.6956697181E+00    0.5679720380E+00    0.3716413566E-03
    0.2300000000E+06    0.2580317496E-02    0.1279863362E-02    0.6956689877E+00    0.5759059797E+00    0.3735246853E-03
    0.2500000000E+06    0.2275093461E-02    0.1133380807E-02    0.6956682304E+00    0.5827065477E+00    0.3752592443E-03
    0.2700000000E+06    0.2020056370E-02    0.1010418142E-02    0.6956674622E+00    0.5885948461E+00    0.3768673727E-03
    0.2900000000E+06    0.1804957252E-02    0.9062662907E-03    0.6956666935E+00    0.5937389178E+00    0.3783666919E-03
    0.3100000000E+06    0.1621992296E-02    0.8173195533E-03    0.6956659308E+00    0.5982685723E+00    0.3797713517E-03
    0.3300000000E+06    0.1465147267E-02    0.7407849662E-03    0.6956651783E+00    0.6022855465E+00    0.3810928892E-03
    0.3500000000E+06    0.1329734111E-02    0.6744753059E-03    0.6956644388E+00    0.6058706175E+00    0.3823408373E-03
    0.3700000000E+06    0.1212059468E-02    0.6166600243E-03    0.6956637139E+00    0.6090886759E+00    0.3835231650E-03
    0.3900000000E+06    0.1109184627E-02    0.5659566773E-03    0.6956630045E+00    0.6119924057E+00    0.3846466031E-03
    0.4100000000E+06    0.1018749642E-02    0.5212509509E-03    0.6956623111E+00    0.6146249962E+00    0.3857168894E-03
    0.4300000000E+06    0.9388429854E-03    0.4816371077E-03    0.6956616337E+00    0.6170221667E+00    0.3867389551E-03
    0.4500000000E+06    0.8679038863E-03    0.4463731731E-03    0.6956609722E+00    0.6192136995E+00    0.3877170702E-03
    0.4700000000E+06    0.8046484104E-03    0.4148468759E-03    0.6956603264E+00    0.6212246123E+00    0.3886549568E-03
    0.4900000000E+06    0.7480129598E-03    0.3865495184E-03    0.6956596960E+00    0.6230760659E+00    0.3895558798E-03
    0.1000000000E+06    0.7392874537E-02    0.3524584703E-02    0.6956706594E+00    0.4828178419E+00    0.3566308662E-03
    0.3000000000E+06    0.1709869641E-02    0.8600831307E-03    0.6956663110E+00    0.5960736260E+00    0.3790800800E-03
    0.5000000000E+06    0.7218946831E-03    0.3734759707E-03    0.6956593864E+00    0.6239477314E+00    0.3899933931E-03
    0.7000000000E+06    0.3940450703E-03    0.2077927472E-03    0.6956538867E+00    0.6362338389E+00    0.3973526886E-03
    0.9000000000E+06    0.2472776389E-03    0.1322974626E-03    0.6956494156E+00    0.6431057405E+00    0.4029397949E-03
    0.1100000000E+07    0.1693413894E-03    0.9166074345E-04    0.6956456609E+00    0.6474857034E+00    0.4074573248E-03
    0.1300000000E+07    0.1231176565E-03    0.6729234614E-04    0.6956424262E+00    0.6505178789E+00    0.4112566526E-03
    0.1500000000E+07    0.9349256203E-04    0.5152887045E-04    0.6956395844E+00    0.6527401716E+00    0.4145393493E-03
    0.1700000000E+07    0.7338360443E-04    0.4074273747E-04    0.6956370494E+00    0.6544382832E+00    0.4174320206E-03
    0.1900000000E+07    0.5911645871E-04    0.3303579527E-04    0.6956347606E+00    0.6557778454E+00    0.4200195031E-03
    0.2100000000E+07    0.4863182346E-04    0.2733624416E-04    0.6956326735E+00    0.6568614352E+00    0.4223614788E-03
    0.2300000000E+07    0.4070324626E-04    0.2300152160E-04    0.6956307550E+00    0.6577559460E+00    0.4245015597E-03
    0.2500000000E+07    0.3456354020E-04    0.1962728934E-04    0.6956289792E+00    0.6585068504E+00    0.4264726016E-03
    0.2700000000E+07    0.2971296199E-04    0.1694873866E-04    0.6956273260E+00    0.6591461331E+00    0.4282999850E-03
    0.2900000000E+07    0.2581471463E-04    0.1478652075E-04    0.6956257791E+00    0.6596969432E+00    0.4300037313E-03
    0.3100000000E+07    0.2263514226E-04    0.1301564243E-04    0.6956243254E+00    0.6601764465E+00    0.4315999173E-03
    0.3300000000E+07    0.2000804157E-04    0.1154681701E-04    0.6956229541E+00    0.6605976400E+00    0.4331016517E-03
    0.3500000000E+07    0.1781258646E-04    0.1031487824E-04    0.6956216561E+00    0.6609705448E+00    0.4345197660E-03
    0.3700000000E+07    0.1595924090E-04    0.9271356742E-05    0.6956204238E+00    0.6613030110E+00    0.4358633150E-03
    0.3900000000E+07    0.1438052024E-04    0.8379592893E-05    0.6956192507E+00    0.6616012755E+00    0.4371399469E-03
    0.4100000000E+07    0.1302478412E-04    0.7611441683E-05    0.6956181312E+00    0.6618703556E+00    0.4383561810E-03
    0.4300000000E+07    0.1185197540E-04    0.6945003011E-05    0.6956170605E+00    0.6621143335E+00    0.4395176206E-03
    0.4500000000E+07    0.1083063809E-04    0.6363028174E-05    0.6956160344E+00    0.6623365641E+00    0.4406291177E-03
    0.4700000000E+07    0.9935793660E-05    0.5851781638E-05    0.6956150493E+00    0.6625398303E+00    0.4416949017E-03
    0.4900000000E+07    0.9147404624E-05    0.5400215208E-05    0.6956141019E+00    0.6627264596E+00    0.4427186824E-03
    0.1000000000E+07    0.2028314317E-03    0.1091821980E-03    0.6956474630E+00    0.6455144892E+00    0.4053054112E-03
    0.3000000000E+07    0.2414675479E-04    0.1385842005E-04    0.6956250413E+00    0.6599447145E+00    0.4308143897E-03
    0.5000000000E+07    0.8787936423E-05    0.5193941343E-05    0.6956136415E+00    0.6628141607E+00    0.4432158592E-03
    0.7000000000E+07    0.4504154042E-05    0.2712368106E-05    0.6956058643E+00    0.6640409586E+00    0.4515787632E-03
    0.9000000000E+07    0.2733486348E-05    0.1668225468E-05    0.6955999266E+00    0.6647216574E+00    0.4579278191E-03
    0.1100000000E+08    0.1835342559E-05    0.1131456619E-05    0.6955951092E+00    0.6651544984E+00    0.4630614387E-03
    0.1300000000E+08    0.1318194403E-05    0.8190568539E-06    0.6955910482E+00    0.6654540051E+00    0.4673789101E-03
    0.1500000000E+08    0.9934918684E-06    0.6211579498E-06    0.6955875335E+00    0.6656735647E+00    0.4711092926E-03
    0.1700000000E+08    0.7763622189E-06    0.4878175762E-06    0.6955844322E+00    0.6658414193E+00    0.4743964577E-03
    0.1900000000E+08    0.6240342787E-06    0.3936576846E-06    0.6955816551E+00    0.6659739101E+00    0.4773368116E-03
    0.2100000000E+08    0.5130570644E-06    0.3246631024E-06    0.6955791392E+00    0.6660811486E+00    0.4799981760E-03
    0.2300000000E+08    0.4297016545E-06    0.2725765274E-06    0.6955768385E+00    0.6661697268E+00    0.4824301105E-03
    0.2500000000E+08    0.3654976462E-06    0.2322743127E-06    0.6955747181E+00    0.6662441261E+00    0.4846699521E-03
    0.2700000000E+08    0.3149893318E-06    0.2004393314E-06    0.6955727510E+00    0.6663074991E+00    0.4867465427E-03
