  Pressure (Pa) 22mC5-500 (mol/kg) 23mC5-500 (mol/kg) 24mC5-500 (mol/kg) 3mC6-500 (mol/kg) C7-500 (mol/kg)
    0.1000000000E+01    0.4035092158E-05    0.5787909894E-06    0.1741044721E+00    0.2939235114E-05    0.4215921218E-02
    0.3000000000E+01    0.7461870912E-05    0.1066516408E-05    0.3481072546E+00    0.7598664934E-05    0.4271814419E-02
    0.5000000000E+01    0.8884865350E-05    0.1267279806E-05    0.4350704675E+00    0.1190070577E-04    0.4299729064E-02
    0.7000000000E+01    0.9644603059E-05    0.1374078740E-05    0.4872361157E+00    0.1602784795E-04    0.4316819786E-02
    0.9000000000E+01    0.1013335277E-04    0.1442982244E-05    0.5220080474E+00    0.2004219462E-04    0.4328458639E-02
    0.1100000000E+02    0.1049831552E-04    0.1494863004E-05    0.5468425727E+00    0.2397497691E-04    0.4336942358E-02
    0.1300000000E+02    0.1080352238E-04    0.1538718170E-05    0.5654670333E+00    0.2784485138E-04    0.4343425897E-02
    0.1500000000E+02    0.1107963544E-04    0.1578810315E-05    0.5799518540E+00    0.3166414721E-04    0.4348556189E-02
    0.1700000000E+02    0.1134231324E-04    0.1617288063E-05    0.5915391451E+00    0.3544157808E-04    0.4352724996E-02
    0.1900000000E+02    0.1159989253E-04    0.1655276494E-05    0.6010192691E+00    0.3918360597E-04    0.4356184052E-02
    0.2100000000E+02    0.1185691348E-04    0.1693374720E-05    0.6089190959E+00    0.4289519996E-04    0.4359102856E-02
    0.2300000000E+02    0.1211585637E-04    0.1731899488E-05    0.6156033599E+00    0.4658029097E-04    0.4361599939E-02
    0.2500000000E+02    0.1237804597E-04    0.1771011168E-05    0.6213325727E+00    0.5024206034E-04    0.4363760822E-02
    0.2700000000E+02    0.1264414373E-04    0.1810781792E-05    0.6262977679E+00    0.5388313141E-04    0.4365648854E-02
    0.2900000000E+02    0.1291442531E-04    0.1851233065E-05    0.6306422154E+00    0.5750570154E-04    0.4367312028E-02
    0.3100000000E+02    0.1318894132E-04    0.1892358170E-05    0.6344754713E+00    0.6111163601E-04    0.4368787409E-02
    0.3300000000E+02    0.1346761262E-04    0.1934134524E-05    0.6378827432E+00    0.6470253639E-04    0.4370104115E-02
    0.3500000000E+02    0.1375028753E-04    0.1976531325E-05    0.6409312986E+00    0.6827979160E-04    0.4371285360E-02
    0.3700000000E+02    0.1403677665E-04    0.2019514060E-05    0.6436749505E+00    0.7184461675E-04    0.4372349897E-02
    0.3900000000E+02    0.1432687402E-04    0.2063047171E-05    0.6461572607E+00    0.7539808312E-04    0.4373313055E-02
    0.4100000000E+02    0.1462036994E-04    0.2107095622E-05    0.6484138701E+00    0.7894114172E-04    0.4374187496E-02
    0.4300000000E+02    0.1491705864E-04    0.2151625782E-05    0.6504742207E+00    0.8247464208E-04    0.4374983781E-02
    0.4500000000E+02    0.1521674265E-04    0.2196605896E-05    0.6523628471E+00    0.8599934727E-04    0.4375710792E-02
    0.4700000000E+02    0.1551923520E-04    0.2242006293E-05    0.6541003581E+00    0.8951594624E-04    0.4376376062E-02
    0.4900000000E+02    0.1582436130E-04    0.2287799442E-05    0.6557041915E+00    0.9302506385E-04    0.4376986023E-02
    0.1000000000E+02    0.1032618075E-04    0.1470328172E-05    0.5353807528E+00    0.2201742007E-04    0.4333006241E-02
    0.3000000000E+02    0.1305115673E-04    0.1871712538E-05    0.6326169327E+00    0.5931064262E-04    0.4368071214E-02
    0.5000000000E+02    0.1597786055E-04    0.2310835274E-05    0.6564607088E+00    0.9477699698E-04    0.4377272021E-02
    0.7000000000E+02    0.1915269635E-04    0.2787017442E-05    0.6672378192E+00    0.1295381878E-03    0.4381096973E-02
    0.9000000000E+02    0.2246782086E-04    0.3283677385E-05    0.6733788443E+00    0.1639824583E-03    0.4382757863E-02
    0.1100000000E+03    0.2587375995E-04    0.3793464613E-05    0.6773455825E+00    0.1983079965E-03    0.4383282811E-02
    0.1300000000E+03    0.2934667625E-04    0.4312902878E-05    0.6801189909E+00    0.2326354635E-03    0.4383115530E-02
    0.1500000000E+03    0.3287430762E-04    0.4840232277E-05    0.6821670849E+00    0.2670465985E-03    0.4382483311E-02
    0.1700000000E+03    0.3645009997E-04    0.5374528576E-05    0.6837414456E+00    0.3016010114E-03    0.4381516406E-02
    0.1900000000E+03    0.4007053662E-04    0.5915307638E-05    0.6849893659E+00    0.3363446328E-03    0.4380295613E-02
    0.2100000000E+03    0.4373381928E-04    0.6462331988E-05    0.6860028139E+00    0.3713144155E-03    0.4378874090E-02
    0.2300000000E+03    0.4743917126E-04    0.7015509482E-05    0.6868421784E+00    0.4065411497E-03    0.4377288428E-02
    0.2500000000E+03    0.5118644874E-04    0.7574837192E-05    0.6875487514E+00    0.4420512494E-03    0.4375564725E-02
    0.2700000000E+03    0.5497591400E-04    0.8140368921E-05    0.6881517235E+00    0.4778679374E-03    0.4373722132E-02
    0.2900000000E+03    0.5880809828E-04    0.8712195699E-05    0.6886723146E+00    0.5140120623E-03    0.4371775031E-02
    0.3100000000E+03    0.6268371639E-04    0.9290433721E-05    0.6891263204E+00    0.5505026789E-03    0.4369734426E-02
    0.3300000000E+03    0.6660361214E-04    0.9875216719E-05    0.6895257412E+00    0.5873574731E-03    0.4367608866E-02
    0.3500000000E+03    0.7056872296E-04    0.1046669104E-04    0.6898798575E+00    0.6245930787E-03    0.4365405070E-02
    0.3700000000E+03    0.7458005651E-04    0.1106501245E-04    0.6901959591E+00    0.6622253198E-03    0.4363128374E-02
    0.3900000000E+03    0.7863867519E-04    0.1167034402E-04    0.6904798515E+00    0.7002693997E-03    0.4360783041E-02
    0.4100000000E+03    0.8274568576E-04    0.1228285474E-04    0.6907362158E+00    0.7387400497E-03    0.4358372496E-02
    0.4300000000E+03    0.8690223247E-04    0.1290271863E-04    0.6909688677E+00    0.7776516496E-03    0.4355899490E-02
    0.4500000000E+03    0.9110949255E-04    0.1353011416E-04    0.6911809492E+00    0.8170183255E-03    0.4353366239E-02
    0.4700000000E+03    0.9536867342E-04    0.1416522392E-04    0.6913750707E+00    0.8568540307E-03    0.4350774515E-02
    0.4900000000E+03    0.9968101093E-04    0.1480823440E-04    0.6915534188E+00    0.8971726146E-03    0.4348125724E-02
    0.1000000000E+03    0.2416130491E-04    0.3537203481E-05    0.6755548311E+00    0.1811513251E-03    0.4383127225E-02
    0.3000000000E+03    0.6074042791E-04    0.9000505289E-05    0.6889068164E+00    0.5322129258E-03    0.4370765833E-02
    0.5000000000E+03    0.1018575072E-03    0.1513276174E-04    0.6916372662E+00    0.9175172999E-03    0.4346780285E-02
    0.7000000000E+03    0.1485045609E-03    0.2208713226E-04    0.6928125507E+00    0.1353185114E-02    0.4317022693E-02
    0.9000000000E+03    0.2021294202E-03    0.3008066739E-04    0.6934663339E+00    0.1853971991E-02    0.4281711014E-02
    0.1100000000E+04    0.2645730083E-03    0.3938827241E-04    0.6938824491E+00    0.2437618842E-02    0.4240078374E-02
    0.1300000000E+04    0.3382512759E-03    0.5037035846E-04    0.6941704195E+00    0.3127136569E-02    0.4190785572E-02
    0.1500000000E+04    0.4264216899E-03    0.6351272515E-04    0.6943814509E+00    0.3953477686E-02    0.4131892757E-02
    0.1700000000E+04    0.5335800760E-03    0.7948579703E-04    0.6945426834E+00    0.4959374443E-02    0.4060671485E-02
    0.1900000000E+04    0.6660686146E-03    0.9923532987E-04    0.6946698409E+00    0.6205188250E-02    0.3973272804E-02
    0.2100000000E+04    0.8330210188E-03    0.1241234132E-03    0.6947726615E+00    0.7778016752E-02    0.3864203661E-02
    0.2300000000E+04    0.1047827721E-02    0.1561470700E-03    0.6948574981E+00    0.9805872343E-02    0.3725534077E-02
    0.2500000000E+04    0.1330322279E-02    0.1982645359E-03    0.6949286709E+00    0.1247900300E-01    0.3545777110E-02
    0.2700000000E+04    0.1709633894E-02    0.2548211618E-03    0.6949892204E+00    0.1607816960E-01    0.3308610162E-02
    0.2900000000E+04    0.2226255338E-02    0.3318589428E-03    0.6950413480E+00    0.2099674216E-01    0.2992575315E-02
    0.3100000000E+04    0.2927002593E-02    0.4363671244E-03    0.6950866869E+00    0.2769730785E-01    0.2575894099E-02
    0.3300000000E+04    0.3836327947E-02    0.5720072721E-03    0.6951264742E+00    0.3644439603E-01    0.2055852394E-02
    0.3500000000E+04    0.4891775269E-02    0.7294872217E-03    0.6951616641E+00    0.4668744604E-01    0.1486004971E-02
    0.3700000000E+04    0.5913046512E-02    0.8819351149E-03    0.6951930043E+00    0.5673905310E-01    0.9830681393E-03
    0.3900000000E+04    0.6727362917E-02    0.1003578477E-02    0.6952210888E+00    0.6493831032E-01    0.6400126866E-03
    0.4100000000E+04    0.7308296405E-02    0.1090455776E-02    0.6952463957E+00    0.7099152729E-01    0.4523586059E-03
    0.4300000000E+04    0.7727082392E-02    0.1153174364E-02    0.6952693141E+00    0.7554599051E-01    0.3633696002E-03
    0.4500000000E+04    0.8055833074E-02    0.1202481178E-02    0.6952901637E+00    0.7927550713E-01    0.3243388880E-03
    0.4700000000E+04    0.8338069799E-02    0.1244864279E-02    0.6953092097E+00    0.8259102000E-01    0.3079861832E-03
    0.4900000000E+04    0.8595506478E-02    0.1283561229E-02    0.6953266741E+00    0.8569869573E-01    0.3014401384E-03
    0.1000000000E+04    0.2321139890E-03    0.3455008489E-04    0.6936952064E+00    0.2134150585E-02    0.4261755728E-02
    0.3000000000E+04    0.2550958927E-02    0.3802826659E-03    0.6950647810E+00    0.2409742512E-01    0.2797811400E-02
    0.5000000000E+04    0.8718329816E-02    0.1302035093E-02    0.6953348728E+00    0.8720696471E-01    0.2999224338E-03
    0.7000000000E+04    0.1077848729E-01    0.1612956627E-02    0.6954488053E+00    0.1149435347E+00    0.3020969375E-03
    0.9000000000E+04    0.1230818660E-01    0.1845502702E-02    0.6955110594E+00    0.1396381264E+00    0.3063584556E-03
    0.1100000000E+05    0.1343838865E-01    0.2018850914E-02    0.6955500006E+00    0.1618770789E+00    0.3098022918E-03
    0.1300000000E+05    0.1426058461E-01    0.2146406133E-02    0.6955764863E+00    0.1820585908E+00    0.3126972814E-03
    0.1500000000E+05    0.1484332408E-01    0.2238230171E-02    0.6955955579E+00    0.2004946582E+00    0.3151978083E-03
    0.1700000000E+05    0.1523865127E-01    0.2301977347E-02    0.6956098712E+00    0.2174334733E+00    0.3174007239E-03
    0.1900000000E+05    0.1548653947E-01    0.2343539382E-02    0.6956209555E+00    0.2330751838E+00    0.3193708708E-03
    0.2100000000E+05    0.1561800498E-01    0.2367498493E-02    0.6956297528E+00    0.2475832020E+00    0.3211538356E-03
    0.2300000000E+05    0.1565733047E-01    0.2377451129E-02    0.6956368740E+00    0.2610924581E+00    0.3227829129E-03
    0.2500000000E+05    0.1562367687E-01    0.2376242841E-02    0.6956427325E+00    0.2737155178E+00    0.3242831757E-03
    0.2700000000E+05    0.1553226807E-01    0.2366141053E-02    0.6956476174E+00    0.2855471792E+00    0.3256739858E-03
    0.2900000000E+05    0.1539527257E-01    0.2348963761E-02    0.6956517370E+00    0.2966679732E+00    0.3269706123E-03
    0.3100000000E+05    0.1522246724E-01    0.2326176507E-02    0.6956552450E+00    0.3071468593E+00    0.3281853133E-03
    0.3300000000E+05    0.1502174210E-01    0.2298966237E-02    0.6956582572E+00    0.3170433254E+00    0.3293280819E-03
    0.3500000000E+05    0.1479948811E-01    0.2268298085E-02    0.6956608624E+00    0.3264090393E+00    0.3304071735E-03
    0.3700000000E+05    0.1456089753E-01    0.2234959419E-02    0.6956631298E+00    0.3352891607E+00    0.3314294885E-03
    0.3900000000E+05    0.1431019852E-01    0.2199594303E-02    0.6956651140E+00    0.3437233920E+00    0.3324008543E-03
    0.4100000000E+05    0.1405083982E-01    0.2162730647E-02    0.6956668588E+00    0.3517468272E+00    0.3333262380E-03
    0.4300000000E+05    0.1378563698E-01    0.2124801755E-02    0.6956683997E+00    0.3593906427E+00    0.3342099081E-03
    0.4500000000E+05    0.1351688903E-01    0.2086163536E-02    0.6956697655E+00    0.3666826648E+00    0.3350555603E-03
    0.4700000000E+05    0.1324647203E-01    0.2047108333E-02    0.6956709802E+00    0.3736478368E+00    0.3358664160E-03
    0.4900000000E+05    0.1297591449E-01    0.2007876092E-02    0.6956720635E+00    0.3803086086E+00    0.3366453005E-03
    0.1000000000E+05    0.1291687570E-01    0.1938646840E-02    0.6955325608E+00    0.1510373287E+00    0.3081620688E-03
    0.3000000000E+05    0.1531281382E-01    0.2338191402E-02    0.6956535595E+00    0.3019837360E+00    0.3275875329E-03
    0.5000000000E+05    0.1284098094E-01    0.1988256509E-02    0.6956725613E+00    0.3835312594E+00    0.3370235438E-03
    0.7000000000E+05    0.1033120101E-01    0.1618258776E-02    0.6956785271E+00    0.4360359808E+00    0.3433854805E-03
    0.9000000000E+05    0.8327608918E-02    0.1317318032E-02    0.6956806230E+00    0.4728065178E+00    0.3482150167E-03
    0.1100000000E+06    0.6792386690E-02    0.1083678195E-02    0.6956811740E+00    0.4999408720E+00    0.3521198316E-03
    0.1300000000E+06    0.5617052489E-02    0.9029317680E-03    0.6956810085E+00    0.5207264724E+00    0.3554037645E-03
    0.1500000000E+06    0.4707712996E-02    0.7618605336E-03    0.6956804828E+00    0.5371128249E+00    0.3582410972E-03
    0.1700000000E+06    0.3994439434E-02    0.6503638022E-03    0.6956797692E+00    0.5503324129E+00    0.3607412866E-03
    0.1900000000E+06    0.3426995632E-02    0.5610662167E-03    0.6956789583E+00    0.5612021205E+00    0.3629776738E-03
    0.2100000000E+06    0.2969430858E-02    0.4886258743E-03    0.6956781003E+00    0.5702838734E+00    0.3650018520E-03
    0.2300000000E+06    0.2595819800E-02    0.4291533284E-03    0.6956772240E+00    0.5779761608E+00    0.3668515212E-03
    0.2500000000E+06    0.2287241515E-02    0.3797869896E-03    0.6956763465E+00    0.5845689053E+00    0.3685550823E-03
    0.2700000000E+06    0.2029700825E-02    0.3383954367E-03    0.6956754781E+00    0.5902777289E+00    0.3701344743E-03
    0.2900000000E+06    0.1812704930E-02    0.3033707832E-03    0.6956746247E+00    0.5952660905E+00    0.3716070032E-03
    0.3100000000E+06    0.1628283201E-02    0.2734848693E-03    0.6956737898E+00    0.5996600069E+00    0.3729865654E-03
    0.3300000000E+06    0.1470305274E-02    0.2477883449E-03    0.6956729753E+00    0.6035580896E+00    0.3742844917E-03
    0.3500000000E+06    0.1334000954E-02    0.2255390923E-03    0.6956721821E+00    0.6070385407E+00    0.3755101442E-03
    0.3700000000E+06    0.1215617892E-02    0.2061508593E-03    0.6956714104E+00    0.6101641248E+00    0.3766713495E-03
    0.3900000000E+06    0.1112174428E-02    0.1891559598E-03    0.6956706600E+00    0.6129857658E+00    0.3777747179E-03
    0.4100000000E+06    0.1021278937E-02    0.1741778702E-03    0.6956699305E+00    0.6155451893E+00    0.3788258846E-03
    0.4300000000E+06    0.9409962416E-03    0.1609108691E-03    0.6956692211E+00    0.6178768926E+00    0.3798296926E-03
    0.4500000000E+06    0.8697477172E-03    0.1491047473E-03    0.6956685314E+00    0.6200096328E+00    0.3807903355E-03
    0.4700000000E+06    0.8062358119E-03    0.1385532081E-03    0.6956678604E+00    0.6219675642E+00    0.3817114689E-03
    0.4900000000E+06    0.7493864388E-03    0.1290849813E-03    0.6956672075E+00    0.6237711164E+00    0.3825962992E-03
    0.1000000000E+06    0.7508239461E-02    0.1192954754E-02    0.6956810229E+00    0.4873305058E+00    0.3502597995E-03
    0.3000000000E+06    0.1716842146E-02    0.2878503969E-03    0.6956742048E+00    0.5975306426E+00    0.3723076448E-03
    0.5000000000E+06    0.7231745189E-03    0.1247114426E-03    0.6956668875E+00    0.6246205382E+00    0.3830259976E-03
    0.7000000000E+06    0.3944223084E-03    0.6933109781E-04    0.6956612629E+00    0.6366181051E+00    0.3902538494E-03
    0.9000000000E+06    0.2474181314E-03    0.4412516857E-04    0.6956567469E+00    0.6433539362E+00    0.3957411743E-03
    0.1100000000E+07    0.1693996385E-03    0.3056516060E-04    0.6956529794E+00    0.6476592218E+00    0.4001780289E-03
    0.1300000000E+07    0.1231417923E-03    0.2243626938E-04    0.6956497471E+00    0.6506460540E+00    0.4039095098E-03
    0.1500000000E+07    0.9350074969E-04    0.1717887442E-04    0.6956469152E+00    0.6528387586E+00    0.4071335870E-03
    0.1700000000E+07    0.7338368911E-04    0.1358198779E-04    0.6956443943E+00    0.6545164944E+00    0.4099746046E-03
    0.1900000000E+07    0.5911218255E-04    0.1101217129E-04    0.6956421216E+00    0.6558414258E+00    0.4125158838E-03
    0.2100000000E+07    0.4862511167E-04    0.9111836072E-05    0.6956400518E+00    0.6569141533E+00    0.4148160407E-03
    0.2300000000E+07    0.4069514918E-04    0.7666637948E-05    0.6956381509E+00    0.6578003767E+00    0.4169179083E-03
    0.2500000000E+07    0.3455465782E-04    0.6541716092E-05    0.6956363928E+00    0.6585448131E+00    0.4188537556E-03
    0.2700000000E+07    0.2970364956E-04    0.5648756238E-05    0.6956347572E+00    0.6591789500E+00    0.4206485099E-03
    0.2900000000E+07    0.2580518835E-04    0.4927949770E-05    0.6956332277E+00    0.6597255983E+00    0.4223218349E-03
    0.3100000000E+07    0.2262553631E-04    0.4337616977E-05    0.6956317911E+00    0.6602016875E+00    0.4238895204E-03
    0.3300000000E+07    0.1999844028E-04    0.3847986187E-05    0.6956304364E+00    0.6606200452E+00    0.4253644409E-03
    0.3500000000E+07    0.1780304307E-04    0.3437329338E-05    0.6956291547E+00    0.6609905685E+00    0.4267572345E-03
    0.3700000000E+07    0.1594978881E-04    0.3089486087E-05    0.6956279382E+00    0.6613210152E+00    0.4280767944E-03
    0.3900000000E+07    0.1437118003E-04    0.2792233999E-05    0.6956267804E+00    0.6616175521E+00    0.4293306320E-03
    0.4100000000E+07    0.1301556791E-04    0.2536189675E-05    0.6956256759E+00    0.6618851428E+00    0.4305251503E-03
    0.4300000000E+07    0.1184288976E-04    0.2314051902E-05    0.6956246198E+00    0.6621278275E+00    0.4316658527E-03
    0.4500000000E+07    0.1082168585E-04    0.2120070300E-05    0.6956236079E+00    0.6623489279E+00    0.4327575042E-03
    0.4700000000E+07    0.9926975155E-05    0.1949665790E-05    0.6956226366E+00    0.6625512005E+00    0.4338042590E-03
    0.4900000000E+07    0.9138718558E-05    0.1799155242E-05    0.6956217027E+00    0.6627369516E+00    0.4348097605E-03
    0.1000000000E+07    0.2029212613E-03    0.3641121710E-04    0.6956547854E+00    0.6457203419E+00    0.3980645443E-03
    0.3000000000E+07    0.2413717557E-04    0.4618560161E-05    0.6956324985E+00    0.6599715809E+00    0.4231180186E-03
    0.5000000000E+07    0.8779315735E-05    0.1730403215E-05    0.6956212489E+00    0.6628242514E+00    0.4352980605E-03
    0.7000000000E+07    0.4496655466E-05    0.9033251330E-06    0.6956135881E+00    0.6640462108E+00    0.4435116506E-03
    0.9000000000E+07    0.2726787607E-05    0.5553638419E-06    0.6956077444E+00    0.6647248660E+00    0.4497473513E-03
    0.1100000000E+08    0.1829233229E-05    0.3765054132E-06    0.6956030057E+00    0.6651566533E+00    0.4547893174E-03
    0.1300000000E+08    0.1312539730E-05    0.2724221104E-06    0.6955990125E+00    0.6654555450E+00    0.4590297077E-03
    0.1500000000E+08    0.9882010424E-06    0.2064957911E-06    0.6955955572E+00    0.6656747138E+00    0.4626934914E-03
    0.1700000000E+08    0.7713709789E-06    0.1620818856E-06    0.6955925090E+00    0.6658423041E+00    0.4659219711E-03
    0.1900000000E+08    0.6192952816E-06    0.1307229018E-06    0.6955897798E+00    0.6659746076E+00    0.4688098316E-03
    0.2100000000E+08    0.5085342733E-06    0.1077483652E-06    0.6955873077E+00    0.6660817082E+00    0.4714236837E-03
    0.2300000000E+08    0.4253668971E-06    0.9040671391E-07    0.6955850473E+00    0.6661701819E+00    0.4738122023E-03
    0.2500000000E+08    0.3613284072E-06    0.7699069358E-07    0.6955829641E+00    0.6662444997E+00    0.4760120575E-03
    0.2700000000E+08    0.3109672804E-06    0.6639506005E-07    0.6955810319E+00    0.6663078080E+00    0.4780515764E-03
