  Pressure (Pa) 22mC5-500 (mol/kg) 23mC5-500 (mol/kg) 24mC5-500 (mol/kg) 3mC6-500 (mol/kg) C7-500 (mol/kg)
    0.1000000000E+01    0.4599415822E-05    0.1982599616E-05    0.1266361670E+00    0.1021424490E-04    0.4145852510E-02
    0.3000000000E+01    0.9511654488E-05    0.4088761139E-05    0.2785411863E+00    0.2523419717E-04    0.4172240667E-02
    0.5000000000E+01    0.1203109691E-04    0.5162763235E-05    0.3664574694E+00    0.3887985760E-04    0.4179999958E-02
    0.7000000000E+01    0.1353637216E-04    0.5802088392E-05    0.4237830488E+00    0.5188750045E-04    0.4183821270E-02
    0.9000000000E+01    0.1454324862E-04    0.6229293175E-05    0.4641181208E+00    0.6449993423E-04    0.4185928259E-02
    0.1100000000E+02    0.1528150592E-04    0.6543076507E-05    0.4940414580E+00    0.7683714417E-04    0.4187098752E-02
    0.1300000000E+02    0.1586585080E-04    0.6792469003E-05    0.5171236527E+00    0.8896991438E-04    0.4187693951E-02
    0.1500000000E+02    0.1635835275E-04    0.7003862386E-05    0.5354701175E+00    0.1009445703E-03    0.4187908473E-02
    0.1700000000E+02    0.1679466926E-04    0.7192331365E-05    0.5504027015E+00    0.1127935972E-03    0.4187857540E-02
    0.1900000000E+02    0.1719624252E-04    0.7366883842E-05    0.5627931819E+00    0.1245409312E-03    0.4187614048E-02
    0.2100000000E+02    0.1757643200E-04    0.7533092748E-05    0.5732397932E+00    0.1362048812E-03    0.4187226473E-02
    0.2300000000E+02    0.1794379459E-04    0.7694499244E-05    0.5821667116E+00    0.1477998679E-03    0.4186728330E-02
    0.2500000000E+02    0.1830392933E-04    0.7853399233E-05    0.5898830670E+00    0.1593375208E-03    0.4186143541E-02
    0.2700000000E+02    0.1866055877E-04    0.8011302797E-05    0.5966194700E+00    0.1708274031E-03    0.4185489626E-02
    0.2900000000E+02    0.1901618545E-04    0.8169212043E-05    0.6025514535E+00    0.1822775087E-03    0.4184779708E-02
    0.3100000000E+02    0.1937250222E-04    0.8327794121E-05    0.6078149895E+00    0.1936946132E-03    0.4184023800E-02
    0.3300000000E+02    0.1973065546E-04    0.8487491709E-05    0.6125170394E+00    0.2050845298E-03    0.4183229666E-02
    0.3500000000E+02    0.2009141751E-04    0.8648595085E-05    0.6167428997E+00    0.2164522990E-03    0.4182403415E-02
    0.3700000000E+02    0.2045530185E-04    0.8811290033E-05    0.6205614227E+00    0.2278023317E-03    0.4181549913E-02
    0.3900000000E+02    0.2082264131E-04    0.8975690182E-05    0.6240287969E+00    0.2391385207E-03    0.4180673080E-02
    0.4100000000E+02    0.2119364189E-04    0.9141859153E-05    0.6271913310E+00    0.2504643268E-03    0.4179776101E-02
    0.4300000000E+02    0.2156842027E-04    0.9309825885E-05    0.6300875337E+00    0.2617828478E-03    0.4178861593E-02
    0.4500000000E+02    0.2194703023E-04    0.9479595357E-05    0.6327496894E+00    0.2730968736E-03    0.4177931718E-02
    0.4700000000E+02    0.2232948145E-04    0.9651156147E-05    0.6352050673E+00    0.2844089309E-03    0.4176988279E-02
    0.4900000000E+02    0.2271575290E-04    0.9824485784E-05    0.6374768589E+00    0.2957213198E-03    0.4176032785E-02
    0.1000000000E+02    0.1493708588E-04    0.6396566111E-05    0.4801119091E+00    0.7069776042E-04    0.4186602455E-02
    0.3000000000E+02    0.1919417548E-04    0.8248387039E-05    0.6052595110E+00    0.1879898026E-03    0.4184406973E-02
    0.5000000000E+02    0.2291030869E-04    0.9911804840E-05    0.6385502261E+00    0.3013783030E-03    0.4175550923E-02
    0.7000000000E+02    0.2698701384E-04    0.1174248889E-04    0.6539662440E+00    0.4149665303E-03    0.4165504141E-02
    0.9000000000E+02    0.3137232876E-04    0.1371148786E-04    0.6628568907E+00    0.5302325157E-03    0.4154960205E-02
    0.1100000000E+03    0.3601971130E-04    0.1579690138E-04    0.6686416275E+00    0.6480070654E-03    0.4144080762E-02
    0.1300000000E+03    0.4090532819E-04    0.1798790413E-04    0.6727060005E+00    0.7688718934E-03    0.4132904345E-02
    0.1500000000E+03    0.4601932957E-04    0.2028014360E-04    0.6757181134E+00    0.8932942754E-03    0.4121430692E-02
    0.1700000000E+03    0.5136013780E-04    0.2267301378E-04    0.6780397740E+00    0.1021685464E-02    0.4109644800E-02
    0.1900000000E+03    0.5693136072E-04    0.2516822761E-04    0.6798839741E+00    0.1154430461E-02    0.4097525152E-02
    0.2100000000E+03    0.6274012871E-04    0.2776906100E-04    0.6813842681E+00    0.1291905183E-02    0.4085046824E-02
    0.2300000000E+03    0.6879618335E-04    0.3047994359E-04    0.6826286482E+00    0.1434487438E-02    0.4072182703E-02
    0.2500000000E+03    0.7511137634E-04    0.3330623587E-04    0.6836774472E+00    0.1582564674E-02    0.4058903912E-02
    0.2700000000E+03    0.8169940296E-04    0.3625411203E-04    0.6845734146E+00    0.1736539949E-02    0.4045179908E-02
    0.2900000000E+03    0.8857567713E-04    0.3933050590E-04    0.6853476872E+00    0.1896836934E-02    0.4030978399E-02
    0.3100000000E+03    0.9575729694E-04    0.4254309721E-04    0.6860234815E+00    0.2063904415E-02    0.4016265186E-02
    0.3300000000E+03    0.1032630721E-03    0.4590032516E-04    0.6866184616E+00    0.2238220588E-02    0.4001003950E-02
    0.3500000000E+03    0.1111135972E-03    0.4941142222E-04    0.6871463054E+00    0.2420297344E-02    0.3985156005E-02
    0.3700000000E+03    0.1193313607E-03    0.5308646386E-04    0.6876177688E+00    0.2610684676E-02    0.3968680028E-02
    0.3900000000E+03    0.1279408866E-03    0.5693643231E-04    0.6880414269E+00    0.2809975345E-02    0.3951531759E-02
    0.4100000000E+03    0.1369689039E-03    0.6097329308E-04    0.6884241994E+00    0.3018809876E-02    0.3933663672E-02
    0.4300000000E+03    0.1464445452E-03    0.6521008425E-04    0.6887717322E+00    0.3237881984E-02    0.3915024623E-02
    0.4500000000E+03    0.1563995751E-03    0.6966101869E-04    0.6890886774E+00    0.3467944519E-02    0.3895559456E-02
    0.4700000000E+03    0.1668686481E-03    0.7434160001E-04    0.6893789027E+00    0.3709815998E-02    0.3875208584E-02
    0.4900000000E+03    0.1778896006E-03    0.7926875316E-04    0.6896456502E+00    0.3964387832E-02    0.3853907517E-02
    0.1000000000E+03    0.3366517056E-04    0.1474051582E-04    0.6660260405E+00    0.5887661723E-03    0.4149558616E-02
    0.3000000000E+03    0.9212718400E-04    0.4091926753E-04    0.6856966813E+00    0.1979495214E-02    0.4023687973E-02
    0.5000000000E+03    0.1836198054E-03    0.8183050761E-04    0.6897710923E+00    0.4096736831E-02    0.3842879044E-02
    0.7000000000E+03    0.3401256302E-03    0.1517922814E-03    0.6915320301E+00    0.7713915252E-02    0.3551028550E-02
    0.9000000000E+03    0.6417741932E-03    0.2866398593E-03    0.6925141378E+00    0.1471519301E-01    0.3021157955E-02
    0.1100000000E+04    0.1264572454E-02    0.5651169671E-03    0.6931405066E+00    0.2929818527E-01    0.2014100003E-02
    0.1300000000E+04    0.2198054925E-02    0.9827569292E-03    0.6935747621E+00    0.5157996222E-01    0.7270209812E-03
    0.1500000000E+04    0.2825424729E-02    0.1263885562E-02    0.6938935234E+00    0.6731679509E-01    0.1684130570E-03
    0.1700000000E+04    0.3173792481E-02    0.1420432703E-02    0.6941374485E+00    0.7682329335E-01    0.7272080678E-04
    0.1900000000E+04    0.3449428413E-02    0.1544564746E-02    0.6943301161E+00    0.8482592745E-01    0.6061128022E-04
    0.2100000000E+04    0.3699559976E-02    0.1657388346E-02    0.6944861416E+00    0.9241631414E-01    0.5938241559E-04
    0.2300000000E+04    0.3932054542E-02    0.1762412204E-02    0.6946150665E+00    0.9976589467E-01    0.5949128179E-04
    0.2500000000E+04    0.4148878550E-02    0.1860506114E-02    0.6947233843E+00    0.1069068708E+00    0.5974777248E-04
    0.2700000000E+04    0.4351126282E-02    0.1952150370E-02    0.6948156677E+00    0.1138515220E+00    0.6000535824E-04
    0.2900000000E+04    0.4539715883E-02    0.2037747201E-02    0.6948952296E+00    0.1206089043E+00    0.6024783004E-04
    0.3100000000E+04    0.4715488426E-02    0.2117665062E-02    0.6949645294E+00    0.1271871893E+00    0.6047507690E-04
    0.3300000000E+04    0.4879225566E-02    0.2192246477E-02    0.6950254308E+00    0.1335940192E+00    0.6068870328E-04
    0.3500000000E+04    0.5031655750E-02    0.2261810770E-02    0.6950793721E+00    0.1398365866E+00    0.6089025760E-04
    0.3700000000E+04    0.5173458549E-02    0.2326655953E-02    0.6951274810E+00    0.1459216717E+00    0.6108106146E-04
    0.3900000000E+04    0.5305268411E-02    0.2387060357E-02    0.6951706542E+00    0.1518556729E+00    0.6126223247E-04
    0.4100000000E+04    0.5427678078E-02    0.2443284125E-02    0.6952096133E+00    0.1576446334E+00    0.6143472164E-04
    0.4300000000E+04    0.5541241705E-02    0.2495570562E-02    0.6952449460E+00    0.1632942657E+00    0.6159934471E-04
    0.4500000000E+04    0.5646477708E-02    0.2544147383E-02    0.6952771356E+00    0.1688099739E+00    0.6175680667E-04
    0.4700000000E+04    0.5743871387E-02    0.2589227847E-02    0.6953065831E+00    0.1741968747E+00    0.6190772102E-04
    0.4900000000E+04    0.5833877320E-02    0.2631011804E-02    0.6953336242E+00    0.1794598164E+00    0.6205262498E-04
    0.1000000000E+04    0.8993006573E-03    0.4017783590E-03    0.6928585088E+00    0.2072438114E-01    0.2592022892E-02
    0.3000000000E+04    0.4629154130E-02    0.2078394027E-02    0.6949310341E+00    0.1239199452E+00    0.6036326056E-04
    0.5000000000E+04    0.5876244082E-02    0.2650726615E-02    0.6953463325E+00    0.1820462486E+00    0.6212297315E-04
    0.7000000000E+04    0.6425973402E-02    0.2911694135E-02    0.6955241457E+00    0.2282668228E+00    0.6330449372E-04
    0.9000000000E+04    0.6586539713E-02    0.2997171113E-02    0.6956227810E+00    0.2661047975E+00    0.6419970949E-04
    0.1100000000E+05    0.6527354305E-02    0.2982277813E-02    0.6956854388E+00    0.2977737663E+00    0.6492272683E-04
    0.1300000000E+05    0.6345204879E-02    0.2910229714E-02    0.6957287352E+00    0.3247423343E+00    0.6553035437E-04
    0.1500000000E+05    0.6096911361E-02    0.2806606385E-02    0.6957604229E+00    0.3480288700E+00    0.6605509122E-04
    0.1700000000E+05    0.5816413168E-02    0.2686838555E-02    0.6957846049E+00    0.3683656659E+00    0.6651731155E-04
    0.1900000000E+05    0.5524141403E-02    0.2560328884E-02    0.6958036558E+00    0.3862954304E+00    0.6693064924E-04
    0.2100000000E+05    0.5232360309E-02    0.2432810089E-02    0.6958190447E+00    0.4022306606E+00    0.6730468580E-04
    0.2300000000E+05    0.4948308524E-02    0.2307738287E-02    0.6958317295E+00    0.4164916432E+00    0.6764641713E-04
    0.2500000000E+05    0.4676094530E-02    0.2187138243E-02    0.6958423610E+00    0.4293316229E+00    0.6796111032E-04
    0.2700000000E+05    0.4417864582E-02    0.2072127347E-02    0.6958513970E+00    0.4409539778E+00    0.6825283197E-04
    0.2900000000E+05    0.4174534552E-02    0.1963246178E-02    0.6958591689E+00    0.4515242528E+00    0.6852478854E-04
    0.3100000000E+05    0.3946254542E-02    0.1860669990E-02    0.6958659223E+00    0.4611787882E+00    0.6877955383E-04
    0.3300000000E+05    0.3732706647E-02    0.1764345447E-02    0.6958718433E+00    0.4700310354E+00    0.6901922580E-04
    0.3500000000E+05    0.3533296911E-02    0.1674079675E-02    0.6958770753E+00    0.4781762644E+00    0.6924553746E-04
    0.3700000000E+05    0.3347279290E-02    0.1589598480E-02    0.6958817305E+00    0.4856951309E+00    0.6945993723E-04
    0.3900000000E+05    0.3173835487E-02    0.1510584393E-02    0.6958858983E+00    0.4926564181E+00    0.6966364820E-04
    0.4100000000E+05    0.3012125909E-02    0.1436701421E-02    0.6958896503E+00    0.4991191718E+00    0.6985771281E-04
    0.4300000000E+05    0.2861321619E-02    0.1367610956E-02    0.6958930451E+00    0.5051343836E+00    0.7004302686E-04
    0.4500000000E+05    0.2720623755E-02    0.1302981791E-02    0.6958961305E+00    0.5107463303E+00    0.7022036588E-04
    0.4700000000E+05    0.2589274682E-02    0.1242496202E-02    0.6958989463E+00    0.5159936519E+00    0.7039040586E-04
    0.4900000000E+05    0.2466563716E-02    0.1185853402E-02    0.6959015259E+00    0.5209102255E+00    0.7055373960E-04
    0.1000000000E+05    0.6577151453E-02    0.2999034567E-02    0.6956572570E+00    0.2826054732E+00    0.6457839858E-04
    0.3000000000E+05    0.4058524850E-02    0.1911169164E-02    0.6958626601E+00    0.4564584225E+00    0.6865417929E-04
    0.5000000000E+05    0.2408238863E-02    0.1158884132E-02    0.6959027360E+00    0.5232539444E+00    0.7063305744E-04
    0.7000000000E+05    0.1560328484E-02    0.7630422181E-03    0.6959194754E+00    0.5584106441E+00    0.7196711167E-04
    0.9000000000E+05    0.1085023439E-02    0.5374165663E-03    0.6959285278E+00    0.5799631965E+00    0.7297978727E-04
    0.1100000000E+06    0.7954556319E-03    0.3981676385E-03    0.6959341284E+00    0.5944726770E+00    0.7379854523E-04
    0.1300000000E+06    0.6070405864E-03    0.3065948589E-03    0.6959378933E+00    0.6048835862E+00    0.7448710840E-04
    0.1500000000E+06    0.4779555544E-03    0.2432904079E-03    0.6959405707E+00    0.6127071091E+00    0.7508202547E-04
    0.1700000000E+06    0.3858156655E-03    0.1977498049E-03    0.6959425536E+00    0.6187959667E+00    0.7560624960E-04
    0.1900000000E+06    0.3178248622E-03    0.1639121912E-03    0.6959440676E+00    0.6236667306E+00    0.7607515997E-04
    0.2100000000E+06    0.2662604256E-03    0.1380903949E-03    0.6959452512E+00    0.6276501209E+00    0.7649957510E-04
    0.2300000000E+06    0.2262463300E-03    0.1179400319E-03    0.6959461940E+00    0.6309674616E+00    0.7688740005E-04
    0.2500000000E+06    0.1945847900E-03    0.1019139901E-03    0.6959469564E+00    0.6337723432E+00    0.7724459001E-04
    0.2700000000E+06    0.1691097873E-03    0.8895841490E-04    0.6959475805E+00    0.6361746311E+00    0.7757574513E-04
    0.2900000000E+06    0.1483128325E-03    0.7833558733E-04    0.6959480965E+00    0.6382549581E+00    0.7788449408E-04
    0.3100000000E+06    0.1311176985E-03    0.6951669378E-04    0.6959485267E+00    0.6400738206E+00    0.7817375062E-04
    0.3300000000E+06    0.1167401442E-03    0.6211470350E-04    0.6959488878E+00    0.6416774836E+00    0.7844589050E-04
    0.3500000000E+06    0.1045979243E-03    0.5584110196E-04    0.6959491924E+00    0.6431019256E+00    0.7870287673E-04
    0.3700000000E+06    0.9425152243E-04    0.5047726966E-04    0.6959494506E+00    0.6443755425E+00    0.7894635031E-04
    0.3900000000E+06    0.8536419411E-04    0.4585510738E-04    0.6959496700E+00    0.6455210422E+00    0.7917769727E-04
    0.4100000000E+06    0.7767446088E-04    0.4184364726E-04    0.6959498570E+00    0.6465567989E+00    0.7939809911E-04
    0.4300000000E+06    0.7097681460E-04    0.3833962691E-04    0.6959500166E+00    0.6474978383E+00    0.7960857129E-04
    0.4500000000E+06    0.6510794975E-04    0.3526074104E-04    0.6959501527E+00    0.6483565664E+00    0.7980999308E-04
    0.4700000000E+06    0.5993678654E-04    0.3254073561E-04    0.6959502688E+00    0.6491433162E+00    0.8000313096E-04
    0.4900000000E+06    0.5535713857E-04    0.3012579135E-04    0.6959503676E+00    0.6498667623E+00    0.8018865720E-04
    0.1000000000E+06    0.9237425350E-03    0.4600565746E-03    0.6959316281E+00    0.5878661242E+00    0.7340853709E-04
    0.3000000000E+06    0.1393196554E-03    0.7372756552E-04    0.6959483212E+00    0.6391939010E+00    0.7803139948E-04
    0.5000000000E+06    0.5326138350E-04    0.2901861986E-04    0.6959504113E+00    0.6502070841E+00    0.8027875400E-04
    0.7000000000E+06    0.2786750561E-04    0.1547495558E-04    0.6959507790E+00    0.6549913413E+00    0.8179425774E-04
    0.9000000000E+06    0.1709709440E-04    0.9627501541E-05    0.6959506860E+00    0.6576645885E+00    0.8294482600E-04
    0.1100000000E+07    0.1155240106E-04    0.6576261228E-05    0.6959504350E+00    0.6593711665E+00    0.8387514168E-04
    0.1300000000E+07    0.8329049539E-05    0.4783056506E-05    0.6959501267E+00    0.6605550327E+00    0.8465756058E-04
    0.1500000000E+07    0.6291700292E-05    0.3639295844E-05    0.6959498009E+00    0.6614244151E+00    0.8533359091E-04
    0.1700000000E+07    0.4922720662E-05    0.2864744905E-05    0.6959494746E+00    0.6620899186E+00    0.8592930382E-04
    0.1900000000E+07    0.3958823529E-05    0.2315663075E-05    0.6959491556E+00    0.6626157285E+00    0.8646216927E-04
    0.2100000000E+07    0.3254633094E-05    0.1912100782E-05    0.6959488472E+00    0.6630416485E+00    0.8694447740E-04
    0.2300000000E+07    0.2724571691E-05    0.1606689136E-05    0.6959485507E+00    0.6633936727E+00    0.8738520903E-04
    0.2500000000E+07    0.2315605678E-05    0.1369902256E-05    0.6959482664E+00    0.6636894967E+00    0.8779113011E-04
    0.2700000000E+07    0.1993452366E-05    0.1182553078E-05    0.6959479939E+00    0.6639415839E+00    0.8816746719E-04
    0.2900000000E+07    0.1735153856E-05    0.1031730849E-05    0.6959477327E+00    0.6641589661E+00    0.8851834322E-04
    0.3100000000E+07    0.1524868137E-05    0.9084870920E-06    0.6959474823E+00    0.6643483486E+00    0.8884706892E-04
    0.3300000000E+07    0.1351377950E-05    0.8064596760E-06    0.6959472419E+00    0.6645148140E+00    0.8915634377E-04
    0.3500000000E+07    0.1206560626E-05    0.7210240676E-06    0.6959470109E+00    0.6646622849E+00    0.8944839828E-04
    0.3700000000E+07    0.1084417505E-05    0.6487528385E-06    0.6959467887E+00    0.6647938369E+00    0.8972509715E-04
    0.3900000000E+07    0.9804407448E-06    0.5870617551E-06    0.6959465746E+00    0.6649119158E+00    0.8998801532E-04
    0.4100000000E+07    0.8911898679E-06    0.5339722736E-06    0.6959463682E+00    0.6650184907E+00    0.9023849538E-04
    0.4300000000E+07    0.8140022507E-06    0.4879486322E-06    0.6959461689E+00    0.6651151648E+00    0.9047769122E-04
    0.4500000000E+07    0.7467912437E-06    0.4477839025E-06    0.6959459764E+00    0.6652032567E+00    0.9070660201E-04
    0.4700000000E+07    0.6879028724E-06    0.4125188689E-06    0.6959457900E+00    0.6652838606E+00    0.9092609874E-04
    0.4900000000E+07    0.6360124681E-06    0.3813833502E-06    0.6959456096E+00    0.6653578926E+00    0.9113694537E-04
    0.1000000000E+07    0.1391891729E-04    0.7882964014E-05    0.6959505717E+00    0.6586026957E+00    0.8343198729E-04
    0.3000000000E+07    0.1624797480E-05    0.9671080643E-06    0.6959476062E+00    0.6642568080E+00    0.8868529372E-04
    0.5000000000E+07    0.6123485406E-06    0.3671643266E-06    0.6959455215E+00    0.6653926903E+00    0.9123933859E-04
    0.7000000000E+07    0.3296584509E-06    0.1961567809E-06    0.6959439952E+00    0.6658800450E+00    0.9296168770E-04
    0.9000000000E+07    0.2116849387E-06    0.1240267507E-06    0.6959427900E+00    0.6661509667E+00    0.9426930120E-04
    0.1100000000E+08    0.1510218203E-06    0.8674137452E-07    0.6959417916E+00    0.6663234506E+00    0.9532660238E-04
    0.1300000000E+08    0.1155193240E-06    0.6488248196E-07    0.6959409376E+00    0.6664429088E+00    0.9621582079E-04
    0.1500000000E+08    0.9281952950E-07    0.5091701115E-07    0.6959401903E+00    0.6665305427E+00    0.9698412938E-04
    0.1700000000E+08    0.7733884087E-07    0.4141826350E-07    0.6959395251E+00    0.6665975798E+00    0.9766115755E-04
    0.1900000000E+08    0.6624963371E-07    0.3464216197E-07    0.6959389250E+00    0.6666505215E+00    0.9826675968E-04
    0.2100000000E+08    0.5799261570E-07    0.2962336522E-07    0.6959383780E+00    0.6666933934E+00    0.9881490339E-04
    0.2300000000E+08    0.5164904398E-07    0.2579157488E-07    0.6959378750E+00    0.6667288213E+00    0.9931579538E-04
    0.2500000000E+08    0.4664810060E-07    0.2279182394E-07    0.6959374092E+00    0.6667585909E+00    0.9977712507E-04
    0.2700000000E+08    0.4261936944E-07    0.2039351729E-07    0.6959369752E+00    0.6667839591E+00    0.1002048325E-03
