  Pressure (Pa) 22mC5-500 (mol/kg) 23mC5-500 (mol/kg) 24mC5-500 (mol/kg) 3mC6-500 (mol/kg) C7-500 (mol/kg)
    0.1000000000E+01    0.4288386190E-05    0.6155756641E-06    0.1514054253E+00    0.7547494415E-05    0.4180679351E-02
    0.3000000000E+01    0.8360855675E-05    0.1196358292E-05    0.3164976917E+00    0.1919139685E-04    0.4211516791E-02
    0.5000000000E+01    0.1022833039E-04    0.1460737959E-05    0.4047699578E+00    0.2988709873E-04    0.4225851694E-02
    0.7000000000E+01    0.1127535335E-04    0.1608382494E-05    0.4597204479E+00    0.4013313987E-04    0.4234413269E-02
    0.9000000000E+01    0.1195639477E-04    0.1704459098E-05    0.4972213154E+00    0.5009692971E-04    0.4240056822E-02
    0.1100000000E+02    0.1245612073E-04    0.1775284678E-05    0.5244454364E+00    0.5986199996E-04    0.4243997069E-02
    0.1300000000E+02    0.1286023166E-04    0.1832989975E-05    0.5451081112E+00    0.6947796330E-04    0.4246850422E-02
    0.1500000000E+02    0.1321226356E-04    0.1883690888E-05    0.5613263465E+00    0.7897745730E-04    0.4248965398E-02
    0.1700000000E+02    0.1353580252E-04    0.1930672198E-05    0.5743948645E+00    0.8838346339E-04    0.4250554654E-02
    0.1900000000E+02    0.1384423534E-04    0.1975779463E-05    0.5851500053E+00    0.9771297256E-04    0.4251755617E-02
    0.2100000000E+02    0.1414541664E-04    0.2020082432E-05    0.5941560883E+00    0.1069790179E-03    0.4252661190E-02
    0.2300000000E+02    0.1444405858E-04    0.2064213203E-05    0.6018076902E+00    0.1161918888E-03    0.4253336519E-02
    0.2500000000E+02    0.1474302212E-04    0.2108548064E-05    0.6083890026E+00    0.1253598996E-03    0.4253828676E-02
    0.2700000000E+02    0.1504404599E-04    0.2153309609E-05    0.6141099101E+00    0.1344898983E-03    0.4254172556E-02
    0.2900000000E+02    0.1534817330E-04    0.2198626155E-05    0.6191287862E+00    0.1435876165E-03    0.4254394588E-02
    0.3100000000E+02    0.1565600880E-04    0.2244567356E-05    0.6235673826E+00    0.1526579177E-03    0.4254515169E-02
    0.3300000000E+02    0.1596787795E-04    0.2291166053E-05    0.6275208362E+00    0.1617049776E-03    0.4254550301E-02
    0.3500000000E+02    0.1628392726E-04    0.2338431959E-05    0.6310645645E+00    0.1707324186E-03    0.4254512719E-02
    0.3700000000E+02    0.1660418868E-04    0.2386360363E-05    0.6342591230E+00    0.1797434121E-03    0.4254412688E-02
    0.3900000000E+02    0.1692862156E-04    0.2434937728E-05    0.6371536947E+00    0.1887407566E-03    0.4254258575E-02
    0.4100000000E+02    0.1725714013E-04    0.2484145330E-05    0.6397886395E+00    0.1977269401E-03    0.4254057274E-02
    0.4300000000E+02    0.1758963172E-04    0.2533961621E-05    0.6421973883E+00    0.2067041887E-03    0.4253814516E-02
    0.4500000000E+02    0.1792596890E-04    0.2584363776E-05    0.6444078685E+00    0.2156745063E-03    0.4253535103E-02
    0.4700000000E+02    0.1826601744E-04    0.2635328693E-05    0.6464435917E+00    0.2246397061E-03    0.4253223094E-02
    0.4900000000E+02    0.1860964165E-04    0.2686833627E-05    0.6483244937E+00    0.2336014375E-03    0.4252881941E-02
    0.1000000000E+02    0.1222217211E-04    0.1742070901E-05    0.5118345271E+00    0.5500067929E-04    0.4242192682E-02
    0.3000000000E+02    0.1550160203E-04    0.2221515949E-05    0.6214141424E+00    0.1481259189E-03    0.4254466472E-02
    0.5000000000E+02    0.1878275270E-04    0.2712781692E-05    0.6492123028E+00    0.2380814785E-03    0.4252701375E-02
    0.7000000000E+02    0.2240320439E-04    0.3255361798E-05    0.6619018224E+00    0.3278079712E-03    0.4248094477E-02
    0.9000000000E+02    0.2626681007E-04    0.3833913719E-05    0.6691680928E+00    0.4183545897E-03    0.4242337626E-02
    0.1100000000E+03    0.3032257282E-04    0.4440729489E-05    0.6738756048E+00    0.5102941921E-03    0.4235940372E-02
    0.1300000000E+03    0.3454615013E-04    0.5072216240E-05    0.6771735410E+00    0.6040117002E-03    0.4229105843E-02
    0.1500000000E+03    0.3892654196E-04    0.5726788370E-05    0.6796125371E+00    0.6998021265E-03    0.4221927618E-02
    0.1700000000E+03    0.4345984703E-04    0.6403912997E-05    0.6814894736E+00    0.7979130449E-03    0.4214451830E-02
    0.1900000000E+03    0.4814625607E-04    0.7103658228E-05    0.6829785502E+00    0.8985660275E-03    0.4206701164E-02
    0.2100000000E+03    0.5298851837E-04    0.7826465448E-05    0.6841887217E+00    0.1001968728E-02    0.4198685496E-02
    0.2300000000E+03    0.5799111893E-04    0.8573028272E-05    0.6851916286E+00    0.1108322321E-02    0.4190407096E-02
    0.2500000000E+03    0.6315982049E-04    0.9344225724E-05    0.6860363112E+00    0.1217826449E-02    0.4181863375E-02
    0.2700000000E+03    0.6850140387E-04    0.1014108469E-04    0.6867574702E+00    0.1330682743E-02    0.4173048404E-02
    0.2900000000E+03    0.7402352184E-04    0.1096475899E-04    0.6873803507E+00    0.1447097514E-02    0.4163953795E-02
    0.3100000000E+03    0.7973462137E-04    0.1181651851E-04    0.6879237574E+00    0.1567283933E-02    0.4154569223E-02
    0.3300000000E+03    0.8564390913E-04    0.1269774449E-04    0.6884019855E+00    0.1691463903E-02    0.4144882736E-02
    0.3500000000E+03    0.9176134574E-04    0.1360992908E-04    0.6888260958E+00    0.1819869761E-02    0.4134880928E-02
    0.3700000000E+03    0.9809766035E-04    0.1455467782E-04    0.6892047804E+00    0.1952745890E-02    0.4124549039E-02
    0.3900000000E+03    0.1046643805E-03    0.1553371427E-04    0.6895449648E+00    0.2090350290E-02    0.4113870990E-02
    0.4100000000E+03    0.1114738740E-03    0.1654888650E-04    0.6898522346E+00    0.2232956178E-02    0.4102829378E-02
    0.4300000000E+03    0.1185394018E-03    0.1760217502E-04    0.6901311452E+00    0.2380853628E-02    0.4091405451E-02
    0.4500000000E+03    0.1258751799E-03    0.1869570220E-04    0.6903854482E+00    0.2534351292E-02    0.4079579046E-02
    0.4700000000E+03    0.1334964510E-03    0.1983174298E-04    0.6906182616E+00    0.2693778233E-02    0.4067328518E-02
    0.4900000000E+03    0.1414195648E-03    0.2101273696E-04    0.6908321979E+00    0.2859485880E-02    0.4054630646E-02
    0.1000000000E+03    0.2827261429E-04    0.4134076953E-05    0.6717490705E+00    0.4641233684E-03    0.4239202576E-02
    0.3000000000E+03    0.7685489112E-04    0.1138704436E-04    0.6876610065E+00    0.1506705624E-02    0.4159298466E-02
    0.5000000000E+03    0.1454997469E-03    0.2162090211E-04    0.6909327901E+00    0.2944811420E-02    0.4048106243E-02
    0.7000000000E+03    0.2481548976E-03    0.3692048975E-04    0.6923438365E+00    0.5092026228E-02    0.3886787452E-02
    0.9000000000E+03    0.4144330533E-03    0.6170143139E-04    0.6931298372E+00    0.8578455662E-02    0.3634222743E-02
    0.1100000000E+04    0.7108194255E-03    0.1058765744E-03    0.6936306812E+00    0.1482080149E-01    0.3202214258E-02
    0.1300000000E+04    0.1279023431E-02    0.1905818262E-03    0.6939776531E+00    0.2687459091E-01    0.2420601943E-02
    0.1500000000E+04    0.2221557391E-02    0.3311482629E-03    0.6942321772E+00    0.4714212456E-01    0.1249268944E-02
    0.1700000000E+04    0.3067424493E-02    0.4574238784E-03    0.6944268284E+00    0.6591716079E-01    0.4200865932E-03
    0.1900000000E+04    0.3522216977E-02    0.5254743272E-03    0.6945804888E+00    0.7674743162E-01    0.1908350206E-03
    0.2100000000E+04    0.3822946210E-02    0.5705920593E-03    0.6947048575E+00    0.8448132282E-01    0.1513415111E-03
    0.2300000000E+04    0.4080681832E-02    0.6093289772E-03    0.6948075698E+00    0.9145145039E-01    0.1457005034E-03
    0.2500000000E+04    0.4318718134E-02    0.6451558155E-03    0.6948938201E+00    0.9814560146E-01    0.1453799473E-03
    0.2700000000E+04    0.4541771173E-02    0.6787733256E-03    0.6949672652E+00    0.1046550598E+00    0.1458524032E-03
    0.2900000000E+04    0.4751285312E-02    0.7103944071E-03    0.6950305540E+00    0.1110008861E+00    0.1464148979E-03
    0.3100000000E+04    0.4948113849E-02    0.7401439453E-03    0.6950856521E+00    0.1171918619E+00    0.1469611281E-03
    0.3300000000E+04    0.5132973135E-02    0.7681265656E-03    0.6951340491E+00    0.1232344024E+00    0.1474778441E-03
    0.3500000000E+04    0.5306521378E-02    0.7944383837E-03    0.6951768941E+00    0.1291342600E+00    0.1479659754E-03
    0.3700000000E+04    0.5469374353E-02    0.8191693403E-03    0.6952150878E+00    0.1348968320E+00    0.1484282392E-03
    0.3900000000E+04    0.5622110320E-02    0.8424039231E-03    0.6952493463E+00    0.1405272287E+00    0.1488672486E-03
    0.4100000000E+04    0.5765272938E-02    0.8642215916E-03    0.6952802460E+00    0.1460302999E+00    0.1492852812E-03
    0.4300000000E+04    0.5899373671E-02    0.8846971259E-03    0.6953082559E+00    0.1514106525E+00    0.1496843007E-03
    0.4500000000E+04    0.6024893966E-02    0.9039009436E-03    0.6953337617E+00    0.1566726659E+00    0.1500660063E-03
    0.4700000000E+04    0.6142287261E-02    0.9218993896E-03    0.6953570836E+00    0.1618205061E+00    0.1504318776E-03
    0.4900000000E+04    0.6251980830E-02    0.9387550050E-03    0.6953784892E+00    0.1668581383E+00    0.1507832108E-03
    0.1000000000E+04    0.5397083436E-03    0.8037247874E-04    0.6934052454E+00    0.1121282546E-01    0.3449187268E-02
    0.3000000000E+04    0.4851238789E-02    0.7254963275E-03    0.6950590245E+00    0.1141153064E+00    0.1466915251E-03
    0.5000000000E+04    0.6304067010E-02    0.9467728165E-03    0.6953885454E+00    0.1693368136E+00    0.1509537878E-03
    0.7000000000E+04    0.7027933153E-02    0.1059790177E-02    0.6955289322E+00    0.2139532966E+00    0.1538196357E-03
    0.9000000000E+04    0.7321453309E-02    0.1108363341E-02    0.6956064234E+00    0.2509128050E+00    0.1559919887E-03
    0.1100000000E+05    0.7357469481E-02    0.1117976221E-02    0.6956554051E+00    0.2821316560E+00    0.1577469233E-03
    0.1300000000E+05    0.7239444764E-02    0.1103971472E-02    0.6956890814E+00    0.3089144709E+00    0.1592220197E-03
    0.1500000000E+05    0.7030877749E-02    0.1075828927E-02    0.6957136027E+00    0.3321840250E+00    0.1604960325E-03
    0.1700000000E+05    0.6771432982E-02    0.1039516981E-02    0.6957322192E+00    0.3526141890E+00    0.1616183544E-03
    0.1900000000E+05    0.6486158536E-02    0.9988399720E-03    0.6957468085E+00    0.3707104990E+00    0.1626220475E-03
    0.2100000000E+05    0.6190936240E-02    0.9562374737E-03    0.6957585308E+00    0.3868609813E+00    0.1635303524E-03
    0.2300000000E+05    0.5895797450E-02    0.9132724164E-03    0.6957681411E+00    0.4013693526E+00    0.1643602411E-03
    0.2500000000E+05    0.5606988988E-02    0.8709365210E-03    0.6957761517E+00    0.4144773772E+00    0.1651244934E-03
    0.2700000000E+05    0.5328286304E-02    0.8298453787E-03    0.6957829224E+00    0.4263803353E+00    0.1658329773E-03
    0.2900000000E+05    0.5061842177E-02    0.7903652050E-03    0.6957887132E+00    0.4372379827E+00    0.1664934745E-03
    0.3100000000E+05    0.4808742772E-02    0.7526963856E-03    0.6957937164E+00    0.4471824841E+00    0.1671122318E-03
    0.3300000000E+05    0.4569375996E-02    0.7169291889E-03    0.6957980776E+00    0.4563242643E+00    0.1676943414E-03
    0.3500000000E+05    0.4343677573E-02    0.6830812629E-03    0.6958019086E+00    0.4647563995E+00    0.1682440101E-03
    0.3700000000E+05    0.4131296397E-02    0.6511230464E-03    0.6958052971E+00    0.4725579629E+00    0.1687647538E-03
    0.3900000000E+05    0.3931705994E-02    0.6209950679E-03    0.6958083125E+00    0.4797966088E+00    0.1692595419E-03
    0.4100000000E+05    0.3744279664E-02    0.5926197410E-03    0.6958110106E+00    0.4865305937E+00    0.1697309050E-03
    0.4300000000E+05    0.3568340957E-02    0.5659094007E-03    0.6958134367E+00    0.4928103756E+00    0.1701810181E-03
    0.4500000000E+05    0.3403197306E-02    0.5407717496E-03    0.6958156278E+00    0.4986798914E+00    0.1706117641E-03
    0.4700000000E+05    0.3248162102E-02    0.5171135148E-03    0.6958176148E+00    0.5041775873E+00    0.1710247842E-03
    0.4900000000E+05    0.3102568835E-02    0.4948428615E-03    0.6958194233E+00    0.5093372577E+00    0.1714215179E-03
    0.1000000000E+05    0.7363988746E-02    0.1116905993E-02    0.6956334046E+00    0.2671472580E+00    0.1569111142E-03
    0.3000000000E+05    0.4933587135E-02    0.7712966639E-03    0.6957913032E+00    0.4423170230E+00    0.1668077289E-03
    0.5000000000E+05    0.3033112355E-02    0.4841999676E-03    0.6958202675E+00    0.5117997938E+00    0.1716141799E-03
    0.7000000000E+05    0.2004431859E-02    0.3250515579E-03    0.6958315784E+00    0.5489761694E+00    0.1748546560E-03
    0.9000000000E+05    0.1411433274E-02    0.2317732323E-03    0.6958372441E+00    0.5719999825E+00    0.1773145620E-03
    0.1100000000E+06    0.1043719477E-02    0.1731820418E-03    0.6958404518E+00    0.5876062268E+00    0.1793034512E-03
    0.1300000000E+06    0.8015171281E-03    0.1341799020E-03    0.6958423943E+00    0.5988586876E+00    0.1809760931E-03
    0.1500000000E+06    0.6340915257E-03    0.1069764549E-03    0.6958436130E+00    0.6073452778E+00    0.1824212609E-03
    0.1700000000E+06    0.5137656039E-03    0.8727299398E-04    0.6958443863E+00    0.6139686395E+00    0.1836947072E-03
    0.1900000000E+06    0.4244968115E-03    0.7255418041E-04    0.6958448706E+00    0.6192787131E+00    0.1848337885E-03
    0.2100000000E+06    0.3564998269E-03    0.6127330389E-04    0.6958451598E+00    0.6236291798E+00    0.1858647837E-03
    0.2300000000E+06    0.3035443106E-03    0.5243857837E-04    0.6958453133E+00    0.6272576008E+00    0.1868068949E-03
    0.2500000000E+06    0.2615164248E-03    0.4539099981E-04    0.6958453701E+00    0.6303293359E+00    0.1876745880E-03
    0.2700000000E+06    0.2276139416E-03    0.3967911799E-04    0.6958453568E+00    0.6329629714E+00    0.1884790374E-03
    0.2900000000E+06    0.1998760306E-03    0.3498539736E-04    0.6958452917E+00    0.6352457291E+00    0.1892290575E-03
    0.3100000000E+06    0.1768980785E-03    0.3108129276E-04    0.6958451883E+00    0.6372431715E+00    0.1899317265E-03
    0.3300000000E+06    0.1576529728E-03    0.2779894649E-04    0.6958450561E+00    0.6390055191E+00    0.1905928155E-03
    0.3500000000E+06    0.1413758283E-03    0.2501284373E-04    0.6958449024E+00    0.6405718823E+00    0.1912170929E-03
    0.3700000000E+06    0.1274877105E-03    0.2262761979E-04    0.6958447324E+00    0.6419731675E+00    0.1918085450E-03
    0.3900000000E+06    0.1155440025E-03    0.2056977195E-04    0.6958445502E+00    0.6432341179E+00    0.1923705389E-03
    0.4100000000E+06    0.1051987306E-03    0.1878191103E-04    0.6958443590E+00    0.6443747748E+00    0.1929059446E-03
    0.4300000000E+06    0.9617945926E-04    0.1721870131E-04    0.6958441613E+00    0.6454115419E+00    0.1934172288E-03
    0.4500000000E+06    0.8826932662E-04    0.1584394525E-04    0.6958439589E+00    0.6463579743E+00    0.1939065276E-03
    0.4700000000E+06    0.8129399294E-04    0.1462845875E-04    0.6958437532E+00    0.6472253700E+00    0.1943757027E-03
    0.4900000000E+06    0.7511202604E-04    0.1354850103E-04    0.6958435456E+00    0.6480232206E+00    0.1948263875E-03
    0.1000000000E+06    0.1207271248E-02    0.1993250825E-03    0.6958390576E+00    0.5804894324E+00    0.1783560584E-03
    0.3000000000E+06    0.1878635149E-03    0.3294630438E-04    0.6958452441E+00    0.6362766739E+00    0.1895859236E-03
    0.5000000000E+06    0.7228155205E-04    0.1305311955E-04    0.6958434413E+00    0.6483986256E+00    0.1950452527E-03
    0.7000000000E+06    0.3790486987E-04    0.6978904253E-05    0.6958413946E+00    0.6536816580E+00    0.1987267453E-03
    0.9000000000E+06    0.2327263595E-04    0.4346866137E-05    0.6958395441E+00    0.6566381511E+00    0.2015217218E-03
    0.1100000000E+07    0.1572512225E-04    0.2970644447E-05    0.6958379077E+00    0.6585272681E+00    0.2037816520E-03
    0.1300000000E+07    0.1133231062E-04    0.2160809046E-05    0.6958364541E+00    0.6598385533E+00    0.2056823058E-03
    0.1500000000E+07    0.8553783920E-05    0.1643834578E-05    0.6958351508E+00    0.6608019210E+00    0.2073245168E-03
    0.1700000000E+07    0.6685956486E-05    0.1293540120E-05    0.6958339712E+00    0.6615396070E+00    0.2087716181E-03
    0.1900000000E+07    0.5370499881E-05    0.1045117912E-05    0.6958328944E+00    0.6621225939E+00    0.2100660487E-03
    0.2100000000E+07    0.4409373090E-05    0.8624856046E-06    0.6958319042E+00    0.6625949232E+00    0.2112376641E-03
    0.2300000000E+07    0.3685912416E-05    0.7242485566E-06    0.6958309877E+00    0.6629853690E+00    0.2123082809E-03
    0.2500000000E+07    0.3127779638E-05    0.6170630265E-06    0.6958301346E+00    0.6633135253E+00    0.2132943353E-03
    0.2700000000E+07    0.2688192701E-05    0.5322535174E-06    0.6958293366E+00    0.6635931967E+00    0.2142085237E-03
    0.2900000000E+07    0.2335812710E-05    0.4639800870E-06    0.6958285870E+00    0.6638343893E+00    0.2150608617E-03
    0.3100000000E+07    0.2049008656E-05    0.4081937492E-06    0.6958278801E+00    0.6640445333E+00    0.2158593919E-03
    0.3300000000E+07    0.1812461124E-05    0.3620150187E-06    0.6958272113E+00    0.6642292614E+00    0.2166106719E-03
    0.3500000000E+07    0.1615075256E-05    0.3233503856E-06    0.6958265765E+00    0.6643929217E+00    0.2173201201E-03
    0.3700000000E+07    0.1448656465E-05    0.2906479864E-06    0.6958259724E+00    0.6645389240E+00    0.2179922663E-03
    0.3900000000E+07    0.1307046236E-05    0.2627375652E-06    0.6958253961E+00    0.6646699800E+00    0.2186309364E-03
    0.4100000000E+07    0.1185544028E-05    0.2387230421E-06    0.6958248451E+00    0.6647882730E+00    0.2192393918E-03
    0.4300000000E+07    0.1080511954E-05    0.2179088058E-06    0.6958243172E+00    0.6648955809E+00    0.2198204356E-03
    0.4500000000E+07    0.9890990617E-06    0.1997481461E-06    0.6958238106E+00    0.6649933662E+00    0.2203764950E-03
    0.4700000000E+07    0.9090455997E-06    0.1838065357E-06    0.6958233234E+00    0.6650828426E+00    0.2209096857E-03
    0.4900000000E+07    0.8385417970E-06    0.1697350659E-06    0.6958228543E+00    0.6651650261E+00    0.2214218637E-03
    0.1000000000E+07    0.1894778470E-04    0.3560274503E-05    0.6958387009E+00    0.6576764340E+00    0.2027051386E-03
    0.3000000000E+07    0.2185289913E-05    0.4347280566E-06    0.6958282285E+00    0.6639429552E+00    0.2154664128E-03
    0.5000000000E+07    0.8064024811E-06    0.1633101030E-06    0.6958226261E+00    0.6652036561E+00    0.2216705920E-03
    0.7000000000E+07    0.4234682277E-06    0.8613722541E-07    0.6958187526E+00    0.6657447352E+00    0.2258544201E-03
    0.9000000000E+07    0.2647581984E-06    0.5369733012E-07    0.6958157750E+00    0.6660455584E+00    0.2290307805E-03
    0.1100000000E+08    0.1837897006E-06    0.3699521401E-07    0.6958133486E+00    0.6662370875E+00    0.2315990898E-03
    0.1300000000E+08    0.1368117161E-06    0.2724642241E-07    0.6958112966E+00    0.6663697367E+00    0.2337590989E-03
    0.1500000000E+08    0.1070507420E-06    0.2104737935E-07    0.6958095161E+00    0.6664670455E+00    0.2356253995E-03
    0.1700000000E+08    0.8695023392E-07    0.1685207060E-07    0.6958079419E+00    0.6665414808E+00    0.2372699665E-03
    0.1900000000E+08    0.7269558544E-07    0.1387487538E-07    0.6958065298E+00    0.6666002624E+00    0.2387410294E-03
    0.2100000000E+08    0.6219037475E-07    0.1168169809E-07    0.6958052486E+00    0.6666478608E+00    0.2400725180E-03
    0.2300000000E+08    0.5420381016E-07    0.1001655125E-07    0.6958040754E+00    0.6666871919E+00    0.2412892258E-03
    0.2500000000E+08    0.4797406948E-07    0.8720405567E-08    0.6958029929E+00    0.6667202389E+00    0.2424098318E-03
    0.2700000000E+08    0.4300872179E-07    0.7690156806E-08    0.6958019875E+00    0.6667483977E+00    0.2434487649E-03
