  Pressure (Pa) 22mC5-500 (mol/kg) 23mC5-500 (mol/kg) 24mC5-500 (mol/kg) 3mC6-500 (mol/kg) C7-500 (mol/kg)
    0.1000000000E+01    0.4084206645E-05    0.2930437336E-05    0.1741110681E+00    0.3352295556E-05    0.4180382992E-02
    0.3000000000E+01    0.7570987974E-05    0.5413629024E-05    0.3481341267E+00    0.8514693139E-05    0.4208943260E-02
    0.5000000000E+01    0.9045113870E-05    0.6455422918E-05    0.4351130698E+00    0.1324639792E-04    0.4221495814E-02
    0.7000000000E+01    0.9851888769E-05    0.7024355663E-05    0.4872902006E+00    0.1776981891E-04    0.4228860223E-02
    0.9000000000E+01    0.1038514469E-04    0.7401933101E-05    0.5220707698E+00    0.2215980412E-04    0.4233715783E-02
    0.1100000000E+02    0.1079284591E-04    0.7693085126E-05    0.5469120213E+00    0.2645376642E-04    0.4237146732E-02
    0.1300000000E+02    0.1113946733E-04    0.7943126826E-05    0.5655418783E+00    0.3067396006E-04    0.4239685162E-02
    0.1500000000E+02    0.1145595732E-04    0.8173583515E-05    0.5800311362E+00    0.3483504335E-04    0.4241624942E-02
    0.1700000000E+02    0.1175817256E-04    0.8395345315E-05    0.5916221503E+00    0.3894734825E-04    0.4243142342E-02
    0.1900000000E+02    0.1205459402E-04    0.8614144636E-05    0.6011054512E+00    0.4301851952E-04    0.4244349829E-02
    0.2100000000E+02    0.1234987096E-04    0.8833057987E-05    0.6090080273E+00    0.4705442424E-04    0.4245322697E-02
    0.2300000000E+02    0.1264656872E-04    0.9053732221E-05    0.6156946993E+00    0.5105969578E-04    0.4246113346E-02
    0.2500000000E+02    0.1294608000E-04    0.9277019619E-05    0.6214260430E+00    0.5503807823E-04    0.4246759423E-02
    0.2700000000E+02    0.1324912168E-04    0.9503321442E-05    0.6263931407E+00    0.5899265474E-04    0.4247288710E-02
    0.2900000000E+02    0.1355601529E-04    0.9732780289E-05    0.6307393003E+00    0.6292600464E-04    0.4247722175E-02
    0.3100000000E+02    0.1386685008E-04    0.9965390731E-05    0.6345741072E+00    0.6684031495E-04    0.4248075962E-02
    0.3300000000E+02    0.1418157974E-04    0.1020106423E-04    0.6379827931E+00    0.7073746156E-04    0.4248362709E-02
    0.3500000000E+02    0.1450008087E-04    0.1043966778E-04    0.6410326445E+00    0.7461906974E-04    0.4248592462E-02
    0.3700000000E+02    0.1482218864E-04    0.1068104703E-04    0.6437774899E+00    0.7848656011E-04    0.4248773312E-02
    0.3900000000E+02    0.1514771858E-04    0.1092504016E-04    0.6462609042E+00    0.8234118413E-04    0.4248911852E-02
    0.4100000000E+02    0.1547647996E-04    0.1117148606E-04    0.6485185391E+00    0.8618405193E-04    0.4249013513E-02
    0.4300000000E+02    0.1580828386E-04    0.1142022911E-04    0.6505798456E+00    0.9001615448E-04    0.4249082811E-02
    0.4500000000E+02    0.1614294787E-04    0.1167112168E-04    0.6524693660E+00    0.9383838134E-04    0.4249123534E-02
    0.4700000000E+02    0.1648029875E-04    0.1192402548E-04    0.6542077155E+00    0.9765153514E-04    0.4249138883E-02
    0.4900000000E+02    0.1682017371E-04    0.1217881192E-04    0.6558123378E+00    0.1014563435E-03    0.4249131586E-02
    0.1000000000E+02    0.1059953024E-04    0.7554676592E-05    0.5354470346E+00    0.2431716257E-04    0.4235568296E-02
    0.3000000000E+02    0.1371094058E-04    0.9848695695E-05    0.6327148116E+00    0.6488541600E-04    0.4247908169E-02
    0.5000000000E+02    0.1699100984E-04    0.1230687360E-04    0.6565692323E+00    0.1033558274E-03    0.4249120189E-02
    0.7000000000E+02    0.2050906385E-04    0.1494282976E-04    0.6673521721E+00    0.1410414369E-03    0.4248127484E-02
    0.9000000000E+02    0.2416473157E-04    0.1767920445E-04    0.6734970587E+00    0.1783934902E-03    0.4246277031E-02
    0.1100000000E+03    0.2791227386E-04    0.2048201933E-04    0.6774666292E+00    0.2156418117E-03    0.4243986366E-02
    0.1300000000E+03    0.3173012408E-04    0.2333558008E-04    0.6802422506E+00    0.2529263813E-03    0.4241429842E-02
    0.1500000000E+03    0.3560757912E-04    0.2623224561E-04    0.6822921491E+00    0.2903422710E-03    0.4238693704E-02
    0.1700000000E+03    0.3953925137E-04    0.2916826168E-04    0.6838680273E+00    0.3279591258E-03    0.4235825531E-02
    0.1900000000E+03    0.4352255553E-04    0.3214189997E-04    0.6851172534E+00    0.3658309404E-03    0.4232853628E-02
    0.2100000000E+03    0.4755647573E-04    0.3515255486E-04    0.6861318454E+00    0.4040014870E-03    0.4229795757E-02
    0.2300000000E+03    0.5164091974E-04    0.3820027463E-04    0.6869722264E+00    0.4425075611E-03    0.4226663496E-02
    0.2500000000E+03    0.5577636215E-04    0.4128550465E-04    0.6876797133E+00    0.4813810364E-03    0.4223464591E-02
    0.2700000000E+03    0.5996363877E-04    0.4440894063E-04    0.6882835151E+00    0.5206502289E-03    0.4220204305E-02
    0.2900000000E+03    0.6420382394E-04    0.4757144181E-04    0.6888048655E+00    0.5603408353E-03    0.4216886227E-02
    0.3100000000E+03    0.6849815538E-04    0.5077397835E-04    0.6892595708E+00    0.6004766014E-03    0.4213512786E-02
    0.3300000000E+03    0.7284798733E-04    0.5401759881E-04    0.6896596401E+00    0.6410798100E-03    0.4210085580E-02
    0.3500000000E+03    0.7725476074E-04    0.5730340975E-04    0.6900143606E+00    0.6821716477E-03    0.4206605599E-02
    0.3700000000E+03    0.8171998445E-04    0.6063256310E-04    0.6903310278E+00    0.7237724840E-03    0.4203073377E-02
    0.3900000000E+03    0.8624522318E-04    0.6400624821E-04    0.6906154517E+00    0.7659020912E-03    0.4199489099E-02
    0.4100000000E+03    0.9083209008E-04    0.6742568708E-04    0.6908723171E+00    0.8085798179E-03    0.4195852679E-02
    0.4300000000E+03    0.9548224228E-04    0.7089213174E-04    0.6911054433E+00    0.8518247308E-03    0.4192163810E-02
    0.4500000000E+03    0.1001973785E-03    0.7440686287E-04    0.6913179747E+00    0.8956557301E-03    0.4188422012E-02
    0.4700000000E+03    0.1049792380E-03    0.7797118951E-04    0.6915125241E+00    0.9400916474E-03    0.4184626656E-02
    0.4900000000E+03    0.1098296007E-03    0.8158644928E-04    0.6916912804E+00    0.9851513282E-03    0.4180776991E-02
    0.1000000000E+03    0.2602872056E-04    0.1907355187E-04    0.6756745580E+00    0.1970204789E-03    0.4245172803E-02
    0.3000000000E+03    0.6634413905E-04    0.4916764168E-04    0.6890397239E+00    0.5803516512E-03    0.4215206311E-02
    0.5000000000E+03    0.1122810382E-03    0.8341360509E-04    0.6917753249E+00    0.1007920991E-02    0.4178831527E-02
    0.7000000000E+03    0.1653794885E-03    0.1229852937E-03    0.6929538363E+00    0.1500839197E-02    0.4136812603E-02
    0.9000000000E+03    0.2277701509E-03    0.1694766135E-03    0.6936099757E+00    0.2080176501E-02    0.4087884153E-02
    0.1100000000E+04    0.3022684575E-03    0.2249881515E-03    0.6940279500E+00    0.2772737577E-02    0.4030132631E-02
    0.1300000000E+04    0.3927361081E-03    0.2923992508E-03    0.6943174576E+00    0.3615031942E-02    0.3960893696E-02
    0.1500000000E+04    0.5046291337E-03    0.3757773252E-03    0.6945298006E+00    0.4658610675E-02    0.3876426672E-02
    0.1700000000E+04    0.6458564392E-03    0.4810182712E-03    0.6946921778E+00    0.5978296661E-02    0.3771380365E-02
    0.1900000000E+04    0.8281450863E-03    0.6168647133E-03    0.6948203512E+00    0.7685279752E-02    0.3637960100E-02
    0.2100000000E+04    0.1069176754E-02    0.7964996070E-03    0.6949240858E+00    0.9947722399E-02    0.3464684886E-02
    0.2300000000E+04    0.1395660449E-02    0.1039839011E-02    0.6950097530E+00    0.1302074452E-01    0.3234770315E-02
    0.2500000000E+04    0.1846509980E-02    0.1375905843E-02    0.6950816875E+00    0.1727859182E-01    0.2925006552E-02
    0.2700000000E+04    0.2470993711E-02    0.1841461406E-02    0.6951429404E+00    0.2320157902E-01    0.2509063742E-02
    0.2900000000E+04    0.3305182059E-02    0.2463465006E-02    0.6951957217E+00    0.3116018311E-01    0.1976227118E-02
    0.3100000000E+04    0.4305325053E-02    0.3209412912E-02    0.6952416712E+00    0.4078579921E-01    0.1375395412E-02
    0.3300000000E+04    0.5296160967E-02    0.3948742668E-02    0.6952820315E+00    0.5045605140E-01    0.8358930114E-03
    0.3500000000E+04    0.6090591472E-02    0.4541953697E-02    0.6953177612E+00    0.5838961942E-01    0.4705815421E-03
    0.3700000000E+04    0.6654812530E-02    0.4963741682E-02    0.6953496116E+00    0.6422398870E-01    0.2767375492E-03
    0.3900000000E+04    0.7061951295E-02    0.5268540166E-02    0.6953781801E+00    0.6861899488E-01    0.1885458491E-03
    0.4100000000E+04    0.7384610742E-02    0.5510438865E-02    0.6954039473E+00    0.7224870499E-01    0.1514548821E-03
    0.4300000000E+04    0.7664690179E-02    0.5720662706E-02    0.6954273045E+00    0.7550617694E-01    0.1364546109E-03
    0.4500000000E+04    0.7922144164E-02    0.5914084535E-02    0.6954485735E+00    0.7857952450E-01    0.1305642915E-03
    0.4700000000E+04    0.8165837825E-02    0.6097311372E-02    0.6954680211E+00    0.8155223426E-01    0.1283620846E-03
    0.4900000000E+04    0.8399662651E-02    0.6273242143E-02    0.6954858707E+00    0.8446051055E-01    0.1276418511E-03
    0.1000000000E+04    0.2632942928E-03    0.1959470953E-03    0.6938398263E+00    0.2410301959E-02    0.4060257261E-02
    0.3000000000E+04    0.3792677396E-02    0.2827027613E-02    0.6952194650E+00    0.3583889004E-01    0.1677644024E-02
    0.5000000000E+04    0.8513467149E-02    0.6358912720E-02    0.6954942563E+00    0.8589584144E-01    0.1275335550E-03
    0.7000000000E+04    0.1045141827E-01    0.7822786493E-02    0.6956113186E+00    0.1126902990E+00    0.1294983416E-03
    0.9000000000E+04    0.1187514031E-01    0.8906546216E-02    0.6956759334E+00    0.1364819095E+00    0.1313257771E-03
    0.1100000000E+05    0.1291450198E-01    0.9705286888E-02    0.6957167755E+00    0.1578432248E+00    0.1328023754E-03
    0.1300000000E+05    0.1366218686E-01    0.1028698190E-01    0.6957448552E+00    0.1771974131E+00    0.1340436527E-03
    0.1500000000E+05    0.1418607820E-01    0.1070150997E-01    0.6957653012E+00    0.1948687109E+00    0.1351158012E-03
    0.1700000000E+05    0.1453672505E-01    0.1098608937E-01    0.6957808235E+00    0.2111100881E+00    0.1360603464E-03
    0.1900000000E+05    0.1475231490E-01    0.1116889937E-01    0.6957929879E+00    0.2261221226E+00    0.1369050896E-03
    0.2100000000E+05    0.1486206190E-01    0.1127154944E-01    0.6958027616E+00    0.2400661728E+00    0.1376695765E-03
    0.2300000000E+05    0.1488856293E-01    0.1131079749E-01    0.6958107743E+00    0.2530737570E+00    0.1383680822E-03
    0.2500000000E+05    0.1484946573E-01    0.1129976748E-01    0.6958174531E+00    0.2652533543E+00    0.1390113571E-03
    0.2700000000E+05    0.1475866956E-01    0.1124882651E-01    0.6958230980E+00    0.2766954164E+00    0.1396077026E-03
    0.2900000000E+05    0.1462720217E-01    0.1116622615E-01    0.6958279259E+00    0.2874761161E+00    0.1401636656E-03
    0.3100000000E+05    0.1446386902E-01    0.1105857768E-01    0.6958320970E+00    0.2976601886E+00    0.1406845018E-03
    0.3300000000E+05    0.1427573972E-01    0.1093120859E-01    0.6958357328E+00    0.3073031125E+00    0.1411744958E-03
    0.3500000000E+05    0.1406851667E-01    0.1078843307E-01    0.6958389266E+00    0.3164528022E+00    0.1416371872E-03
    0.3700000000E+05    0.1384681725E-01    0.1063375935E-01    0.6958417513E+00    0.3251509364E+00    0.1420755347E-03
    0.3900000000E+05    0.1361439186E-01    0.1047005013E-01    0.6958442650E+00    0.3334340093E+00    0.1424920368E-03
    0.4100000000E+05    0.1337429382E-01    0.1029964776E-01    0.6958465141E+00    0.3413341718E+00    0.1428888233E-03
    0.4300000000E+05    0.1312901291E-01    0.1012447279E-01    0.6958485363E+00    0.3488799090E+00    0.1432677242E-03
    0.4500000000E+05    0.1288058095E-01    0.9946102057E-02    0.6958503627E+00    0.3560965914E+00    0.1436303242E-03
    0.4700000000E+05    0.1263065600E-01    0.9765830975E-02    0.6958520189E+00    0.3630069252E+00    0.1439780046E-03
    0.4900000000E+05    0.1238058977E-01    0.9584723617E-02    0.6958535262E+00    0.3696313249E+00    0.1443119767E-03
    0.1000000000E+05    0.1243638210E-01    0.9336791381E-02    0.6956984310E+00    0.1474371842E+00    0.1320991035E-03
    0.3000000000E+05    0.1454904109E-01    0.1111517340E-01    0.6958300852E+00    0.2926390682E+00    0.1404281870E-03
    0.5000000000E+05    0.1225585595E-01    0.9494135710E-02    0.6958542298E+00    0.3728421291E+00    0.1444741609E-03
    0.7000000000E+05    0.9928345970E-02    0.7779878493E-02    0.6958636553E+00    0.4257132515E+00    0.1472020635E-03
    0.9000000000E+05    0.8053505596E-02    0.6372604817E-02    0.6958683743E+00    0.4633993888E+00    0.1492729125E-03
    0.1100000000E+06    0.6603422600E-02    0.5269600351E-02    0.6958710443E+00    0.4915572798E+00    0.1509472621E-03
    0.1300000000E+06    0.5484121878E-02    0.4409192752E-02    0.6958726599E+00    0.5133128576E+00    0.1523553904E-03
    0.1500000000E+06    0.4612168213E-02    0.3732982874E-02    0.6958736724E+00    0.5305643211E+00    0.1535720249E-03
    0.1700000000E+06    0.3924329417E-02    0.3195472446E-02    0.6958743137E+00    0.5445361134E+00    0.1546440980E-03
    0.1900000000E+06    0.3374552304E-02    0.2762947459E-02    0.6958747144E+00    0.5560531679E+00    0.1556030569E-03
    0.2100000000E+06    0.2929509235E-02    0.2410700088E-02    0.6958749527E+00    0.5656904014E+00    0.1564710237E-03
    0.2300000000E+06    0.2564943623E-02    0.2120566422E-02    0.6958750780E+00    0.5738597558E+00    0.1572641632E-03
    0.2500000000E+06    0.2263015575E-02    0.1879075512E-02    0.6958751229E+00    0.5808634021E+00    0.1579946533E-03
    0.2700000000E+06    0.2010443796E-02    0.1676126283E-02    0.6958751094E+00    0.5869275269E+00    0.1586719012E-03
    0.2900000000E+06    0.1797215898E-02    0.1504055511E-02    0.6958750531E+00    0.5922244729E+00    0.1593033272E-03
    0.3100000000E+06    0.1615690445E-02    0.1356981455E-02    0.6958749648E+00    0.5968876380E+00    0.1598948899E-03
    0.3300000000E+06    0.1459966527E-02    0.1230338751E-02    0.6958748526E+00    0.6010217369E+00    0.1604514479E-03
    0.3500000000E+06    0.1325436448E-02    0.1120545804E-02    0.6958747226E+00    0.6047100135E+00    0.1609770154E-03
    0.3700000000E+06    0.1208464663E-02    0.1024764437E-02    0.6958745791E+00    0.6080194037E+00    0.1614749484E-03
    0.3900000000E+06    0.1106154633E-02    0.9407243027E-03    0.6958744256E+00    0.6110042922E+00    0.1619480814E-03
    0.4100000000E+06    0.1016177570E-02    0.8665932142E-03    0.6958742646E+00    0.6137092864E+00    0.1623988305E-03
    0.4300000000E+06    0.9366452371E-03    0.8008803598E-03    0.6958740982E+00    0.6161712935E+00    0.1628292724E-03
    0.4500000000E+06    0.8660144669E-03    0.7423633313E-03    0.6958739280E+00    0.6184210941E+00    0.1632412054E-03
    0.4700000000E+06    0.8030147691E-03    0.6900325652E-03    0.6958737552E+00    0.6204845490E+00    0.1636361968E-03
    0.4900000000E+06    0.7465929111E-03    0.6430486497E-03    0.6958735808E+00    0.6223835340E+00    0.1640156216E-03
    0.1000000000E+06    0.7281174324E-02    0.5786722821E-02    0.6958698840E+00    0.4784355706E+00    0.1501496958E-03
    0.3000000000E+06    0.1702893993E-02    0.1427705651E-02    0.6958750123E+00    0.5946281576E+00    0.1596037654E-03
    0.5000000000E+06    0.7205682045E-03    0.6213376700E-03    0.6958734932E+00    0.6232772801E+00    0.1641998811E-03
    0.7000000000E+06    0.3936244246E-03    0.3459628126E-03    0.6958717762E+00    0.6358503078E+00    0.1672992822E-03
    0.9000000000E+06    0.2470979827E-03    0.2203438272E-03    0.6958702257E+00    0.6428578278E+00    0.1696523434E-03
    0.1100000000E+07    0.1692473490E-03    0.1526900672E-03    0.6958688556E+00    0.6473123022E+00    0.1715549582E-03
    0.1300000000E+07    0.1230603770E-03    0.1121080625E-03    0.6958676391E+00    0.6503897482E+00    0.1731551036E-03
    0.1500000000E+07    0.9345335999E-04    0.8585135082E-04    0.6958665488E+00    0.6526415920E+00    0.1745376696E-03
    0.1700000000E+07    0.7335426138E-04    0.6788302275E-04    0.6958655623E+00    0.6543600587E+00    0.1757559754E-03
    0.1900000000E+07    0.5909295571E-04    0.5504315179E-04    0.6958646621E+00    0.6557142390E+00    0.1768457493E-03
    0.2100000000E+07    0.4861202408E-04    0.4554705484E-04    0.6958638344E+00    0.6568086826E+00    0.1778321266E-03
    0.2300000000E+07    0.4068593492E-04    0.3832460446E-04    0.6958630685E+00    0.6577114746E+00    0.1787334742E-03
    0.2500000000E+07    0.3454798480E-04    0.3270233013E-04    0.6958623558E+00    0.6584688425E+00    0.1795636295E-03
    0.2700000000E+07    0.2969869972E-04    0.2823912182E-04    0.6958616893E+00    0.6591132674E+00    0.1803332816E-03
    0.2900000000E+07    0.2580144035E-04    0.2463620412E-04    0.6958610632E+00    0.6596682362E+00    0.1810508624E-03
    0.3100000000E+07    0.2262264722E-04    0.2168534008E-04    0.6958604730E+00    0.6601511509E+00    0.1817231428E-03
    0.3300000000E+07    0.1999617821E-04    0.1923777238E-04    0.6958599146E+00    0.6605751779E+00    0.1823556437E-03
    0.3500000000E+07    0.1780124736E-04    0.1718492580E-04    0.6958593848E+00    0.6609504621E+00    0.1829529267E-03
    0.3700000000E+07    0.1594834580E-04    0.1544604170E-04    0.6958588806E+00    0.6612849460E+00    0.1835188054E-03
    0.3900000000E+07    0.1437000772E-04    0.1396003706E-04    0.6958583998E+00    0.6615849362E+00    0.1840565009E-03
    0.4100000000E+07    0.1301460618E-04    0.1268001504E-04    0.6958579401E+00    0.6618555041E+00    0.1845687588E-03
    0.4300000000E+07    0.1184209379E-04    0.1156948379E-04    0.6958574997E+00    0.6621007737E+00    0.1850579391E-03
    0.4500000000E+07    0.1082102182E-04    0.1059970160E-04    0.6958570772E+00    0.6623241331E+00    0.1855260851E-03
    0.4700000000E+07    0.9926417184E-05    0.9747780471E-05    0.6958566709E+00    0.6625283914E+00    0.1859749782E-03
    0.4900000000E+07    0.9138246626E-05    0.8995310232E-05    0.6958562797E+00    0.6627158974E+00    0.1864061808E-03
    0.1000000000E+07    0.2027042300E-03    0.1818637241E-03    0.6958695196E+00    0.6453088183E+00    0.1706486509E-03
    0.3000000000E+07    0.2413389178E-04    0.2308968800E-04    0.6958607639E+00    0.6599177948E+00    0.1813922947E-03
    0.5000000000E+07    0.8778880725E-05    0.8651585576E-05    0.6958560895E+00    0.6628039991E+00    0.1866155851E-03
    0.7000000000E+07    0.4496548240E-05    0.4516513157E-05    0.6958528619E+00    0.6640356238E+00    0.1901379543E-03
    0.9000000000E+07    0.2726754486E-05    0.2776780293E-05    0.6958503836E+00    0.6647183564E+00    0.1928121408E-03
    0.1100000000E+08    0.1829223572E-05    0.1882512009E-05    0.6958483658E+00    0.6651522425E+00    0.1949744107E-03
    0.1300000000E+08    0.1312539123E-05    0.1362104964E-05    0.6958466607E+00    0.6654523565E+00    0.1967929336E-03
    0.1500000000E+08    0.9882043801E-06    0.1032477657E-05    0.6958451824E+00    0.6656722998E+00    0.1983641834E-03
    0.1700000000E+08    0.7713761647E-06    0.8104102521E-06    0.6958438762E+00    0.6658404120E+00    0.1997487558E-03
    0.1900000000E+08    0.6193013591E-06    0.6536164482E-06    0.6958427053E+00    0.6659730840E+00    0.2009872551E-03
    0.2100000000E+08    0.5085407721E-06    0.5387443720E-06    0.6958416435E+00    0.6660804545E+00    0.2021082466E-03
    0.2300000000E+08    0.4253735726E-06    0.4520364489E-06    0.6958406718E+00    0.6661691319E+00    0.2031326039E-03
    0.2500000000E+08    0.3613351274E-06    0.3849565271E-06    0.6958397755E+00    0.6662436073E+00    0.2040760529E-03
    0.2700000000E+08    0.3109739725E-06    0.3319784498E-06    0.6958389436E+00    0.6663070400E+00    0.2049507414E-03
