  Pressure (Pa) 22mC5-500 (mol/kg) 23mC5-500 (mol/kg) 24mC5-500 (mol/kg) 3mC6-500 (mol/kg) C7-500 (mol/kg)
    0.1000000000E+01    0.3814083122E-05    0.3284789640E-05    0.2142847788E+00    0.3061151692E-05    0.4145985215E-02
    0.3000000000E+01    0.6550388727E-05    0.5622135668E-05    0.3978623903E+00    0.7549336510E-05    0.4170034340E-02
    0.5000000000E+01    0.7628922415E-05    0.6539505472E-05    0.4801279312E+00    0.1161272482E-04    0.4176002055E-02
    0.7000000000E+01    0.8256259565E-05    0.7076281469E-05    0.5268117722E+00    0.1547342984E-04    0.4178710826E-02
    0.9000000000E+01    0.8724032743E-05    0.7481098624E-05    0.5568941784E+00    0.1920493721E-04    0.4180180915E-02
    0.1100000000E+02    0.9128508309E-05    0.7835065592E-05    0.5778938848E+00    0.2284365575E-04    0.4181038478E-02
    0.1300000000E+02    0.9507333527E-05    0.8169451023E-05    0.5933848573E+00    0.2641111233E-04    0.4181546492E-02
    0.1500000000E+02    0.9876783044E-05    0.8497524827E-05    0.6052833825E+00    0.2992142160E-04    0.4181835821E-02
    0.1700000000E+02    0.1024429314E-04    0.8825196148E-05    0.6147092889E+00    0.3338449605E-04    0.4181979217E-02
    0.1900000000E+02    0.1061331881E-04    0.9155102710E-05    0.6223607848E+00    0.3680764776E-04    0.4182020449E-02
    0.2100000000E+02    0.1098541462E-04    0.9488346936E-05    0.6286958160E+00    0.4019647396E-04    0.4181987452E-02
    0.2300000000E+02    0.1136119455E-04    0.9825288364E-05    0.6340272260E+00    0.4355538482E-04    0.4181898910E-02
    0.2500000000E+02    0.1174079970E-04    0.1016592497E-04    0.6385760086E+00    0.4688793689E-04    0.4181767788E-02
    0.2700000000E+02    0.1212413565E-04    0.1051008366E-04    0.6425027110E+00    0.5019705353E-04    0.4181603366E-02
    0.2900000000E+02    0.1251099610E-04    0.1085751757E-04    0.6459267783E+00    0.5348517636E-04    0.4181412460E-02
    0.3100000000E+02    0.1290112839E-04    0.1120795627E-04    0.6489389154E+00    0.5675437241E-04    0.4181200185E-02
    0.3300000000E+02    0.1329426820E-04    0.1156113131E-04    0.6516092408E+00    0.6000641212E-04    0.4180970453E-02
    0.3500000000E+02    0.1369015752E-04    0.1191678864E-04    0.6539928134E+00    0.6324282736E-04    0.4180726305E-02
    0.3700000000E+02    0.1408855360E-04    0.1227469414E-04    0.6561334694E+00    0.6646495536E-04    0.4180470140E-02
    0.3900000000E+02    0.1448923272E-04    0.1263463531E-04    0.6580665431E+00    0.6967397270E-04    0.4180203872E-02
    0.4100000000E+02    0.1489199137E-04    0.1299642103E-04    0.6598208328E+00    0.7287092189E-04    0.4179929049E-02
    0.4300000000E+02    0.1529664578E-04    0.1335988034E-04    0.6614200453E+00    0.7605673244E-04    0.4179646933E-02
    0.4500000000E+02    0.1570303082E-04    0.1372486079E-04    0.6628838734E+00    0.7923223784E-04    0.4179358561E-02
    0.4700000000E+02    0.1611099848E-04    0.1409122669E-04    0.6642288109E+00    0.8239818936E-04    0.4179064797E-02
    0.4900000000E+02    0.1652041637E-04    0.1445885729E-04    0.6654687769E+00    0.8555526728E-04    0.4178766361E-02
    0.1000000000E+02    0.8931087016E-05    0.7661856373E-05    0.5682512839E+00    0.2103432019E-04    0.4180665298E-02
    0.3000000000E+02    0.1270566978E-04    0.1103237834E-04    0.6474795480E+00    0.5512202339E-04    0.4181308725E-02
    0.5000000000E+02    0.1672563163E-04    0.1464311281E-04    0.6660531626E+00    0.8713067416E-04    0.4178615584E-02
    0.7000000000E+02    0.2088333571E-04    0.1837416628E-04    0.6743437511E+00    0.1182979035E-03    0.4175461185E-02
    0.9000000000E+02    0.2510768266E-04    0.2216175857E-04    0.6790395131E+00    0.1490434535E-03    0.4172179108E-02
    0.1100000000E+03    0.2937400904E-04    0.2598458307E-04    0.6820619619E+00    0.1795787067E-03    0.4168852540E-02
    0.1300000000E+03    0.3367351298E-04    0.2983536435E-04    0.6841702543E+00    0.2100307998E-03    0.4165508134E-02
    0.1500000000E+03    0.3800347029E-04    0.3371208361E-04    0.6857246468E+00    0.2404848154E-03    0.4162154920E-02
    0.1700000000E+03    0.4236370914E-04    0.3761487916E-04    0.6869180784E+00    0.2710020175E-03    0.4158795403E-02
    0.1900000000E+03    0.4675518649E-04    0.4154481537E-04    0.6878632018E+00    0.3016289809E-03    0.4155429448E-02
    0.2100000000E+03    0.5117936365E-04    0.4550335174E-04    0.6886302094E+00    0.3324026499E-03    0.4152055806E-02
    0.2300000000E+03    0.5563791679E-04    0.4949210157E-04    0.6892651156E+00    0.3633533569E-03    0.4148672779E-02
    0.2500000000E+03    0.6013259848E-04    0.5351271956E-04    0.6897993416E+00    0.3945067309E-03    0.4145278517E-02
    0.2700000000E+03    0.6466517124E-04    0.5756684999E-04    0.6902550757E+00    0.4258849597E-03    0.4141871156E-02
    0.2900000000E+03    0.6923737674E-04    0.6165610428E-04    0.6906484325E+00    0.4575076580E-03    0.4138448879E-02
    0.3100000000E+03    0.7385092318E-04    0.6578205328E-04    0.6909913978E+00    0.4893924820E-03    0.4135009938E-02
    0.3300000000E+03    0.7850748186E-04    0.6994622674E-04    0.6912930716E+00    0.5215555773E-03    0.4131552669E-02
    0.3500000000E+03    0.8320868854E-04    0.7415011642E-04    0.6915604873E+00    0.5540119123E-03    0.4128075483E-02
    0.3700000000E+03    0.8795614710E-04    0.7839518063E-04    0.6917991665E+00    0.5867755323E-03    0.4124576865E-02
    0.3900000000E+03    0.9275143418E-04    0.8268284941E-04    0.6920135049E+00    0.6198597559E-03    0.4121055364E-02
    0.4100000000E+03    0.9759610411E-04    0.8701452980E-04    0.6922070452E+00    0.6532773297E-03    0.4117509588E-02
    0.4300000000E+03    0.1024916939E-03    0.9139161076E-04    0.6923826742E+00    0.6870405519E-03    0.4113938196E-02
    0.4500000000E+03    0.1074397280E-03    0.9581546790E-04    0.6925427682E+00    0.7211613730E-03    0.4110339889E-02
    0.4700000000E+03    0.1124417225E-03    0.1002874678E-03    0.6926893011E+00    0.7556514777E-03    0.4106713405E-02
    0.4900000000E+03    0.1174991896E-03    0.1048089719E-03    0.6928239257E+00    0.7905223537E-03    0.4103057516E-02
    0.1000000000E+03    0.2723635761E-04    0.2406940370E-04    0.6806985334E+00    0.1643281195E-03    0.4170519082E-02
    0.3000000000E+03    0.7153887703E-04    0.6371439539E-04    0.6908255889E+00    0.4734162641E-03    0.4136731597E-02
    0.5000000000E+03    0.1200491977E-03    0.1070887131E-03    0.6928872169E+00    0.8081041312E-03    0.4101218167E-02
    0.7000000000E+03    0.1743370262E-03    0.1556196804E-03    0.6937744742E+00    0.1182493478E-02    0.4062601367E-02
    0.9000000000E+03    0.2360084094E-03    0.2107483011E-03    0.6942683269E+00    0.1608253612E-02    0.4019714646E-02
    0.1100000000E+04    0.3069533542E-03    0.2741663458E-03    0.6945829262E+00    0.2098738721E-02    0.3971326575E-02
    0.1300000000E+04    0.3895506103E-03    0.3480017358E-03    0.6948008647E+00    0.2670673622E-02    0.3915969866E-02
    0.1500000000E+04    0.4868977098E-03    0.4350248855E-03    0.6949607514E+00    0.3345833119E-02    0.3851793771E-02
    0.1700000000E+04    0.6031201840E-03    0.5389255117E-03    0.6950830497E+00    0.4153251565E-02    0.3776388323E-02
    0.1900000000E+04    0.7438117456E-03    0.6647065160E-03    0.6951796170E+00    0.5132361880E-02    0.3686548749E-02
    0.2100000000E+04    0.9166695847E-03    0.8192524466E-03    0.6952577982E+00    0.6337538213E-02    0.3577950505E-02
    0.2300000000E+04    0.1132398991E-02    0.1012139058E-02    0.6953223856E+00    0.7844598496E-02    0.3444710404E-02
    0.2500000000E+04    0.1405933161E-02    0.1256725230E-02    0.6953766395E+00    0.9759652987E-02    0.3278843888E-02
    0.2700000000E+04    0.1757836639E-02    0.1571410083E-02    0.6954228548E+00    0.1222949171E-01    0.3069761307E-02
    0.2900000000E+04    0.2215129247E-02    0.1980373543E-02    0.6954626938E+00    0.1544833896E-01    0.2804348401E-02
    0.3100000000E+04    0.2809032063E-02    0.2511566896E-02    0.6954973901E+00    0.1964361642E-01    0.2469163005E-02
    0.3300000000E+04    0.3563833550E-02    0.3186763852E-02    0.6955278783E+00    0.2499969405E-01    0.2057875256E-02
    0.3500000000E+04    0.4470040165E-02    0.3997551298E-02    0.6955548796E+00    0.3146957310E-01    0.1586575366E-02
    0.3700000000E+04    0.5452179690E-02    0.4876513720E-02    0.6955789594E+00    0.3854275217E-01    0.1108263023E-02
    0.3900000000E+04    0.6380343593E-02    0.5707504830E-02    0.6956005669E+00    0.4531346725E-01    0.6984119434E-03
    0.4100000000E+04    0.7150015234E-02    0.6397010536E-02    0.6956200640E+00    0.5103524807E-01    0.4062454919E-03
    0.4300000000E+04    0.7741683377E-02    0.6927501247E-02    0.6956377451E+00    0.5555045499E-01    0.2281846072E-03
    0.4500000000E+04    0.8195438849E-02    0.7334766956E-02    0.6956538524E+00    0.5912516235E-01    0.1307777931E-03
    0.4700000000E+04    0.8560923118E-02    0.7663169885E-02    0.6956685867E+00    0.6210054163E-01    0.8077269953E-04
    0.4900000000E+04    0.8874425888E-02    0.7945151824E-02    0.6956821162E+00    0.6472893527E-01    0.5595338451E-04
    0.1000000000E+04    0.2701868952E-03    0.2413005520E-03    0.6944413260E+00    0.1844457288E-02    0.3996292778E-02
    0.3000000000E+04    0.2493095977E-02    0.2228982126E-02    0.6954806205E+00    0.1740981151E-01    0.2646180415E-02
    0.5000000000E+04    0.9018898684E-02    0.8075185560E-02    0.6956884743E+00    0.6596348149E-01    0.4881526279E-04
    0.7000000000E+04    0.1134661380E-01    0.1017649776E-01    0.6957774196E+00    0.8759034154E-01    0.3291556866E-04
    0.9000000000E+04    0.1314223494E-01    0.1180633006E-01    0.6958267430E+00    0.1068677067E+00    0.3336617213E-04
    0.1100000000E+05    0.1455029016E-01    0.1309219429E-01    0.6958580684E+00    0.1244095978E+00    0.3374109232E-04
    0.1300000000E+05    0.1565275829E-01    0.1410617418E-01    0.6958797102E+00    0.1404962457E+00    0.3405631715E-04
    0.1500000000E+05    0.1651168612E-01    0.1490289859E-01    0.6958955467E+00    0.1553469304E+00    0.3432861694E-04
    0.1700000000E+05    0.1717474500E-01    0.1552439872E-01    0.6959076303E+00    0.1691359966E+00    0.3456852515E-04
    0.1900000000E+05    0.1767903821E-01    0.1600343719E-01    0.6959171486E+00    0.1820039382E+00    0.3478309573E-04
    0.2100000000E+05    0.1805377842E-01    0.1636585037E-01    0.6959248363E+00    0.1940653528E+00    0.3497728880E-04
    0.2300000000E+05    0.1832220397E-01    0.1663222560E-01    0.6959311723E+00    0.2054147503E+00    0.3515472756E-04
    0.2500000000E+05    0.1850297241E-01    0.1681912159E-01    0.6959364821E+00    0.2161308620E+00    0.3531814082E-04
    0.2700000000E+05    0.1861118857E-01    0.1693996940E-01    0.6959409944E+00    0.2262798825E+00    0.3546963605E-04
    0.2900000000E+05    0.1865917310E-01    0.1700574626E-01    0.6959448751E+00    0.2359179408E+00    0.3561087536E-04
    0.3100000000E+05    0.1865704384E-01    0.1702548579E-01    0.6959482468E+00    0.2450930060E+00    0.3574319321E-04
    0.3300000000E+05    0.1861316065E-01    0.1700666855E-01    0.6959512026E+00    0.2538463732E+00    0.3586767751E-04
    0.3500000000E+05    0.1853446903E-01    0.1695552399E-01    0.6959538141E+00    0.2622138342E+00    0.3598522709E-04
    0.3700000000E+05    0.1842676824E-01    0.1687726633E-01    0.6959561375E+00    0.2702266071E+00    0.3609659324E-04
    0.3900000000E+05    0.1829492225E-01    0.1677628013E-01    0.6959582173E+00    0.2779120822E+00    0.3620241050E-04
    0.4100000000E+05    0.1814302702E-01    0.1665626776E-01    0.6959600896E+00    0.2852944253E+00    0.3630321970E-04
    0.4300000000E+05    0.1797454425E-01    0.1652036727E-01    0.6959617833E+00    0.2923950675E+00    0.3639948566E-04
    0.4500000000E+05    0.1779240896E-01    0.1637124737E-01    0.6959633225E+00    0.2992331083E+00    0.3649161081E-04
    0.4700000000E+05    0.1759911668E-01    0.1621118448E-01    0.6959647271E+00    0.3058256474E+00    0.3657994598E-04
    0.4900000000E+05    0.1739679448E-01    0.1604212553E-01    0.6959660137E+00    0.3121880603E+00    0.3666479882E-04
    0.1000000000E+05    0.1388903618E-01    0.1248727280E-01    0.6958439799E+00    0.1158364076E+00    0.3356251193E-04
    0.3000000000E+05    0.1866381345E-01    0.1702087067E-01    0.6959466182E+00    0.2405606252E+00    0.3567807646E-04
    0.5000000000E+05    0.1729282568E-01    0.1595475373E-01    0.6959666172E+00    0.3152873602E+00    0.3670600543E-04
    0.7000000000E+05    0.1506078513E-01    0.1403257729E-01    0.6959749612E+00    0.3679535726E+00    0.3739910712E-04
    0.9000000000E+05    0.1293490580E-01    0.1215490599E-01    0.6959794685E+00    0.4077205219E+00    0.3792528170E-04
    0.1100000000E+06    0.1110509672E-01    0.1051416511E-01    0.6959822539E+00    0.4389154190E+00    0.3835071898E-04
    0.1300000000E+06    0.9576165274E-02    0.9127756079E-02    0.6959841241E+00    0.4640138098E+00    0.3870851619E-04
    0.1500000000E+06    0.8308378327E-02    0.7967625927E-02    0.6959854525E+00    0.4845931939E+00    0.3901765871E-04
    0.1700000000E+06    0.7256222516E-02    0.6997320353E-02    0.6959864350E+00    0.5017262870E+00    0.3929007057E-04
    0.1900000000E+06    0.6379085245E-02    0.6182909197E-02    0.6959871841E+00    0.5161741890E+00    0.3953374165E-04
    0.2100000000E+06    0.5643411405E-02    0.5495698408E-02    0.6959877689E+00    0.5284934384E+00    0.3975429265E-04
    0.2300000000E+06    0.5022274619E-02    0.4912296610E-02    0.6959882340E+00    0.5391004749E+00    0.3995583076E-04
    0.2500000000E+06    0.4494294090E-02    0.4413907826E-02    0.6959886095E+00    0.5483127652E+00    0.4014145017E-04
    0.2700000000E+06    0.4042525759E-02    0.3985493286E-02    0.6959889164E+00    0.5563761567E+00    0.4031354105E-04
    0.2900000000E+06    0.3653510529E-02    0.3615011078E-02    0.6959891696E+00    0.5634836488E+00    0.4047398886E-04
    0.3100000000E+06    0.3316509004E-02    0.3292785828E-02    0.6959893802E+00    0.5697885953E+00    0.4062430761E-04
    0.3300000000E+06    0.3022903288E-02    0.3011005916E-02    0.6959895566E+00    0.5754141787E+00    0.4076573176E-04
    0.3500000000E+06    0.2765734937E-02    0.2763329332E-02    0.6959897051E+00    0.5804603270E+00    0.4089928134E-04
    0.3700000000E+06    0.2539349407E-02    0.2544576849E-02    0.6959898306E+00    0.5850088374E+00    0.4102580904E-04
    0.3900000000E+06    0.2339122305E-02    0.2350493537E-02    0.6959899369E+00    0.5891272242E+00    0.4114603509E-04
    0.4100000000E+06    0.2161247961E-02    0.2177563090E-02    0.6959900272E+00    0.5928716409E+00    0.4126057343E-04
    0.4300000000E+06    0.2002575406E-02    0.2022862784E-02    0.6959901039E+00    0.5962891246E+00    0.4136995174E-04
    0.4500000000E+06    0.1860480444E-02    0.1883949658E-02    0.6959901691E+00    0.5994193379E+00    0.4147462691E-04
    0.4700000000E+06    0.1732765312E-02    0.1758770750E-02    0.6959902245E+00    0.6022959309E+00    0.4157499723E-04
    0.4900000000E+06    0.1617579500E-02    0.1645591916E-02    0.6959902713E+00    0.6049476177E+00    0.4167141207E-04
    0.1000000000E+06    0.1198082546E-01    0.1130199326E-01    0.6959810107E+00    0.4242067920E+00    0.3814806374E-04
    0.3000000000E+06    0.3479090392E-02    0.3448393145E-02    0.6959892796E+00    0.5667281255E+00    0.4055033153E-04
    0.5000000000E+06    0.1564186021E-02    0.1593033575E-02    0.6959902919E+00    0.6061969592E+00    0.4171823389E-04
    0.7000000000E+06    0.8778248933E-03    0.9108922132E-03    0.6959904555E+00    0.6238351777E+00    0.4250582018E-04
    0.9000000000E+06    0.5593708454E-03    0.5887818054E-03    0.6959903948E+00    0.6336788361E+00    0.4310375870E-04
    0.1100000000E+07    0.3867730984E-03    0.4118294915E-03    0.6959902585E+00    0.6399201494E+00    0.4358723627E-04
    0.1300000000E+07    0.2830496336E-03    0.3043153139E-03    0.6959900959E+00    0.6442174311E+00    0.4399385428E-04
    0.1500000000E+07    0.2159610760E-03    0.2341280862E-03    0.6959899260E+00    0.6473512722E+00    0.4434518361E-04
    0.1700000000E+07    0.1701153532E-03    0.1857791704E-03    0.6959897570E+00    0.6497354236E+00    0.4465477297E-04
    0.1900000000E+07    0.1374205427E-03    0.1510549602E-03    0.6959895926E+00    0.6516089679E+00    0.4493170118E-04
    0.2100000000E+07    0.1132962410E-03    0.1252710173E-03    0.6959894342E+00    0.6531194325E+00    0.4518235525E-04
    0.2300000000E+07    0.9499342982E-04    0.1055970811E-03    0.6959892823E+00    0.6543626738E+00    0.4541140239E-04
    0.2500000000E+07    0.8078190894E-04    0.9024113163E-04    0.6959891369E+00    0.6554036247E+00    0.4562235876E-04
    0.2700000000E+07    0.6952896424E-04    0.7802359815E-04    0.6959889978E+00    0.6562878079E+00    0.4581794056E-04
    0.2900000000E+07    0.6046802379E-04    0.6814222195E-04    0.6959888647E+00    0.6570480698E+00    0.4600029044E-04
    0.3100000000E+07    0.5306539517E-04    0.6003589980E-04    0.6959887372E+00    0.6577086983E+00    0.4617112893E-04
    0.3300000000E+07    0.4694030861E-04    0.5330259906E-04    0.6959886150E+00    0.6582880346E+00    0.4633185893E-04
    0.3500000000E+07    0.4181523064E-04    0.4764812326E-04    0.6959884977E+00    0.6588001863E+00    0.4648363962E-04
    0.3700000000E+07    0.3748403137E-04    0.4285315231E-04    0.6959883849E+00    0.6592561797E+00    0.4662744007E-04
    0.3900000000E+07    0.3379103592E-04    0.3875146896E-04    0.6959882764E+00    0.6596647573E+00    0.4676407876E-04
    0.4100000000E+07    0.3061690730E-04    0.3521523276E-04    0.6959881719E+00    0.6600329385E+00    0.4689425342E-04
    0.4300000000E+07    0.2786892941E-04    0.3214480947E-04    0.6959880710E+00    0.6603664242E+00    0.4701856373E-04
    0.4500000000E+07    0.2547419035E-04    0.2946161335E-04    0.6959879736E+00    0.6606698918E+00    0.4713752894E-04
    0.4700000000E+07    0.2337471775E-04    0.2710298337E-04    0.6959878795E+00    0.6609472153E+00    0.4725160170E-04
    0.4900000000E+07    0.2152395253E-04    0.2501845854E-04    0.6959877884E+00    0.6612016299E+00    0.4736117903E-04
    0.1000000000E+07    0.4612705521E-03    0.4884647128E-03    0.6959903319E+00    0.6371155055E+00    0.4335693230E-04
    0.3000000000E+07    0.5658611068E-04    0.6389532178E-04    0.6959888003E+00    0.6573895760E+00    0.4608705446E-04
    0.5000000000E+07    0.2067975383E-04    0.2406586148E-04    0.6959877439E+00    0.6613211145E+00    0.4741439297E-04
    0.7000000000E+07    0.1060193182E-04    0.1258457441E-04    0.6959869757E+00    0.6629876651E+00    0.4830950239E-04
    0.9000000000E+07    0.6426087869E-05    0.7740612544E-05    0.6959863717E+00    0.6639083014E+00    0.4898907453E-04
    0.1100000000E+08    0.4305661831E-05    0.5246989218E-05    0.6959858733E+00    0.6644921299E+00    0.4953855955E-04
    0.1300000000E+08    0.3084239668E-05    0.3794610369E-05    0.6959854482E+00    0.6648953691E+00    0.5000069191E-04
    0.1500000000E+08    0.2317347387E-05    0.2874202934E-05    0.6959850772E+00    0.6651905755E+00    0.5039998733E-04
    0.1700000000E+08    0.1804664668E-05    0.2253955377E-05    0.6959847478E+00    0.6654160316E+00    0.5075184416E-04
    0.1900000000E+08    0.1445159388E-05    0.1815963124E-05    0.6959844513E+00    0.6655938445E+00    0.5106658073E-04
    0.2100000000E+08    0.1183407123E-05    0.1495069129E-05    0.6959841815E+00    0.6657376721E+00    0.5135145600E-04
    0.2300000000E+08    0.9869495907E-06    0.1252866186E-05    0.6959839339E+00    0.6658564079E+00    0.5161177440E-04
    0.2500000000E+08    0.8357567558E-06    0.1065514170E-05    0.6959837051E+00    0.6659560910E+00    0.5185153213E-04
    0.2700000000E+08    0.7169261964E-06    0.9175746229E-06    0.6959834922E+00    0.6660409668E+00    0.5207381622E-04
