  Pressure (Pa) 22mC5-500 (mol/kg) 23mC5-500 (mol/kg) 24mC5-500 (mol/kg) 3mC6-500 (mol/kg) C7-500 (mol/kg)
    0.1000000000E+01    0.5322451795E-05    0.7649937392E-05    0.3665993116E-01    0.2400033690E-05    0.4198004662E-02
    0.3000000000E+01    0.1405491563E-04    0.2017741859E-04    0.9948537539E-01    0.6134551767E-05    0.4266836988E-02
    0.5000000000E+01    0.2095953279E-04    0.3006232183E-04    0.1513655888E+00    0.9565657863E-05    0.4321043007E-02
    0.7000000000E+01    0.2652518279E-04    0.3801448824E-04    0.1949317574E+00    0.1284905179E-04    0.4366410265E-02
    0.9000000000E+01    0.3108104354E-04    0.4451119640E-04    0.2320342565E+00    0.1603735970E-04    0.4405118874E-02
    0.1100000000E+02    0.3485939773E-04    0.4988888503E-04    0.2640122828E+00    0.1915695299E-04    0.4438591160E-02
    0.1300000000E+02    0.3802884490E-04    0.5439151526E-04    0.2918589720E+00    0.2222354696E-04    0.4467850191E-02
    0.1500000000E+02    0.4071450774E-04    0.5819996157E-04    0.3163263979E+00    0.2524750792E-04    0.4493661791E-02
    0.1700000000E+02    0.4301099071E-04    0.6145084733E-04    0.3379945297E+00    0.2823615141E-04    0.4516613694E-02
    0.1900000000E+02    0.4499098331E-04    0.6424904195E-04    0.3573177981E+00    0.3119489581E-04    0.4537165546E-02
    0.2100000000E+02    0.4671112886E-04    0.6667618137E-04    0.3746573195E+00    0.3412790321E-04    0.4555682457E-02
    0.2300000000E+02    0.4821612046E-04    0.6879661118E-04    0.3903036782E+00    0.3703846304E-04    0.4572458334E-02
    0.2500000000E+02    0.4954161661E-04    0.7066161488E-04    0.4044933454E+00    0.3992923519E-04    0.4587732560E-02
    0.2700000000E+02    0.5071635314E-04    0.7231247487E-04    0.4174207148E+00    0.4280241130E-04    0.4601702146E-02
    0.2900000000E+02    0.5176369708E-04    0.7378272330E-04    0.4292470636E+00    0.4565982589E-04    0.4614530763E-02
    0.3100000000E+02    0.5270280595E-04    0.7509982036E-04    0.4401073162E+00    0.4850303513E-04    0.4626355541E-02
    0.3300000000E+02    0.5354950373E-04    0.7628642173E-04    0.4501152159E+00    0.5133337440E-04    0.4637292265E-02
    0.3500000000E+02    0.5431695047E-04    0.7736134675E-04    0.4593673244E+00    0.5415200107E-04    0.4647439389E-02
    0.3700000000E+02    0.5501615960E-04    0.7834032597E-04    0.4679461478E+00    0.5695992713E-04    0.4656881179E-02
    0.3900000000E+02    0.5565640136E-04    0.7923658385E-04    0.4759226043E+00    0.5975804429E-04    0.4665690192E-02
    0.4100000000E+02    0.5624552047E-04    0.8006129713E-04    0.4833579898E+00    0.6254714375E-04    0.4673929249E-02
    0.4300000000E+02    0.5679018810E-04    0.8082395833E-04    0.4903055563E+00    0.6532793192E-04    0.4681653025E-02
    0.4500000000E+02    0.5729610349E-04    0.8153266630E-04    0.4968117893E+00    0.6810104303E-04    0.4688909331E-02
    0.4700000000E+02    0.5776815627E-04    0.8219436004E-04    0.5029174499E+00    0.7086704939E-04    0.4695740167E-02
    0.4900000000E+02    0.5821055811E-04    0.8281500823E-04    0.5086584290E+00    0.7362646988E-04    0.4702182582E-02
    0.1000000000E+02    0.3305566072E-04    0.4732291315E-04    0.2485950975E+00    0.1760459831E-04    0.4422438367E-02
    0.3000000000E+02    0.5224572247E-04    0.7445889975E-04    0.4347903983E+00    0.4708311810E-04    0.4620560947E-02
    0.5000000000E+02    0.5842179755E-04    0.8311157874E-04    0.5114022239E+00    0.7500385969E-04    0.4705268534E-02
    0.7000000000E+02    0.6175394949E-04    0.8782517654E-04    0.5531785299E+00    0.1023015018E-03    0.4752870505E-02
    0.9000000000E+02    0.6430837896E-04    0.9151041038E-04    0.5794784553E+00    0.1292976837E-03    0.4783509826E-02
    0.1100000000E+03    0.6667994555E-04    0.9498920047E-04    0.5975582549E+00    0.1561557800E-03    0.4804883577E-02
    0.1300000000E+03    0.6906965035E-04    0.9853149753E-04    0.6107510024E+00    0.1829747122E-03    0.4820594088E-02
    0.1500000000E+03    0.7154903395E-04    0.1022287230E-03    0.6208023077E+00    0.2098210681E-03    0.4832562611E-02
    0.1700000000E+03    0.7414173788E-04    0.1061076715E-03    0.6287148603E+00    0.2367430519E-03    0.4841912439E-02
    0.1900000000E+03    0.7685257924E-04    0.1101705598E-03    0.6351056550E+00    0.2637774978E-03    0.4849346811E-02
    0.2100000000E+03    0.7967894795E-04    0.1144104527E-03    0.6403751770E+00    0.2909537668E-03    0.4855329926E-02
    0.2300000000E+03    0.8261554869E-04    0.1188175278E-03    0.6447947128E+00    0.3182960803E-03    0.4860181416E-02
    0.2500000000E+03    0.8565643009E-04    0.1233816613E-03    0.6485545633E+00    0.3458249976E-03    0.4864129090E-02
    0.2700000000E+03    0.8879584486E-04    0.1280934589E-03    0.6517921655E+00    0.3735583961E-03    0.4867340027E-02
    0.2900000000E+03    0.9202858847E-04    0.1329446092E-03    0.6546092574E+00    0.4015121462E-03    0.4869939769E-02
    0.3100000000E+03    0.9535010177E-04    0.1379279443E-03    0.6570827619E+00    0.4297005903E-03    0.4872024612E-02
    0.3300000000E+03    0.9875646866E-04    0.1430373770E-03    0.6592719185E+00    0.4581368925E-03    0.4873669749E-02
    0.3500000000E+03    0.1022443697E-03    0.1482677927E-03    0.6612230882E+00    0.4868332988E-03    0.4874934809E-02
    0.3700000000E+03    0.1058110205E-03    0.1536149326E-03    0.6629730731E+00    0.5158013365E-03    0.4875867728E-02
    0.3900000000E+03    0.1094541090E-03    0.1590752817E-03    0.6645514590E+00    0.5450519679E-03    0.4876507505E-02
    0.4100000000E+03    0.1131717357E-03    0.1646459690E-03    0.6659823019E+00    0.5745957117E-03    0.4876886204E-02
    0.4300000000E+03    0.1169623609E-03    0.1703246798E-03    0.6672853619E+00    0.6044427406E-03    0.4877030439E-02
    0.4500000000E+03    0.1208247591E-03    0.1761095816E-03    0.6684770216E+00    0.6346029601E-03    0.4876962485E-02
    0.4700000000E+03    0.1247579789E-03    0.1819992606E-03    0.6695709776E+00    0.6650860736E-03    0.4876701123E-02
    0.4900000000E+03    0.1287613092E-03    0.1879926683E-03    0.6705787699E+00    0.6959016360E-03    0.4876262299E-02
    0.1000000000E+03    0.6549979743E-04    0.9325227331E-04    0.5892845777E+00    0.1427368108E-03    0.4795073941E-02
    0.3000000000E+03    0.9367850832E-04    0.1354201583E-03    0.6558849063E+00    0.4155761845E-03    0.4871041434E-02
    0.5000000000E+03    0.1307891021E-03    0.1910280313E-03    0.6710534735E+00    0.7114370425E-03    0.4875980671E-02
    0.7000000000E+03    0.1749979166E-03    0.2571445519E-03    0.6777698050E+00    0.1041906054E-02    0.4863471730E-02
    0.9000000000E+03    0.2265454746E-03    0.3341465346E-03    0.6815583290E+00    0.1416742050E-02    0.4841103451E-02
    0.1100000000E+04    0.2865630294E-03    0.4237368076E-03    0.6839904167E+00    0.1847139866E-02    0.4810675296E-02
    0.1300000000E+04    0.3568108219E-03    0.5285500634E-03    0.6856836427E+00    0.2347098061E-02    0.4772223988E-02
    0.1500000000E+04    0.4397354637E-03    0.6522406230E-03    0.6869301053E+00    0.2934798262E-02    0.4724871915E-02
    0.1700000000E+04    0.5386751092E-03    0.7997899133E-03    0.6878858771E+00    0.3634435322E-02    0.4667000001E-02
    0.1900000000E+04    0.6582042990E-03    0.9780216244E-03    0.6886419272E+00    0.4478847991E-02    0.4596175646E-02
    0.2100000000E+04    0.8046635273E-03    0.1196392066E-02    0.6892548599E+00    0.5513404225E-02    0.4508925114E-02
    0.2300000000E+04    0.9869529162E-03    0.1468174382E-02    0.6897617406E+00    0.6801772010E-02    0.4400352337E-02
    0.2500000000E+04    0.1217690054E-02    0.1812186188E-02    0.6901878564E+00    0.8434350354E-02    0.4263584337E-02
    0.2700000000E+04    0.1514788527E-02    0.2255145551E-02    0.6905510496E+00    0.1053986192E-01    0.4089064617E-02
    0.2900000000E+04    0.1903219002E-02    0.2834301410E-02    0.6908642693E+00    0.1329859578E-01    0.3863924464E-02
    0.3100000000E+04    0.2415628402E-02    0.3598365644E-02    0.6911371412E+00    0.1694818432E-01    0.3572336574E-02
    0.3300000000E+04    0.3087503807E-02    0.4600317407E-02    0.6913769692E+00    0.2175152764E-01    0.3199424239E-02
    0.3500000000E+04    0.3937570233E-02    0.5868193081E-02    0.6915893956E+00    0.2785999945E-01    0.2743588633E-02
    0.3700000000E+04    0.4927398119E-02    0.7344854014E-02    0.6917788481E+00    0.3502511156E-01    0.2238449931E-02
    0.3900000000E+04    0.5933570522E-02    0.8846413380E-02    0.6919488498E+00    0.4238908419E-01    0.1762059772E-02
    0.4100000000E+04    0.6805805286E-02    0.1014878969E-01    0.6921022389E+00    0.4888172272E-01    0.1395442019E-02
    0.4300000000E+04    0.7475007109E-02    0.1114882209E-01    0.6922413275E+00    0.5399031307E-01    0.1163414222E-02
    0.4500000000E+04    0.7968766429E-02    0.1188750066E-01    0.6923680181E+00    0.5788855951E-01    0.1036727796E-02
    0.4700000000E+04    0.8347310433E-02    0.1245453874E-01    0.6924838903E+00    0.6099178697E-01    0.9738622063E-03
    0.4900000000E+04    0.8659303201E-02    0.1292246045E-01    0.6925902665E+00    0.6364097453E-01    0.9446169117E-03
    0.1000000000E+04    0.2554000508E-03    0.3772250688E-03    0.6828939539E+00    0.1624201300E-02    0.4826868483E-02
    0.3000000000E+04    0.2141646784E-02    0.3189817905E-02    0.6910052468E+00    0.1499531628E-01    0.3727477878E-02
    0.5000000000E+04    0.8800140697E-02    0.1313385761E-01    0.6926402491E+00    0.6486446784E-01    0.9368660498E-03
    0.7000000000E+04    0.1099988848E-01    0.1644666551E-01    0.6933384933E+00    0.8582176506E-01    0.9356231170E-03
    0.9000000000E+04    0.1266846028E-01    0.1897435940E-01    0.6937241927E+00    0.1043570874E+00    0.9490966754E-03
    0.1100000000E+05    0.1396120956E-01    0.2094563390E-01    0.6939680039E+00    0.1211577362E+00    0.9599424102E-03
    0.1300000000E+05    0.1496250208E-01    0.2248426459E-01    0.6941355780E+00    0.1365248320E+00    0.9690324847E-03
    0.1500000000E+05    0.1573479014E-01    0.2368200353E-01    0.6942575306E+00    0.1506892122E+00    0.9768675004E-03
    0.1700000000E+05    0.1632513281E-01    0.2460809058E-01    0.6943500505E+00    0.1638311347E+00    0.9837592681E-03
    0.1900000000E+05    0.1676953881E-01    0.2531559065E-01    0.6944224961E+00    0.1760935902E+00    0.9899154507E-03
    0.2100000000E+05    0.1709593830E-01    0.2584573272E-01    0.6944806507E+00    0.1875916089E+00    0.9954814562E-03
    0.2300000000E+05    0.1732625854E-01    0.2623094217E-01    0.6945282790E+00    0.1984189028E+00    0.1000563147E-02
    0.2500000000E+05    0.1747790058E-01    0.2649699950E-01    0.6945679359E+00    0.2086526925E+00    0.1005240040E-02
    0.2700000000E+05    0.1756480745E-01    0.2666460288E-01    0.6946014156E+00    0.2183572732E+00    0.1009573408E-02
    0.2900000000E+05    0.1759824857E-01    0.2675051644E-01    0.6946300145E+00    0.2275866896E+00    0.1013611486E-02
    0.3100000000E+05    0.1758740367E-01    0.2676842577E-01    0.6946546922E+00    0.2363867676E+00    0.1017392940E-02
    0.3300000000E+05    0.1753980302E-01    0.2672958328E-01    0.6946761743E+00    0.2447966789E+00    0.1020949246E-02
    0.3500000000E+05    0.1746166305E-01    0.2664330074E-01    0.6946950189E+00    0.2528501573E+00    0.1024306383E-02
    0.3700000000E+05    0.1735814500E-01    0.2651732911E-01    0.6947116626E+00    0.2605764557E+00    0.1027486038E-02
    0.3900000000E+05    0.1723355611E-01    0.2635815429E-01    0.6947264516E+00    0.2680011056E+00    0.1030506515E-02
    0.4100000000E+05    0.1709150767E-01    0.2617122965E-01    0.6947396638E+00    0.2751465253E+00    0.1033383400E-02
    0.4300000000E+05    0.1693504003E-01    0.2596116015E-01    0.6947515248E+00    0.2820325110E+00    0.1036130079E-02
    0.4500000000E+05    0.1676672238E-01    0.2573184945E-01    0.6947622197E+00    0.2886766359E+00    0.1038758133E-02
    0.4700000000E+05    0.1658873296E-01    0.2548661824E-01    0.6947719017E+00    0.2950945783E+00    0.1041277653E-02
    0.4900000000E+05    0.1640292385E-01    0.2522830005E-01    0.6947806987E+00    0.3013003911E+00    0.1043697483E-02
    0.1000000000E+05    0.1335592966E-01    0.2002092161E-01    0.6938584996E+00    0.1129534864E+00    0.9547816467E-03
    0.3000000000E+05    0.1759785694E-01    0.2676721774E-01    0.6946427936E+00    0.2320378074E+00    0.1015532178E-02
    0.5000000000E+05    0.1630758971E-01    0.2509500511E-01    0.6947847995E+00    0.3043277518E+00    0.1044872487E-02
    0.7000000000E+05    0.1426907007E-01    0.2217347200E-01    0.6948392426E+00    0.3562444985E+00    0.1064625690E-02
    0.9000000000E+05    0.1232340496E-01    0.1931225038E-01    0.6948658620E+00    0.3960966472E+00    0.1079610848E-02
    0.1100000000E+06    0.1063723896E-01    0.1679424976E-01    0.6948804581E+00    0.4277830222E+00    0.1091722033E-02
    0.1300000000E+06    0.9217462766E-02    0.1464978186E-01    0.6948889195E+00    0.4535549906E+00    0.1101904880E-02
    0.1500000000E+06    0.8031442904E-02    0.1284177864E-01    0.6948939060E+00    0.4748705493E+00    0.1110701313E-02
    0.1700000000E+06    0.7040481295E-02    0.1131924183E-01    0.6948967785E+00    0.4927391864E+00    0.1118451469E-02
    0.1900000000E+06    0.6209376426E-02    0.1003353880E-01    0.6948982974E+00    0.5078897869E+00    0.1125383156E-02
    0.2100000000E+06    0.5508605386E-02    0.8942828896E-02    0.6948989163E+00    0.5208639148E+00    0.1131656574E-02
    0.2300000000E+06    0.4914176481E-02    0.8012526516E-02    0.6948989197E+00    0.5320725752E+00    0.1137388751E-02
    0.2500000000E+06    0.4406830089E-02    0.7214512355E-02    0.6948984935E+00    0.5418329762E+00    0.1142667829E-02
    0.2700000000E+06    0.3971156954E-02    0.6526059192E-02    0.6948977628E+00    0.5503933950E+00    0.1147561887E-02
    0.2900000000E+06    0.3594814216E-02    0.5928807813E-02    0.6948968145E+00    0.5579505336E+00    0.1152124615E-02
    0.3100000000E+06    0.3267880212E-02    0.5407892782E-02    0.6948957098E+00    0.5646619239E+00    0.1156399121E-02
    0.3300000000E+06    0.2982341104E-02    0.4951230341E-02    0.6948944931E+00    0.5706549636E+00    0.1160420552E-02
    0.3500000000E+06    0.2731688596E-02    0.4548950916E-02    0.6948931967E+00    0.5760336022E+00    0.1164217943E-02
    0.3700000000E+06    0.2510606592E-02    0.4192951348E-02    0.6948918446E+00    0.5808833550E+00    0.1167815567E-02
    0.3900000000E+06    0.2314727409E-02    0.3876542830E-02    0.6948904548E+00    0.5852751082E+00    0.1171233921E-02
    0.4100000000E+06    0.2140441772E-02    0.3594174108E-02    0.6948890410E+00    0.5892680376E+00    0.1174490480E-02
    0.4300000000E+06    0.1984750207E-02    0.3341213360E-02    0.6948876133E+00    0.5929118697E+00    0.1177600259E-02
    0.4500000000E+06    0.1845146315E-02    0.3113775732E-02    0.6948861797E+00    0.5962486482E+00    0.1180576260E-02
    0.4700000000E+06    0.1719524627E-02    0.2908586394E-02    0.6948847463E+00    0.5993141275E+00    0.1183429817E-02
    0.4900000000E+06    0.1606107475E-02    0.2722871286E-02    0.6948833177E+00    0.6021388778E+00    0.1186170869E-02
    0.1000000000E+06    0.1144582292E-01    0.1800576707E-01    0.6948741805E+00    0.4127951466E+00    0.1085953413E-02
    0.3000000000E+06    0.3425711501E-02    0.5659621387E-02    0.6948962786E+00    0.5614033666E+00    0.1154295537E-02
    0.5000000000E+06    0.1553495108E-02    0.2636564687E-02    0.6948826063E+00    0.6034693370E+00    0.1187501987E-02
    0.7000000000E+06    0.8749304363E-03    0.1512683163E-02    0.6948691454E+00    0.6222060809E+00    0.1209891122E-02
    0.9000000000E+06    0.5586203582E-03    0.9795080023E-03    0.6948574081E+00    0.6326008788E+00    0.1226887385E-02
    0.1100000000E+07    0.3867678483E-03    0.6859034439E-03    0.6948471999E+00    0.6391552113E+00    0.1240629221E-02
    0.1300000000E+07    0.2833416529E-03    0.5072593008E-03    0.6948382179E+00    0.6436466949E+00    0.1252185920E-02
    0.1500000000E+07    0.2163803591E-03    0.3905288548E-03    0.6948302144E+00    0.6469091378E+00    0.1262170844E-02
    0.1700000000E+07    0.1705894029E-03    0.3100656640E-03    0.6948230025E+00    0.6493827996E+00    0.1270969217E-02
    0.1900000000E+07    0.1379158445E-03    0.2522485308E-03    0.6948164409E+00    0.6513211369E+00    0.1278839162E-02
    0.2100000000E+07    0.1137964547E-03    0.2093005698E-03    0.6948104222E+00    0.6528800098E+00    0.1285962259E-02
    0.2300000000E+07    0.9549035784E-04    0.1765194189E-03    0.6948048628E+00    0.6541603717E+00    0.1292471192E-02
    0.2500000000E+07    0.8127143532E-04    0.1509259328E-03    0.6947996970E+00    0.6552304147E+00    0.1298465917E-02
    0.2700000000E+07    0.7000910472E-04    0.1305582174E-03    0.6947948719E+00    0.6561378237E+00    0.1304023649E-02
    0.2900000000E+07    0.6093793930E-04    0.1140814339E-03    0.6947903448E+00    0.6569169255E+00    0.1309205295E-02
    0.3100000000E+07    0.5352487126E-04    0.1005617021E-03    0.6947860804E+00    0.6575930485E+00    0.1314059764E-02
    0.3300000000E+07    0.4738947147E-04    0.8932972063E-04    0.6947820492E+00    0.6581852836E+00    0.1318626933E-02
    0.3500000000E+07    0.4225438823E-04    0.7989560473E-04    0.6947782266E+00    0.6587082886E+00    0.1322939751E-02
    0.3700000000E+07    0.3791358295E-04    0.7189408103E-04    0.6947745916E+00    0.6591735018E+00    0.1327025763E-02
    0.3900000000E+07    0.3421142000E-04    0.6504827111E-04    0.6947711263E+00    0.6595899786E+00    0.1330908235E-02
    0.4100000000E+07    0.3102857176E-04    0.5914519107E-04    0.6947678152E+00    0.6599649798E+00    0.1334606998E-02
    0.4300000000E+07    0.2827231450E-04    0.5401882631E-04    0.6947646448E+00    0.6603043950E+00    0.1338139097E-02
    0.4500000000E+07    0.2586971944E-04    0.4953821769E-04    0.6947616034E+00    0.6606130506E+00    0.1341519290E-02
    0.4700000000E+07    0.2376279253E-04    0.4559893179E-04    0.6947586807E+00    0.6608949397E+00    0.1344760444E-02
    0.4900000000E+07    0.2190495103E-04    0.4211685923E-04    0.6947558674E+00    0.6611533936E+00    0.1347873842E-02
    0.1000000000E+07    0.4609809746E-03    0.8131215239E-03    0.6948521327E+00    0.6362140409E+00    0.1234083408E-02
    0.3000000000E+07    0.5705080718E-04    0.1069987846E-03    0.6947881817E+00    0.6572665447E+00    0.1311670751E-02
    0.5000000000E+07    0.2105734842E-04    0.4052540049E-04    0.6947544993E+00    0.6612747256E+00    0.1349385789E-02
    0.7000000000E+07    0.1092602130E-04    0.2132951647E-04    0.6947313207E+00    0.6629636270E+00    0.1374817267E-02
    0.9000000000E+07    0.6714600380E-05    0.1321578058E-04    0.6947135529E+00    0.6638937641E+00    0.1394123847E-02
    0.1100000000E+08    0.4568456376E-05    0.9030510944E-05    0.6946991037E+00    0.6644825182E+00    0.1409733954E-02
    0.1300000000E+08    0.3327340953E-05    0.6587548841E-05    0.6946869048E+00    0.6648886482E+00    0.1422862007E-02
    0.1500000000E+08    0.2544741670E-05    0.5035772324E-05    0.6946763353E+00    0.6651857028E+00    0.1434204658E-02
    0.1700000000E+08    0.2019148526E-05    0.3987462013E-05    0.6946670020E+00    0.6654124169E+00    0.1444199465E-02
    0.1900000000E+08    0.1648783724E-05    0.3245253090E-05    0.6946586394E+00    0.6655911285E+00    0.1453139621E-02
    0.2100000000E+08    0.1377728934E-05    0.2699983064E-05    0.6946510599E+00    0.6657356233E+00    0.1461231385E-02
    0.2300000000E+08    0.1173184094E-05    0.2287247739E-05    0.6946441260E+00    0.6658548700E+00    0.1468625475E-02
    0.2500000000E+08    0.1014874145E-05    0.1967032784E-05    0.6946377336E+00    0.6659549550E+00    0.1475435437E-02
    0.2700000000E+08    0.8897157880E-06    0.1713400459E-05    0.6946318022E+00    0.6660401538E+00    0.1481748981E-02
