  Pressure (Pa) 22mC5-500 (mol/kg) 23mC5-500 (mol/kg) 24mC5-500 (mol/kg) 3mC6-500 (mol/kg) C7-500 (mol/kg)
    0.1000000000E+01    0.4375033011E-05    0.2513794258E-05    0.1514082584E+00    0.8169028005E-05    0.4145892810E-02
    0.3000000000E+01    0.8545593797E-05    0.4895216761E-05    0.3165103379E+00    0.2017145792E-04    0.4171448346E-02
    0.5000000000E+01    0.1049530293E-04    0.6001604567E-05    0.4047909969E+00    0.3106490764E-04    0.4178450385E-02
    0.7000000000E+01    0.1161740792E-04    0.6636802366E-05    0.4597479732E+00    0.4143931001E-04    0.4181723887E-02
    0.9000000000E+01    0.1236912539E-04    0.7063110941E-05    0.4972539043E+00    0.5148937762E-04    0.4183452117E-02
    0.1100000000E+02    0.1293644485E-04    0.7386584197E-05    0.5244820726E+00    0.6131139033E-04    0.4184368007E-02
    0.1300000000E+02    0.1340583215E-04    0.7656199841E-05    0.5451480580E+00    0.7096217544E-04    0.4184799549E-02
    0.1500000000E+02    0.1382131593E-04    0.7896714109E-05    0.5613690562E+00    0.8047893726E-04    0.4184918142E-02
    0.1700000000E+02    0.1420682269E-04    0.8121468353E-05    0.5744399200E+00    0.8988777032E-04    0.4184822755E-02
    0.1900000000E+02    0.1457598683E-04    0.8337991874E-05    0.5851970815E+00    0.9920790322E-04    0.4184574718E-02
    0.2100000000E+02    0.1493685008E-04    0.8550674828E-05    0.5942049271E+00    0.1084540427E-03    0.4184214115E-02
    0.2300000000E+02    0.1529427041E-04    0.8762132212E-05    0.6018580829E+00    0.1176377694E-03    0.4183768256E-02
    0.2500000000E+02    0.1565122513E-04    0.8973938301E-05    0.6084407778E+00    0.1267684190E-03    0.4183256388E-02
    0.2700000000E+02    0.1600954773E-04    0.9187039764E-05    0.6141629255E+00    0.1358536640E-03    0.4182692451E-02
    0.2900000000E+02    0.1637035981E-04    0.9401996494E-05    0.6191829220E+00    0.1448999131E-03    0.4182086786E-02
    0.3100000000E+02    0.1673433203E-04    0.9619126259E-05    0.6236225371E+00    0.1539125936E-03    0.4181447213E-02
    0.3300000000E+02    0.1710184591E-04    0.9838593720E-05    0.6275769220E+00    0.1628963570E-03    0.4180779751E-02
    0.3500000000E+02    0.1747309611E-04    0.1006046635E-04    0.6311215060E+00    0.1718552312E-03    0.4180089099E-02
    0.3700000000E+02    0.1784815639E-04    0.1028475013E-04    0.6343168544E+00    0.1807927361E-03    0.4179378976E-02
    0.3900000000E+02    0.1822702264E-04    0.1051141262E-04    0.6372121582E+00    0.1897119732E-03    0.4178652360E-02
    0.4100000000E+02    0.1860964130E-04    0.1074039807E-04    0.6398477841E+00    0.1986156947E-03    0.4177911657E-02
    0.4300000000E+02    0.1899592830E-04    0.1097163726E-04    0.6422571687E+00    0.2075063595E-03    0.4177158833E-02
    0.4500000000E+02    0.1938578168E-04    0.1120505405E-04    0.6444682442E+00    0.2163861770E-03    0.4176395504E-02
    0.4700000000E+02    0.1977909010E-04    0.1144056961E-04    0.6465045266E+00    0.2252571436E-03    0.4175623009E-02
    0.4900000000E+02    0.2017573851E-04    0.1167810521E-04    0.6483859550E+00    0.2341210721E-03    0.4174842467E-02
    0.1000000000E+02    0.1266902846E-04    0.7233839052E-05    0.5118692467E+00    0.5642473132E-04    0.4183985840E-02
    0.3000000000E+02    0.1655192170E-04    0.9510276646E-05    0.6214687993E+00    0.1494101425E-03    0.4181770826E-02
    0.5000000000E+02    0.2037527918E-04    0.1179760641E-04    0.6492740161E+00    0.2385509194E-03    0.4174449478E-02
    0.7000000000E+02    0.2451569660E-04    0.1427698094E-04    0.6619674379E+00    0.3271149255E-03    0.4166330529E-02
    0.9000000000E+02    0.2888955938E-04    0.1689447587E-04    0.6692362964E+00    0.4162454518E-03    0.4157920872E-02
    0.1100000000E+03    0.3345202858E-04    0.1962291806E-04    0.6739457036E+00    0.5065551972E-03    0.4149333741E-02
    0.1300000000E+03    0.3818242905E-04    0.2245011497E-04    0.6772451164E+00    0.5984478599E-03    0.4140595154E-02
    0.1500000000E+03    0.4307221736E-04    0.2537118369E-04    0.6796853126E+00    0.6922268063E-03    0.4131705047E-02
    0.1700000000E+03    0.4811927841E-04    0.2838505385E-04    0.6815632550E+00    0.7881419176E-03    0.4122654236E-02
    0.1900000000E+03    0.5332518394E-04    0.3149281823E-04    0.6830531943E+00    0.8864131087E-03    0.4113430052E-02
    0.2100000000E+03    0.5869380330E-04    0.3469690763E-04    0.6842641193E+00    0.9872434946E-03    0.4104018406E-02
    0.2300000000E+03    0.6423056516E-04    0.3800065693E-04    0.6852676937E+00    0.1090827424E-02    0.4094404571E-02
    0.2500000000E+03    0.6994205192E-04    0.4140806892E-04    0.6861129749E+00    0.1197355751E-02    0.4084573458E-02
    0.2700000000E+03    0.7583577378E-04    0.4492368413E-04    0.6868346757E+00    0.1307019531E-02    0.4074509676E-02
    0.2900000000E+03    0.8192004508E-04    0.4855251055E-04    0.6874580508E+00    0.1420012782E-02    0.4064197510E-02
    0.3100000000E+03    0.8820392166E-04    0.5229998891E-04    0.6880019122E+00    0.1536534670E-02    0.4053620850E-02
    0.3300000000E+03    0.9469717657E-04    0.5617198018E-04    0.6884805609E+00    0.1656791338E-02    0.4042763105E-02
    0.3500000000E+03    0.1014103011E-03    0.6017476765E-04    0.6889050622E+00    0.1780997525E-02    0.4031607119E-02
    0.3700000000E+03    0.1083545236E-03    0.6431506926E-04    0.6892841120E+00    0.1909378054E-02    0.4020135068E-02
    0.3900000000E+03    0.1155418412E-03    0.6860005761E-04    0.6896246390E+00    0.2042169259E-02    0.4008328366E-02
    0.4100000000E+03    0.1229850630E-03    0.7303738600E-04    0.6899322314E+00    0.2179620401E-02    0.3996167568E-02
    0.4300000000E+03    0.1306978611E-03    0.7763521982E-04    0.6902114466E+00    0.2321995092E-02    0.3983632264E-02
    0.4500000000E+03    0.1386948309E-03    0.8240227271E-04    0.6904660382E+00    0.2469572779E-02    0.3970700979E-02
    0.4700000000E+03    0.1469915590E-03    0.8734784734E-04    0.6906991257E+00    0.2622650282E-02    0.3957351058E-02
    0.4900000000E+03    0.1556046985E-03    0.9248188087E-04    0.6909133231E+00    0.2781543434E-02    0.3943558556E-02
    0.1000000000E+03    0.3114889361E-04    0.1824582322E-04    0.6718182867E+00    0.4612245273E-03    0.4153646905E-02
    0.3000000000E+03    0.8503643861E-04    0.5041106174E-04    0.6877389386E+00    0.1477819945E-02    0.4058943266E-02
    0.5000000000E+03    0.1600354390E-03    0.9512286086E-04    0.6910140413E+00    0.2863275201E-02    0.3936488470E-02
    0.7000000000E+03    0.2704842315E-03    0.1609513555E-03    0.6924271374E+00    0.4901520945E-02    0.3764562012E-02
    0.9000000000E+03    0.4454205150E-03    0.2652125577E-03    0.6932146213E+00    0.8138117735E-02    0.3503775576E-02
    0.1100000000E+04    0.7463012051E-03    0.4445517632E-03    0.6937166282E+00    0.1372956152E-01    0.3075921348E-02
    0.1300000000E+04    0.1294076517E-02    0.7711134875E-03    0.6940645569E+00    0.2397913978E-01    0.2343581620E-02
    0.1500000000E+04    0.2179292998E-02    0.1299037498E-02    0.6943198945E+00    0.4074484351E-01    0.1273114617E-02
    0.1700000000E+04    0.3048568202E-02    0.1817876031E-02    0.6945152535E+00    0.5764280764E-01    0.4224250687E-03
    0.1900000000E+04    0.3565778758E-02    0.2127137435E-02    0.6946695405E+00    0.6827430514E-01    0.1263466713E-03
    0.2100000000E+04    0.3899035528E-02    0.2326878180E-02    0.6947944717E+00    0.7562136519E-01    0.6269433925E-04
    0.2300000000E+04    0.4175334183E-02    0.2492772881E-02    0.6948976943E+00    0.8202736820E-01    0.5090033720E-04
    0.2500000000E+04    0.4428542505E-02    0.2645004952E-02    0.6949844118E+00    0.8812056123E-01    0.4890819742E-04
    0.2700000000E+04    0.4666313742E-02    0.2788129560E-02    0.6950582878E+00    0.9403808241E-01    0.4870801578E-04
    0.2900000000E+04    0.4890739405E-02    0.2923385288E-02    0.6951219765E+00    0.9981187607E-01    0.4882731954E-04
    0.3100000000E+04    0.5102770237E-02    0.3051330702E-02    0.6951774478E+00    0.1054524552E+00    0.4899631274E-04
    0.3300000000E+04    0.5303100435E-02    0.3172371862E-02    0.6952261946E+00    0.1109658454E+00    0.4916604330E-04
    0.3500000000E+04    0.5492343821E-02    0.3286867427E-02    0.6952693688E+00    0.1163569760E+00    0.4932829373E-04
    0.3700000000E+04    0.5671070514E-02    0.3395150508E-02    0.6953078735E+00    0.1216303677E+00    0.4948232148E-04
    0.3900000000E+04    0.5839816038E-02    0.3497534072E-02    0.6953424268E+00    0.1267902826E+00    0.4962867561E-04
    0.4100000000E+04    0.5999084860E-02    0.3594313018E-02    0.6953736065E+00    0.1318407647E+00    0.4976805178E-04
    0.4300000000E+04    0.6149352686E-02    0.3685765513E-02    0.6954018833E+00    0.1367856586E+00    0.4990109193E-04
    0.4500000000E+04    0.6291068397E-02    0.3772154122E-02    0.6954276440E+00    0.1416286227E+00    0.5002836005E-04
    0.4700000000E+04    0.6424655800E-02    0.3853726818E-02    0.6954512098E+00    0.1463731407E+00    0.5015034890E-04
    0.4900000000E+04    0.6550515237E-02    0.3930717922E-02    0.6954728494E+00    0.1510225318E+00    0.5026749053E-04
    0.1000000000E+04    0.5741962393E-03    0.3419661741E-03    0.6934906420E+00    0.1052762357E-01    0.3317970017E-02
    0.3000000000E+04    0.4998258052E-02    0.2988244786E-02    0.6951506367E+00    0.1026483988E+00    0.4891043359E-04
    0.5000000000E+04    0.6610666029E-02    0.3967565084E-02    0.6954830191E+00    0.1533125494E+00    0.5032436439E-04
    0.7000000000E+04    0.7489546804E-02    0.4511777846E-02    0.6956253017E+00    0.1948146596E+00    0.5127989901E-04
    0.9000000000E+04    0.7918741619E-02    0.4787357782E-02    0.6957042187E+00    0.2296352819E+00    0.5200421044E-04
    0.1100000000E+05    0.8066961850E-02    0.4893657724E-02    0.6957543464E+00    0.2593993819E+00    0.5258934691E-04
    0.1300000000E+05    0.8038113837E-02    0.4892159592E-02    0.6957889823E+00    0.2852203515E+00    0.5308117999E-04
    0.1500000000E+05    0.7897972159E-02    0.4821997300E-02    0.6958143302E+00    0.3078901569E+00    0.5350596779E-04
    0.1700000000E+05    0.7689051126E-02    0.4708626016E-02    0.6958336732E+00    0.3279902152E+00    0.5388017873E-04
    0.1900000000E+05    0.7439251395E-02    0.4568873240E-02    0.6958489110E+00    0.3459590073E+00    0.5421483637E-04
    0.2100000000E+05    0.7167067219E-02    0.4413988347E-02    0.6958612193E+00    0.3621349267E+00    0.5451768954E-04
    0.2300000000E+05    0.6884816956E-02    0.4251539974E-02    0.6958713644E+00    0.3767843593E+00    0.5479439703E-04
    0.2500000000E+05    0.6600698408E-02    0.4086627184E-02    0.6958798670E+00    0.3901206386E+00    0.5504921986E-04
    0.2700000000E+05    0.6320124884E-02    0.3922669685E-02    0.6958870932E+00    0.4023171793E+00    0.5528544826E-04
    0.2900000000E+05    0.6046609743E-02    0.3761933151E-02    0.6958933083E+00    0.4135167953E+00    0.5550567678E-04
    0.3100000000E+05    0.5782361198E-02    0.3605884071E-02    0.6958987088E+00    0.4238384503E+00    0.5571198824E-04
    0.3300000000E+05    0.5528687582E-02    0.3455432735E-02    0.6959034434E+00    0.4333822433E+00    0.5590608050E-04
    0.3500000000E+05    0.5286276536E-02    0.3311101543E-02    0.6959076269E+00    0.4422331534E+00    0.5608935617E-04
    0.3700000000E+05    0.5055389059E-02    0.3173142714E-02    0.6959113491E+00    0.4504638982E+00    0.5626298757E-04
    0.3900000000E+05    0.4835995368E-02    0.3041621240E-02    0.6959146814E+00    0.4581371450E+00    0.5642796471E-04
    0.4100000000E+05    0.4627870485E-02    0.2916473710E-02    0.6959176812E+00    0.4653072451E+00    0.5658513142E-04
    0.4300000000E+05    0.4430661728E-02    0.2797550191E-02    0.6959203953E+00    0.4720216092E+00    0.5673521282E-04
    0.4500000000E+05    0.4243936414E-02    0.2684644125E-02    0.6959228619E+00    0.4783218100E+00    0.5687883675E-04
    0.4700000000E+05    0.4067215525E-02    0.2577513681E-02    0.6959251130E+00    0.4842444751E+00    0.5701655042E-04
    0.4900000000E+05    0.3899997376E-02    0.2475896964E-02    0.6959271750E+00    0.4898220158E+00    0.5714883378E-04
    0.1000000000E+05    0.8020350173E-02    0.4857164176E-02    0.6957318007E+00    0.2450705595E+00    0.5231066828E-04
    0.3000000000E+05    0.5913228053E-02    0.3683255018E-02    0.6958961002E+00    0.4187807185E+00    0.5561045820E-04
    0.5000000000E+05    0.3819793030E-02    0.2427071652E-02    0.6959281424E+00    0.4924904901E+00    0.5721307332E-04
    0.7000000000E+05    0.2598431530E-02    0.1676257355E-02    0.6959415212E+00    0.5332817771E+00    0.5829355242E-04
    0.9000000000E+05    0.1864026680E-02    0.1217249607E-02    0.6959487536E+00    0.5589987700E+00    0.5911376817E-04
    0.1100000000E+06    0.1396149837E-02    0.9210457196E-03    0.6959532264E+00    0.5766043307E+00    0.5977693342E-04
    0.1300000000E+06    0.1082159209E-02    0.7201616710E-03    0.6959562319E+00    0.5893712928E+00    0.6033465245E-04
    0.1500000000E+06    0.8621311610E-03    0.5781303154E-03    0.6959583684E+00    0.5990326935E+00    0.6081652467E-04
    0.1700000000E+06    0.7023574031E-03    0.4741906610E-03    0.6959599500E+00    0.6065879782E+00    0.6124113959E-04
    0.1900000000E+06    0.5828594814E-03    0.3959168214E-03    0.6959611570E+00    0.6126521465E+00    0.6162095292E-04
    0.2100000000E+06    0.4912436156E-03    0.3355359484E-03    0.6959621001E+00    0.6176234958E+00    0.6196472682E-04
    0.2300000000E+06    0.4195133607E-03    0.2879965770E-03    0.6959628510E+00    0.6217708960E+00    0.6227886386E-04
    0.2500000000E+06    0.3623321286E-03    0.2499057994E-03    0.6959634578E+00    0.6252821780E+00    0.6256818739E-04
    0.2700000000E+06    0.3160328165E-03    0.2189186399E-03    0.6959639542E+00    0.6282923991E+00    0.6283642331E-04
    0.2900000000E+06    0.2780305693E-03    0.1933734845E-03    0.6959643644E+00    0.6309010875E+00    0.6308651067E-04
    0.3100000000E+06    0.2464622527E-03    0.1720668847E-03    0.6959647061E+00    0.6331831614E+00    0.6332080950E-04
    0.3300000000E+06    0.2199582055E-03    0.1541101990E-03    0.6959649926E+00    0.6351960668E+00    0.6354124408E-04
    0.3500000000E+06    0.1974937393E-03    0.1388358544E-03    0.6959652342E+00    0.6369845738E+00    0.6374940438E-04
    0.3700000000E+06    0.1782901475E-03    0.1257345714E-03    0.6959654387E+00    0.6385840791E+00    0.6394661958E-04
    0.3900000000E+06    0.1617472618E-03    0.1144124121E-03    0.6959656123E+00    0.6400229309E+00    0.6413401231E-04
    0.4100000000E+06    0.1473965927E-03    0.1045608192E-03    0.6959657601E+00    0.6413240947E+00    0.6431253957E-04
    0.4300000000E+06    0.1348681888E-03    0.9593534815E-04    0.6959658860E+00    0.6425063702E+00    0.6448302386E-04
    0.4500000000E+06    0.1238668176E-03    0.8834032720E-04    0.6959659933E+00    0.6435852926E+00    0.6464617736E-04
    0.4700000000E+06    0.1141545914E-03    0.8161763223E-04    0.6959660846E+00    0.6445738100E+00    0.6480262092E-04
    0.4900000000E+06    0.1055381233E-03    0.7563836232E-04    0.6959661621E+00    0.6454827993E+00    0.6495289907E-04
    0.1000000000E+06    0.1605509529E-02    0.1054005280E-02    0.6959512297E+00    0.5685599667E+00    0.5946103925E-04
    0.3000000000E+06    0.2615373004E-03    0.1822519987E-03    0.6959645429E+00    0.6320790165E+00    0.6320550452E-04
    0.5000000000E+06    0.1015901168E-03    0.7289365026E-04    0.6959661963E+00    0.6459104034E+00    0.6502587843E-04
    0.7000000000E+06    0.5348218178E-04    0.3912721142E-04    0.6959664786E+00    0.6519207554E+00    0.6625345504E-04
    0.9000000000E+06    0.3290186674E-04    0.2442180073E-04    0.6959663955E+00    0.6552773252E+00    0.6718543210E-04
    0.1100000000E+07    0.2225588184E-04    0.1671059106E-04    0.6959661879E+00    0.6574189863E+00    0.6793900269E-04
    0.1300000000E+07    0.1604839342E-04    0.1216453212E-04    0.6959659357E+00    0.6589040042E+00    0.6857277530E-04
    0.1500000000E+07    0.1211715382E-04    0.9258738106E-05    0.6959656704E+00    0.6599941369E+00    0.6912037186E-04
    0.1700000000E+07    0.9472071311E-05    0.7287973205E-05    0.6959654054E+00    0.6608283679E+00    0.6960291023E-04
    0.1900000000E+07    0.7607992296E-05    0.5889359754E-05    0.6959651467E+00    0.6614873206E+00    0.7003454126E-04
    0.2100000000E+07    0.6245349076E-05    0.4860583577E-05    0.6959648969E+00    0.6620209750E+00    0.7042522011E-04
    0.2300000000E+07    0.5219277411E-05    0.4081555493E-05    0.6959646569E+00    0.6624619609E+00    0.7078222136E-04
    0.2500000000E+07    0.4427465708E-05    0.3477311746E-05    0.6959644270E+00    0.6628324850E+00    0.7111102550E-04
    0.2700000000E+07    0.3803702320E-05    0.2999079850E-05    0.6959642067E+00    0.6631481840E+00    0.7141586612E-04
    0.2900000000E+07    0.3303607461E-05    0.2614009126E-05    0.6959639957E+00    0.6634203871E+00    0.7170008286E-04
    0.3100000000E+07    0.2896534379E-05    0.2299312033E-05    0.6959637935E+00    0.6636575035E+00    0.7196635747E-04
    0.3300000000E+07    0.2560769863E-05    0.2038776087E-05    0.6959635994E+00    0.6638659060E+00    0.7221687654E-04
    0.3500000000E+07    0.2280583070E-05    0.1820609822E-05    0.6959634130E+00    0.6640505124E+00    0.7245344684E-04
    0.3700000000E+07    0.2044351906E-05    0.1636069781E-05    0.6959632336E+00    0.6642151781E+00    0.7267757879E-04
    0.3900000000E+07    0.1843339765E-05    0.1478560726E-05    0.6959630610E+00    0.6643629683E+00    0.7289054814E-04
    0.4100000000E+07    0.1670876904E-05    0.1343031380E-05    0.6959628945E+00    0.6644963509E+00    0.7309344238E-04
    0.4300000000E+07    0.1521800439E-05    0.1225559688E-05    0.6959627339E+00    0.6646173347E+00    0.7328719621E-04
    0.4500000000E+07    0.1392063645E-05    0.1123062559E-05    0.6959625786E+00    0.6647275717E+00    0.7347261895E-04
    0.4700000000E+07    0.1278458508E-05    0.1033089130E-05    0.6959624285E+00    0.6648284331E+00    0.7365041613E-04
    0.4900000000E+07    0.1178415506E-05    0.9536711568E-06    0.6959622831E+00    0.6649210662E+00    0.7382120657E-04
    0.1000000000E+07    0.2680436469E-04    0.2001646374E-04    0.6959663005E+00    0.6564547277E+00    0.6758004041E-04
    0.3000000000E+07    0.3089968414E-05    0.2449001200E-05    0.6959638935E+00    0.6635428931E+00    0.7183531620E-04
    0.5000000000E+07    0.1132814513E-05    0.9174097088E-06    0.6959622121E+00    0.6649646054E+00    0.7390414735E-04
    0.7000000000E+07    0.5898368161E-06    0.4819387263E-06    0.6959609832E+00    0.6655742767E+00    0.7529928935E-04
    0.9000000000E+07    0.3652368787E-06    0.2990270593E-06    0.6959600139E+00    0.6659130911E+00    0.7635848723E-04
    0.1100000000E+08    0.2509373611E-06    0.2049569685E-06    0.6959592116E+00    0.6661287508E+00    0.7721492696E-04
    0.1300000000E+08    0.1848088866E-06    0.1501223906E-06    0.6959585258E+00    0.6662780837E+00    0.7793521606E-04
    0.1500000000E+08    0.1430465096E-06    0.1153060790E-06    0.6959579261E+00    0.6663876149E+00    0.7855756558E-04
    0.1700000000E+08    0.1149346028E-06    0.9178152083E-07    0.6959573924E+00    0.6664713892E+00    0.7910597594E-04
    0.1900000000E+08    0.9506892633E-07    0.7511600656E-07    0.6959569113E+00    0.6665375388E+00    0.7959652960E-04
    0.2100000000E+08    0.8048255648E-07    0.6286137767E-07    0.6959564729E+00    0.6665910982E+00    0.8004054063E-04
    0.2300000000E+08    0.6943562933E-07    0.5357470076E-07    0.6959560700E+00    0.6666353510E+00    0.8044627666E-04
    0.2500000000E+08    0.6085253921E-07    0.4636007925E-07    0.6959556969E+00    0.6666725304E+00    0.8081996632E-04
    0.2700000000E+08    0.5403892837E-07    0.4063702523E-07    0.6959553494E+00    0.6667042078E+00    0.8116642112E-04
