  Pressure (Pa) 22mC5-500 (mol/kg) 23mC5-500 (mol/kg) 24mC5-500 (mol/kg) 3mC6-500 (mol/kg) C7-500 (mol/kg)
    0.1000000000E+01    0.6358480248E-05    0.6082370284E-06    0.1513982998E+00    0.2939326852E-05    0.4218107325E-02
    0.3000000000E+01    0.1237480789E-04    0.1179872374E-05    0.3164664852E+00    0.7599283000E-05    0.4281081119E-02
    0.5000000000E+01    0.1509551281E-04    0.1436279661E-05    0.4047188106E+00    0.1190221271E-04    0.4314654662E-02
    0.7000000000E+01    0.1659042099E-04    0.1576434283E-05    0.4596543406E+00    0.1603057151E-04    0.4335918925E-02
    0.9000000000E+01    0.1753894550E-04    0.1665276547E-05    0.4971438365E+00    0.2004644567E-04    0.4350703044E-02
    0.1100000000E+02    0.1821696818E-04    0.1729012825E-05    0.5243590838E+00    0.2398105533E-04    0.4361630542E-02
    0.1300000000E+02    0.1875239376E-04    0.1779709991E-05    0.5450146563E+00    0.2785304900E-04    0.4370066043E-02
    0.1500000000E+02    0.1921011288E-04    0.1823443071E-05    0.5612270798E+00    0.3167474957E-04    0.4376792347E-02
    0.1700000000E+02    0.1962522101E-04    0.1863468803E-05    0.5742907516E+00    0.3545486566E-04    0.4382291900E-02
    0.1900000000E+02    0.2001759341E-04    0.1901612485E-05    0.5850417859E+00    0.3919985506E-04    0.4386878899E-02
    0.2100000000E+02    0.2039885805E-04    0.1938928642E-05    0.5940443412E+00    0.4291468335E-04    0.4390767141E-02
    0.2300000000E+02    0.2077596370E-04    0.1976037563E-05    0.6016928763E+00    0.4660327845E-04    0.4394107391E-02
    0.2500000000E+02    0.2115310671E-04    0.2013306132E-05    0.6082714950E+00    0.5026881913E-04    0.4397009173E-02
    0.2700000000E+02    0.2153281777E-04    0.2050949290E-05    0.6139900151E+00    0.5391392647E-04    0.4399554071E-02
    0.2900000000E+02    0.2191659739E-04    0.2089089010E-05    0.6190067584E+00    0.5754079593E-04    0.4401804175E-02
    0.3100000000E+02    0.2230529866E-04    0.2127789598E-05    0.6234434359E+00    0.6115129107E-04    0.4403807627E-02
    0.3300000000E+02    0.2269936354E-04    0.2167079323E-05    0.6273951522E+00    0.6474701196E-04    0.4405602367E-02
    0.3500000000E+02    0.2309897179E-04    0.2206963942E-05    0.6309372985E+00    0.6832934622E-04    0.4407218726E-02
    0.3700000000E+02    0.2350413632E-04    0.2247435278E-05    0.6341304092E+00    0.7189950780E-04    0.4408681261E-02
    0.3900000000E+02    0.2391476515E-04    0.2288476727E-05    0.6370236497E+00    0.7545856694E-04    0.4410010087E-02
    0.4100000000E+02    0.2433070197E-04    0.2330066827E-05    0.6396573654E+00    0.7900747378E-04    0.4411221846E-02
    0.4300000000E+02    0.2475175286E-04    0.2372181564E-05    0.6420649749E+00    0.8254707703E-04    0.4412330437E-02
    0.4500000000E+02    0.2517770404E-04    0.2414795873E-05    0.6442743954E+00    0.8607813908E-04    0.4413347565E-02
    0.4700000000E+02    0.2560833350E-04    0.2457884602E-05    0.6463091298E+00    0.8960134825E-04    0.4414283167E-02
    0.4900000000E+02    0.2604341863E-04    0.2501423123E-05    0.6481891060E+00    0.9311732889E-04    0.4415145732E-02
    0.1000000000E+02    0.1790169206E-04    0.1699330277E-05    0.5117523516E+00    0.2202254788E-04    0.4356544947E-02
    0.3000000000E+02    0.2211029763E-04    0.2108366773E-05    0.6212911306E+00    0.5934798478E-04    0.4402834157E-02
    0.5000000000E+02    0.2626256362E-04    0.2523353596E-05    0.6490764741E+00    0.9487278820E-04    0.4415551950E-02
    0.7000000000E+02    0.3083140834E-04    0.2980474426E-05    0.6617593142E+00    0.1297176976E-03    0.4421175752E-02
    0.9000000000E+02    0.3565913335E-04    0.3463051199E-05    0.6690213026E+00    0.1642707777E-03    0.4423950224E-02
    0.1100000000E+03    0.4065980872E-04    0.3962440103E-05    0.6737257430E+00    0.1987303731E-03    0.4425236239E-02
    0.1300000000E+03    0.4578866196E-04    0.4474228537E-05    0.6770213164E+00    0.2332174929E-03    0.4425620023E-02
    0.1500000000E+03    0.5102120466E-04    0.4996037715E-05    0.6794584067E+00    0.2678143521E-03    0.4425401083E-02
    0.1700000000E+03    0.5634348845E-04    0.5526530664E-05    0.6813337533E+00    0.3025811319E-03    0.4424750606E-02
    0.1900000000E+03    0.6174740081E-04    0.6064941280E-05    0.6828214694E+00    0.3375644111E-03    0.4423774537E-02
    0.2100000000E+03    0.6722824627E-04    0.6610834874E-05    0.6840304538E+00    0.3728018558E-03    0.4422542440E-02
    0.2300000000E+03    0.7278342712E-04    0.7163978690E-05    0.6850323087E+00    0.4083250281E-03    0.4421102122E-02
    0.2500000000E+03    0.7841168670E-04    0.7724268164E-05    0.6858760473E+00    0.4441611679E-03    0.4419487641E-02
    0.2700000000E+03    0.8411265643E-04    0.8291683075E-05    0.6865963505E+00    0.4803343748E-03    0.4417723970E-02
    0.2900000000E+03    0.8988657485E-04    0.8866260512E-05    0.6872184483E+00    0.5168664234E-03    0.4415829859E-02
    0.3100000000E+03    0.9573410811E-04    0.9448077692E-05    0.6877611342E+00    0.5537773434E-03    0.4413819651E-02
    0.3300000000E+03    0.1016562323E-03    0.1003724078E-04    0.6882386940E+00    0.5910858435E-03    0.4411704495E-02
    0.3500000000E+03    0.1076541547E-03    0.1063387742E-04    0.6886621815E+00    0.6288096286E-03    0.4409493166E-02
    0.3700000000E+03    0.1137292602E-03    0.1123813176E-04    0.6890402829E+00    0.6669656432E-03    0.4407192638E-02
    0.3900000000E+03    0.1198830745E-03    0.1185016092E-04    0.6893799189E+00    0.7055702601E-03    0.4404808498E-02
    0.4100000000E+03    0.1261172381E-03    0.1247013269E-04    0.6896866713E+00    0.7446394311E-03    0.4402345242E-02
    0.4300000000E+03    0.1324334885E-03    0.1309822385E-04    0.6899650919E+00    0.7841888083E-03    0.4399806502E-02
    0.4500000000E+03    0.1388336477E-03    0.1373461901E-04    0.6902189296E+00    0.8242338436E-03    0.4397195208E-02
    0.4700000000E+03    0.1453196131E-03    0.1437950985E-04    0.6904513000E+00    0.8647898714E-03    0.4394513723E-02
    0.4900000000E+03    0.1518933518E-03    0.1503309459E-04    0.6906648135E+00    0.9058721785E-03    0.4391763937E-02
    0.1000000000E+03    0.3814129506E-04    0.3710984973E-05    0.6716006331E+00    0.1815034989E-03    0.4424732877E-02
    0.3000000000E+03    0.9280108481E-04    0.9156258076E-05    0.6874987366E+00    0.5352733283E-03    0.4414838506E-02
    0.5000000000E+03    0.1552137690E-03    0.1536321082E-04    0.6907652013E+00    0.9266154659E-03    0.4390363912E-02
    0.7000000000E+03    0.2267655737E-03    0.2247562858E-04    0.6921728855E+00    0.1372939347E-02    0.4358985551E-02
    0.9000000000E+03    0.3098758647E-03    0.3073543280E-04    0.6929564074E+00    0.1890935904E-02    0.4321058424E-02
    0.1100000000E+04    0.4077432836E-03    0.4046109819E-04    0.6934552792E+00    0.2501234966E-02    0.4275663130E-02
    0.1300000000E+04    0.5246733288E-03    0.5208083748E-04    0.6938006087E+00    0.3231212593E-02    0.4221128459E-02
    0.1500000000E+04    0.6666070182E-03    0.6618533401E-04    0.6940537230E+00    0.4118529009E-02    0.4154975246E-02
    0.1700000000E+04    0.8419403823E-03    0.8360928603E-04    0.6942471376E+00    0.5216415757E-02    0.4073637075E-02
    0.1900000000E+04    0.1062815622E-02    0.1055598251E-03    0.6943996953E+00    0.6601965384E-02    0.3971965623E-02
    0.2100000000E+04    0.1347169181E-02    0.1338202144E-03    0.6945230685E+00    0.8389310442E-02    0.3842443520E-02
    0.2300000000E+04    0.1721919509E-02    0.1710669476E-03    0.6946248726E+00    0.1075025627E-01    0.3674003982E-02
    0.2500000000E+04    0.2227525127E-02    0.2213233232E-03    0.6947102877E+00    0.1394413181E-01    0.3450488249E-02
    0.2700000000E+04    0.2922694149E-02    0.2904286390E-03    0.6947829593E+00    0.1834977502E-01    0.3149529243E-02
    0.2900000000E+04    0.3881855449E-02    0.3857889102E-03    0.6948455275E+00    0.2445386233E-01    0.2745429505E-02
    0.3100000000E+04    0.5161369815E-02    0.5130211453E-03    0.6948999510E+00    0.3264329445E-01    0.2226137528E-02
    0.3300000000E+04    0.6701839883E-02    0.6662424756E-03    0.6949477137E+00    0.4258668208E-01    0.1634499225E-02
    0.3500000000E+04    0.8243314577E-02    0.8196286143E-03    0.6949899599E+00    0.5267177989E-01    0.1092659679E-02
    0.3700000000E+04    0.9489929778E-02    0.9437623935E-03    0.6950275865E+00    0.6101169240E-01    0.7164459939E-03
    0.3900000000E+04    0.1037256989E-01    0.1031751419E-02    0.6950613062E+00    0.6712398163E-01    0.5122338621E-03
    0.4100000000E+04    0.1099940088E-01    0.1094331704E-02    0.6950916927E+00    0.7166048638E-01    0.4178523155E-03
    0.4300000000E+04    0.1148669763E-01    0.1143055252E-02    0.6951192127E+00    0.7534477928E-01    0.3778776281E-03
    0.4500000000E+04    0.1190370070E-01    0.1184803445E-02    0.6951442497E+00    0.7861251265E-01    0.3618103936E-03
    0.4700000000E+04    0.1228394054E-01    0.1222909179E-02    0.6951671221E+00    0.8167583189E-01    0.3557204046E-03
    0.4900000000E+04    0.1264245304E-01    0.1258866974E-02    0.6951880960E+00    0.8462990119E-01    0.3537048952E-03
    0.1000000000E+04    0.3567268784E-03    0.3539135113E-04    0.6932307798E+00    0.2183030095E-02    0.4299381768E-02
    0.3000000000E+04    0.4480983529E-02    0.4453616411E-03    0.6948736553E+00    0.2828162761E-01    0.2499403606E-02
    0.5000000000E+04    0.1281580674E-01    0.1276263494E-02    0.6951979425E+00    0.8608007266E-01    0.3533960022E-03
    0.7000000000E+04    0.1575169688E-01    0.1571904989E-02    0.6953348027E+00    0.1130208402E+00    0.3588183877E-03
    0.9000000000E+04    0.1791182714E-01    0.1791094465E-02    0.6954096151E+00    0.1369470564E+00    0.3638843589E-03
    0.1100000000E+05    0.1949228741E-01    0.1952978713E-02    0.6954564296E+00    0.1584409163E+00    0.3679770467E-03
    0.1300000000E+05    0.2063178435E-01    0.2071119134E-02    0.6954882820E+00    0.1779219835E+00    0.3714171024E-03
    0.1500000000E+05    0.2143223226E-01    0.2155498494E-02    0.6955112266E+00    0.1957126325E+00    0.3743881979E-03
    0.1700000000E+05    0.2196973079E-01    0.2213586115E-02    0.6955284528E+00    0.2120649908E+00    0.3770055271E-03
    0.1900000000E+05    0.2230190852E-01    0.2251050834E-02    0.6955417981E+00    0.2271793911E+00    0.3793461970E-03
    0.2100000000E+05    0.2247294612E-01    0.2272248993E-02    0.6955523938E+00    0.2412172942E+00    0.3814644087E-03
    0.2300000000E+05    0.2251708111E-01    0.2280565169E-02    0.6955609743E+00    0.2543105186E+00    0.3833997439E-03
    0.2500000000E+05    0.2246109699E-01    0.2278654365E-02    0.6955680362E+00    0.2665679502E+00    0.3851820070E-03
    0.2700000000E+05    0.2232611974E-01    0.2268616945E-02    0.6955739270E+00    0.2780804995E+00    0.3868342120E-03
    0.2900000000E+05    0.2212893316E-01    0.2252126856E-02    0.6955788971E+00    0.2889248156E+00    0.3883745066E-03
    0.3100000000E+05    0.2188295480E-01    0.2230526860E-02    0.6955831313E+00    0.2991661077E+00    0.3898174596E-03
    0.3300000000E+05    0.2159896879E-01    0.2204900113E-02    0.6955867688E+00    0.3088603144E+00    0.3911749466E-03
    0.3500000000E+05    0.2128568214E-01    0.2176124579E-02    0.6955899163E+00    0.3180557890E+00    0.3924567783E-03
    0.3700000000E+05    0.2095015131E-01    0.2144914806E-02    0.6955926571E+00    0.3267946247E+00    0.3936711545E-03
    0.3900000000E+05    0.2059811234E-01    0.2111854303E-02    0.6955950570E+00    0.3351137045E+00    0.3948249999E-03
    0.4100000000E+05    0.2023423856E-01    0.2077420844E-02    0.6955971685E+00    0.3430455421E+00    0.3959242166E-03
    0.4300000000E+05    0.1986234323E-01    0.2042006406E-02    0.6955990343E+00    0.3506189605E+00    0.3969738765E-03
    0.4500000000E+05    0.1948554017E-01    0.2005932993E-02    0.6956006892E+00    0.3578596432E+00    0.3979783709E-03
    0.4700000000E+05    0.1910637177E-01    0.1969465275E-02    0.6956021620E+00    0.3647905872E+00    0.3989415273E-03
    0.4900000000E+05    0.1872691186E-01    0.1932820755E-02    0.6956034764E+00    0.3714324755E+00    0.3998667027E-03
    0.1000000000E+05    0.1876482302E-01    0.1878252613E-02    0.6954354617E+00    0.1479691385E+00    0.3660278572E-03
    0.3000000000E+05    0.2201131447E-01    0.2241892524E-02    0.6955810966E+00    0.2941171480E+00    0.3891073539E-03
    0.5000000000E+05    0.1853761326E-01    0.1914489321E-02    0.6956040807E+00    0.3746509321E+00    0.4003159864E-03
    0.7000000000E+05    0.1500453238E-01    0.1567511855E-02    0.6956113534E+00    0.4275622772E+00    0.4078726613E-03
    0.9000000000E+05    0.1216007685E-01    0.1282822370E-02    0.6956139508E+00    0.4651656225E+00    0.4136090173E-03
    0.1100000000E+06    0.9962322872E-02    0.1059918755E-02    0.6956146762E+00    0.4931943970E+00    0.4182469537E-03
    0.1300000000E+06    0.8267750607E-02    0.8862314369E-03    0.6956145304E+00    0.5148094881E+00    0.4221474009E-03
    0.1500000000E+06    0.6948983387E-02    0.7498659002E-03    0.6956139441E+00    0.5319245726E+00    0.4255173813E-03
    0.1700000000E+06    0.5909607382E-02    0.6415680905E-03    0.6956131266E+00    0.5457703836E+00    0.4284869112E-03
    0.1900000000E+06    0.5079499989E-02    0.5544909124E-03    0.6956121876E+00    0.5571738229E+00    0.4311431064E-03
    0.2100000000E+06    0.4407983072E-02    0.4836233960E-03    0.6956111885E+00    0.5667097928E+00    0.4335472493E-03
    0.2300000000E+06    0.3858217366E-02    0.4252864339E-03    0.6956101645E+00    0.5747893695E+00    0.4357441191E-03
    0.2500000000E+06    0.3403138834E-02    0.3767545936E-03    0.6956091367E+00    0.5817135540E+00    0.4377674501E-03
    0.2700000000E+06    0.3022618919E-02    0.3359863033E-03    0.6956081178E+00    0.5877073173E+00    0.4396433007E-03
    0.2900000000E+06    0.2701496551E-02    0.3014341045E-03    0.6956071151E+00    0.5929418554E+00    0.4413922263E-03
    0.3100000000E+06    0.2428209799E-02    0.2719112221E-03    0.6956061332E+00    0.5975495345E+00    0.4430307326E-03
    0.3300000000E+06    0.2193836393E-02    0.2464971381E-03    0.6956051745E+00    0.6016341633E+00    0.4445722775E-03
    0.3500000000E+06    0.1991413689E-02    0.2244701447E-03    0.6956042402E+00    0.6052782005E+00    0.4460279812E-03
    0.3700000000E+06    0.1815451052E-02    0.2052586551E-03    0.6956033307E+00    0.6085479065E+00    0.4474071394E-03
    0.3900000000E+06    0.1661576080E-02    0.1884056671E-03    0.6956024458E+00    0.6114970865E+00    0.4487176036E-03
    0.4100000000E+06    0.1526274947E-02    0.1735425411E-03    0.6956015851E+00    0.6141698515E+00    0.4499660669E-03
    0.4300000000E+06    0.1406699683E-02    0.1603694437E-03    0.6956007481E+00    0.6166026831E+00    0.4511582814E-03
    0.4500000000E+06    0.1300523606E-02    0.1486406125E-03    0.6955999338E+00    0.6188259964E+00    0.4522992281E-03
    0.4700000000E+06    0.1205831774E-02    0.1381531436E-03    0.6955991415E+00    0.6208653378E+00    0.4533932489E-03
    0.4900000000E+06    0.1121037175E-02    0.1287383808E-03    0.6955983702E+00    0.6227423120E+00    0.4544441521E-03
    0.1000000000E+06    0.1098922569E-01    0.1164392008E-02    0.6956144646E+00    0.4801402170E+00    0.4160377107E-03
    0.3000000000E+06    0.2559484148E-02    0.2861068728E-03    0.6956066214E+00    0.5953169915E+00    0.4422243787E-03
    0.5000000000E+06    0.1081928829E-02    0.1243882504E-03    0.6955979922E+00    0.6236257665E+00    0.4549544999E-03
    0.7000000000E+06    0.5908046120E-03    0.6923379298E-04    0.6955913417E+00    0.6360605684E+00    0.4635389095E-03
    0.9000000000E+06    0.3708158914E-03    0.4408733751E-04    0.6955859962E+00    0.6429989735E+00    0.4700560924E-03
    0.1100000000E+07    0.2539661168E-03    0.3054811660E-04    0.6955815342E+00    0.6474139297E+00    0.4753256367E-03
    0.1300000000E+07    0.1846527347E-03    0.2242793112E-04    0.6955777044E+00    0.6504666187E+00    0.4797574148E-03
    0.1500000000E+07    0.1402254247E-03    0.1717466605E-04    0.6955743484E+00    0.6527018970E+00    0.4835865556E-03
    0.1700000000E+07    0.1100672912E-03    0.1357992317E-04    0.6955713601E+00    0.6544087150E+00    0.4869607422E-03
    0.1900000000E+07    0.8866950925E-04    0.1101129646E-04    0.6955686658E+00    0.6557543806E+00    0.4899789345E-03
    0.2100000000E+07    0.7294428378E-04    0.9111655667E-05    0.6955662116E+00    0.6568424039E+00    0.4927107503E-03
    0.2300000000E+07    0.6105248522E-04    0.7666878362E-05    0.6955639576E+00    0.6577402302E+00    0.4952070619E-03
    0.2500000000E+07    0.5184361290E-04    0.6542218506E-05    0.6955618728E+00    0.6584936748E+00    0.4975061949E-03
    0.2700000000E+07    0.4456820297E-04    0.5649424646E-05    0.6955599330E+00    0.6591349438E+00    0.4996377549E-03
    0.2900000000E+07    0.3872114564E-04    0.4928724169E-05    0.6955581189E+00    0.6596873346E+00    0.5016250962E-03
    0.3100000000E+07    0.3395200777E-04    0.4338458822E-05    0.6955564150E+00    0.6601681150E+00    0.5034869720E-03
    0.3300000000E+07    0.3001151547E-04    0.3848870149E-05    0.6955548081E+00    0.6605903541E+00    0.5052386734E-03
    0.3500000000E+07    0.2671844924E-04    0.3438238469E-05    0.6955532877E+00    0.6609641251E+00    0.5068928350E-03
    0.3700000000E+07    0.2393851781E-04    0.3090408882E-05    0.6955518446E+00    0.6612973164E+00    0.5084600188E-03
    0.3900000000E+07    0.2157050269E-04    0.2793162565E-05    0.6955504712E+00    0.6615961934E+00    0.5099491462E-03
    0.4100000000E+07    0.1953694915E-04    0.2537118559E-05    0.6955491609E+00    0.6618657954E+00    0.5113678218E-03
    0.4300000000E+07    0.1777777550E-04    0.2314977329E-05    0.6955479080E+00    0.6621102213E+00    0.5127225818E-03
    0.4500000000E+07    0.1624580060E-04    0.2120989659E-05    0.6955467076E+00    0.6623328392E+00    0.5140190857E-03
    0.4700000000E+07    0.1490355867E-04    0.1950577293E-05    0.6955455552E+00    0.6625364422E+00    0.5152622672E-03
    0.4900000000E+07    0.1372099498E-04    0.1800057682E-05    0.6955444472E+00    0.6627233661E+00    0.5164564534E-03
    0.1000000000E+07    0.3041803750E-03    0.3638617203E-04    0.6955836733E+00    0.6454277254E+00    0.4728155043E-03
    0.3000000000E+07    0.3621932556E-04    0.4619372131E-05    0.6955572541E+00    0.6599357773E+00    0.5025706912E-03
    0.5000000000E+07    0.1318180114E-04    0.1731300809E-05    0.6955439088E+00    0.6628112009E+00    0.5170363837E-03
    0.7000000000E+07    0.6756200644E-05    0.9041191153E-06    0.6955348192E+00    0.6640395478E+00    0.5267912484E-03
    0.9000000000E+07    0.4100214938E-05    0.5560736136E-06    0.6955278850E+00    0.6647208516E+00    0.5341970476E-03
    0.1100000000E+08    0.2753004348E-05    0.3771513128E-06    0.6955222617E+00    0.6651539853E+00    0.5401850972E-03
    0.1300000000E+08    0.1977284244E-05    0.2730183210E-06    0.6955175229E+00    0.6654536538E+00    0.5452211504E-03
    0.1500000000E+08    0.1490231526E-05    0.2070521472E-06    0.6955134224E+00    0.6656733113E+00    0.5495723945E-03
    0.1700000000E+08    0.1164537694E-05    0.1626054271E-06    0.6955098049E+00    0.6658412292E+00    0.5534066492E-03
    0.1900000000E+08    0.9360462107E-06    0.1312188409E-06    0.6955065661E+00    0.6659737631E+00    0.5568363675E-03
    0.2100000000E+08    0.7695806994E-06    0.1082206772E-06    0.6955036323E+00    0.6660810321E+00    0.5599406603E-03
    0.2300000000E+08    0.6445478247E-06    0.9085850767E-07    0.6955009497E+00    0.6661696327E+00    0.5627773364E-03
    0.2500000000E+08    0.5482420073E-06    0.7742445328E-07    0.6954984775E+00    0.6662440487E+00    0.5653899473E-03
    0.2700000000E+08    0.4724796995E-06    0.6681280673E-07    0.6954961844E+00    0.6663074345E+00    0.5678121357E-03
