  Pressure (Pa) 22mC5-500 (mol/kg) 23mC5-500 (mol/kg) 24mC5-500 (mol/kg) 3mC6-500 (mol/kg) C7-500 (mol/kg)
    0.1000000000E+01    0.5977013399E-05    0.2860415929E-05    0.1950030882E+00    0.4082247056E-05    0.4146021616E-02
    0.3000000000E+01    0.1065209215E-04    0.5080682880E-05    0.3749165426E+00    0.1007053080E-04    0.4170520487E-02
    0.5000000000E+01    0.1257151283E-04    0.5987260874E-05    0.4597523236E+00    0.1549523436E-04    0.4176757701E-02
    0.7000000000E+01    0.1366536989E-04    0.6505275702E-05    0.5091261071E+00    0.2065222116E-04    0.4179601291E-02
    0.9000000000E+01    0.1444469328E-04    0.6877557310E-05    0.5414292753E+00    0.2563931815E-04    0.4181126225E-02
    0.1100000000E+02    0.1508907948E-04    0.7188625435E-05    0.5642100920E+00    0.3050496895E-04    0.4181989353E-02
    0.1300000000E+02    0.1567268074E-04    0.7472987300E-05    0.5811382367E+00    0.3527780247E-04    0.4182470964E-02
    0.1500000000E+02    0.1622936676E-04    0.7746191201E-05    0.5942124247E+00    0.3997658183E-04    0.4182712202E-02
    0.1700000000E+02    0.1677562977E-04    0.8015677595E-05    0.6046142851E+00    0.4461447879E-04    0.4182792240E-02
    0.1900000000E+02    0.1731979732E-04    0.8285115573E-05    0.6130871828E+00    0.4920120619E-04    0.4182759034E-02
    0.2100000000E+02    0.1786611794E-04    0.8556312387E-05    0.6201221662E+00    0.5374419651E-04    0.4182643358E-02
    0.2300000000E+02    0.1841671119E-04    0.8830117661E-05    0.6260566473E+00    0.5824930428E-04    0.4182465871E-02
    0.2500000000E+02    0.1897255251E-04    0.9106875953E-05    0.6311301291E+00    0.6272124959E-04    0.4182240958E-02
    0.2700000000E+02    0.1953399292E-04    0.9386663046E-05    0.6355173169E+00    0.6716391141E-04    0.4181978941E-02
    0.2900000000E+02    0.2010104254E-04    0.9669413256E-05    0.6393486444E+00    0.7158052882E-04    0.4181687411E-02
    0.3100000000E+02    0.2067352917E-04    0.9954989559E-05    0.6427234613E+00    0.7597384359E-04    0.4181372073E-02
    0.3300000000E+02    0.2125118849E-04    0.1024322268E-04    0.6457187725E+00    0.8034620385E-04    0.4181037294E-02
    0.3500000000E+02    0.2183371570E-04    0.1053393292E-04    0.6483951858E+00    0.8469964111E-04    0.4180686471E-02
    0.3700000000E+02    0.2242079505E-04    0.1082694220E-04    0.6508010555E+00    0.8903592876E-04    0.4180322281E-02
    0.3900000000E+02    0.2301211650E-04    0.1112208043E-04    0.6529754303E+00    0.9335662709E-04    0.4179946865E-02
    0.4100000000E+02    0.2360738460E-04    0.1141918868E-04    0.6549501890E+00    0.9766311868E-04    0.4179561947E-02
    0.4300000000E+02    0.2420632303E-04    0.1171812041E-04    0.6567516139E+00    0.1019566363E-03    0.4179168936E-02
    0.4500000000E+02    0.2480867631E-04    0.1201874165E-04    0.6584015674E+00    0.1062382857E-03    0.4178768990E-02
    0.4700000000E+02    0.2541420999E-04    0.1232093058E-04    0.6599183836E+00    0.1105090634E-03    0.4178363066E-02
    0.4900000000E+02    0.2602271003E-04    0.1262457683E-04    0.6613175524E+00    0.1147698722E-03    0.4177951968E-02
    0.1000000000E+02    0.1477773992E-04    0.7037935430E-05    0.5537258802E+00    0.2808522955E-04    0.4181618250E-02
    0.3000000000E+02    0.2038662133E-04    0.9811858287E-05    0.6410878605E+00    0.7377994406E-04    0.4181532418E-02
    0.5000000000E+02    0.2632801084E-04    0.1277691486E-04    0.6619772150E+00    0.1168967977E-03    0.4177744692E-02
    0.7000000000E+02    0.3255128603E-04    0.1588066682E-04    0.6713527675E+00    0.1590779108E-03    0.4173445151E-02
    0.9000000000E+02    0.3893491697E-04    0.1906164129E-04    0.6766772097E+00    0.2008814925E-03    0.4169001545E-02
    0.1100000000E+03    0.4543152406E-04    0.2229673698E-04    0.6801097558E+00    0.2425906775E-03    0.4164502253E-02
    0.1300000000E+03    0.5202208947E-04    0.2557696578E-04    0.6825066439E+00    0.2843778207E-03    0.4159973472E-02
    0.1500000000E+03    0.5869931217E-04    0.2889904970E-04    0.6842751497E+00    0.3263602401E-03    0.4155422471E-02
    0.1700000000E+03    0.6546121304E-04    0.3226225976E-04    0.6856337469E+00    0.3686242685E-03    0.4150849763E-02
    0.1900000000E+03    0.7230841370E-04    0.3566709091E-04    0.6867101494E+00    0.4112372790E-03    0.4146253267E-02
    0.2100000000E+03    0.7924287820E-04    0.3911465750E-04    0.6875840073E+00    0.4542543418E-03    0.4141629912E-02
    0.2300000000E+03    0.8626729335E-04    0.4260639942E-04    0.6883075729E+00    0.4977221949E-03    0.4136976297E-02
    0.2500000000E+03    0.9338474943E-04    0.4614393310E-04    0.6889165485E+00    0.5416817550E-03    0.4132288970E-02
    0.2700000000E+03    0.1005985707E-03    0.4972897374E-04    0.6894361576E+00    0.5861697817E-03    0.4127564548E-02
    0.2900000000E+03    0.1079122245E-03    0.5336329462E-04    0.6898847269E+00    0.6312200226E-03    0.4122799756E-02
    0.3100000000E+03    0.1153292721E-03    0.5704870602E-04    0.6902758927E+00    0.6768640291E-03    0.4117991438E-02
    0.3300000000E+03    0.1228533444E-03    0.6078704522E-04    0.6906200110E+00    0.7231317539E-03    0.4113136548E-02
    0.3500000000E+03    0.1304881302E-03    0.6458017247E-04    0.6909250880E+00    0.7700520002E-03    0.4108232138E-02
    0.3700000000E+03    0.1382373731E-03    0.6842997053E-04    0.6911974110E+00    0.8176527665E-03    0.4103275342E-02
    0.3900000000E+03    0.1461048720E-03    0.7233834614E-04    0.6914419859E+00    0.8659615191E-03    0.4098263362E-02
    0.4100000000E+03    0.1540944856E-03    0.7630723265E-04    0.6916628480E+00    0.9150054095E-03    0.4093193451E-02
    0.4300000000E+03    0.1622101373E-03    0.8033859322E-04    0.6918632864E+00    0.9648114535E-03    0.4088062901E-02
    0.4500000000E+03    0.1704558219E-03    0.8443442443E-04    0.6920460087E+00    0.1015406680E-02    0.4082869029E-02
    0.4700000000E+03    0.1788356121E-03    0.8859676001E-04    0.6922132641E+00    0.1066818256E-02    0.4077609168E-02
    0.4900000000E+03    0.1873536659E-03    0.9282767465E-04    0.6923669367E+00    0.1119073601E-02    0.4072280653E-02
    0.1000000000E+03    0.4217067989E-04    0.2067317839E-04    0.6785608029E+00    0.2217354054E-03    0.4166756531E-02
    0.3000000000E+03    0.1116075985E-03    0.5519949974E-04    0.6900867738E+00    0.6539659015E-03    0.4120401231E-02
    0.5000000000E+03    0.1916658662E-03    0.9496950961E-04    0.6924391861E+00    0.1145526347E-02    0.4069589817E-02
    0.7000000000E+03    0.2862776629E-03    0.1419589979E-03    0.6934522390E+00    0.1726014902E-02    0.4011499159E-02
    0.9000000000E+03    0.4005087728E-03    0.1986892823E-03    0.6940162882E+00    0.2427701819E-02    0.3943189439E-02
    0.1100000000E+04    0.5413269736E-03    0.2686235408E-03    0.6943756745E+00    0.3294210011E-02    0.3860919150E-02
    0.1300000000E+04    0.7187756316E-03    0.3567521618E-03    0.6946246729E+00    0.4388306369E-02    0.3759499414E-02
    0.1500000000E+04    0.9478021952E-03    0.4705020473E-03    0.6948073645E+00    0.5803539693E-02    0.3631421616E-02
    0.1700000000E+04    0.1251192469E-02    0.6211953453E-03    0.6949471177E+00    0.7682899407E-02    0.3465555373E-02
    0.1900000000E+04    0.1664085637E-02    0.8262944458E-03    0.6950574747E+00    0.1024775686E-01    0.3245317357E-02
    0.2100000000E+04    0.2239681720E-02    0.1112241820E-02    0.6951468249E+00    0.1383526099E-01    0.2946843474E-02
    0.2300000000E+04    0.3050879032E-02    0.1515283088E-02    0.6952206431E+00    0.1891247664E-01    0.2540432536E-02
    0.2500000000E+04    0.4166153047E-02    0.2069500200E-02    0.6952826535E+00    0.2593266610E-01    0.2006393315E-02
    0.2700000000E+04    0.5558158186E-02    0.2761412957E-02    0.6953354781E+00    0.3476837100E-01    0.1381855339E-02
    0.2900000000E+04    0.6994597238E-02    0.3475709597E-02    0.6953810161E+00    0.4400874411E-01    0.8007037364E-03
    0.3100000000E+04    0.8175480963E-02    0.4063337221E-02    0.6954206769E+00    0.5177507580E-01    0.4008688111E-03
    0.3300000000E+04    0.9020563144E-02    0.4484325092E-02    0.6954555286E+00    0.5752457317E-01    0.1909823270E-03
    0.3500000000E+04    0.9632419699E-02    0.4789553501E-02    0.6954863952E+00    0.6186527943E-01    0.9815528341E-04
    0.3700000000E+04    0.1012034991E-01    0.5033292083E-02    0.6955139227E+00    0.6546717162E-01    0.6041632930E-04
    0.3900000000E+04    0.1054669618E-01    0.5246505241E-02    0.6955386247E+00    0.6871655081E-01    0.4562097805E-04
    0.4100000000E+04    0.1094031289E-01    0.5443526115E-02    0.6955609144E+00    0.7179301520E-01    0.3992160018E-04
    0.4300000000E+04    0.1131363599E-01    0.5630531315E-02    0.6955811286E+00    0.7477375066E-01    0.3776456402E-04
    0.4500000000E+04    0.1167199099E-01    0.5810164237E-02    0.6955995437E+00    0.7769124935E-01    0.3697964336E-04
    0.4700000000E+04    0.1201775848E-01    0.5983604677E-02    0.6956163896E+00    0.8055938552E-01    0.3672543147E-04
    0.4900000000E+04    0.1235211522E-01    0.6151434124E-02    0.6956318583E+00    0.8338440173E-01    0.3667596895E-04
    0.1000000000E+04    0.4670561305E-03    0.2317384015E-03    0.6942139090E+00    0.2836989418E-02    0.3904081164E-02
    0.3000000000E+04    0.7628638682E-02    0.3791153354E-02    0.6954015077E+00    0.4815131549E-01    0.5742311705E-03
    0.5000000000E+04    0.1251523785E-01    0.6233354660E-02    0.6956391279E+00    0.8478177736E-01    0.3668470324E-04
    0.7000000000E+04    0.1528557189E-01    0.7629592409E-02    0.6957408311E+00    0.1108693497E+00    0.3732341559E-04
    0.9000000000E+04    0.1730009322E-01    0.8653160117E-02    0.6957972378E+00    0.1339558194E+00    0.3784990155E-04
    0.1100000000E+05    0.1875730935E-01    0.9401026230E-02    0.6958330661E+00    0.1546404112E+00    0.3827535075E-04
    0.1300000000E+05    0.1979678960E-01    0.9941488387E-02    0.6958578215E+00    0.1733632434E+00    0.3863302521E-04
    0.1500000000E+05    0.2051897584E-01    0.1032379277E-01    0.6958759384E+00    0.1904558471E+00    0.3894198204E-04
    0.1700000000E+05    0.2099756049E-01    0.1058414667E-01    0.6958897632E+00    0.2061731346E+00    0.3921417891E-04
    0.1900000000E+05    0.2128752027E-01    0.1074962345E-01    0.6959006541E+00    0.2207146925E+00    0.3945762268E-04
    0.2100000000E+05    0.2143046828E-01    0.1084076591E-01    0.6959094511E+00    0.2342393354E+00    0.3967794306E-04
    0.2300000000E+05    0.2145830295E-01    0.1087336274E-01    0.6959167020E+00    0.2468752817E+00    0.3987925214E-04
    0.2500000000E+05    0.2139574717E-01    0.1085968566E-01    0.6959227790E+00    0.2587274133E+00    0.4006464678E-04
    0.2700000000E+05    0.2126214798E-01    0.1080936717E-01    0.6959279437E+00    0.2698825506E+00    0.4023651859E-04
    0.2900000000E+05    0.2107277329E-01    0.1073003361E-01    0.6959323857E+00    0.2804133475E+00    0.4039675372E-04
    0.3100000000E+05    0.2083976022E-01    0.1062776870E-01    0.6959362455E+00    0.2903812099E+00    0.4054686645E-04
    0.3300000000E+05    0.2057281809E-01    0.1050745746E-01    0.6959396294E+00    0.2998385138E+00    0.4068809128E-04
    0.3500000000E+05    0.2027975597E-01    0.1037304471E-01    0.6959426193E+00    0.3088303097E+00    0.4082144809E-04
    0.3700000000E+05    0.1996688304E-01    0.1022773148E-01    0.6959452796E+00    0.3173956490E+00    0.4094778939E-04
    0.3900000000E+05    0.1963931557E-01    0.1007412581E-01    0.6959476612E+00    0.3255686261E+00    0.4106783514E-04
    0.4100000000E+05    0.1930121453E-01    0.9914359628E-02    0.6959498052E+00    0.3333792056E+00    0.4118219902E-04
    0.4300000000E+05    0.1895597110E-01    0.9750180220E-02    0.6959517449E+00    0.3408538845E+00    0.4129140840E-04
    0.4500000000E+05    0.1860635267E-01    0.9583022252E-02    0.6959535078E+00    0.3480162268E+00    0.4139591992E-04
    0.4700000000E+05    0.1825461859E-01    0.9414065022E-02    0.6959551166E+00    0.3548872989E+00    0.4149613160E-04
    0.4900000000E+05    0.1790261258E-01    0.9244278232E-02    0.6959565903E+00    0.3614860266E+00    0.4159239253E-04
    0.1000000000E+05    0.1808853915E-01    0.9056750842E-02    0.6958169518E+00    0.1445678257E+00    0.3807271352E-04
    0.3000000000E+05    0.2096106472E-01    0.1068143755E-01    0.6959343811E+00    0.2854641825E+00    0.4047299254E-04
    0.5000000000E+05    0.1772698868E-01    0.9159328689E-02    0.6959572816E+00    0.3646886638E+00    0.4163913910E-04
    0.7000000000E+05    0.1443984310E-01    0.7546473109E-02    0.6959668427E+00    0.4178429423E+00    0.4242541700E-04
    0.9000000000E+05    0.1177164820E-01    0.6211918253E-02    0.6959720107E+00    0.4562238939E+00    0.4302232035E-04
    0.1100000000E+06    0.9692075991E-02    0.5157717685E-02    0.6959752064E+00    0.4851617761E+00    0.4350494209E-04
    0.1300000000E+06    0.8076205621E-02    0.4329841609E-02    0.6959773534E+00    0.5076599038E+00    0.4391083035E-04
    0.1500000000E+06    0.6810460618E-02    0.3675567546E-02    0.6959788794E+00    0.5255759290E+00    0.4426152328E-04
    0.1700000000E+06    0.5807444593E-02    0.3153110986E-02    0.6959800088E+00    0.5401268777E+00    0.4457054811E-04
    0.1900000000E+06    0.5002757168E-02    0.2731117279E-02    0.6959808705E+00    0.5521430128E+00    0.4484696885E-04
    0.2100000000E+06    0.4349354214E-02    0.2386378512E-02    0.6959815437E+00    0.5622087393E+00    0.4509716184E-04
    0.2300000000E+06    0.3812732242E-02    0.2101695736E-02    0.6959820795E+00    0.5707460868E+00    0.4532578637E-04
    0.2500000000E+06    0.3367353308E-02    0.1864228970E-02    0.6959825125E+00    0.5780665368E+00    0.4553635257E-04
    0.2700000000E+06    0.2994103777E-02    0.1664297059E-02    0.6959828665E+00    0.5844043748E+00    0.4573157190E-04
    0.2900000000E+06    0.2678509641E-02    0.1494521223E-02    0.6959831590E+00    0.5899387920E+00    0.4591358326E-04
    0.3100000000E+06    0.2409482148E-02    0.1349215722E-02    0.6959834025E+00    0.5948088988E+00    0.4608410416E-04
    0.3300000000E+06    0.2178430262E-02    0.1223952459E-02    0.6959836067E+00    0.5991241460E+00    0.4624453500E-04
    0.3500000000E+06    0.1978626787E-02    0.1115247454E-02    0.6959837788E+00    0.6029716973E+00    0.4639603290E-04
    0.3700000000E+06    0.1804750872E-02    0.1020332946E-02    0.6959839244E+00    0.6064217354E+00    0.4653956518E-04
    0.3900000000E+06    0.1652554193E-02    0.9369900641E-03    0.6959840480E+00    0.6095313407E+00    0.4667594885E-04
    0.4100000000E+06    0.1518614741E-02    0.8634247250E-03    0.6959841531E+00    0.6123473662E+00    0.4680588039E-04
    0.4300000000E+06    0.1400153285E-02    0.7981746505E-03    0.6959842425E+00    0.6149085965E+00    0.4692995838E-04
    0.4500000000E+06    0.1294895167E-02    0.7400390318E-03    0.6959843187E+00    0.6172473886E+00    0.4704870114E-04
    0.4700000000E+06    0.1200965219E-02    0.6880248220E-03    0.6959843836E+00    0.6193909324E+00    0.4716256049E-04
    0.4900000000E+06    0.1116807123E-02    0.6413053592E-03    0.6959844386E+00    0.6213622289E+00    0.4727193274E-04
    0.1000000000E+06    0.1066590331E-01    0.5652916370E-02    0.6959737799E+00    0.4716499102E+00    0.4327504758E-04
    0.3000000000E+06    0.2538762097E-02    0.1419111746E-02    0.6959832862E+00    0.5924494468E+00    0.4600018605E-04
    0.5000000000E+06    0.1077977698E-02    0.6197102601E-03    0.6959844628E+00    0.6222895191E+00    0.4732504705E-04
    0.7000000000E+06    0.5895564892E-03    0.3454578270E-03    0.6959846611E+00    0.6352949651E+00    0.4821847816E-04
    0.9000000000E+06    0.3702875937E-03    0.2201369476E-03    0.6959845994E+00    0.6425037415E+00    0.4889677381E-04
    0.1100000000E+07    0.2536933388E-03    0.1525884508E-03    0.6959844493E+00    0.6470674132E+00    0.4944522574E-04
    0.1300000000E+07    0.1844894264E-03    0.1120511619E-03    0.6959842678E+00    0.6502105126E+00    0.4990648879E-04
    0.1500000000E+07    0.1401157574E-03    0.8581609209E-04    0.6959840772E+00    0.6525048306E+00    0.5030503285E-04
    0.1700000000E+07    0.1099867336E-03    0.6785931255E-04    0.6959838871E+00    0.6542523257E+00    0.5065622746E-04
    0.1900000000E+07    0.8860608607E-04    0.5502609300E-04    0.6959837017E+00    0.6556272087E+00    0.5097037157E-04
    0.2100000000E+07    0.7289164410E-04    0.4553407116E-04    0.6959835228E+00    0.6567369284E+00    0.5125471055E-04
    0.2300000000E+07    0.6100702643E-04    0.3831424922E-04    0.6959833510E+00    0.6576513104E+00    0.5151453885E-04
    0.2500000000E+07    0.5180317340E-04    0.3269374604E-04    0.6959831865E+00    0.6584176773E+00    0.5175384518E-04
    0.2700000000E+07    0.4453142225E-04    0.2823177731E-04    0.6959830291E+00    0.6590692278E+00    0.5197571075E-04
    0.2900000000E+07    0.3868713125E-04    0.2462975650E-04    0.6959828783E+00    0.6596299340E+00    0.5218256616E-04
    0.3100000000E+07    0.3392015262E-04    0.2167956087E-04    0.6959827338E+00    0.6601175359E+00    0.5237636319E-04
    0.3300000000E+07    0.2998139306E-04    0.1923250463E-04    0.6959825952E+00    0.6605454411E+00    0.5255869325E-04
    0.3500000000E+07    0.2668975121E-04    0.1718005881E-04    0.6959824621E+00    0.6609239702E+00    0.5273087132E-04
    0.3700000000E+07    0.2391101532E-04    0.1544149552E-04    0.6959823342E+00    0.6612611962E+00    0.5289399669E-04
    0.3900000000E+07    0.2154402195E-04    0.1395575268E-04    0.6959822110E+00    0.6615635244E+00    0.5304899784E-04
    0.4100000000E+07    0.1951135528E-04    0.1267594808E-04    0.6959820923E+00    0.6618361017E+00    0.5319666628E-04
    0.4300000000E+07    0.1775296187E-04    0.1156560024E-04    0.6959819778E+00    0.6620831109E+00    0.5333768225E-04
    0.4500000000E+07    0.1622168136E-04    0.1059597497E-04    0.6959818671E+00    0.6623079862E+00    0.5347263480E-04
    0.4700000000E+07    0.1488006365E-04    0.9744189827E-05    0.6959817602E+00    0.6625135734E+00    0.5360203743E-04
    0.4900000000E+07    0.1369806599E-04    0.8991838778E-05    0.6959816566E+00    0.6627022508E+00    0.5372634049E-04
    0.1000000000E+07    0.3038086759E-03    0.1817214422E-03    0.6959845306E+00    0.6450167884E+00    0.4918397134E-04
    0.3000000000E+07    0.3618645355E-04    0.2308359793E-04    0.6959828053E+00    0.6598819505E+00    0.5228099018E-04
    0.5000000000E+07    0.1315913634E-04    0.8648168434E-05    0.6959816060E+00    0.6627908868E+00    0.5378670567E-04
    0.7000000000E+07    0.6737230315E-05    0.4513778216E-05    0.6959807320E+00    0.6640288879E+00    0.5480210553E-04
    0.9000000000E+07    0.4083440059E-05    0.2774400306E-05    0.6959800441E+00    0.6647142602E+00    0.5557300256E-04
    0.1100000000E+08    0.2737761830E-05    0.1880367286E-05    0.6959794757E+00    0.6651494851E+00    0.5619633040E-04
    0.1300000000E+08    0.1963198916E-05    0.1360133724E-05    0.6959789907E+00    0.6654503690E+00    0.5672056652E-04
    0.1500000000E+08    0.1477063207E-05    0.1030642131E-05    0.6959785672E+00    0.6656707948E+00    0.5717352124E-04
    0.1700000000E+08    0.1152120584E-05    0.8086850204E-06    0.6959781908E+00    0.6658392287E+00    0.5757266227E-04
    0.1900000000E+08    0.9242597739E-06    0.6519833077E-06    0.6959778519E+00    0.6659721257E+00    0.5792969457E-04
    0.2100000000E+08    0.7583338931E-06    0.5371897083E-06    0.6959775435E+00    0.6660796595E+00    0.5825285263E-04
    0.2300000000E+08    0.6337698136E-06    0.4505497413E-06    0.6959772603E+00    0.6661684589E+00    0.5854815371E-04
    0.2500000000E+08    0.5378763534E-06    0.3835294353E-06    0.6959769984E+00    0.6662430278E+00    0.5882013106E-04
    0.2700000000E+08    0.4624805496E-06    0.3306042241E-06    0.6959767547E+00    0.6663065336E+00    0.5907228655E-04
