  Pressure (Pa) 22mC5-500 (mol/kg) 23mC5-500 (mol/kg) 24mC5-500 (mol/kg) 3mC6-500 (mol/kg) C7-500 (mol/kg)
    0.1000000000E+01    0.6898284966E-05    0.6607836061E-05    0.1266347441E+00    0.2040633648E-05    0.4147301104E-02
    0.3000000000E+01    0.1426207941E-04    0.1362385699E-04    0.2785347161E+00    0.5031942368E-05    0.4175261502E-02
    0.5000000000E+01    0.1803375142E-04    0.1719643980E-04    0.3664468649E+00    0.7739424772E-05    0.4184327402E-02
    0.7000000000E+01    0.2028154948E-04    0.1931749416E-04    0.4237695407E+00    0.1031121613E-04    0.4189338443E-02
    0.9000000000E+01    0.2177925942E-04    0.2072900784E-04    0.4641026156E+00    0.1279634315E-04    0.4192564162E-02
    0.1100000000E+02    0.2287163484E-04    0.2176006116E-04    0.4940245790E+00    0.1521910281E-04    0.4194804256E-02
    0.1300000000E+02    0.2373079723E-04    0.2257415068E-04    0.5171058284E+00    0.1759386409E-04    0.4196432502E-02
    0.1500000000E+02    0.2444989835E-04    0.2325929619E-04    0.5354516466E+00    0.1993005029E-04    0.4197651585E-02
    0.1700000000E+02    0.2508246242E-04    0.2386578449E-04    0.5503837955E+00    0.2223428044E-04    0.4198582294E-02
    0.1900000000E+02    0.2566068346E-04    0.2442367253E-04    0.5627739933E+00    0.2451143800E-04    0.4199301569E-02
    0.2100000000E+02    0.2620462589E-04    0.2495156180E-04    0.5732204332E+00    0.2676526172E-04    0.4199860941E-02
    0.2300000000E+02    0.2672714577E-04    0.2546127678E-04    0.5821472624E+00    0.2899869785E-04    0.4200296307E-02
    0.2500000000E+02    0.2723665878E-04    0.2596048748E-04    0.5898635898E+00    0.3121412268E-04    0.4200633486E-02
    0.2700000000E+02    0.2773876288E-04    0.2645424152E-04    0.5966000107E+00    0.3341348969E-04    0.4200891550E-02
    0.2900000000E+02    0.2823722344E-04    0.2694589075E-04    0.6025320467E+00    0.3559843058E-04    0.4201084900E-02
    0.3100000000E+02    0.2873458920E-04    0.2743766838E-04    0.6077956613E+00    0.3777032686E-04    0.4201224629E-02
    0.3300000000E+02    0.2923258731E-04    0.2793105751E-04    0.6124978095E+00    0.3993036192E-04    0.4201319417E-02
    0.3500000000E+02    0.2973238227E-04    0.2842703169E-04    0.6167237830E+00    0.4207955973E-04    0.4201376164E-02
    0.3700000000E+02    0.3023474890E-04    0.2892621472E-04    0.6205424300E+00    0.4421881422E-04    0.4201400419E-02
    0.3900000000E+02    0.3074018980E-04    0.2942898870E-04    0.6240099365E+00    0.4634891196E-04    0.4201396701E-02
    0.4100000000E+02    0.3124901622E-04    0.2993556790E-04    0.6271726087E+00    0.4847054990E-04    0.4201368727E-02
    0.4300000000E+02    0.3176140444E-04    0.3044605005E-04    0.6300689534E+00    0.5058434944E-04    0.4201319583E-02
    0.4500000000E+02    0.3227743556E-04    0.3096045213E-04    0.6327312538E+00    0.5269086784E-04    0.4201251853E-02
    0.4700000000E+02    0.3279712366E-04    0.3147873562E-04    0.6351867780E+00    0.5479060731E-04    0.4201167715E-02
    0.4900000000E+02    0.3332043608E-04    0.3200082449E-04    0.6374587163E+00    0.5688402266E-04    0.4201069022E-02
    0.1000000000E+02    0.2236280653E-04    0.2127943312E-04    0.4800956531E+00    0.1401446774E-04    0.4193778373E-02
    0.3000000000E+02    0.2848591952E-04    0.2719165654E-04    0.6052401406E+00    0.3668593120E-04    0.4201160877E-02
    0.5000000000E+02    0.3358343208E-04    0.3226326514E-04    0.6385321570E+00    0.5792848949E-04    0.4201014721E-02
    0.7000000000E+02    0.3901040525E-04    0.3768255973E-04    0.6539495723E+00    0.7856932717E-04    0.4199450432E-02
    0.9000000000E+02    0.4468438976E-04    0.4334854896E-04    0.6628414054E+00    0.9888889635E-04    0.4197372597E-02
    0.1100000000E+03    0.5052766159E-04    0.4918036645E-04    0.6686271281E+00    0.1190281507E-03    0.4195051705E-02
    0.1300000000E+03    0.5649432200E-04    0.5513184176E-04    0.6726923275E+00    0.1390715539E-03    0.4192596028E-02
    0.1500000000E+03    0.6255766765E-04    0.6117661415E-04    0.6757051426E+00    0.1590753235E-03    0.4190056700E-02
    0.1700000000E+03    0.6870181395E-04    0.6729923307E-04    0.6780274081E+00    0.1790796467E-03    0.4187460552E-02
    0.1900000000E+03    0.7491712914E-04    0.7349046309E-04    0.6798721357E+00    0.1991148014E-03    0.4184822703E-02
    0.2100000000E+03    0.8119773384E-04    0.7974475802E-04    0.6813728947E+00    0.2192045486E-03    0.4182152090E-02
    0.2300000000E+03    0.8754008383E-04    0.8605884640E-04    0.6826176885E+00    0.2393681595E-03    0.4179454161E-02
    0.2500000000E+03    0.9394213557E-04    0.9243090646E-04    0.6836668587E+00    0.2596216955E-03    0.4176732287E-02
    0.2700000000E+03    0.1004028375E-03    0.9886006708E-04    0.6845631614E+00    0.2799788569E-03    0.4173988553E-02
    0.2900000000E+03    0.1069218101E-03    0.1053460961E-03    0.6853377390E+00    0.3004515650E-03    0.4171224213E-02
    0.3100000000E+03    0.1134991392E-03    0.1118892003E-03    0.6860138121E+00    0.3210503749E-03    0.4168439979E-02
    0.3300000000E+03    0.1201352393E-03    0.1184898941E-03    0.6866090486E+00    0.3417847756E-03    0.4165636190E-02
    0.3500000000E+03    0.1268307613E-03    0.1251489112E-03    0.6871371289E+00    0.3626634138E-03    0.4162812935E-02
    0.3700000000E+03    0.1335865293E-03    0.1318671447E-03    0.6876088117E+00    0.3836942633E-03    0.4159970122E-02
    0.3900000000E+03    0.1404034967E-03    0.1386456058E-03    0.6880326738E+00    0.4048847559E-03    0.4157107532E-02
    0.4100000000E+03    0.1472827150E-03    0.1454853943E-03    0.6884156367E+00    0.4262418850E-03    0.4154224855E-02
    0.4300000000E+03    0.1542253117E-03    0.1523876784E-03    0.6887633478E+00    0.4477722865E-03    0.4151321716E-02
    0.4500000000E+03    0.1612324748E-03    0.1593536804E-03    0.6890804604E+00    0.4694823055E-03    0.4148397688E-02
    0.4700000000E+03    0.1683054412E-03    0.1663846660E-03    0.6893708433E+00    0.4913780501E-03    0.4145452309E-02
    0.4900000000E+03    0.1754454888E-03    0.1734819372E-03    0.6896377394E+00    0.5134654354E-03    0.4142485088E-02
    0.1000000000E+03    0.4758831730E-04    0.4624722474E-04    0.6660110706E+00    0.1089749102E-03    0.4196233784E-02
    0.3000000000E+03    0.1102031606E-03    0.1086104877E-03    0.6856868756E+00    0.3107345921E-03    0.4169834554E-02
    0.5000000000E+03    0.1790410770E-03    0.1770558454E-03    0.6897632527E+00    0.5245827984E-03    0.4140993127E-02
    0.7000000000E+03    0.2548127148E-03    0.2523554317E-03    0.6915252995E+00    0.7583505785E-03    0.4109874076E-02
    0.9000000000E+03    0.3389815104E-03    0.3359809596E-03    0.6925081434E+00    0.1017568395E-02    0.4075911138E-02
    0.1100000000E+04    0.4332905162E-03    0.4296711655E-03    0.6931350469E+00    0.1307980091E-02    0.4038450370E-02
    0.1300000000E+04    0.5398448061E-03    0.5355209536E-03    0.6935697136E+00    0.1636282033E-02    0.3996732253E-02
    0.1500000000E+04    0.6612442692E-03    0.6561154549E-03    0.6938888041E+00    0.2010655637E-02    0.3949844244E-02
    0.1700000000E+04    0.8007565862E-03    0.7947027202E-03    0.6941330005E+00    0.2441350066E-02    0.3896662384E-02
    0.1900000000E+04    0.9625476866E-03    0.9554231224E-03    0.6943258968E+00    0.2941424907E-02    0.3835777300E-02
    0.2100000000E+04    0.1151994646E-02    0.1143620556E-02    0.6944821185E+00    0.3527747485E-02    0.3765397332E-02
    0.2300000000E+04    0.1376113481E-02    0.1366267812E-02    0.6946112142E+00    0.4222354681E-02    0.3683220373E-02
    0.2500000000E+04    0.1644141032E-02    0.1632545175E-02    0.6947196825E+00    0.5054309943E-02    0.3586265954E-02
    0.2700000000E+04    0.1968308695E-02    0.1954609885E-02    0.6948120998E+00    0.6062185433E-02    0.3470663294E-02
    0.2900000000E+04    0.2364814800E-02    0.2348563417E-02    0.6948917819E+00    0.7297210060E-02    0.3331407430E-02
    0.3100000000E+04    0.2854886761E-02    0.2835508716E-02    0.6949611903E+00    0.8826775134E-02    0.3162143396E-02
    0.3300000000E+04    0.3465496806E-02    0.3442264404E-02    0.6950221906E+00    0.1073698186E-01    0.2955158313E-02
    0.3500000000E+04    0.4228514814E-02    0.4200527750E-02    0.6950762225E+00    0.1313048100E-01    0.2702021726E-02
    0.3700000000E+04    0.5175596610E-02    0.5141801801E-02    0.6951244147E+00    0.1611115436E-01    0.2395756503E-02
    0.3900000000E+04    0.6324488357E-02    0.6283792215E-02    0.6951676647E+00    0.1974188042E-01    0.2035755007E-02
    0.4100000000E+04    0.7654539645E-02    0.7606072287E-02    0.6952066952E+00    0.2396765554E-01    0.1635506874E-02
    0.4300000000E+04    0.9083041709E-02    0.9026546465E-02    0.6952420944E+00    0.2853910452E-01    0.1228316817E-02
    0.4500000000E+04    0.1047483573E-01    0.1041095290E-01    0.6952743461E+00    0.3303792770E-01    0.8605084496E-03
    0.4700000000E+04    0.1170220691E-01    0.1163234927E-01    0.6953038517E+00    0.3706120252E-01    0.5695813422E-03
    0.4900000000E+04    0.1270663737E-01    0.1263249840E-01    0.6953309475E+00    0.4041688242E-01    0.3661746277E-03
    0.1000000000E+04    0.3847467940E-03    0.3814468092E-03    0.6928528007E+00    0.1158485143E-02    0.4057662471E-02
    0.3000000000E+04    0.2596606228E-02    0.2578872225E-02    0.6949276421E+00    0.8020244158E-02    0.3250979408E-02
    0.5000000000E+04    0.1312807928E-01    0.1305238724E-01    0.6953436819E+00    0.4185023012E-01    0.2936808741E-03
    0.7000000000E+04    0.1753868052E-01    0.1746231213E-01    0.6955218961E+00    0.5851021385E-01    0.6391616429E-04
    0.9000000000E+04    0.2051631493E-01    0.2045510717E-01    0.6956207925E+00    0.7150608460E-01    0.6420145578E-04
    0.1100000000E+05    0.2294308428E-01    0.2290504787E-01    0.6956836380E+00    0.8338927737E-01    0.6492257295E-04
    0.1300000000E+05    0.2493410352E-01    0.2492478850E-01    0.6957270779E+00    0.9435307646E-01    0.6553020396E-04
    0.1500000000E+05    0.2657433880E-01    0.2659753395E-01    0.6957588801E+00    0.1045412305E+00    0.6605495001E-04
    0.1700000000E+05    0.2792894344E-01    0.2798715567E-01    0.6957831562E+00    0.1140671624E+00    0.6651717802E-04
    0.1900000000E+05    0.2904862552E-01    0.2914341971E-01    0.6958022863E+00    0.1230216895E+00    0.6693052221E-04
    0.2100000000E+05    0.2997337180E-01    0.3010561550E-01    0.6958177432E+00    0.1314784712E+00    0.6730456437E-04
    0.2300000000E+05    0.3073508709E-01    0.3090512906E-01    0.6958304871E+00    0.1394979451E+00    0.6764630061E-04
    0.2500000000E+05    0.3135949818E-01    0.3156730027E-01    0.6958411707E+00    0.1471302196E+00    0.6796099816E-04
    0.2700000000E+05    0.3186754933E-01    0.3211278488E-01    0.6958502532E+00    0.1544172334E+00    0.6825272370E-04
    0.2900000000E+05    0.3227643993E-01    0.3255856780E-01    0.6958580667E+00    0.1613943917E+00    0.6852468378E-04
    0.3100000000E+05    0.3260040623E-01    0.3291872701E-01    0.6958648579E+00    0.1680918199E+00    0.6877945226E-04
    0.3300000000E+05    0.3285131741E-01    0.3320501626E-01    0.6958708133E+00    0.1745353379E+00    0.6901912715E-04
    0.3500000000E+05    0.3303913501E-01    0.3342731462E-01    0.6958760767E+00    0.1807472234E+00    0.6924544150E-04
    0.3700000000E+05    0.3317227080E-01    0.3359397672E-01    0.6958807609E+00    0.1867468176E+00    0.6945984375E-04
    0.3900000000E+05    0.3325786796E-01    0.3371210821E-01    0.6958849555E+00    0.1925510086E+00    0.6966355702E-04
    0.4100000000E+05    0.3330202405E-01    0.3378778437E-01    0.6958887325E+00    0.1981746218E+00    0.6985762378E-04
    0.4300000000E+05    0.3330996928E-01    0.3382622483E-01    0.6958921505E+00    0.2036307374E+00    0.7004293984E-04
    0.4500000000E+05    0.3328620994E-01    0.3383193446E-01    0.6958952577E+00    0.2089309495E+00    0.7022028075E-04
    0.4700000000E+05    0.3323464480E-01    0.3380881764E-01    0.6958980939E+00    0.2140855810E+00    0.7039032249E-04
    0.4900000000E+05    0.3315866009E-01    0.3376027160E-01    0.6959006926E+00    0.2191038603E+00    0.7055365791E-04
    0.1000000000E+05    0.2179044755E-01    0.2173999782E-01    0.6956553692E+00    0.7757305385E-01    0.6457834996E-04
    0.3000000000E+05    0.3244824727E-01    0.3274856711E-01    0.6958615773E+00    0.1647763672E+00    0.6865407617E-04
    0.5000000000E+05    0.3311244792E-01    0.3372740474E-01    0.6959019119E+00    0.2215644896E+00    0.7063297656E-04
    0.7000000000E+05    0.3145265943E-01    0.3228644934E-01    0.6959187933E+00    0.2652457641E+00    0.7196704333E-04
    0.9000000000E+05    0.2918028755E-01    0.3015758927E-01    0.6959279398E+00    0.3011562969E+00    0.7297972741E-04
    0.1100000000E+06    0.2682588450E-01    0.2789251932E-01    0.6959336092E+00    0.3316651629E+00    0.7379849166E-04
    0.1300000000E+06    0.2457703412E-01    0.2569459052E-01    0.6959374274E+00    0.3580752123E+00    0.7448705979E-04
    0.1500000000E+06    0.2249913202E-01    0.2364044560E-01    0.6959401481E+00    0.3812119701E+00    0.7508198093E-04
    0.1700000000E+06    0.2060875230E-01    0.2175465966E-01    0.6959421671E+00    0.4016516151E+00    0.7560620848E-04
    0.1900000000E+06    0.1890195175E-01    0.2003901343E-01    0.6959437120E+00    0.4198237292E+00    0.7607512181E-04
    0.2100000000E+06    0.1736632460E-01    0.1848522205E-01    0.6959449224E+00    0.4360632972E+00    0.7649953953E-04
    0.2300000000E+06    0.1598646357E-01    0.1708086019E-01    0.6959458889E+00    0.4506396609E+00    0.7688736679E-04
    0.2500000000E+06    0.1474650496E-01    0.1581222893E-01    0.6959466725E+00    0.4637740178E+00    0.7724455883E-04
    0.2700000000E+06    0.1363130193E-01    0.1466575495E-01    0.6959473157E+00    0.4756507708E+00    0.7757571584E-04
    0.2900000000E+06    0.1262692582E-01    0.1362865222E-01    0.6959478492E+00    0.4864253416E+00    0.7788446652E-04
    0.3100000000E+06    0.1172083149E-01    0.1268920250E-01    0.6959482953E+00    0.4962298181E+00    0.7817372466E-04
    0.3300000000E+06    0.1090185556E-01    0.1183683686E-01    0.6959486711E+00    0.5051771960E+00    0.7844586601E-04
    0.3500000000E+06    0.1016013469E-01    0.1106211478E-01    0.6959489894E+00    0.5133646616E+00    0.7870285362E-04
    0.3700000000E+06    0.9486989824E-02    0.1035665305E-01    0.6959492603E+00    0.5208761883E+00    0.7894632849E-04
    0.3900000000E+06    0.8874800449E-02    0.9713032950E-02    0.6959494917E+00    0.5277846278E+00    0.7917767668E-04
    0.4100000000E+06    0.8316881314E-02    0.9124701459E-02    0.6959496899E+00    0.5341534151E+00    0.7939807967E-04
    0.4300000000E+06    0.7807367591E-02    0.8585874584E-02    0.6959498600E+00    0.5400379719E+00    0.7960855294E-04
    0.4500000000E+06    0.7341110992E-02    0.8091447077E-02    0.6959500061E+00    0.5454868726E+00    0.7980997576E-04
    0.4700000000E+06    0.6913587465E-02    0.7636910306E-02    0.6959501317E+00    0.5505428176E+00    0.8000311462E-04
    0.4900000000E+06    0.6520816109E-02    0.7218278791E-02    0.6959502396E+00    0.5552434509E+00    0.8018864180E-04
    0.1000000000E+06    0.2799733299E-01    0.2902496602E-01    0.6959310768E+00    0.3169891785E+00    0.7340848058E-04
    0.3000000000E+06    0.1216232282E-01    0.1314740833E-01    0.6959480820E+00    0.4914413743E+00    0.7803137273E-04
    0.5000000000E+06    0.6336349382E-02    0.7021308933E-02    0.6959502876E+00    0.5574710788E+00    0.8027873906E-04
    0.7000000000E+06    0.3812000990E-02    0.4299278009E-02    0.6959507260E+00    0.5896834728E+00    0.8179425032E-04
    0.9000000000E+06    0.2525545158E-02    0.2887637874E-02    0.6959506843E+00    0.6080722510E+00    0.8294482419E-04
    0.1100000000E+07    0.1789442242E-02    0.2068984182E-02    0.6959504739E+00    0.6197417358E+00    0.8387514440E-04
    0.1300000000E+07    0.1331433768E-02    0.1554014847E-02    0.6959501993E+00    0.6277205918E+00    0.8465756714E-04
    0.1500000000E+07    0.1028017866E-02    0.1209703892E-02    0.6959499025E+00    0.6334831779E+00    0.8533360082E-04
    0.1700000000E+07    0.8170413563E-03    0.9683735247E-03    0.6959496019E+00    0.6378221539E+00    0.8592931673E-04
    0.1900000000E+07    0.6645950794E-03    0.7927633066E-03    0.6959493059E+00    0.6411975338E+00    0.8646218491E-04
    0.2100000000E+07    0.5509524987E-03    0.6610267551E-03    0.6959490185E+00    0.6438928983E+00    0.8694449553E-04
    0.2300000000E+07    0.4640237804E-03    0.5596823155E-03    0.6959487413E+00    0.6460917970E+00    0.8738522949E-04
    0.2500000000E+07    0.3960731199E-03    0.4800504963E-03    0.6959484749E+00    0.6479178964E+00    0.8779115274E-04
    0.2700000000E+07    0.3419682469E-03    0.4163408655E-03    0.6959482192E+00    0.6494573587E+00    0.8816749187E-04
    0.2900000000E+07    0.2981976453E-03    0.3645714507E-03    0.6959479739E+00    0.6507719470E+00    0.8851836985E-04
    0.3100000000E+07    0.2622941154E-03    0.3219314254E-03    0.6959477383E+00    0.6519070278E+00    0.8884709739E-04
    0.3300000000E+07    0.2324837104E-03    0.2863910190E-03    0.6959475121E+00    0.6528966361E+00    0.8915637400E-04
    0.3500000000E+07    0.2074648282E-03    0.2564549160E-03    0.6959472946E+00    0.6537667819E+00    0.8944843021E-04
    0.3700000000E+07    0.1862651627E-03    0.2310018892E-03    0.6959470853E+00    0.6545376694E+00    0.8972513069E-04
    0.3900000000E+07    0.1681466993E-03    0.2091778681E-03    0.6959468837E+00    0.6552252216E+00    0.8998805043E-04
    0.4100000000E+07    0.1525411793E-03    0.1903230318E-03    0.6959466892E+00    0.6558421512E+00    0.9023853200E-04
    0.4300000000E+07    0.1390053671E-03    0.1739210971E-03    0.6959465014E+00    0.6563987264E+00    0.9047772930E-04
    0.4500000000E+07    0.1271894761E-03    0.1595634055E-03    0.6959463199E+00    0.6569033285E+00    0.9070664150E-04
    0.4700000000E+07    0.1168145113E-03    0.1469230718E-03    0.6959461443E+00    0.6573628643E+00    0.9092613961E-04
    0.4900000000E+07    0.1076557655E-03    0.1357360985E-03    0.6959459743E+00    0.6577830751E+00    0.9113698758E-04
    0.1000000000E+07    0.2110907692E-02    0.2427694626E-02    0.6959505914E+00    0.6145045316E+00    0.8343198785E-04
    0.3000000000E+07    0.2793865511E-03    0.3422520146E-03    0.6959478549E+00    0.6513595784E+00    0.8868532128E-04
    0.5000000000E+07    0.1034740315E-03    0.1306188002E-03    0.6959458913E+00    0.6579799682E+00    0.9123938146E-04
    0.7000000000E+07    0.5333393668E-04    0.6867027026E-04    0.6959444542E+00    0.6606943200E+00    0.9296174222E-04
    0.9000000000E+07    0.3241887171E-04    0.4235969615E-04    0.6959433218E+00    0.6621666877E+00    0.9426936546E-04
    0.1100000000E+08    0.2175877444E-04    0.2876454826E-04    0.6959423862E+00    0.6630896826E+00    0.9532667515E-04
    0.1300000000E+08    0.1560359231E-04    0.2082722089E-04    0.6959415879E+00    0.6637221075E+00    0.9621590122E-04
    0.1500000000E+08    0.1173255722E-04    0.1578874977E-04    0.6959408911E+00    0.6641823934E+00    0.9698421682E-04
    0.1700000000E+08    0.9141570482E-05    0.1238924300E-04    0.6959402723E+00    0.6645323510E+00    0.9766125149E-04
    0.1900000000E+08    0.7323047576E-05    0.9986407079E-05    0.6959397154E+00    0.6648073782E+00    0.9826685971E-04
    0.2100000000E+08    0.5998055389E-05    0.8224675682E-05    0.6959392088E+00    0.6650292006E+00    0.9881500917E-04
    0.2300000000E+08    0.5003021874E-05    0.6894172917E-05    0.6959387439E+00    0.6652118884E+00    0.9931590661E-04
    0.2500000000E+08    0.4236897635E-05    0.5864482273E-05    0.6959383142E+00    0.6653649547E+00    0.9977724151E-04
    0.2700000000E+08    0.3634533820E-05    0.5051072537E-05    0.6959379147E+00    0.6654950610E+00    0.1002049539E-03
