  Pressure (Pa) 22mC5-500 (mol/kg) 23mC5-500 (mol/kg) 24mC5-500 (mol/kg) 3mC6-500 (mol/kg) C7-500 (mol/kg)
    0.1000000000E+01    0.7927036279E-05    0.1518768995E-05    0.3665821893E-01    0.4325654905E-05    0.4238968408E-02
    0.3000000000E+01    0.2095451563E-04    0.4010171327E-05    0.9947271111E-01    0.1121637716E-04    0.4369915927E-02
    0.5000000000E+01    0.3124964849E-04    0.5974933186E-05    0.1513361513E+00    0.1759154226E-04    0.4477189043E-02
    0.7000000000E+01    0.3954106639E-04    0.7554090337E-05    0.1948827450E+00    0.2371632749E-04    0.4567558268E-02
    0.9000000000E+01    0.4632118779E-04    0.8842829158E-05    0.2319645525E+00    0.2968102857E-04    0.4644858972E-02
    0.1100000000E+02    0.5193779488E-04    0.9908308931E-05    0.2639217221E+00    0.3553105849E-04    0.4711795912E-02
    0.1300000000E+02    0.5664339462E-04    0.1079924337E-04    0.2917479250E+00    0.4129354367E-04    0.4770362800E-02
    0.1500000000E+02    0.6062539447E-04    0.1155175210E-04    0.3161955288E+00    0.4698640810E-04    0.4822067467E-02
    0.1700000000E+02    0.6402548970E-04    0.1219311765E-04    0.3378446533E+00    0.5262231762E-04    0.4868073093E-02
    0.1900000000E+02    0.6695254505E-04    0.1274428017E-04    0.3571497952E+00    0.5821066366E-04    0.4909292031E-02
    0.2100000000E+02    0.6949138572E-04    0.1322153908E-04    0.3744720860E+00    0.6375866709E-04    0.4946450293E-02
    0.2300000000E+02    0.7170893388E-04    0.1363774017E-04    0.3901020956E+00    0.6927203968E-04    0.4980133008E-02
    0.2500000000E+02    0.7365857722E-04    0.1400312035E-04    0.4042762633E+00    0.7475540387E-04    0.5010817138E-02
    0.2700000000E+02    0.7538333355E-04    0.1432591908E-04    0.4171889421E+00    0.8021257139E-04    0.5038895462E-02
    0.2900000000E+02    0.7691817895E-04    0.1461282808E-04    0.4290013642E+00    0.8564673539E-04    0.5064694431E-02
    0.3100000000E+02    0.7829178481E-04    0.1486932656E-04    0.4398484078E+00    0.9106060677E-04    0.5088487649E-02
    0.3300000000E+02    0.7952783023E-04    0.1509993445E-04    0.4498437705E+00    0.9645651377E-04    0.5110506195E-02
    0.3500000000E+02    0.8064600523E-04    0.1530840573E-04    0.4590839700E+00    0.1018364761E-03    0.5130946605E-02
    0.3700000000E+02    0.8166278567E-04    0.1549787779E-04    0.4676514704E+00    0.1072022614E-03    0.5149977119E-02
    0.3900000000E+02    0.8259203763E-04    0.1567098778E-04    0.4756171509E+00    0.1125554287E-03    0.5167742623E-02
    0.4100000000E+02    0.8344549317E-04    0.1582996417E-04    0.4830422707E+00    0.1178973630E-03    0.5184368576E-02
    0.4300000000E+02    0.8423312775E-04    0.1597669928E-04    0.4899800477E+00    0.1232293021E-03    0.5199964179E-02
    0.4500000000E+02    0.8496346215E-04    0.1611280737E-04    0.4964769360E+00    0.1285523588E-03    0.5214624938E-02
    0.4700000000E+02    0.8564380560E-04    0.1623967129E-04    0.5025736673E+00    0.1338675385E-03    0.5228434755E-02
    0.4900000000E+02    0.8628045287E-04    0.1635848029E-04    0.5083061060E+00    0.1391757539E-03    0.5241467647E-02
    0.1000000000E+02    0.4925733643E-04    0.9400081062E-05    0.2485149451E+00    0.3261839812E-04    0.4679484821E-02
    0.3000000000E+02    0.7762355291E-04    0.1474457617E-04    0.4345380076E+00    0.8835605415E-04    0.5076826423E-02
    0.5000000000E+02    0.8658412036E-04    0.1641519062E-04    0.5110457684E+00    0.1418275130E-03    0.5247713528E-02
    0.7000000000E+02    0.9135540821E-04    0.1731313112E-04    0.5527547579E+00    0.1946661069E-03    0.5344381380E-02
    0.9000000000E+02    0.9502351823E-04    0.1801795045E-04    0.5790073789E+00    0.2474431870E-03    0.5407081373E-02
    0.1100000000E+03    0.9847526573E-04    0.1869296194E-04    0.5970518608E+00    0.3004566722E-03    0.5451202144E-02
    0.1300000000E+03    0.1020098390E-03    0.1939170581E-04    0.6102170438E+00    0.3538938367E-03    0.5483948500E-02
    0.1500000000E+03    0.1057338057E-03    0.2013232472E-04    0.6202461035E+00    0.4078870088E-03    0.5509164283E-02
    0.1700000000E+03    0.1096827855E-03    0.2092021279E-04    0.6281402297E+00    0.4625377487E-03    0.5529097469E-02
    0.1900000000E+03    0.1138647402E-03    0.2175596243E-04    0.6345154417E+00    0.5179290014E-03    0.5545155650E-02
    0.2100000000E+03    0.1182768996E-03    0.2263841608E-04    0.6397715614E+00    0.5741318583E-03    0.5558268007E-02
    0.2300000000E+03    0.1229127783E-03    0.2356590039E-04    0.6441794077E+00    0.6312096151E-03    0.5569074261E-02
    0.2500000000E+03    0.1277651624E-03    0.2453673218E-04    0.6479289420E+00    0.6892203583E-03    0.5578030178E-02
    0.2700000000E+03    0.1328273644E-03    0.2554941767E-04    0.6511573481E+00    0.7482186948E-03    0.5585469805E-02
    0.2900000000E+03    0.1380937098E-03    0.2660271906E-04    0.6539661710E+00    0.8082569595E-03    0.5591643869E-02
    0.3100000000E+03    0.1435596777E-03    0.2769566405E-04    0.6564321844E+00    0.8693860901E-03    0.5596744390E-02
    0.3300000000E+03    0.1492218906E-03    0.2882753180E-04    0.6586145095E+00    0.9316562828E-03    0.5600920984E-02
    0.3500000000E+03    0.1550780404E-03    0.2999783072E-04    0.6605594129E+00    0.9951174993E-03    0.5604291956E-02
    0.3700000000E+03    0.1611267966E-03    0.3120627497E-04    0.6623036200E+00    0.1059819872E-02    0.5606952050E-02
    0.3900000000E+03    0.1673677123E-03    0.3245276243E-04    0.6638766538E+00    0.1125814039E-02    0.5608977972E-02
    0.4100000000E+03    0.1738011394E-03    0.3373735535E-04    0.6653025181E+00    0.1193151420E-02    0.5610432401E-02
    0.4300000000E+03    0.1804281539E-03    0.3506026389E-04    0.6666009297E+00    0.1261884470E-02    0.5611366957E-02
    0.4500000000E+03    0.1872504927E-03    0.3642183238E-04    0.6677882340E+00    0.1332066891E-02    0.5611824430E-02
    0.4700000000E+03    0.1942705013E-03    0.3782252812E-04    0.6688780968E+00    0.1403753839E-02    0.5611840472E-02
    0.4900000000E+03    0.2014910913E-03    0.3926293227E-04    0.6698820310E+00    0.1477002105E-02    0.5611444902E-02
    0.1000000000E+03    0.9675079645E-04    0.1835455232E-04    0.5887946661E+00    0.2739069682E-03    0.5430902291E-02
    0.3000000000E+03    0.1408019781E-03    0.2714428681E-04    0.6552379852E+00    0.8386820185E-03    0.5594318128E-02
    0.5000000000E+03    0.2051776605E-03    0.3999823596E-04    0.6703548864E+00    0.1514229972E-02    0.5611100742E-02
    0.7000000000E+03    0.2905717081E-03    0.5701507218E-04    0.6770423749E+00    0.2356486157E-02    0.5586843369E-02
    0.9000000000E+03    0.4032699135E-03    0.7944802662E-04    0.6808114024E+00    0.3441084737E-02    0.5533361957E-02
    0.1100000000E+04    0.5550748899E-03    0.1096466857E-03    0.6832289354E+00    0.4886247769E-02    0.5448282767E-02
    0.1300000000E+04    0.7663738943E-03    0.1516663137E-03    0.6849106184E+00    0.6888654768E-02    0.5321130981E-02
    0.1500000000E+04    0.1073063992E-02    0.2126456175E-03    0.6861475481E+00    0.9791987859E-02    0.5131191349E-02
    0.1700000000E+04    0.1539829587E-02    0.3054485148E-03    0.6870952165E+00    0.1421650786E-01    0.4841032518E-02
    0.1900000000E+04    0.2279136599E-02    0.4524463046E-03    0.6878442279E+00    0.2124873910E-01    0.4388727043E-02
    0.2100000000E+04    0.3436482409E-02    0.6826014362E-03    0.6884509438E+00    0.3232656810E-01    0.3707120062E-02
    0.2300000000E+04    0.4974549003E-02    0.9885732812E-03    0.6889522604E+00    0.4721759687E-01    0.2866206255E-02
    0.2500000000E+04    0.6380466281E-02    0.1268455879E-02    0.6893733421E+00    0.6114109288E-01    0.2207245855E-02
    0.2700000000E+04    0.7283151338E-02    0.1448417845E-02    0.6897319398E+00    0.7048688263E-01    0.1907718126E-02
    0.2900000000E+04    0.7850136962E-02    0.1561698047E-02    0.6900409330E+00    0.7674180367E-01    0.1814938078E-02
    0.3100000000E+04    0.8281267370E-02    0.1648007225E-02    0.6903098926E+00    0.8177349386E-01    0.1793430346E-02
    0.3300000000E+04    0.8659624573E-02    0.1723860237E-02    0.6905460792E+00    0.8636764042E-01    0.1792214002E-02
    0.3500000000E+04    0.9011823329E-02    0.1794547385E-02    0.6907551000E+00    0.9077613376E-01    0.1796303441E-02
    0.3700000000E+04    0.9346080977E-02    0.1861700687E-02    0.6909413541E+00    0.9507499029E-01    0.1801596996E-02
    0.3900000000E+04    0.9665185988E-02    0.1925872409E-02    0.6911083407E+00    0.9928791898E-01    0.1807004330E-02
    0.4100000000E+04    0.9970351487E-02    0.1987301496E-02    0.6912588780E+00    0.1034234279E+00    0.1812249925E-02
    0.4300000000E+04    0.1026232179E-01    0.2046133722E-02    0.6913952615E+00    0.1074855804E+00    0.1817276670E-02
    0.4500000000E+04    0.1054168854E-01    0.2102484598E-02    0.6915193790E+00    0.1114770910E+00    0.1822084633E-02
    0.4700000000E+04    0.1080898173E-01    0.2156457492E-02    0.6916327978E+00    0.1154002200E+00    0.1826687548E-02
    0.4900000000E+04    0.1106469680E-01    0.2208149001E-02    0.6917368296E+00    0.1192570349E+00    0.1831101219E-02
    0.1000000000E+04    0.4732687330E-03    0.9337464196E-04    0.6821392844E+00    0.4108727257E-02    0.5495234273E-02
    0.3000000000E+04    0.8075449687E-02    0.1606786029E-02    0.6901799180E+00    0.7934223022E-01    0.1799799598E-02
    0.5000000000E+04    0.1118836014E-01    0.2233168020E-02    0.6917856779E+00    0.1211611884E+00    0.1833241813E-02
    0.7000000000E+04    0.1315668558E-01    0.2633852394E-02    0.6924652088E+00    0.1561956166E+00    0.1869003900E-02
    0.9000000000E+04    0.1438404057E-01    0.2887776018E-02    0.6928370856E+00    0.1863836848E+00    0.1895907302E-02
    0.1100000000E+05    0.1510473910E-01    0.3040798731E-02    0.6930699110E+00    0.2127943345E+00    0.1917545089E-02
    0.1300000000E+05    0.1547386325E-01    0.3123364900E-02    0.6932283554E+00    0.2361866028E+00    0.1935679818E-02
    0.1500000000E+05    0.1559667124E-01    0.3156208747E-02    0.6933424889E+00    0.2571159376E+00    0.1951310399E-02
    0.1700000000E+05    0.1554610603E-01    0.3153754066E-02    0.6934281654E+00    0.2759995251E+00    0.1965059001E-02
    0.1900000000E+05    0.1537358841E-01    0.3126212309E-02    0.6934945229E+00    0.2931579061E+00    0.1977339976E-02
    0.2100000000E+05    0.1511587606E-01    0.3080917696E-02    0.6935471916E+00    0.3088423314E+00    0.1988443455E-02
    0.2300000000E+05    0.1479953966E-01    0.3023199833E-02    0.6935898256E+00    0.3232532439E+00    0.1998580662E-02
    0.2500000000E+05    0.1444395254E-01    0.2956967590E-02    0.6936248973E+00    0.3365530730E+00    0.2007910252E-02
    0.2700000000E+05    0.1406332884E-01    0.2885107903E-02    0.6936541375E+00    0.3488752877E+00    0.2016554478E-02
    0.2900000000E+05    0.1366813806E-01    0.2809763195E-02    0.6936787933E+00    0.3603309286E+00    0.2024609579E-02
    0.3100000000E+05    0.1326610268E-01    0.2732527476E-02    0.6936997846E+00    0.3710134060E+00    0.2032152699E-02
    0.3300000000E+05    0.1286291170E-01    0.2654586980E-02    0.6937178049E+00    0.3810020823E+00    0.2039246642E-02
    0.3500000000E+05    0.1246273738E-01    0.2576822299E-02    0.6937333859E+00    0.3903649872E+00    0.2045943235E-02
    0.3700000000E+05    0.1206861365E-01    0.2499883412E-02    0.6937469424E+00    0.3991609033E+00    0.2052285753E-02
    0.3900000000E+05    0.1168271602E-01    0.2424245359E-02    0.6937588019E+00    0.4074409901E+00    0.2058310710E-02
    0.4100000000E+05    0.1130657032E-01    0.2350249915E-02    0.6937692267E+00    0.4152500621E+00    0.2064049203E-02
    0.4300000000E+05    0.1094120961E-01    0.2278137042E-02    0.6937784290E+00    0.4226276066E+00    0.2069527938E-02
    0.4500000000E+05    0.1058729298E-01    0.2208068784E-02    0.6937865822E+00    0.4296086024E+00    0.2074770022E-02
    0.4700000000E+05    0.1024519591E-01    0.2140147543E-02    0.6937938294E+00    0.4362241844E+00    0.2079795587E-02
    0.4900000000E+05    0.9915079377E-02    0.2074430110E-02    0.6938002896E+00    0.4425021885E+00    0.2084622275E-02
    0.1000000000E+05    0.1479659245E-01    0.2974717414E-02    0.6929656207E+00    0.2000079876E+00    0.1907249181E-02
    0.3000000000E+05    0.1346757957E-01    0.2771299367E-02    0.6936896992E+00    0.3657635587E+00    0.2028440920E-02
    0.5000000000E+05    0.9754518801E-02    0.2042405820E-02    0.6938032563E+00    0.4455225076E+00    0.2086965975E-02
    0.7000000000E+05    0.7124714466E-02    0.1512362589E-02    0.6938386879E+00    0.4931126228E+00    0.2126365333E-02
    0.9000000000E+05    0.5361232935E-02    0.1150918816E-02    0.6938509427E+00    0.5245670907E+00    0.2156253189E-02
    0.1100000000E+06    0.4154399980E-02    0.9003853734E-03    0.6938539595E+00    0.5467686225E+00    0.2180408116E-02
    0.1300000000E+06    0.3302478046E-02    0.7216764692E-03    0.6938527034E+00    0.5632001262E+00    0.2200716553E-02
    0.1500000000E+06    0.2682661110E-02    0.5905025986E-03    0.6938493072E+00    0.5758099038E+00    0.2218259548E-02
    0.1700000000E+06    0.2219391986E-02    0.4917037825E-03    0.6938448023E+00    0.5857682677E+00    0.2233715608E-02
    0.1900000000E+06    0.1864893409E-02    0.4155865798E-03    0.6938397289E+00    0.5938177245E+00    0.2247539153E-02
    0.2100000000E+06    0.1588032251E-02    0.3557762642E-03    0.6938343859E+00    0.6004504787E+00    0.2260049737E-02
    0.2300000000E+06    0.1367929470E-02    0.3079641033E-03    0.6938289454E+00    0.6060048212E+00    0.2271480796E-02
    0.2500000000E+06    0.1190209357E-02    0.2691630451E-03    0.6938235082E+00    0.6107204296E+00    0.2282008148E-02
    0.2700000000E+06    0.1044736292E-02    0.2372541832E-03    0.6938181343E+00    0.6147715713E+00    0.2291767580E-02
    0.2900000000E+06    0.9242104714E-03    0.2107030377E-03    0.6938128588E+00    0.6182878203E+00    0.2300866188E-02
    0.3100000000E+06    0.8232732173E-03    0.1883775080E-03    0.6938077019E+00    0.6213674160E+00    0.2309389956E-02
    0.3300000000E+06    0.7379227835E-03    0.1694282608E-03    0.6938026742E+00    0.6240861295E+00    0.2317408984E-02
    0.3500000000E+06    0.6651242162E-03    0.1532084019E-03    0.6937977802E+00    0.6265032964E+00    0.2324981187E-02
    0.3700000000E+06    0.6025433889E-03    0.1392184373E-03    0.6937930207E+00    0.6286660165E+00    0.2332154976E-02
    0.3900000000E+06    0.5483622474E-03    0.1270678618E-03    0.6937883941E+00    0.6306121336E+00    0.2338971237E-02
    0.4100000000E+06    0.5011482435E-03    0.1164478976E-03    0.6937838974E+00    0.6323723905E+00    0.2345464819E-02
    0.4300000000E+06    0.4597605986E-03    0.1071118450E-03    0.6937795264E+00    0.6339720107E+00    0.2351665674E-02
    0.4500000000E+06    0.4232820288E-03    0.9886071654E-04    0.6937752766E+00    0.6354318776E+00    0.2357599731E-02
    0.4700000000E+06    0.3909683500E-03    0.9153259699E-04    0.6937711435E+00    0.6367694249E+00    0.2363289598E-02
    0.4900000000E+06    0.3622108198E-03    0.8499466599E-04    0.6937671219E+00    0.6379993173E+00    0.2368755097E-02
    0.1000000000E+06    0.4703152433E-02    0.1014656371E-02    0.6938531941E+00    0.5365572956E+00    0.2168903089E-02
    0.3000000000E+06    0.8715698734E-03    0.1990706898E-03    0.6938102647E+00    0.6198770191E+00    0.2305195223E-02
    0.5000000000E+06    0.3490052631E-03    0.8198695145E-04    0.6937651516E+00    0.6385778505E+00    0.2371409255E-02
    0.7000000000E+06    0.1864527992E-03    0.4461147153E-04    0.6937305277E+00    0.6467046104E+00    0.2416050331E-02
    0.9000000000E+06    0.1158080721E-03    0.2808016043E-04    0.6937027398E+00    0.6512354707E+00    0.2449937029E-02
    0.1100000000E+07    0.7891779841E-04    0.1933176533E-04    0.6936795621E+00    0.6541218412E+00    0.2477334074E-02
    0.1300000000E+07    0.5726816132E-04    0.1414233867E-04    0.6936596774E+00    0.6561206553E+00    0.2500373884E-02
    0.1500000000E+07    0.4349068594E-04    0.1081026552E-04    0.6936422571E+00    0.6575864296E+00    0.2520279609E-02
    0.1700000000E+07    0.3418468789E-04    0.8542398218E-05    0.6936267492E+00    0.6587071708E+00    0.2537819435E-02
    0.1900000000E+07    0.2760505343E-04    0.6928287834E-05    0.6936127687E+00    0.6595918156E+00    0.2553508078E-02
    0.2100000000E+07    0.2278166090E-04    0.5738093049E-05    0.6936000360E+00    0.6603078277E+00    0.2567707618E-02
    0.2300000000E+07    0.1914036379E-04    0.4834908071E-05    0.6935883425E+00    0.6608992120E+00    0.2580682627E-02
    0.2500000000E+07    0.1632379867E-04    0.4133026527E-05    0.6935775276E+00    0.6613958925E+00    0.2592632417E-02
    0.2700000000E+07    0.1410011210E-04    0.3576552327E-05    0.6935674659E+00    0.6618189258E+00    0.2603710949E-02
    0.2900000000E+07    0.1231355989E-04    0.3127759022E-05    0.6935580568E+00    0.6621835582E+00    0.2614039666E-02
    0.3100000000E+07    0.1085638473E-04    0.2760429880E-05    0.6935492189E+00    0.6625011004E+00    0.2623716088E-02
    0.3300000000E+07    0.9652109046E-05    0.2455883072E-05    0.6935408852E+00    0.6627801198E+00    0.2632819725E-02
    0.3500000000E+07    0.8645239580E-05    0.2200511865E-05    0.6935330000E+00    0.6630272249E+00    0.2641416273E-02
    0.3700000000E+07    0.7794718600E-05    0.1984213813E-05    0.6935255162E+00    0.6632475943E+00    0.2649560652E-02
    0.3900000000E+07    0.7069641017E-05    0.1799359650E-05    0.6935183939E+00    0.6634453442E+00    0.2657299248E-02
    0.4100000000E+07    0.6446383797E-05    0.1640099826E-05    0.6935115990E+00    0.6636237869E+00    0.2664671602E-02
    0.4300000000E+07    0.5906639515E-05    0.1501887910E-05    0.6935051019E+00    0.6637856183E+00    0.2671711697E-02
    0.4500000000E+07    0.5436042660E-05    0.1381146646E-05    0.6934988770E+00    0.6639330546E+00    0.2678448957E-02
    0.4700000000E+07    0.5023192976E-05    0.1275029831E-05    0.6934929017E+00    0.6640679348E+00    0.2684909035E-02
    0.4900000000E+07    0.4658949894E-05    0.1181249822E-05    0.6934871564E+00    0.6641917973E+00    0.2691114427E-02
    0.1000000000E+07    0.9471274192E-04    0.2308996427E-04    0.6936906720E+00    0.6528227919E+00    0.2464283831E-02
    0.3000000000E+07    0.1154916937E-04    0.2935221342E-05    0.6935535709E+00    0.6623476265E+00    0.2618954079E-02
    0.5000000000E+07    0.4492687100E-05    0.1138392058E-05    0.6934843643E+00    0.6642500103E+00    0.2694127909E-02
    0.7000000000E+07    0.2496104052E-05    0.6209849664E-06    0.6934372368E+00    0.6650648424E+00    0.2744813982E-02
    0.9000000000E+07    0.1653102752E-05    0.4009726405E-06    0.6934012889E+00    0.6655174218E+00    0.2783290651E-02
    0.1100000000E+08    0.1214584047E-05    0.2863710683E-06    0.6933721404E+00    0.6658054060E+00    0.2814399111E-02
    0.1300000000E+08    0.9549197037E-06    0.2186717443E-06    0.6933475789E+00    0.6660047828E+00    0.2840560262E-02
    0.1500000000E+08    0.7869081572E-06    0.1750854228E-06    0.6933263276E+00    0.6661510029E+00    0.2863162812E-02
    0.1700000000E+08    0.6709456558E-06    0.1452078394E-06    0.6933075812E+00    0.6662628308E+00    0.2883078957E-02
    0.1900000000E+08    0.5868739521E-06    0.1237252542E-06    0.6932907982E+00    0.6663511284E+00    0.2900893117E-02
    0.2100000000E+08    0.5235200577E-06    0.1076865891E-06    0.6932755969E+00    0.6664226192E+00    0.2917016417E-02
    0.2300000000E+08    0.4742669171E-06    0.9534257851E-07    0.6932616978E+00    0.6664816877E+00    0.2931749266E-02
    0.2500000000E+08    0.4349819437E-06    0.8560078562E-07    0.6932488901E+00    0.6665313152E+00    0.2945317981E-02
    0.2700000000E+08    0.4029692998E-06    0.7774914334E-07    0.6932370106E+00    0.6665735996E+00    0.2957897377E-02
