  Pressure (Pa) 22mC5-500 (mol/kg) 23mC5-500 (mol/kg) 24mC5-500 (mol/kg) 3mC6-500 (mol/kg) C7-500 (mol/kg)
    0.1000000000E+01    0.5309598309E-05    0.5073811998E-06    0.2321286735E+00    0.1545132376E-05    0.4195432136E-02
    0.3000000000E+01    0.8743005481E-05    0.8321993138E-06    0.4177190934E+00    0.3966667551E-05    0.4226573974E-02
    0.5000000000E+01    0.9968246665E-05    0.9473723939E-06    0.4972274594E+00    0.6194481289E-05    0.4239553217E-02
    0.7000000000E+01    0.1065088015E-04    0.1012008342E-05    0.5413909572E+00    0.8327221409E-05    0.4246915392E-02
    0.9000000000E+01    0.1115952272E-04    0.1060882516E-05    0.5694921019E+00    0.1039834721E-04    0.4251716121E-02
    0.1100000000E+02    0.1160795887E-04    0.1104568737E-05    0.5889454150E+00    0.1242465993E-04    0.4255117503E-02
    0.1300000000E+02    0.1203778797E-04    0.1146856886E-05    0.6032104817E+00    0.1441618744E-04    0.4257664141E-02
    0.1500000000E+02    0.1246558122E-04    0.1189213540E-05    0.6141186579E+00    0.1637955300E-04    0.4259647037E-02
    0.1700000000E+02    0.1289807468E-04    0.1232206168E-05    0.6227301227E+00    0.1831943587E-04    0.4261236604E-02
    0.1900000000E+02    0.1333782388E-04    0.1276027704E-05    0.6297011399E+00    0.2023930530E-04    0.4262539660E-02
    0.2100000000E+02    0.1378552894E-04    0.1320709578E-05    0.6354596884E+00    0.2214182855E-04    0.4263626781E-02
    0.2300000000E+02    0.1424105976E-04    0.1366214204E-05    0.6402967832E+00    0.2402911533E-04    0.4264546603E-02
    0.2500000000E+02    0.1470392996E-04    0.1412476893E-05    0.6444172067E+00    0.2590287287E-04    0.4265333811E-02
    0.2700000000E+02    0.1517352193E-04    0.1459425194E-05    0.6479692457E+00    0.2776450884E-04    0.4266013861E-02
    0.2900000000E+02    0.1564919424E-04    0.1506987751E-05    0.6510629171E+00    0.2961520221E-04    0.4266605893E-02
    0.3100000000E+02    0.1613033162E-04    0.1555098125E-05    0.6537815656E+00    0.3145595370E-04    0.4267124603E-02
    0.3300000000E+02    0.1661636633E-04    0.1603696193E-05    0.6561894844E+00    0.3328762245E-04    0.4267581477E-02
    0.3500000000E+02    0.1710678524E-04    0.1652728359E-05    0.6583370650E+00    0.3511095345E-04    0.4267985634E-02
    0.3700000000E+02    0.1760112984E-04    0.1702147240E-05    0.6602643616E+00    0.3692659837E-04    0.4268344419E-02
    0.3900000000E+02    0.1809899304E-04    0.1751911114E-05    0.6620036126E+00    0.3873513166E-04    0.4268663818E-02
    0.4100000000E+02    0.1860001451E-04    0.1801983310E-05    0.6635810581E+00    0.4053706318E-04    0.4268948767E-02
    0.4300000000E+02    0.1910387574E-04    0.1852331605E-05    0.6650182733E+00    0.4233284831E-04    0.4269203373E-02
    0.4500000000E+02    0.1961029524E-04    0.1902927662E-05    0.6663331609E+00    0.4412289597E-04    0.4269431087E-02
    0.4700000000E+02    0.2011902401E-04    0.1953746535E-05    0.6675407004E+00    0.4590757527E-04    0.4269634832E-02
    0.4900000000E+02    0.2062984159E-04    0.2004766223E-05    0.6686535216E+00    0.4768722088E-04    0.4269817103E-02
    0.1000000000E+02    0.1138778211E-04    0.1083054767E-05    0.5800294484E+00    0.1141637339E-04    0.4253549278E-02
    0.3000000000E+02    0.1588911653E-04    0.1530978373E-05    0.6524647241E+00    0.3053676404E-04    0.4266873632E-02
    0.5000000000E+02    0.2088597170E-04    0.2030345209E-05    0.6691778284E+00    0.4857525235E-04    0.4269900867E-02
    0.7000000000E+02    0.2608105752E-04    0.2548794830E-05    0.6766052314E+00    0.6613329434E-04    0.4270839424E-02
    0.9000000000E+02    0.3135739816E-04    0.3074798190E-05    0.6808030057E+00    0.8341831249E-04    0.4270934786E-02
    0.1100000000E+03    0.3667440697E-04    0.3604471231E-05    0.6835013712E+00    0.1005353902E-03    0.4270586414E-02
    0.1300000000E+03    0.4201637328E-04    0.4136356221E-05    0.6853819073E+00    0.1175477247E-03    0.4269967706E-02
    0.1500000000E+03    0.4737710357E-04    0.4669906636E-05    0.6867674587E+00    0.1344973948E-03    0.4269168007E-02
    0.1700000000E+03    0.5275447496E-04    0.5204958489E-05    0.6878307057E+00    0.1514144093E-03    0.4268238780E-02
    0.1900000000E+03    0.5814823002E-04    0.5741519200E-05    0.6886723760E+00    0.1683212658E-03    0.4267212094E-02
    0.2100000000E+03    0.6355899538E-04    0.6279674922E-05    0.6893551857E+00    0.1852354913E-03    0.4266109126E-02
    0.2300000000E+03    0.6898781476E-04    0.6819547111E-05    0.6899202234E+00    0.2021711651E-03    0.4264944507E-02
    0.2500000000E+03    0.7443591653E-04    0.7361271315E-05    0.6903955334E+00    0.2191398856E-03    0.4263728710E-02
    0.2700000000E+03    0.7990459482E-04    0.7904986583E-05    0.6908009110E+00    0.2361514124E-03    0.4262469448E-02
    0.2900000000E+03    0.8539514839E-04    0.8450830213E-05    0.6911507279E+00    0.2532141080E-03    0.4261172539E-02
    0.3100000000E+03    0.9090884969E-04    0.8998935248E-05    0.6914556705E+00    0.2703352523E-03    0.4259842458E-02
    0.3300000000E+03    0.9644693034E-04    0.9549429426E-05    0.6917238500E+00    0.2875212715E-03    0.4258482705E-02
    0.3500000000E+03    0.1020105753E-03    0.1010243490E-04    0.6919615341E+00    0.3047779085E-03    0.4257096053E-02
    0.3700000000E+03    0.1076009222E-03    0.1065806834E-04    0.6921736422E+00    0.3221103528E-03    0.4255684727E-02
    0.3900000000E+03    0.1132190625E-03    0.1121644128E-04    0.6923640899E+00    0.3395233409E-03    0.4254250530E-02
    0.4100000000E+03    0.1188660450E-03    0.1177766051E-04    0.6925360323E+00    0.3570212347E-03    0.4252794932E-02
    0.4300000000E+03    0.1245428790E-03    0.1234182852E-04    0.6926920403E+00    0.3746080840E-03    0.4251319145E-02
    0.4500000000E+03    0.1302505379E-03    0.1290904392E-04    0.6928342295E+00    0.3922876773E-03    0.4249824168E-02
    0.4700000000E+03    0.1359899631E-03    0.1347940189E-04    0.6929643571E+00    0.4100635824E-03    0.4248310832E-02
    0.4900000000E+03    0.1417620673E-03    0.1405299451E-04    0.6930838945E+00    0.4279391801E-03    0.4246779827E-02
    0.1000000000E+03    0.3401212714E-04    0.3339298532E-05    0.6822844864E+00    0.9199324283E-04    0.4270802371E-02
    0.3000000000E+03    0.8814902754E-04    0.8724591941E-05    0.6913082512E+00    0.2617669546E-03    0.4260511407E-02
    0.5000000000E+03    0.1446606521E-03    0.1434103186E-04    0.6931400875E+00    0.4369153760E-03    0.4246007883E-02
    0.7000000000E+03    0.2045543205E-03    0.2029233187E-04    0.6939274090E+00    0.6223982338E-03    0.4229737734E-02
    0.9000000000E+03    0.2686399893E-03    0.2665971583E-04    0.6943651669E+00    0.8210002680E-03    0.4211970759E-02
    0.1100000000E+04    0.3376762154E-03    0.3351882743E-04    0.6946437565E+00    0.1035167113E-02    0.4192677119E-02
    0.1300000000E+04    0.4124587604E-03    0.4094886960E-04    0.6948365659E+00    0.1267422155E-02    0.4171726355E-02
    0.1500000000E+04    0.4938712137E-03    0.4903772208E-04    0.6949778849E+00    0.1520555368E-02    0.4148930057E-02
    0.1700000000E+04    0.5829252229E-03    0.5788597010E-04    0.6950858808E+00    0.1797759028E-02    0.4124050982E-02
    0.1900000000E+04    0.6808009155E-03    0.6761093509E-04    0.6951710764E+00    0.2102758877E-02    0.4096801092E-02
    0.2100000000E+04    0.7888930309E-03    0.7835126689E-04    0.6952399875E+00    0.2439961951E-02    0.4066834120E-02
    0.2300000000E+04    0.9088669775E-03    0.9027252006E-04    0.6952968644E+00    0.2814635637E-02    0.4033734029E-02
    0.2500000000E+04    0.1042729132E-02    0.1035741454E-03    0.6953445974E+00    0.3233132221E-02    0.3996999341E-02
    0.2700000000E+04    0.1192916531E-02    0.1184984093E-03    0.6953852205E+00    0.3703175678E-02    0.3956022599E-02
    0.2900000000E+04    0.1362412491E-02    0.1353418916E-03    0.6954202065E+00    0.4234231940E-02    0.3910063780E-02
    0.3100000000E+04    0.1554896555E-02    0.1544703973E-03    0.6954506479E+00    0.4837990010E-02    0.3858216012E-02
    0.3300000000E+04    0.1774939431E-02    0.1763383442E-03    0.6954773724E+00    0.5528988875E-02    0.3799361559E-02
    0.3500000000E+04    0.2028255930E-02    0.2015139208E-03    0.6955010183E+00    0.6325433255E-02    0.3732115751E-02
    0.3700000000E+04    0.2322030353E-02    0.2307114535E-03    0.6955220860E+00    0.7250246874E-02    0.3654756683E-02
    0.3900000000E+04    0.2665326925E-02    0.2648322406E-03    0.6955409730E+00    0.8332407723E-02    0.3565139766E-02
    0.4100000000E+04    0.3069587046E-02    0.3050140347E-03    0.6955579992E+00    0.9608578152E-02    0.3460600150E-02
    0.4300000000E+04    0.3549183061E-02    0.3526861745E-03    0.6955734249E+00    0.1112494478E-01    0.3337855773E-02
    0.4500000000E+04    0.4121919889E-02    0.4096195771E-03    0.6955874643E+00    0.1293893976E-01    0.3192945468E-02
    0.4700000000E+04    0.4809205219E-02    0.4779438481E-03    0.6956002947E+00    0.1511997861E-01    0.3021280560E-02
    0.4900000000E+04    0.5635278846E-02    0.5600709446E-03    0.6956120648E+00    0.1774730087E-01    0.2817968131E-02
    0.1000000000E+04    0.3024911021E-03    0.3002300820E-04    0.6945183973E+00    0.9259848634E-03    0.4202521334E-02
    0.3000000000E+04    0.1455518874E-02    0.1445944554E-03    0.6954359383E+00    0.4526189881E-02    0.3884940338E-02
    0.5000000000E+04    0.6108077769E-02    0.6070786693E-03    0.6956175921E+00    0.1925384907E-01    0.2703028834E-02
    0.7000000000E+04    0.1837126417E-01    0.1827616490E-02    0.6956945644E+00    0.5966529027E-01    0.2743283816E-03
    0.9000000000E+04    0.2245912943E-01    0.2236935501E-02    0.6957368236E+00    0.7576451122E-01    0.1501173298E-03
    0.1100000000E+05    0.2543564210E-01    0.2536349660E-02    0.6957633894E+00    0.8904451234E-01    0.1509309980E-03
    0.1300000000E+05    0.2794009081E-01    0.2789262013E-02    0.6957815521E+00    0.1013985161E+00    0.1523339438E-03
    0.1500000000E+05    0.3005368279E-01    0.3003613216E-02    0.6957947014E+00    0.1129590927E+00    0.1535515007E-03
    0.1700000000E+05    0.3183831799E-01    0.3185454854E-02    0.6958046255E+00    0.1238234846E+00    0.1546242954E-03
    0.1900000000E+05    0.3334431643E-01    0.3339710780E-02    0.6958123560E+00    0.1340725590E+00    0.1555838027E-03
    0.2100000000E+05    0.3461295965E-01    0.3470424217E-02    0.6958185288E+00    0.1437742329E+00    0.1564521966E-03
    0.2300000000E+05    0.3567837924E-01    0.3580941377E-02    0.6958235573E+00    0.1529859968E+00    0.1572456756E-03
    0.2500000000E+05    0.3656899743E-01    0.3674051579E-02    0.6958277214E+00    0.1617568693E+00    0.1579764399E-03
    0.2700000000E+05    0.3730863805E-01    0.3752095339E-02    0.6958312174E+00    0.1701289255E+00    0.1586539122E-03
    0.2900000000E+05    0.3791739168E-01    0.3817048587E-02    0.6958341869E+00    0.1781385064E+00    0.1592855241E-03
    0.3100000000E+05    0.3841229569E-01    0.3870588881E-02    0.6958367343E+00    0.1858171821E+00    0.1598772423E-03
    0.3300000000E+05    0.3880787318E-01    0.3914147915E-02    0.6958389387E+00    0.1931925269E+00    0.1604339312E-03
    0.3500000000E+05    0.3911656361E-01    0.3948953483E-02    0.6958408608E+00    0.2002887479E+00    0.1609596098E-03
    0.3700000000E+05    0.3934906932E-01    0.3976063271E-02    0.6958425478E+00    0.2071271965E+00    0.1614576376E-03
    0.3900000000E+05    0.3951463640E-01    0.3996392251E-02    0.6958440372E+00    0.2137267906E+00    0.1619308518E-03
    0.4100000000E+05    0.3962128375E-01    0.4010735039E-02    0.6958453590E+00    0.2201043625E+00    0.1623816708E-03
    0.4300000000E+05    0.3967599101E-01    0.4019784248E-02    0.6958465377E+00    0.2262749489E+00    0.1628121732E-03
    0.4500000000E+05    0.3968485370E-01    0.4024145639E-02    0.6958475932E+00    0.2322520330E+00    0.1632241584E-03
    0.4700000000E+05    0.3965321193E-01    0.4024350707E-02    0.6958485418E+00    0.2380477487E+00    0.1636191952E-03
    0.4900000000E+05    0.3958575771E-01    0.4020867171E-02    0.6958493975E+00    0.2436730527E+00    0.1639986594E-03
    0.1000000000E+05    0.2401321006E-01    0.2393123339E-02    0.6957514753E+00    0.8253297325E-01    0.1502001909E-03
    0.3000000000E+05    0.3817811377E-01    0.3845150647E-02    0.6958355079E+00    0.1820173983E+00    0.1595860435E-03
    0.5000000000E+05    0.3953991242E-01    0.4017873098E-02    0.6958497940E+00    0.2464249389E+00    0.1641829367E-03
    0.7000000000E+05    0.3752142380E-01    0.3842343257E-02    0.6958548594E+00    0.2944978776E+00    0.1672825185E-03
    0.9000000000E+05    0.3456780879E-01    0.3564238692E-02    0.6958570816E+00    0.3327903443E+00    0.1696356019E-03
    0.1100000000E+06    0.3148261127E-01    0.3266232504E-02    0.6958581153E+00    0.3643846059E+00    0.1715381832E-03
    0.1300000000E+06    0.2855324899E-01    0.2979015834E-02    0.6958585651E+00    0.3910228147E+00    0.1731382732E-03
    0.1500000000E+06    0.2587678679E-01    0.2713743378E-02    0.6958586984E+00    0.4138170329E+00    0.1745207754E-03
    0.1700000000E+06    0.2347398843E-01    0.2473531074E-02    0.6958586488E+00    0.4335376323E+00    0.1757390149E-03
    0.1900000000E+06    0.2133441378E-01    0.2258073128E-02    0.6958584893E+00    0.4507487470E+00    0.1768287228E-03
    0.2100000000E+06    0.1943565869E-01    0.2065651647E-02    0.6958582621E+00    0.4658796050E+00    0.1778150355E-03
    0.2300000000E+06    0.1775189037E-01    0.1894052826E-02    0.6958579930E+00    0.4792657527E+00    0.1787163208E-03
    0.2500000000E+06    0.1625763739E-01    0.1740990516E-02    0.6958576982E+00    0.4911747476E+00    0.1795464162E-03
    0.2700000000E+06    0.1492938163E-01    0.1604296849E-02    0.6958573882E+00    0.5018231691E+00    0.1803160108E-03
    0.2900000000E+06    0.1374611064E-01    0.1481999656E-02    0.6958570700E+00    0.5113884274E+00    0.1810335365E-03
    0.3100000000E+06    0.1268938101E-01    0.1372344479E-02    0.6958567483E+00    0.5200172696E+00    0.1817057642E-03
    0.3300000000E+06    0.1174316188E-01    0.1273790053E-02    0.6958564263E+00    0.5278320852E+00    0.1823382144E-03
    0.3500000000E+06    0.1089359168E-01    0.1184991920E-02    0.6958561062E+00    0.5349356839E+00    0.1829354489E-03
    0.3700000000E+06    0.1012871347E-01    0.1104781652E-02    0.6958557894E+00    0.5414149806E+00    0.1835012810E-03
    0.3900000000E+06    0.9438219894E-02    0.1032145433E-02    0.6958554769E+00    0.5473438790E+00    0.1840389317E-03
    0.4100000000E+06    0.8813221140E-02    0.9662038106E-03    0.6958551695E+00    0.5527855526E+00    0.1845511465E-03
    0.4300000000E+06    0.8246040236E-02    0.9061933669E-03    0.6958548675E+00    0.5577942686E+00    0.1850402852E-03
    0.4500000000E+06    0.7730035833E-02    0.8514505463E-03    0.6958545711E+00    0.5624168570E+00    0.1855083911E-03
    0.4700000000E+06    0.7259450366E-02    0.8013976028E-03    0.6958542806E+00    0.5666939043E+00    0.1859572455E-03
    0.4900000000E+06    0.6829280830E-02    0.7555304984E-03    0.6958539959E+00    0.5706607289E+00    0.1863884107E-03
    0.1000000000E+06    0.3301705907E-01    0.3415129285E-02    0.6958576972E+00    0.3492959504E+00    0.1706318967E-03
    0.3000000000E+06    0.1320298399E-01    0.1425692984E-02    0.6958569094E+00    0.5158117425E+00    0.1813749421E-03
    0.5000000000E+06    0.6627967595E-02    0.7340266962E-03    0.6958538557E+00    0.5725376044E+00    0.1865977968E-03
    0.7000000000E+06    0.3919721302E-02    0.4419263679E-03    0.6958513360E+00    0.5995331528E+00    0.1901198532E-03
    0.9000000000E+06    0.2573534208E-02    0.2941862197E-03    0.6958492591E+00    0.6149307525E+00    0.1927937968E-03
    0.1100000000E+07    0.1813800845E-02    0.2096840576E-03    0.6958475025E+00    0.6247676814E+00    0.1949558685E-03
    0.1300000000E+07    0.1345026423E-02    0.1569725342E-03    0.6958459826E+00    0.6315536406E+00    0.1967742237E-03
    0.1500000000E+07    0.1036163321E-02    0.1219211306E-03    0.6958446433E+00    0.6364999054E+00    0.1983453284E-03
    0.1700000000E+07    0.8221994823E-03    0.9744511864E-04    0.6958434462E+00    0.6402570622E+00    0.1997297727E-03
    0.1900000000E+07    0.6680072209E-03    0.7968217258E-04    0.6958423637E+00    0.6432037029E+00    0.2009681575E-03
    0.2100000000E+07    0.5532902680E-03    0.6638343779E-04    0.6958413753E+00    0.6455742758E+00    0.2020890453E-03
    0.2300000000E+07    0.4656717943E-03    0.5616819695E-04    0.6958404659E+00    0.6475213492E+00    0.2031133080E-03
    0.2500000000E+07    0.3972622910E-03    0.4815095618E-04    0.6958396234E+00    0.6491483060E+00    0.2040566698E-03
    0.2700000000E+07    0.3428428431E-03    0.4174272751E-04    0.6958388386E+00    0.6505275941E+00    0.2049312776E-03
    0.2900000000E+07    0.2988509233E-03    0.3653942910E-04    0.6958381038E+00    0.6517114418E+00    0.2057467132E-03
    0.3100000000E+07    0.2627881572E-03    0.3225636517E-04    0.6958374130E+00    0.6527384237E+00    0.2065106707E-03
    0.3300000000E+07    0.2328609196E-03    0.2868826789E-04    0.6958367611E+00    0.6536376320E+00    0.2072294240E-03
    0.3500000000E+07    0.2077548284E-03    0.2568411194E-04    0.6958361438E+00    0.6544314120E+00    0.2079081568E-03
    0.3700000000E+07    0.1864890677E-03    0.2313077602E-04    0.6958355576E+00    0.6551372040E+00    0.2085512026E-03
    0.3900000000E+07    0.1683198288E-03    0.2094217065E-04    0.6958349993E+00    0.6557688155E+00    0.2091622219E-03
    0.4100000000E+07    0.1526748278E-03    0.1905183803E-04    0.6958344664E+00    0.6563373175E+00    0.2097443347E-03
    0.4300000000E+07    0.1391079829E-03    0.1740781229E-04    0.6958339567E+00    0.6568516888E+00    0.2103002227E-03
    0.4500000000E+07    0.1272674617E-03    0.1596898415E-04    0.6958334681E+00    0.6573192865E+00    0.2108322081E-03
    0.4700000000E+07    0.1168727765E-03    0.1470248696E-04    0.6958329989E+00    0.6577461956E+00    0.2113423151E-03
    0.4900000000E+07    0.1076981166E-03    0.1358178884E-04    0.6958325476E+00    0.6581374920E+00    0.2118323191E-03
    0.1000000000E+07    0.2144632084E-02    0.2466039069E-03    0.6958483468E+00    0.6203427638E+00    0.1939259693E-03
    0.3000000000E+07    0.2799538836E-03    0.3429720942E-04    0.6958377533E+00    0.6522425379E+00    0.2061347057E-03
    0.5000000000E+07    0.1035095863E-03    0.1306920024E-04    0.6958323283E+00    0.6583211460E+00    0.2120702791E-03
    0.7000000000E+07    0.5331171472E-04    0.6866807135E-05    0.6958286212E+00    0.6608745419E+00    0.2160729777E-03
    0.9000000000E+07    0.3238653979E-04    0.4234208180E-05    0.6958257888E+00    0.6622781020E+00    0.2191118282E-03
    0.1100000000E+08    0.2172516696E-04    0.2874330806E-05    0.6958234901E+00    0.6631654104E+00    0.2215689534E-03
    0.1300000000E+08    0.1557081320E-04    0.2080547877E-05    0.6958215518E+00    0.6637769495E+00    0.2236354557E-03
    0.1500000000E+08    0.1170110580E-04    0.1576745419E-05    0.6958198740E+00    0.6642239542E+00    0.2254209654E-03
    0.1700000000E+08    0.9111495605E-05    0.1236867828E-05    0.6958183934E+00    0.6645649387E+00    0.2269943411E-03
    0.1900000000E+08    0.7294266439E-05    0.9966630740E-06    0.6958170675E+00    0.6648336167E+00    0.2284017244E-03
    0.2100000000E+08    0.5970452840E-05    0.8205664447E-06    0.6958158663E+00    0.6650507795E+00    0.2296755759E-03
    0.2300000000E+08    0.4976482854E-05    0.6875876272E-06    0.6958147678E+00    0.6652299454E+00    0.2308396158E-03
    0.2500000000E+08    0.4211317272E-05    0.5846843124E-06    0.6958137554E+00    0.6653802838E+00    0.2319117143E-03
    0.2700000000E+08    0.3609819661E-05    0.5034035246E-06    0.6958128162E+00    0.6655082337E+00    0.2329056758E-03
