  Pressure (Pa) 22mC5-500 (mol/kg) 23mC5-500 (mol/kg) 24mC5-500 (mol/kg) 3mC6-500 (mol/kg) C7-500 (mol/kg)
    0.1000000000E+01    0.6561926616E-05    0.5655482768E-05    0.1514069530E+00    0.2040608067E-05    0.4146970718E-02
    0.3000000000E+01    0.1281440832E-04    0.1101068959E-04    0.3165050442E+00    0.5031780931E-05    0.4173695287E-02
    0.5000000000E+01    0.1573344800E-04    0.1349513399E-04    0.4047828757E+00    0.7739047426E-05    0.4181667957E-02
    0.7000000000E+01    0.1740912704E-04    0.1491765395E-04    0.4597380688E+00    0.1031055350E-04    0.4185824473E-02
    0.9000000000E+01    0.1852737013E-04    0.1586851569E-04    0.4972428820E+00    0.1279533012E-04    0.4188382298E-02
    0.1100000000E+02    0.1936722838E-04    0.1658640044E-04    0.5244703494E+00    0.1521767681E-04    0.4190090668E-02
    0.1300000000E+02    0.2005845052E-04    0.1718155283E-04    0.5451359006E+00    0.1759196436E-04    0.4191286957E-02
    0.1500000000E+02    0.2066711864E-04    0.1770970942E-04    0.5613566400E+00    0.1992761748E-04    0.4192148589E-02
    0.1700000000E+02    0.2122915396E-04    0.1820091639E-04    0.5744273626E+00    0.2223125639E-04    0.4192778685E-02
    0.1900000000E+02    0.2176503371E-04    0.1867213764E-04    0.5851844636E+00    0.2450776552E-04    0.4193241598E-02
    0.2100000000E+02    0.2228684179E-04    0.1913327002E-04    0.5941923047E+00    0.2676088444E-04    0.4193579692E-02
    0.2300000000E+02    0.2280188285E-04    0.1959021310E-04    0.6018454951E+00    0.2899356015E-04    0.4193822056E-02
    0.2500000000E+02    0.2331463777E-04    0.2004652231E-04    0.6084282523E+00    0.3120816959E-04    0.4193989355E-02
    0.2700000000E+02    0.2382786934E-04    0.2050433885E-04    0.6141504817E+00    0.3340666678E-04    0.4194096685E-02
    0.2900000000E+02    0.2434327054E-04    0.2096493195E-04    0.6191705735E+00    0.3559068395E-04    0.4194155345E-02
    0.3100000000E+02    0.2486185635E-04    0.2142902458E-04    0.6236102932E+00    0.3776160305E-04    0.4194173959E-02
    0.3300000000E+02    0.2538420656E-04    0.2189699396E-04    0.6275647889E+00    0.3992060787E-04    0.4194159230E-02
    0.3500000000E+02    0.2591061954E-04    0.2236899755E-04    0.6311094877E+00    0.4206872276E-04    0.4194116445E-02
    0.3700000000E+02    0.2644121119E-04    0.2284505350E-04    0.6343049532E+00    0.4420684197E-04    0.4194049835E-02
    0.3900000000E+02    0.2697597969E-04    0.2332509274E-04    0.6372003751E+00    0.4633575237E-04    0.4193962822E-02
    0.4100000000E+02    0.2751484825E-04    0.2380899293E-04    0.6398361192E+00    0.4845615118E-04    0.4193858210E-02
    0.4300000000E+02    0.2805769355E-04    0.2429660084E-04    0.6422456214E+00    0.5056866007E-04    0.4193738312E-02
    0.4500000000E+02    0.2860436481E-04    0.2478774704E-04    0.6444568134E+00    0.5267383650E-04    0.4193605057E-02
    0.4700000000E+02    0.2915469659E-04    0.2528225556E-04    0.6464932108E+00    0.5477218290E-04    0.4193460066E-02
    0.4900000000E+02    0.2970851731E-04    0.2577995020E-04    0.6483747523E+00    0.5686415426E-04    0.4193304710E-02
    0.1000000000E+02    0.1897188431E-04    0.1624788552E-04    0.5118578329E+00    0.1401325592E-04    0.4189316209E-02
    0.3000000000E+02    0.2460212106E-04    0.2119651090E-04    0.6214565021E+00    0.3667770263E-04    0.4194169201E-02
    0.5000000000E+02    0.2998668216E-04    0.2602993820E-04    0.6492628693E+00    0.5790788006E-04    0.4193223517E-02
    0.7000000000E+02    0.3569443068E-04    0.3115929653E-04    0.6619572932E+00    0.7853125836E-04    0.4191264999E-02
    0.9000000000E+02    0.4159855755E-04    0.3646200763E-04    0.6692269491E+00    0.9882839782E-04    0.4188955655E-02
    0.1100000000E+03    0.4762805866E-04    0.4187357794E-04    0.6739369975E+00    0.1189402844E-03    0.4186486777E-02
    0.1300000000E+03    0.5374673024E-04    0.4736192969E-04    0.6772369370E+00    0.1389513722E-03    0.4183932632E-02
    0.1500000000E+03    0.5993549898E-04    0.5291047887E-04    0.6796775748E+00    0.1589178417E-03    0.4181327144E-02
    0.1700000000E+03    0.6618404587E-04    0.5851042612E-04    0.6815558937E+00    0.1788798242E-03    0.4178687426E-02
    0.1900000000E+03    0.7248678084E-04    0.6415712327E-04    0.6830461589E+00    0.1988675270E-03    0.4176022652E-02
    0.2100000000E+03    0.7884079740E-04    0.6984825106E-04    0.6842573694E+00    0.2189046291E-03    0.4173337900E-02
    0.2300000000E+03    0.8524477498E-04    0.7558285129E-04    0.6852611968E+00    0.2390103094E-03    0.4170635996E-02
    0.2500000000E+03    0.9169836136E-04    0.8136078725E-04    0.6861067039E+00    0.2592005291E-03    0.4167918456E-02
    0.2700000000E+03    0.9820181125E-04    0.8718243062E-04    0.6868286082E+00    0.2794888801E-03    0.4165186018E-02
    0.2900000000E+03    0.1047557677E-03    0.9304847380E-04    0.6874521678E+00    0.2998871687E-03    0.4162438930E-02
    0.3100000000E+03    0.1113611266E-03    0.9895981439E-04    0.6879961976E+00    0.3204058281E-03    0.4159677139E-02
    0.3300000000E+03    0.1180189504E-03    0.1049174826E-03    0.6884750006E+00    0.3410542197E-03    0.4156900391E-02
    0.3500000000E+03    0.1247304123E-03    0.1109225951E-03    0.6888996442E+00    0.3618408560E-03    0.4154108306E-02
    0.3700000000E+03    0.1314967607E-03    0.1169763246E-03    0.6892788257E+00    0.3827735710E-03    0.4151300423E-02
    0.3900000000E+03    0.1383192946E-03    0.1230798812E-03    0.6896194749E+00    0.4038596510E-03    0.4148476224E-02
    0.4100000000E+03    0.1451993483E-03    0.1292344994E-03    0.6899271813E+00    0.4251059380E-03    0.4145635159E-02
    0.4300000000E+03    0.1521382808E-03    0.1354414301E-03    0.6902065031E+00    0.4465189110E-03    0.4142776653E-02
    0.4500000000E+03    0.1591374692E-03    0.1417019359E-03    0.6904611947E+00    0.4681047524E-03    0.4139900121E-02
    0.4700000000E+03    0.1661983047E-03    0.1480172876E-03    0.6906943762E+00    0.4898694015E-03    0.4137004967E-02
    0.4900000000E+03    0.1733221898E-03    0.1543887630E-03    0.6909086622E+00    0.5118185992E-03    0.4134090593E-02
    0.1000000000E+03    0.4460044587E-04    0.3915668861E-04    0.6718092766E+00    0.1089013449E-03    0.4187735107E-02
    0.3000000000E+03    0.1080519586E-03    0.9599841999E-04    0.6877331417E+00    0.3101308448E-03    0.4161059885E-02
    0.5000000000E+03    0.1769082169E-03    0.1575959481E-03    0.6910094229E+00    0.5228641527E-03    0.4132626010E-02
    0.7000000000E+03    0.2522910334E-03    0.2250050245E-03    0.6924231777E+00    0.7547755098E-03    0.4102178063E-02
    0.9000000000E+03    0.3356872511E-03    0.2995679229E-03    0.6932110971E+00    0.1011174967E-02    0.4069114759E-02
    0.1100000000E+04    0.4287769790E-03    0.3827918104E-03    0.6937134195E+00    0.1297506490E-02    0.4032803703E-02
    0.1300000000E+04    0.5335498981E-03    0.4764581842E-03    0.6940615906E+00    0.1620059100E-02    0.3992533527E-02
    0.1500000000E+04    0.6524359008E-03    0.5827412180E-03    0.6943171220E+00    0.1986457998E-02    0.3947463500E-02
    0.1700000000E+04    0.7884628507E-03    0.7043494225E-03    0.6945126406E+00    0.2406187223E-02    0.3896569412E-02
    0.1900000000E+04    0.9454611600E-03    0.8447088847E-03    0.6946670621E+00    0.2891245416E-02    0.3838578172E-02
    0.2100000000E+04    0.1128337895E-02    0.1008208604E-02    0.6947921087E+00    0.3457017597E-02    0.3771883902E-02
    0.2300000000E+04    0.1343448619E-02    0.1200533240E-02    0.6948954317E+00    0.4123457357E-02    0.3694437944E-02
    0.2500000000E+04    0.1599101306E-02    0.1429114060E-02    0.6949822376E+00    0.4916693071E-02    0.3603605022E-02
    0.2700000000E+04    0.1906228185E-02    0.1703730223E-02    0.6950561922E+00    0.5871179429E-02    0.3495980151E-02
    0.2900000000E+04    0.2279243881E-02    0.2037276982E-02    0.6951199515E+00    0.7032466937E-02    0.3367171235E-02
    0.3100000000E+04    0.2737034914E-02    0.2446651889E-02    0.6951754866E+00    0.8460442650E-02    0.3211583471E-02
    0.3300000000E+04    0.3303809593E-02    0.2953517011E-02    0.6952242915E+00    0.1023223377E-01    0.3022321530E-02
    0.3500000000E+04    0.4009002958E-02    0.3584217385E-02    0.6952675189E+00    0.1244230539E-01    0.2791505323E-02
    0.3700000000E+04    0.4884331537E-02    0.4367152084E-02    0.6953060725E+00    0.1519382156E-01    0.2511630644E-02
    0.3900000000E+04    0.5954510400E-02    0.5324477964E-02    0.6953406709E+00    0.1857024819E-01    0.2179003187E-02
    0.4100000000E+04    0.7218053632E-02    0.6454940941E-02    0.6953718926E+00    0.2257548755E-01    0.1799990970E-02
    0.4300000000E+04    0.8622031175E-02    0.7711288777E-02    0.6954002084E+00    0.2705356329E-01    0.1398007811E-02
    0.4500000000E+04    0.1005342112E-01    0.8992504933E-02    0.6954260056E+00    0.3165788963E-01    0.1013400158E-02
    0.4700000000E+04    0.1137595159E-01    0.1017672062E-01    0.6954496055E+00    0.3596240752E-01    0.6885374633E-03
    0.4900000000E+04    0.1249629643E-01    0.1118041239E-01    0.6954712772E+00    0.3966839974E-01    0.4466505057E-03
    0.1000000000E+04    0.3809047715E-03    0.3399936462E-03    0.6934872869E+00    0.1150231886E-02    0.4051407218E-02
    0.3000000000E+04    0.2496160795E-02    0.2231249646E-02    0.6951486444E+00    0.7708726813E-02    0.3293125778E-02
    0.5000000000E+04    0.1297261934E-01    0.1160735395E-01    0.6954814622E+00    0.4126883951E-01    0.3567189913E-03
    0.7000000000E+04    0.1768096860E-01    0.1584220233E-01    0.6956239803E+00    0.5881379784E-01    0.5219992445E-04
    0.9000000000E+04    0.2071544603E-01    0.1858628590E-01    0.6957030507E+00    0.7194818722E-01    0.5200724081E-04
    0.1100000000E+05    0.2319519000E-01    0.2083846217E-01    0.6957532888E+00    0.8396859600E-01    0.5258928376E-04
    0.1300000000E+05    0.2523522328E-01    0.2270003598E-01    0.6957880091E+00    0.9506868714E-01    0.5308110850E-04
    0.1500000000E+05    0.2691995858E-01    0.2424538550E-01    0.6958134243E+00    0.1053899873E+00    0.5350590062E-04
    0.1700000000E+05    0.2831443668E-01    0.2553188000E-01    0.6958328227E+00    0.1150446311E+00    0.5388011522E-04
    0.1900000000E+05    0.2946949626E-01    0.2660441084E-01    0.6958481072E+00    0.1241227416E+00    0.5421477596E-04
    0.2100000000E+05    0.3042538042E-01    0.2749855366E-01    0.6958604555E+00    0.1326976558E+00    0.5451763181E-04
    0.2300000000E+05    0.3121430822E-01    0.2824282416E-01    0.6958706355E+00    0.1408297218E+00    0.5479434164E-04
    0.2500000000E+05    0.3186233949E-01    0.2886031481E-01    0.6958791687E+00    0.1485691027E+00    0.5504916656E-04
    0.2700000000E+05    0.3239074827E-01    0.2936990094E-01    0.6958864224E+00    0.1559578797E+00    0.5528539681E-04
    0.2900000000E+05    0.3281704849E-01    0.2978714188E-01    0.6958926621E+00    0.1630316510E+00    0.5550562701E-04
    0.3100000000E+05    0.3315576969E-01    0.3012496299E-01    0.6958980848E+00    0.1698207629E+00    0.5571194000E-04
    0.3300000000E+05    0.3341905069E-01    0.3039417782E-01    0.6959028397E+00    0.1763512675E+00    0.5590603366E-04
    0.3500000000E+05    0.3361709867E-01    0.3060389214E-01    0.6959070418E+00    0.1826456771E+00    0.5608931061E-04
    0.3700000000E+05    0.3375854776E-01    0.3076181981E-01    0.6959107811E+00    0.1887235633E+00    0.5626294320E-04
    0.3900000000E+05    0.3385074167E-01    0.3087453178E-01    0.6959141293E+00    0.1946020368E+00    0.5642792145E-04
    0.4100000000E+05    0.3389995839E-01    0.3094765427E-01    0.6959171439E+00    0.2002961360E+00    0.5658508918E-04
    0.4300000000E+05    0.3391159016E-01    0.3098602753E-01    0.6959198717E+00    0.2058191425E+00    0.5673517155E-04
    0.4500000000E+05    0.3389028869E-01    0.3099383409E-01    0.6959223512E+00    0.2111828408E+00    0.5687879638E-04
    0.4700000000E+05    0.3384008325E-01    0.3097470306E-01    0.6959246143E+00    0.2163977323E+00    0.5701651090E-04
    0.4900000000E+05    0.3376447712E-01    0.3093179545E-01    0.6959266877E+00    0.2214732132E+00    0.5714879506E-04
    0.1000000000E+05    0.2201650217E-01    0.1976667699E-01    0.6957306919E+00    0.7808369475E-01    0.5231078899E-04
    0.3000000000E+05    0.3299654770E-01    0.2996525980E-01    0.6958954653E+00    0.1664600702E+00    0.5561040921E-04
    0.5000000000E+05    0.3371811960E-01    0.3090230278E-01    0.6959276605E+00    0.2239613459E+00    0.5721303499E-04
    0.7000000000E+05    0.3202426742E-01    0.2957853177E-01    0.6959411235E+00    0.2680651464E+00    0.5829352012E-04
    0.9000000000E+05    0.2969053353E-01    0.2760977917E-01    0.6959484119E+00    0.3042194221E+00    0.5911373996E-04
    0.1100000000E+06    0.2727046374E-01    0.2551346880E-01    0.6959529257E+00    0.3348547436E+00    0.5977690826E-04
    0.1300000000E+06    0.2496005082E-01    0.2348049090E-01    0.6959559632E+00    0.3613112464E+00    0.6033462969E-04
    0.1500000000E+06    0.2282745925E-01    0.2158257580E-01    0.6959581256E+00    0.3844389937E+00    0.6081650389E-04
    0.1700000000E+06    0.2088974063E-01    0.1984246388E-01    0.6959597289E+00    0.4048311828E+00    0.6124112048E-04
    0.1900000000E+06    0.1914250788E-01    0.1826149390E-01    0.6959609544E+00    0.4229295596E+00    0.6162093526E-04
    0.2100000000E+06    0.1757258238E-01    0.1683160611E-01    0.6959619137E+00    0.4390779398E+00    0.6196471043E-04
    0.2300000000E+06    0.1616371610E-01    0.1554092210E-01    0.6959626789E+00    0.4535521156E+00    0.6227884860E-04
    0.2500000000E+06    0.1489924871E-01    0.1437643519E-01    0.6959632985E+00    0.4665779968E+00    0.6256817315E-04
    0.2700000000E+06    0.1376332361E-01    0.1332531507E-01    0.6959638065E+00    0.4783434122E+00    0.6283641000E-04
    0.2900000000E+06    0.1274139992E-01    0.1237551775E-01    0.6959642273E+00    0.4890062514E+00    0.6308649821E-04
    0.3100000000E+06    0.1182041399E-01    0.1151603788E-01    0.6959645787E+00    0.4987003557E+00    0.6332079783E-04
    0.3300000000E+06    0.1098876789E-01    0.1073697572E-01    0.6959648742E+00    0.5075399408E+00    0.6354123315E-04
    0.3500000000E+06    0.1023623633E-01    0.1002950965E-01    0.6959651240E+00    0.5156230155E+00    0.6374939414E-04
    0.3700000000E+06    0.9553839697E-02    0.9385823124E-02    0.6959653363E+00    0.5230340818E+00    0.6394660997E-04
    0.3900000000E+06    0.8933708214E-02    0.8799012832E-02    0.6959655173E+00    0.5298463027E+00    0.6413400331E-04
    0.4100000000E+06    0.8368949904E-02    0.8262992310E-02    0.6959656719E+00    0.5361232654E+00    0.6431253114E-04
    0.4300000000E+06    0.7853528332E-02    0.7772398595E-02    0.6959658043E+00    0.5419204293E+00    0.6448301597E-04
    0.4500000000E+06    0.7382152523E-02    0.7322505590E-02    0.6959659177E+00    0.5472863245E+00    0.6464616999E-04
    0.4700000000E+06    0.6950179556E-02    0.6909145665E-02    0.6959660148E+00    0.5522635495E+00    0.6480261404E-04
    0.4900000000E+06    0.6553529266E-02    0.6528639830E-02    0.6959660979E+00    0.5568896079E+00    0.6495289266E-04
    0.1000000000E+06    0.2847456332E-01    0.2656149776E-01    0.6959509099E+00    0.3201274735E+00    0.5946101266E-04
    0.3000000000E+06    0.1226904812E-01    0.1193513277E-01    0.6959644107E+00    0.4939668411E+00    0.6320549247E-04
    0.5000000000E+06    0.6367310493E-02    0.6349675814E-02    0.6959661348E+00    0.5590814516E+00    0.6502587225E-04
    0.7000000000E+06    0.3823606960E-02    0.3880999280E-02    0.6959664607E+00    0.5907517165E+00    0.6625345264E-04
    0.9000000000E+06    0.2530743833E-02    0.2604173350E-02    0.6959664096E+00    0.6088218890E+00    0.6718543254E-04
    0.1100000000E+07    0.1792080548E-02    0.1864812851E-02    0.6959662274E+00    0.6202935917E+00    0.6793900544E-04
    0.1300000000E+07    0.1332899088E-02    0.1400148708E-02    0.6959659965E+00    0.6281426886E+00    0.6857278002E-04
    0.1500000000E+07    0.1028887938E-02    0.1089658169E-02    0.6959657495E+00    0.6338160293E+00    0.6912037830E-04
    0.1700000000E+07    0.8175845861E-03    0.8721225903E-03    0.6959655008E+00    0.6380911782E+00    0.6960291822E-04
    0.1900000000E+07    0.6649473005E-03    0.7138741260E-03    0.6959652567E+00    0.6414194093E+00    0.7003455066E-04
    0.2100000000E+07    0.5511873291E-03    0.5951878288E-03    0.6959650203E+00    0.6440789917E+00    0.7042523081E-04
    0.2300000000E+07    0.4641834178E-03    0.5038982055E-03    0.6959647927E+00    0.6462501089E+00    0.7078223326E-04
    0.2500000000E+07    0.3961829051E-03    0.4321763882E-03    0.6959645742E+00    0.6480542155E+00    0.7111103854E-04
    0.2700000000E+07    0.3420440072E-03    0.3748011546E-03    0.6959643647E+00    0.6495759735E+00    0.7141588023E-04
    0.2900000000E+07    0.2982496033E-03    0.3281829053E-03    0.6959641639E+00    0.6508761011E+00    0.7170009799E-04
    0.3100000000E+07    0.2623290676E-03    0.2897883184E-03    0.6959639712E+00    0.6519992189E+00    0.7196637355E-04
    0.3300000000E+07    0.2325062909E-03    0.2577883313E-03    0.6959637863E+00    0.6529788182E+00    0.7221689355E-04
    0.3500000000E+07    0.2074782668E-03    0.2308356804E-03    0.6959636086E+00    0.6538405055E+00    0.7245346474E-04
    0.3700000000E+07    0.1862717551E-03    0.2079202723E-03    0.6959634376E+00    0.6546041804E+00    0.7267759754E-04
    0.3900000000E+07    0.1681481057E-03    0.1882727680E-03    0.6959632730E+00    0.6552855328E+00    0.7289056771E-04
    0.4100000000E+07    0.1525386187E-03    0.1712988579E-03    0.6959631142E+00    0.6558970939E+00    0.7309346275E-04
    0.4300000000E+07    0.1389997474E-03    0.1565335535E-03    0.6959629610E+00    0.6564489894E+00    0.7328721734E-04
    0.4500000000E+07    0.1271814818E-03    0.1436088218E-03    0.6959628130E+00    0.6569494877E+00    0.7347264083E-04
    0.4700000000E+07    0.1168046641E-03    0.1322302903E-03    0.6959626698E+00    0.6574054045E+00    0.7365043873E-04
    0.4900000000E+07    0.1076444671E-03    0.1221602312E-03    0.6959625311E+00    0.6578224076E+00    0.7382122987E-04
    0.1000000000E+07    0.2114562938E-02    0.2188677589E-02    0.6959663279E+00    0.6151442909E+00    0.6758004206E-04
    0.3000000000E+07    0.2794293141E-03    0.3080853942E-03    0.6959640666E+00    0.6514574766E+00    0.7183533181E-04
    0.5000000000E+07    0.1034621294E-03    0.1175539077E-03    0.6959624634E+00    0.6580178318E+00    0.7390417101E-04
    0.7000000000E+07    0.5331792733E-04    0.6179426610E-04    0.6959612926E+00    0.6607143180E+00    0.7529931916E-04
    0.9000000000E+07    0.3240324004E-04    0.3811422218E-04    0.6959603709E+00    0.6621790432E+00    0.7635852220E-04
    0.1100000000E+08    0.2174407876E-04    0.2587895092E-04    0.6959596097E+00    0.6630980727E+00    0.7721496646E-04
    0.1300000000E+08    0.1558981180E-04    0.1873585709E-04    0.6959589605E+00    0.6637281759E+00    0.7793525964E-04
    0.1500000000E+08    0.1171957998E-04    0.1420171518E-04    0.6959583939E+00    0.6641869848E+00    0.7855761289E-04
    0.1700000000E+08    0.9129284878E-05    0.1114259044E-04    0.6959578908E+00    0.6645359441E+00    0.7910602671E-04
    0.1900000000E+08    0.7311358679E-05    0.8980417422E-05    0.6959574380E+00    0.6648102645E+00    0.7959658362E-04
    0.2100000000E+08    0.5986885386E-05    0.7395192414E-05    0.6959570262E+00    0.6650315679E+00    0.8004059772E-04
    0.2300000000E+08    0.4992307263E-05    0.6198034088E-05    0.6959566483E+00    0.6652138633E+00    0.8044633666E-04
    0.2500000000E+08    0.4226586287E-05    0.5271573851E-05    0.6959562991E+00    0.6653666252E+00    0.8082002910E-04
    0.2700000000E+08    0.3624582540E-05    0.4539738859E-05    0.6959559744E+00    0.6654964909E+00    0.8116648656E-04
