  Pressure (Pa) 22mC5-500 (mol/kg) 23mC5-500 (mol/kg) 24mC5-500 (mol/kg) 3mC6-500 (mol/kg) C7-500 (mol/kg)
    0.1000000000E+01    0.8053474696E-05    0.7719065733E-05    0.3666073190E-01    0.3591563219E-05    0.4171821039E-02
    0.3000000000E+01    0.2123564762E-04    0.2032920156E-04    0.9949130611E-01    0.9034093833E-05    0.4212637733E-02
    0.5000000000E+01    0.3166451641E-04    0.3028531725E-04    0.1513793921E+00    0.1400382756E-04    0.4240612409E-02
    0.7000000000E+01    0.4007985141E-04    0.3830365234E-04    0.1949547669E+00    0.1874670884E-04    0.4263409022E-02
    0.9000000000E+01    0.4697737122E-04    0.4486342367E-04    0.2320670167E+00    0.2334499537E-04    0.4282637220E-02
    0.1100000000E+02    0.5270642801E-04    0.5030199238E-04    0.2640548905E+00    0.2783966695E-04    0.4299146031E-02
    0.1300000000E+02    0.5752046403E-04    0.5486385913E-04    0.2919112703E+00    0.3225504240E-04    0.4313498266E-02
    0.1500000000E+02    0.6160752191E-04    0.5873025473E-04    0.3163880901E+00    0.3660711066E-04    0.4326099846E-02
    0.1700000000E+02    0.6510976447E-04    0.6203805686E-04    0.3380652454E+00    0.4090712470E-04    0.4337256277E-02
    0.1900000000E+02    0.6813641881E-04    0.6489232635E-04    0.3573971341E+00    0.4516340014E-04    0.4347203780E-02
    0.2100000000E+02    0.7077260071E-04    0.6737484867E-04    0.3747448635E+00    0.4938231189E-04    0.4356128645E-02
    0.2300000000E+02    0.7308547097E-04    0.6955008949E-04    0.3903990232E+00    0.5356888950E-04    0.4364180102E-02
    0.2500000000E+02    0.7512861673E-04    0.7146943077E-04    0.4045960978E+00    0.5772719368E-04    0.4371479277E-02
    0.2700000000E+02    0.7694522472E-04    0.7317423704E-04    0.4175304989E+00    0.6186056575E-04    0.4378125601E-02
    0.2900000000E+02    0.7857041562E-04    0.7469810986E-04    0.4293635239E+00    0.6597179912E-04    0.4384201512E-02
    0.3100000000E+02    0.8003298568E-04    0.7606856875E-04    0.4402301180E+00    0.7006326082E-04    0.4389775974E-02
    0.3300000000E+02    0.8135672265E-04    0.7730832055E-04    0.4502440454E+00    0.7413698004E-04    0.4394907141E-02
    0.3500000000E+02    0.8256141170E-04    0.7843622918E-04    0.4595018877E+00    0.7819471402E-04    0.4399644409E-02
    0.3700000000E+02    0.8366361247E-04    0.7946806422E-04    0.4680861702E+00    0.8223799800E-04    0.4404030018E-02
    0.3900000000E+02    0.8467726525E-04    0.8041708461E-04    0.4760678291E+00    0.8626818390E-04    0.4408100309E-02
    0.4100000000E+02    0.8561416806E-04    0.8129449766E-04    0.4835081772E+00    0.9028647059E-04    0.4411886724E-02
    0.4300000000E+02    0.8648435533E-04    0.8210982320E-04    0.4904604822E+00    0.9429392786E-04    0.4415416610E-02
    0.4500000000E+02    0.8729640072E-04    0.8287118455E-04    0.4969712441E+00    0.9829151581E-04    0.4418713870E-02
    0.4700000000E+02    0.8805766103E-04    0.8358554278E-04    0.5030812374E+00    0.1022801005E-03    0.4421799489E-02
    0.4900000000E+02    0.8877447400E-04    0.8425888652E-04    0.5088263658E+00    0.1062604671E-03    0.4424691968E-02
    0.1000000000E+02    0.4997029543E-04    0.4770581389E-04    0.2486327886E+00    0.2560350555E-04    0.4291191747E-02
    0.3000000000E+02    0.7932043721E-04    0.7540099668E-04    0.4349100699E+00    0.6801986755E-04    0.4387047563E-02
    0.5000000000E+02    0.8911795498E-04    0.8458182219E-04    0.5115721700E+00    0.1082477943E-03    0.4426070973E-02
    0.7000000000E+02    0.9465384890E-04    0.8982800696E-04    0.5533813857E+00    0.1477074877E-03    0.4446640987E-02
    0.9000000000E+02    0.9903984292E-04    0.9406252009E-04    0.5797046613E+00    0.1868858408E-03    0.4458800016E-02
    0.1100000000E+03    0.1031745156E-03    0.9811348312E-04    0.5978020347E+00    0.2260313561E-03    0.4466370583E-02
    0.1300000000E+03    0.1073633165E-03    0.1022547420E-03    0.6110085914E+00    0.2652962317E-03    0.4471135370E-02
    0.1500000000E+03    0.1117164284E-03    0.1065805551E-03    0.6210711063E+00    0.3047847360E-03    0.4474041640E-02
    0.1700000000E+03    0.1162716342E-03    0.1111200114E-03    0.6289929911E+00    0.3445741315E-03    0.4475640993E-02
    0.1900000000E+03    0.1210381792E-03    0.1158773270E-03    0.6353917126E+00    0.3847251569E-03    0.4476277194E-02
    0.2100000000E+03    0.1260139998E-03    0.1208474008E-03    0.6406680789E+00    0.4252878384E-03    0.4476175994E-02
    0.2300000000E+03    0.1311929131E-03    0.1260221550E-03    0.6450936050E+00    0.4663049621E-03    0.4475491917E-02
    0.2500000000E+03    0.1365677074E-03    0.1313931672E-03    0.6488587586E+00    0.5078142731E-03    0.4474334337E-02
    0.2700000000E+03    0.1421314634E-03    0.1369527313E-03    0.6521011012E+00    0.5498499346E-03    0.4472782832E-02
    0.2900000000E+03    0.1478780833E-03    0.1426942320E-03    0.6549224661E+00    0.5924435346E-03    0.4470896630E-02
    0.3100000000E+03    0.1538024598E-03    0.1486122202E-03    0.6573998505E+00    0.6356248043E-03    0.4468720656E-02
    0.3300000000E+03    0.1599004844E-03    0.1547023615E-03    0.6595925527E+00    0.6794221455E-03    0.4466289527E-02
    0.3500000000E+03    0.1661689866E-03    0.1609613375E-03    0.6615469806E+00    0.7238630284E-03    0.4463630266E-02
    0.3700000000E+03    0.1726056500E-03    0.1673867363E-03    0.6632999749E+00    0.7689742980E-03    0.4460764190E-02
    0.3900000000E+03    0.1792089231E-03    0.1739769468E-03    0.6648811528E+00    0.8147824178E-03    0.4457708256E-02
    0.4100000000E+03    0.1859779370E-03    0.1807310647E-03    0.6663145965E+00    0.8613136644E-03    0.4454476034E-02
    0.4300000000E+03    0.1929124312E-03    0.1876488104E-03    0.6676200881E+00    0.9085942897E-03    0.4451078424E-02
    0.4500000000E+03    0.2000126899E-03    0.1947304598E-03    0.6688140286E+00    0.9566506560E-03    0.4447524196E-02
    0.4700000000E+03    0.2072794870E-03    0.2019767853E-03    0.6699101308E+00    0.1005509352E-02    0.4443820398E-02
    0.4900000000E+03    0.2147140403E-03    0.2093890080E-03    0.6709199479E+00    0.1055197296E-02    0.4439972667E-02
    0.1000000000E+03    0.1011124792E-03    0.9608733039E-04    0.5895201399E+00    0.2064517049E-03    0.4463019681E-02
    0.3000000000E+03    0.1508183317E-03    0.1456314611E-03    0.6562001001E+00    0.6139589096E-03    0.4469842496E-02
    0.5000000000E+03    0.2184947181E-03    0.2131578247E-03    0.6713956222E+00    0.1080360760E-02    0.4437996264E-02
    0.7000000000E+03    0.3035160807E-03    0.2978454211E-03    0.6781271564E+00    0.1634234906E-02    0.4391544262E-02
    0.9000000000E+03    0.4093288336E-03    0.4031366363E-03    0.6819260041E+00    0.2307799681E-02    0.4331670597E-02
    0.1100000000E+04    0.5423415648E-03    0.5354158865E-03    0.6843658154E+00    0.3145396695E-02    0.4255848262E-02
    0.1300000000E+04    0.7125708147E-03    0.7046475277E-03    0.6860651723E+00    0.4211865430E-02    0.4159171609E-02
    0.1500000000E+04    0.9354926260E-03    0.9262186380E-03    0.6873166990E+00    0.5605573931E-02    0.4033819758E-02
    0.1700000000E+04    0.1235353897E-02    0.1224232841E-02    0.6882767749E+00    0.7480007916E-02    0.3867640515E-02
    0.1900000000E+04    0.1650533471E-02    0.1636842924E-02    0.6890365619E+00    0.1007845624E-01    0.3641901433E-02
    0.2100000000E+04    0.2240593955E-02    0.2223269379E-02    0.6896527933E+00    0.1378045279E-01    0.3328866541E-02
    0.2300000000E+04    0.3088120685E-02    0.3065651973E-02    0.6901626245E+00    0.1911825592E-01    0.2893622855E-02
    0.2500000000E+04    0.4265051970E-02    0.4235632101E-02    0.6905914078E+00    0.2657429770E-01    0.2316129100E-02
    0.2700000000E+04    0.5709823716E-02    0.5672275752E-02    0.6909570343E+00    0.3581304432E-01    0.1654796858E-02
    0.2900000000E+04    0.7120012847E-02    0.7075224402E-02    0.6912724904E+00    0.4497438568E-01    0.1080576681E-02
    0.3100000000E+04    0.8198990090E-02    0.8149591665E-02    0.6915474310E+00    0.5217619656E-01    0.7252596877E-03
    0.3300000000E+04    0.8940471855E-02    0.8888893171E-02    0.6917891830E+00    0.5733042988E-01    0.5581272302E-03
    0.3500000000E+04    0.9480599843E-02    0.9428282504E-02    0.6920034076E+00    0.6126302085E-01    0.4911311415E-03
    0.3700000000E+04    0.9922735172E-02    0.9870434127E-02    0.6921945478E+00    0.6461405788E-01    0.4665215543E-03
    0.3900000000E+04    0.1031750531E-01    0.1026565139E-01    0.6923661394E+00    0.6769967541E-01    0.4582190310E-03
    0.4100000000E+04    0.1068630040E-01    0.1063518803E-01    0.6925210313E+00    0.7065367561E-01    0.4559586036E-03
    0.4300000000E+04    0.1103782199E-01    0.1098768718E-01    0.6926615446E+00    0.7352999676E-01    0.4558937779E-03
    0.4500000000E+04    0.1137569555E-01    0.1132674599E-01    0.6927895895E+00    0.7635040389E-01    0.4566064366E-03
    0.4700000000E+04    0.1170156673E-01    0.1165399333E-01    0.6929067522E+00    0.7912405852E-01    0.4575765626E-03
    0.4900000000E+04    0.1201630958E-01    0.1197029105E-01    0.6930143609E+00    0.8185521417E-01    0.4586144221E-03
    0.1000000000E+04    0.4719095772E-03    0.4653796701E-03    0.6832657366E+00    0.2702643716E-02    0.4296002250E-02
    0.3000000000E+04    0.7707895663E-02    0.7660445696E-02    0.6914145217E+00    0.4886731720E-01    0.8742938586E-03
    0.5000000000E+04    0.1216969137E-01    0.1212451403E-01    0.6930649396E+00    0.8320562013E-01    0.4591352143E-03
    0.7000000000E+04    0.1475334779E-01    0.1473225789E-01    0.6937729942E+00    0.1083341246E+00    0.4680820627E-03
    0.9000000000E+04    0.1660382401E-01    0.1661632406E-01    0.6941659110E+00    0.1304635369E+00    0.4748328530E-03
    0.1100000000E+05    0.1792457483E-01    0.1797570790E-01    0.6944154406E+00    0.1502354234E+00    0.4802625736E-03
    0.1300000000E+05    0.1885486102E-01    0.1894686917E-01    0.6945877555E+00    0.1681094925E+00    0.4848133956E-03
    0.1500000000E+05    0.1949262754E-01    0.1962597799E-01    0.6947137602E+00    0.1844246459E+00    0.4887359230E-03
    0.1700000000E+05    0.1990835504E-01    0.2008239061E-01    0.6948098206E+00    0.1994367500E+00    0.4921862478E-03
    0.1900000000E+05    0.2015376670E-01    0.2036712635E-01    0.6948854115E+00    0.2133430371E+00    0.4952683268E-03
    0.2100000000E+05    0.2026746903E-01    0.2051836400E-01    0.6949463968E+00    0.2262983529E+00    0.4980549519E-03
    0.2300000000E+05    0.2027870483E-01    0.2056510189E-01    0.6949965994E+00    0.2384262622E+00    0.5005991189E-03
    0.2500000000E+05    0.2020990926E-01    0.2052965328E-01    0.6950386174E+00    0.2498268189E+00    0.5029406341E-03
    0.2700000000E+05    0.2007848755E-01    0.2042938346E-01    0.6950742783E+00    0.2605821138E+00    0.5051101719E-03
    0.2900000000E+05    0.1989807442E-01    0.2027794187E-01    0.6951049043E+00    0.2707603103E+00    0.5071318793E-03
    0.3100000000E+05    0.1967944152E-01    0.2008615091E-01    0.6951314759E+00    0.2804186274E+00    0.5090251127E-03
    0.3300000000E+05    0.1943116107E-01    0.1986265668E-01    0.6951547352E+00    0.2896055793E+00    0.5108056306E-03
    0.3500000000E+05    0.1916009796E-01    0.1961441225E-01    0.6951752544E+00    0.2983626784E+00    0.5124864371E-03
    0.3700000000E+05    0.1887177922E-01    0.1934704090E-01    0.6951934813E+00    0.3067257471E+00    0.5140783907E-03
    0.3900000000E+05    0.1857067452E-01    0.1906511236E-01    0.6952097717E+00    0.3147259397E+00    0.5155906536E-03
    0.4100000000E+05    0.1826041144E-01    0.1877235512E-01    0.6952244119E+00    0.3223905465E+00    0.5170310289E-03
    0.4300000000E+05    0.1794394218E-01    0.1847182109E-01    0.6952376344E+00    0.3297436330E+00    0.5184062179E-03
    0.4500000000E+05    0.1762367387E-01    0.1816601458E-01    0.6952496303E+00    0.3368065526E+00    0.5197220188E-03
    0.4700000000E+05    0.1730157125E-01    0.1785699401E-01    0.6952605581E+00    0.3435983608E+00    0.5209834828E-03
    0.4900000000E+05    0.1697923807E-01    0.1754645288E-01    0.6952705502E+00    0.3501361531E+00    0.5221950378E-03
    0.1000000000E+05    0.1732053216E-01    0.1735192323E-01    0.6943032241E+00    0.1406120407E+00    0.4776789258E-03
    0.3000000000E+05    0.1979295460E-01    0.2018650502E-01    0.6951186459E+00    0.2756512398E+00    0.5080934973E-03
    0.5000000000E+05    0.1681840381E-01    0.1739105773E-01    0.6952752310E+00    0.3533146690E+00    0.5227833372E-03
    0.7000000000E+05    0.1379905500E-01    0.1443106066E-01    0.6953393814E+00    0.4066160173E+00    0.5326734608E-03
    0.9000000000E+05    0.1132592313E-01    0.1195871170E-01    0.6953733191E+00    0.4457777392E+00    0.5401764465E-03
    0.1100000000E+06    0.9379260570E-02    0.9986008958E-02    0.6953938054E+00    0.4756854718E+00    0.5462405438E-03
    0.1300000000E+06    0.7853143290E-02    0.8422803425E-02    0.6954072044E+00    0.4991562161E+00    0.5513391845E-03
    0.1500000000E+06    0.6648569637E-02    0.7177866483E-02    0.6954164464E+00    0.5179737936E+00    0.5557436839E-03
    0.1700000000E+06    0.5687898902E-02    0.6177316548E-02    0.6954230612E+00    0.5333313758E+00    0.5596243358E-03
    0.1900000000E+06    0.4913041289E-02    0.5364789686E-02    0.6954279222E+00    0.5460572473E+00    0.5630951947E-03
    0.2100000000E+06    0.4281023586E-02    0.4698003886E-02    0.6954315619E+00    0.5567428130E+00    0.5662364671E-03
    0.2300000000E+06    0.3759992974E-02    0.4145275018E-02    0.6954343225E+00    0.5658201559E+00    0.5691067456E-03
    0.2500000000E+06    0.3326162068E-02    0.3682728083E-02    0.6954364331E+00    0.5736112041E+00    0.5717501616E-03
    0.2700000000E+06    0.2961591970E-02    0.3292219608E-02    0.6954380523E+00    0.5803599636E+00    0.5742007989E-03
    0.2900000000E+06    0.2652609984E-02    0.2959828116E-02    0.6954392930E+00    0.5862542248E+00    0.5764855402E-03
    0.3100000000E+06    0.2388682770E-02    0.2674764607E-02    0.6954402378E+00    0.5914405119E+00    0.5786259690E-03
    0.3300000000E+06    0.2161610213E-02    0.2428584793E-02    0.6954409480E+00    0.5960345820E+00    0.5806396818E-03
    0.3500000000E+06    0.1964944289E-02    0.2214616156E-02    0.6954414702E+00    0.6001289275E+00    0.5825412168E-03
    0.3700000000E+06    0.1793566255E-02    0.2027537931E-02    0.6954418402E+00    0.6037982216E+00    0.5843427267E-03
    0.3900000000E+06    0.1643375995E-02    0.1863070461E-02    0.6954420859E+00    0.6071033276E+00    0.5860544749E-03
    0.4100000000E+06    0.1511061486E-02    0.1717743319E-02    0.6954422295E+00    0.6100942896E+00    0.5876852100E-03
    0.4300000000E+06    0.1393926041E-02    0.1588720612E-02    0.6954422884E+00    0.6128125898E+00    0.5892424506E-03
    0.4500000000E+06    0.1289757601E-02    0.1473668185E-02    0.6954422770E+00    0.6152928722E+00    0.5907327067E-03
    0.4700000000E+06    0.1196728942E-02    0.1370651769E-02    0.6954422068E+00    0.6175642719E+00    0.5921616529E-03
    0.4900000000E+06    0.1113320802E-02    0.1278058217E-02    0.6954420872E+00    0.6196514498E+00    0.5935342661E-03
    0.1000000000E+06    0.1029314990E-01    0.1091503028E-01    0.6953847249E+00    0.4616804394E+00    0.5433521725E-03
    0.3000000000E+06    0.2515574003E-02    0.2811955497E-02    0.6954397981E+00    0.5889280090E+00    0.5775726128E-03
    0.5000000000E+06    0.1074818894E-02    0.1235238316E-02    0.6954420114E+00    0.6206326427E+00    0.5942008401E-03
    0.7000000000E+06    0.5894880644E-03    0.6902884820E-03    0.6954392269E+00    0.6343425121E+00    0.6054126448E-03
    0.9000000000E+06    0.3709489498E-03    0.4405366895E-03    0.6954355794E+00    0.6418867903E+00    0.6139240667E-03
    0.1100000000E+07    0.2545546770E-03    0.3057127554E-03    0.6954319039E+00    0.6466354779E+00    0.6208058609E-03
    0.1300000000E+07    0.1853969795E-03    0.2247249560E-03    0.6954284106E+00    0.6498912238E+00    0.6265934476E-03
    0.1500000000E+07    0.1410183331E-03    0.1722757342E-03    0.6954251460E+00    0.6522591737E+00    0.6315939570E-03
    0.1700000000E+07    0.1108665832E-03    0.1363577124E-03    0.6954221073E+00    0.6540574349E+00    0.6360002862E-03
    0.1900000000E+07    0.8945766868E-04    0.1106768342E-03    0.6954192769E+00    0.6554688018E+00    0.6399416881E-03
    0.2100000000E+07    0.7371416213E-04    0.9167474152E-04    0.6954166337E+00    0.6566056260E+00    0.6435090892E-03
    0.2300000000E+07    0.6180154292E-04    0.7721620164E-04    0.6954141578E+00    0.6575406987E+00    0.6467689313E-03
    0.2500000000E+07    0.5257142691E-04    0.6595666770E-04    0.6954118310E+00    0.6583232214E+00    0.6497712685E-03
    0.2700000000E+07    0.4527532318E-04    0.5701508657E-04    0.6954096372E+00    0.6589876305E+00    0.6525547663E-03
    0.2900000000E+07    0.3940854816E-04    0.4979447354E-04    0.6954075626E+00    0.6595587403E+00    0.6551499252E-03
    0.3100000000E+07    0.3462082691E-04    0.4387861693E-04    0.6954055954E+00    0.6600548799E+00    0.6575812367E-03
    0.3300000000E+07    0.3066291151E-04    0.3897010730E-04    0.6954037250E+00    0.6604898792E+00    0.6598686703E-03
    0.3500000000E+07    0.2735354450E-04    0.3485181786E-04    0.6954019425E+00    0.6608743679E+00    0.6620287264E-03
    0.3700000000E+07    0.2455836768E-04    0.3136221327E-04    0.6954002399E+00    0.6612166495E+00    0.6640751986E-03
    0.3900000000E+07    0.2217608481E-04    0.2837908908E-04    0.6953986105E+00    0.6615233041E+00    0.6660197375E-03
    0.4100000000E+07    0.2012916181E-04    0.2580860447E-04    0.6953970481E+00    0.6617996128E+00    0.6678722744E-03
    0.4300000000E+07    0.1835744077E-04    0.2357772609E-04    0.6953955474E+00    0.6620498633E+00    0.6696413451E-03
    0.4500000000E+07    0.1681366949E-04    0.2162892169E-04    0.6953941037E+00    0.6622775723E+00    0.6713343404E-03
    0.4700000000E+07    0.1546031713E-04    0.1991636903E-04    0.6953927127E+00    0.6624856516E+00    0.6729577033E-03
    0.4900000000E+07    0.1426726997E-04    0.1840320476E-04    0.6953913707E+00    0.6626765326E+00    0.6745170848E-03
    0.1000000000E+07    0.3046015323E-03    0.3638797504E-03    0.6954337257E+00    0.6445046664E+00    0.6175277591E-03
    0.3000000000E+07    0.3689729090E-04    0.4669428676E-04    0.6954065663E+00    0.6598152293E+00    0.6563847218E-03
    0.5000000000E+07    0.1372305267E-04    0.1771181357E-04    0.6953907170E+00    0.6627661761E+00    0.6752743632E-03
    0.7000000000E+07    0.7219592938E-05    0.9380581208E-05    0.6953795491E+00    0.6640163514E+00    0.6880122660E-03
    0.9000000000E+07    0.4512469045E-05    0.5861118721E-05    0.6953708925E+00    0.6647069014E+00    0.6976826532E-03
    0.1100000000E+08    0.3128424891E-05    0.4043887162E-05    0.6953638061E+00    0.6651448216E+00    0.7055017017E-03
    0.1300000000E+08    0.2324539385E-05    0.2981210783E-05    0.6953577967E+00    0.6654472983E+00    0.7120776161E-03
    0.1500000000E+08    0.1815036866E-05    0.2304586570E-05    0.6953525732E+00    0.6656687518E+00    0.7177593004E-03
    0.1700000000E+08    0.1470896422E-05    0.1846220226E-05    0.6953479491E+00    0.6658378935E+00    0.7227658984E-03
    0.1900000000E+08    0.1226891531E-05    0.1520694560E-05    0.6953437978E+00    0.6659713028E+00    0.7272442541E-03
    0.2100000000E+08    0.1047138295E-05    0.1280748566E-05    0.6953400291E+00    0.6660792229E+00    0.7312976717E-03
    0.2300000000E+08    0.9105542804E-06    0.1098482670E-05    0.6953365767E+00    0.6661683233E+00    0.7350016388E-03
    0.2500000000E+08    0.8040834800E-06    0.9565496743E-06    0.6953333902E+00    0.6662431333E+00    0.7384130251E-03
    0.2700000000E+08    0.7192837739E-06    0.8436947960E-06    0.6953304304E+00    0.6663068368E+00    0.7415757615E-03
