  Pressure (Pa) 22mC5-500 (mol/kg) 23mC5-500 (mol/kg) 24mC5-500 (mol/kg) 3mC6-500 (mol/kg) C7-500 (mol/kg)
    0.1000000000E+01    0.5269307558E-05    0.2016084881E-05    0.2487131271E+00    0.2040485228E-05    0.4145684608E-02
    0.3000000000E+01    0.8517003853E-05    0.3247724448E-05    0.4351437347E+00    0.5031016915E-05    0.4168828251E-02
    0.5000000000E+01    0.9746294588E-05    0.3713783286E-05    0.5118839717E+00    0.7737250217E-05    0.4174272238E-02
    0.7000000000E+01    0.1051490354E-04    0.4008780845E-05    0.5537363187E+00    0.1030737279E-04    0.4176682472E-02
    0.9000000000E+01    0.1114322153E-04    0.4253282795E-05    0.5800857360E+00    0.1279043544E-04    0.4177978343E-02
    0.1100000000E+02    0.1172550202E-04    0.4482152826E-05    0.5982000827E+00    0.1521075101E-04    0.4178735707E-02
    0.1300000000E+02    0.1229477647E-04    0.4707328446E-05    0.6114182328E+00    0.1758270024E-04    0.4179190714E-02
    0.1500000000E+02    0.1286360881E-04    0.4933191433E-05    0.6214889762E+00    0.1991571575E-04    0.4179458806E-02
    0.1700000000E+02    0.1343679192E-04    0.5161306681E-05    0.6294168780E+00    0.2221642420E-04    0.4179603293E-02
    0.1900000000E+02    0.1401593566E-04    0.5392113858E-05    0.6358201049E+00    0.2448971547E-04    0.4179661855E-02
    0.2100000000E+02    0.1460130013E-04    0.5625593306E-05    0.6410999096E+00    0.2673933375E-04    0.4179658341E-02
    0.2300000000E+02    0.1519257977E-04    0.5861545446E-05    0.6455281014E+00    0.2896823003E-04    0.4179608587E-02
    0.2500000000E+02    0.1578925330E-04    0.6099712222E-05    0.6492953481E+00    0.3117878472E-04    0.4179523523E-02
    0.2700000000E+02    0.1639074261E-04    0.6339830134E-05    0.6525393520E+00    0.3337295494E-04    0.4179410933E-02
    0.2900000000E+02    0.1699648394E-04    0.6581652468E-05    0.6553620472E+00    0.3555237561E-04    0.4179276513E-02
    0.3100000000E+02    0.1760595763E-04    0.6824957369E-05    0.6578405047E+00    0.3771843113E-04    0.4179124520E-02
    0.3300000000E+02    0.1821869811E-04    0.7069549440E-05    0.6600340774E+00    0.3987230747E-04    0.4178958205E-02
    0.3500000000E+02    0.1883429466E-04    0.7315258467E-05    0.6619892152E+00    0.4201503093E-04    0.4178780086E-02
    0.3700000000E+02    0.1945238796E-04    0.7561937023E-05    0.6637427902E+00    0.4414749756E-04    0.4178592145E-02
    0.3900000000E+02    0.2007266505E-04    0.7809457756E-05    0.6653244446E+00    0.4627049582E-04    0.4178395962E-02
    0.4100000000E+02    0.2069485391E-04    0.8057710755E-05    0.6667582799E+00    0.4838472439E-04    0.4178192814E-02
    0.4300000000E+02    0.2131871826E-04    0.8306601139E-05    0.6680640936E+00    0.5049080630E-04    0.4177983737E-02
    0.4500000000E+02    0.2194405283E-04    0.8556046935E-05    0.6692582989E+00    0.5258930021E-04    0.4177769585E-02
    0.4700000000E+02    0.2257067912E-04    0.8805977232E-05    0.6703546184E+00    0.5468070968E-04    0.4177551068E-02
    0.4900000000E+02    0.2319844180E-04    0.9056330608E-05    0.6713646134E+00    0.5676549071E-04    0.4177328775E-02
    0.1000000000E+02    0.1143732032E-04    0.4368654165E-05    0.5899105525E+00    0.1400738465E-04    0.4178405412E-02
    0.3000000000E+02    0.1730078464E-04    0.6703132424E-05    0.6566402461E+00    0.3663699575E-04    0.4179202490E-02
    0.5000000000E+02    0.2351270626E-04    0.9181649013E-05    0.6718403640E+00    0.5780552662E-04    0.4177216372E-02
    0.7000000000E+02    0.2983281408E-04    0.1170053205E-04    0.6785724422E+00    0.7834199314E-04    0.4174857393E-02
    0.9000000000E+02    0.3618516281E-04    0.1423024675E-04    0.6823711697E+00    0.9852756292E-04    0.4172399373E-02
    0.1100000000E+03    0.4254982300E-04    0.1676348973E-04    0.6848107928E+00    0.1185034407E-03    0.4169910842E-02
    0.1300000000E+03    0.4892286375E-04    0.1929909744E-04    0.6865100204E+00    0.1383540864E-03    0.4167414127E-02
    0.1500000000E+03    0.5530552020E-04    0.2183781810E-04    0.6877614967E+00    0.1581355509E-03    0.4164917108E-02
    0.1700000000E+03    0.6170072163E-04    0.2438098791E-04    0.6887215945E+00    0.1778877409E-03    0.4162422291E-02
    0.1900000000E+03    0.6811185227E-04    0.2693007110E-04    0.6894814635E+00    0.1976405678E-03    0.4159929975E-02
    0.2100000000E+03    0.7454228822E-04    0.2948649487E-04    0.6900978252E+00    0.2174173580E-03    0.4157439517E-02
    0.2300000000E+03    0.8099522946E-04    0.3205159388E-04    0.6906078252E+00    0.2372368909E-03    0.4154949883E-02
    0.2500000000E+03    0.8747365018E-04    0.3462659765E-04    0.6910368075E+00    0.2571146875E-03    0.4152459896E-02
    0.2700000000E+03    0.9398029715E-04    0.3721263437E-04    0.6914026567E+00    0.2770638642E-03    0.4149968354E-02
    0.2900000000E+03    0.1005177067E-03    0.3981074072E-04    0.6917183540E+00    0.2970957189E-03    0.4147474084E-02
    0.3100000000E+03    0.1070882277E-03    0.4242187302E-04    0.6919935502E+00    0.3172201465E-03    0.4144975966E-02
    0.3300000000E+03    0.1136940453E-03    0.4504691813E-04    0.6922355691E+00    0.3374459416E-03    0.4142472946E-02
    0.3500000000E+03    0.1203372027E-03    0.4768670316E-04    0.6924500690E+00    0.3577810229E-03    0.4139964027E-02
    0.3700000000E+03    0.1270196214E-03    0.5034200413E-04    0.6926414910E+00    0.3782326043E-03    0.4137448278E-02
    0.3900000000E+03    0.1337431178E-03    0.5301355333E-04    0.6928133691E+00    0.3988073268E-03    0.4134924820E-02
    0.4100000000E+03    0.1405094186E-03    0.5570204573E-04    0.6929685509E+00    0.4195113613E-03    0.4132392826E-02
    0.4300000000E+03    0.1473201738E-03    0.5840814440E-04    0.6931093564E+00    0.4403504912E-03    0.4129851514E-02
    0.4500000000E+03    0.1541769674E-03    0.6113248520E-04    0.6932376947E+00    0.4613301781E-03    0.4127300143E-02
    0.4700000000E+03    0.1610813272E-03    0.6387568075E-04    0.6933551515E+00    0.4824556158E-03    0.4124738009E-02
    0.4900000000E+03    0.1680347333E-03    0.6663832396E-04    0.6934630541E+00    0.5037317746E-03    0.4122164439E-02
    0.1000000000E+03    0.3936638942E-04    0.1549657117E-04    0.6837108043E+00    0.1085355563E-03    0.4171157004E-02
    0.3000000000E+03    0.1037986881E-03    0.4111462169E-04    0.6918605115E+00    0.3071457886E-03    0.4146225573E-02
    0.5000000000E+03    0.1715302799E-03    0.6802711905E-04    0.6935137797E+00    0.5144278756E-03    0.4120873163E-02
    0.7000000000E+03    0.2443530985E-03    0.9695869087E-04    0.6942246881E+00    0.7373634612E-03    0.4094301836E-02
    0.9000000000E+03    0.3236122310E-03    0.1284463079E-03    0.6946202264E+00    0.9802988002E-03    0.4065957258E-02
    0.1100000000E+04    0.4106318474E-03    0.1630170401E-03    0.6948721376E+00    0.1247387975E-02    0.4035359443E-02
    0.1300000000E+04    0.5068765834E-03    0.2012533341E-03    0.6950466220E+00    0.1543200516E-02    0.4002018965E-02
    0.1500000000E+04    0.6140535045E-03    0.2438338300E-03    0.6951746153E+00    0.1873060882E-02    0.3965392757E-02
    0.1700000000E+04    0.7342080665E-03    0.2915716052E-03    0.6952725102E+00    0.2243355156E-02    0.3924850111E-02
    0.1900000000E+04    0.8698344865E-03    0.3454580937E-03    0.6953498034E+00    0.2661880283E-02    0.3879638474E-02
    0.2100000000E+04    0.1024013947E-02    0.4067180523E-03    0.6954123770E+00    0.3138280935E-02    0.3828843694E-02
    0.2300000000E+04    0.1200593878E-02    0.4768808550E-03    0.6954640684E+00    0.3684617060E-02    0.3771340710E-02
    0.2500000000E+04    0.1404423867E-02    0.5578743088E-03    0.6955074880E+00    0.4316112493E-02    0.3705730757E-02
    0.2700000000E+04    0.1641666963E-02    0.6521484554E-03    0.6955444732E+00    0.5052145794E-02    0.3630261040E-02
    0.2900000000E+04    0.1920207300E-02    0.7628377001E-03    0.6955763547E+00    0.5917552884E-02    0.3542723323E-02
    0.3100000000E+04    0.2250171944E-02    0.8939684064E-03    0.6956041201E+00    0.6944304054E-02    0.3440330439E-02
    0.3300000000E+04    0.2644566342E-02    0.1050711752E-02    0.6956285175E+00    0.8173564097E-02    0.3319577799E-02
    0.3500000000E+04    0.3119965452E-02    0.1239658887E-02    0.6956501242E+00    0.9657971065E-02    0.3176117409E-02
    0.3700000000E+04    0.3697057455E-02    0.1469037768E-02    0.6956693928E+00    0.1146352246E-01    0.3004718478E-02
    0.3900000000E+04    0.4400514802E-02    0.1748663002E-02    0.6956866828E+00    0.1366945410E-01    0.2799483979E-02
    0.4100000000E+04    0.5257055276E-02    0.2089166696E-02    0.6957022839E+00    0.1636256750E-01    0.2554657966E-02
    0.4300000000E+04    0.6289690785E-02    0.2499714237E-02    0.6957164317E+00    0.1961968190E-01    0.2266555936E-02
    0.4500000000E+04    0.7505839845E-02    0.2983280223E-02    0.6957293200E+00    0.2347068130E-01    0.1937106878E-02
    0.4700000000E+04    0.8879755613E-02    0.3529661906E-02    0.6957411096E+00    0.2784299017E-01    0.1578481689E-02
    0.4900000000E+04    0.1033868286E-01    0.4109969136E-02    0.6957519351E+00    0.3251626916E-01    0.1215669373E-02
    0.1000000000E+04    0.3660650255E-03    0.1453116989E-03    0.6947587588E+00    0.1110552709E-02    0.4050969767E-02
    0.3000000000E+04    0.2078024306E-02    0.8255547276E-03    0.6955907005E+00    0.6408429596E-02    0.3493584350E-02
    0.5000000000E+04    0.1106592629E-01    0.4399296170E-02    0.6957570225E+00    0.3486039948E-01    0.1043050808E-02
    0.7000000000E+04    0.1840969883E-01    0.7327818392E-02    0.6958281880E+00    0.6033197171E-01    0.3404798856E-04
    0.9000000000E+04    0.2177389601E-01    0.8677782270E-02    0.6958676496E+00    0.7427740494E-01    0.2706403510E-04
    0.1100000000E+05    0.2454588402E-01    0.9794488468E-02    0.6958927107E+00    0.8704308278E-01    0.2733070645E-04
    0.1300000000E+05    0.2685954033E-01    0.1073047130E-01    0.6959100240E+00    0.9888959774E-01    0.2758572824E-04
    0.1500000000E+05    0.2879541079E-01    0.1151723204E-01    0.6959226927E+00    0.1099455191E+00    0.2780622938E-04
    0.1700000000E+05    0.3041709640E-01    0.1217966694E-01    0.6959323590E+00    0.1203146925E+00    0.2800050978E-04
    0.1900000000E+05    0.3177549896E-01    0.1273772058E-01    0.6959399729E+00    0.1300823367E+00    0.2817427669E-04
    0.2100000000E+05    0.3291177186E-01    0.1320753419E-01    0.6959461223E+00    0.1393190929E+00    0.2833154486E-04
    0.2300000000E+05    0.3385949383E-01    0.1360229187E-01    0.6959511903E+00    0.1480840559E+00    0.2847524720E-04
    0.2500000000E+05    0.3464629309E-01    0.1393285321E-01    0.6959554373E+00    0.1564270765E+00    0.2860759278E-04
    0.2700000000E+05    0.3529507605E-01    0.1420823204E-01    0.6959590465E+00    0.1643905310E+00    0.2873028774E-04
    0.2900000000E+05    0.3582496776E-01    0.1443596300E-01    0.6959621503E+00    0.1720106983E+00    0.2884467778E-04
    0.3100000000E+05    0.3625203920E-01    0.1462238524E-01    0.6959648470E+00    0.1793188407E+00    0.2895184331E-04
    0.3300000000E+05    0.3658987533E-01    0.1477286405E-01    0.6959672109E+00    0.1863420623E+00    0.2905266521E-04
    0.3500000000E+05    0.3685002271E-01    0.1489196559E-01    0.6959692995E+00    0.1931039951E+00    0.2914787124E-04
    0.3700000000E+05    0.3704234528E-01    0.1498359589E-01    0.6959711576E+00    0.1996253531E+00    0.2923806976E-04
    0.3900000000E+05    0.3717530927E-01    0.1505111216E-01    0.6959728209E+00    0.2059243831E+00    0.2932377455E-04
    0.4100000000E+05    0.3725621305E-01    0.1509741265E-01    0.6959743180E+00    0.2120172327E+00    0.2940542356E-04
    0.4300000000E+05    0.3729137384E-01    0.1512500976E-01    0.6959756725E+00    0.2179182553E+00    0.2948339319E-04
    0.4500000000E+05    0.3728628031E-01    0.1513608971E-01    0.6959769033E+00    0.2236402615E+00    0.2955800932E-04
    0.4700000000E+05    0.3724571812E-01    0.1513256170E-01    0.6959780264E+00    0.2291947299E+00    0.2962955604E-04
    0.4900000000E+05    0.3717387364E-01    0.1511609865E-01    0.6959790552E+00    0.2345919838E+00    0.2969828249E-04
    0.1000000000E+05    0.2322305667E-01    0.9261022659E-02    0.6958814396E+00    0.8078445585E-01    0.2718872174E-04
    0.3000000000E+05    0.3605045444E-01    0.1453398180E-01    0.6959635444E+00    0.1757019900E+00    0.2889910450E-04
    0.5000000000E+05    0.3712738648E-01    0.1510348308E-01    0.6959795377E+00    0.2372346025E+00    0.2973165781E-04
    0.7000000000E+05    0.3524268513E-01    0.1444820170E-01    0.6959862085E+00    0.2836810859E+00    0.3029304254E-04
    0.9000000000E+05    0.3255250920E-01    0.1343677645E-01    0.6959898109E+00    0.3211307954E+00    0.3071922946E-04
    0.1100000000E+06    0.2975032261E-01    0.1235559915E-01    0.6959920364E+00    0.3523822734E+00    0.3106382490E-04
    0.1300000000E+06    0.2708329980E-01    0.1131076550E-01    0.6959935302E+00    0.3790012601E+00    0.3135363488E-04
    0.1500000000E+06    0.2463604972E-01    0.1034140845E-01    0.6959945907E+00    0.4019854854E+00    0.3160403630E-04
    0.1700000000E+06    0.2242802161E-01    0.9459094324E-02    0.6959953749E+00    0.4220290227E+00    0.3182468698E-04
    0.1900000000E+06    0.2045169907E-01    0.8663514579E-02    0.6959959725E+00    0.4396442403E+00    0.3202205835E-04
    0.2100000000E+06    0.1868890774E-01    0.7949322250E-02    0.6959964389E+00    0.4552250002E+00    0.3220070296E-04
    0.2300000000E+06    0.1711812064E-01    0.7309278351E-02    0.6959968096E+00    0.4690826973E+00    0.3236394750E-04
    0.2500000000E+06    0.1571776934E-01    0.6735734702E-02    0.6959971087E+00    0.4814685117E+00    0.3251429816E-04
    0.2700000000E+06    0.1446769062E-01    0.6221324251E-02    0.6959973529E+00    0.4925880739E+00    0.3265369093E-04
    0.2900000000E+06    0.1334967737E-01    0.5759260486E-02    0.6959975544E+00    0.5026116485E+00    0.3278365296E-04
    0.3100000000E+06    0.1234759709E-01    0.5343441115E-02    0.6959977219E+00    0.5116815022E+00    0.3290541058E-04
    0.3300000000E+06    0.1144730739E-01    0.4968454513E-02    0.6959978620E+00    0.5199174042E+00    0.3301996368E-04
    0.3500000000E+06    0.1063648399E-01    0.4629539914E-02    0.6959979799E+00    0.5274208359E+00    0.3312813845E-04
    0.3700000000E+06    0.9904419859E-02    0.4322528005E-02    0.6959980794E+00    0.5342782714E+00    0.3323062557E-04
    0.3900000000E+06    0.9241824355E-02    0.4043775811E-02    0.6959981636E+00    0.5405637734E+00    0.3332800841E-04
    0.4100000000E+06    0.8640635974E-02    0.3790102889E-02    0.6959982351E+00    0.5463410712E+00    0.3342078425E-04
    0.4300000000E+06    0.8093854161E-02    0.3558732176E-02    0.6959982957E+00    0.5516652397E+00    0.3350938050E-04
    0.4500000000E+06    0.7595391493E-02    0.3347236826E-02    0.6959983471E+00    0.5565840674E+00    0.3359416724E-04
    0.4700000000E+06    0.7139945462E-02    0.3153493295E-02    0.6959983907E+00    0.5611391789E+00    0.3367546709E-04
    0.4900000000E+06    0.6722888154E-02    0.2975640443E-02    0.6959984275E+00    0.5653669603E+00    0.3375356301E-04
    0.1000000000E+06    0.3114429217E-01    0.1289595567E-01    0.6959910433E+00    0.3374153844E+00    0.3089967805E-04
    0.3000000000E+06    0.1283507438E-01    0.5545924341E-02    0.6959976419E+00    0.5072578322E+00    0.3284549022E-04
    0.5000000000E+06    0.6527469969E-02    0.2892154346E-02    0.6959984436E+00    0.5673682326E+00    0.3379148865E-04
    0.7000000000E+06    0.3883019989E-02    0.1751362886E-02    0.6959985692E+00    0.5961900568E+00    0.3442943347E-04
    0.9000000000E+06    0.2557266195E-02    0.1169400124E-02    0.6959985167E+00    0.6126163255E+00    0.3491376419E-04
    0.1100000000E+07    0.1805555608E-02    0.8349718074E-03    0.6959984045E+00    0.6230774343E+00    0.3530538172E-04
    0.1300000000E+07    0.1340420449E-02    0.6257675562E-03    0.6959982718E+00    0.6302673616E+00    0.3563474307E-04
    0.1500000000E+07    0.1033394014E-02    0.4863981753E-03    0.6959981336E+00    0.6354890395E+00    0.3591932061E-04
    0.1700000000E+07    0.8204360392E-03    0.3889557361E-03    0.6959979966E+00    0.6394419924E+00    0.3617008874E-04
    0.1900000000E+07    0.6668313414E-03    0.3181754794E-03    0.6959978633E+00    0.6425326520E+00    0.3639440132E-04
    0.2100000000E+07    0.5524759771E-03    0.2651486796E-03    0.6959977351E+00    0.6450121801E+00    0.3659743181E-04
    0.2300000000E+07    0.4650898042E-03    0.2243963422E-03    0.6959976122E+00    0.6470436451E+00    0.3678296067E-04
    0.2500000000E+07    0.3968350226E-03    0.1924000966E-03    0.6959974946E+00    0.6487372856E+00    0.3695383599E-04
    0.2700000000E+07    0.3425218363E-03    0.1668173559E-03    0.6959973822E+00    0.6501701748E+00    0.3711225788E-04
    0.2900000000E+07    0.2986048496E-03    0.1460396946E-03    0.6959972747E+00    0.6513977517E+00    0.3725996188E-04
    0.3100000000E+07    0.2625961534E-03    0.1289331790E-03    0.6959971718E+00    0.6524608746E+00    0.3739834164E-04
    0.3300000000E+07    0.2327087267E-03    0.1146798107E-03    0.6959970731E+00    0.6533902962E+00    0.3752853350E-04
    0.3500000000E+07    0.2076324761E-03    0.1026774921E-03    0.6959969785E+00    0.6542095916E+00    0.3765147641E-04
    0.3700000000E+07    0.1863894422E-03    0.9247507712E-04    0.6959968875E+00    0.6549371279E+00    0.3776795529E-04
    0.3900000000E+07    0.1682377613E-03    0.8372912322E-04    0.6959968000E+00    0.6555874218E+00    0.3787863315E-04
    0.4100000000E+07    0.1526065014E-03    0.7617443722E-04    0.6959967156E+00    0.6561720942E+00    0.3798407512E-04
    0.4300000000E+07    0.1390505372E-03    0.6960360855E-04    0.6959966343E+00    0.6567005553E+00    0.3808476695E-04
    0.4500000000E+07    0.1272187241E-03    0.6385252678E-04    0.6959965558E+00    0.6571805053E+00    0.3818112923E-04
    0.4700000000E+07    0.1168310769E-03    0.5878996453E-04    0.6959964799E+00    0.6576183040E+00    0.3827352862E-04
    0.4900000000E+07    0.1076621567E-03    0.5430997179E-04    0.6959964065E+00    0.6580192500E+00    0.3836228671E-04
    0.1000000000E+07    0.2133212247E-02    0.9812294593E-03    0.6959984647E+00    0.6183763934E+00    0.3511883514E-04
    0.3000000000E+07    0.2797369719E-03    0.1370846865E-03    0.6959972227E+00    0.6519477511E+00    0.3733024103E-04
    0.5000000000E+07    0.1034760993E-03    0.5226082527E-04    0.6959963706E+00    0.6582073219E+00    0.3840539022E-04
    0.7000000000E+07    0.5330064803E-04    0.2746225671E-04    0.6959957519E+00    0.6608144115E+00    0.3913043272E-04
    0.9000000000E+07    0.3238089178E-04    0.1693452648E-04    0.6959952659E+00    0.6622409143E+00    0.3968088935E-04
    0.1100000000E+08    0.2172141466E-04    0.1149593602E-04    0.6959948651E+00    0.6631401179E+00    0.4012597497E-04
    0.1300000000E+08    0.1556790783E-04    0.8321202489E-05    0.6959945235E+00    0.6637586169E+00    0.4050030463E-04
    0.1500000000E+08    0.1169865254E-04    0.6306196101E-05    0.6959942255E+00    0.6642100461E+00    0.4082373610E-04
    0.1700000000E+08    0.9109318427E-05    0.4946803672E-05    0.6959939610E+00    0.6645540190E+00    0.4110874213E-04
    0.1900000000E+08    0.7292275992E-05    0.3986060169E-05    0.6959937231E+00    0.6648248108E+00    0.4136368059E-04
    0.2100000000E+08    0.5968598801E-05    0.3281725980E-05    0.6959935067E+00    0.6650435242E+00    0.4159443127E-04
    0.2300000000E+08    0.4974734382E-05    0.2749849312E-05    0.6959933081E+00    0.6652238616E+00    0.4180529077E-04
    0.2500000000E+08    0.4209654099E-05    0.2338265969E-05    0.6959931247E+00    0.6653751069E+00    0.4199949603E-04
    0.2700000000E+08    0.3608227688E-05    0.2013166922E-05    0.6959929540E+00    0.6655037733E+00    0.4217954757E-04
