  Pressure (Pa) 22mC5-500 (mol/kg) 23mC5-500 (mol/kg) 24mC5-500 (mol/kg) 3mC6-500 (mol/kg) C7-500 (mol/kg)
    0.1000000000E+01    0.6168599350E-05    0.4722208604E-05    0.1741117960E+00    0.8974837038E-06    0.4168496708E-02
    0.3000000000E+01    0.1144700063E-04    0.8733529680E-05    0.3481374657E+00    0.2255759878E-05    0.4192875620E-02
    0.5000000000E+01    0.1369778223E-04    0.1043176967E-04    0.4351188089E+00    0.3494176079E-05    0.4202393224E-02
    0.7000000000E+01    0.1494320539E-04    0.1136999843E-04    0.4872979322E+00    0.4674391436E-05    0.4207846510E-02
    0.9000000000E+01    0.1577540578E-04    0.1199972488E-04    0.5220801572E+00    0.5817060895E-05    0.4211423146E-02
    0.1100000000E+02    0.1641701024E-04    0.1248937595E-04    0.5469228049E+00    0.6932488145E-05    0.4213956137E-02
    0.1300000000E+02    0.1696513109E-04    0.1291177270E-04    0.5655538573E+00    0.8026795183E-05    0.4215842871E-02
    0.1500000000E+02    0.1746645231E-04    0.1330156274E-04    0.5800441530E+00    0.9104011609E-05    0.4217299317E-02
    0.1700000000E+02    0.1794494217E-04    0.1367631544E-04    0.5916360792E+00    0.1016697646E-04    0.4218453692E-02
    0.1900000000E+02    0.1841345717E-04    0.1404530965E-04    0.6011201897E+00    0.1121778980E-04    0.4219387223E-02
    0.2100000000E+02    0.1887907459E-04    0.1441354968E-04    0.6090234912E+00    0.1225806305E-04    0.4220154013E-02
    0.2300000000E+02    0.1934572390E-04    0.1478373505E-04    0.6157108181E+00    0.1328906866E-04    0.4220791569E-02
    0.2500000000E+02    0.1981555990E-04    0.1515728148E-04    0.6214427571E+00    0.1431183475E-04    0.4221326757E-02
    0.2700000000E+02    0.2028971195E-04    0.1553487382E-04    0.6264103992E+00    0.1532720793E-04    0.4221779357E-02
    0.2900000000E+02    0.2076870755E-04    0.1591677602E-04    0.6307570592E+00    0.1633589640E-04    0.4222164270E-02
    0.3100000000E+02    0.2125271882E-04    0.1630300971E-04    0.6345923285E+00    0.1733850062E-04    0.4222492950E-02
    0.3300000000E+02    0.2174170909E-04    0.1669345921E-04    0.6380014431E+00    0.1833553558E-04    0.4222774354E-02
    0.3500000000E+02    0.2223552166E-04    0.1708793418E-04    0.6410516938E+00    0.1932744744E-04    0.4223015596E-02
    0.3700000000E+02    0.2273393401E-04    0.1748620728E-04    0.6437969124E+00    0.2031462611E-04    0.4223222399E-02
    0.3900000000E+02    0.2323669122E-04    0.1788803685E-04    0.6462806765E+00    0.2129741504E-04    0.4223399424E-02
    0.4100000000E+02    0.2374352648E-04    0.1829318041E-04    0.6485386403E+00    0.2227611883E-04    0.4223550508E-02
    0.4300000000E+02    0.2425417359E-04    0.1870140252E-04    0.6506002567E+00    0.2325100931E-04    0.4223678843E-02
    0.4500000000E+02    0.2476837428E-04    0.1911247919E-04    0.6524900699E+00    0.2422233043E-04    0.4223787102E-02
    0.4700000000E+02    0.2528588252E-04    0.1952620009E-04    0.6542286968E+00    0.2519030224E-04    0.4223877547E-02
    0.4900000000E+02    0.2580646662E-04    0.1994236935E-04    0.6558335824E+00    0.2615512415E-04    0.4223952103E-02
    0.1000000000E+02    0.1611226411E-04    0.1225621950E-04    0.5354571485E+00    0.6377732497E-05    0.4212789278E-02
    0.3000000000E+02    0.2101008487E-04    0.1610935633E-04    0.6327328061E+00    0.1683792507E-04    0.4222335029E-02
    0.5000000000E+02    0.2606784386E-04    0.2015131492E-04    0.6565906036E+00    0.2663641124E-04    0.4223983947E-02
    0.7000000000E+02    0.3141236069E-04    0.2442197367E-04    0.6673755634E+00    0.3613346792E-04    0.4224086131E-02
    0.9000000000E+02    0.3690055924E-04    0.2880348247E-04    0.6735218470E+00    0.4545234871E-04    0.4223593233E-02
    0.1100000000E+03    0.4246722641E-04    0.3324416459E-04    0.6774924662E+00    0.5465517492E-04    0.4222801331E-02
    0.1300000000E+03    0.4808166517E-04    0.3772021659E-04    0.6802689172E+00    0.6377913174E-04    0.4221834960E-02
    0.1500000000E+03    0.5372854872E-04    0.4221998694E-04    0.6823194967E+00    0.7284885812E-04    0.4220756358E-02
    0.1700000000E+03    0.5939996147E-04    0.4673759754E-04    0.6838959491E+00    0.8188183128E-04    0.4219600336E-02
    0.1900000000E+03    0.6509181563E-04    0.5127011386E-04    0.6851456695E+00    0.9089107530E-04    0.4218387976E-02
    0.2100000000E+03    0.7080210763E-04    0.5581618367E-04    0.6861606941E+00    0.9988666800E-04    0.4217132821E-02
    0.2300000000E+03    0.7653001359E-04    0.6037533778E-04    0.6870014588E+00    0.1088766435E-03    0.4215843979E-02
    0.2500000000E+03    0.8227539539E-04    0.6494761182E-04    0.6877092897E+00    0.1178675645E-03    0.4214527796E-02
    0.2700000000E+03    0.8803851955E-04    0.6953333314E-04    0.6883134027E+00    0.1268649022E-03    0.4213188824E-02
    0.2900000000E+03    0.9381989209E-04    0.7413299686E-04    0.6888350368E+00    0.1358732972E-03    0.4211830405E-02
    0.3100000000E+03    0.9962015898E-04    0.7874719211E-04    0.6892900026E+00    0.1448967457E-03    0.4210455040E-02
    0.3300000000E+03    0.1054400451E-03    0.8337655732E-04    0.6896903125E+00    0.1539387338E-03    0.4209064633E-02
    0.3500000000E+03    0.1112803161E-03    0.8802175294E-04    0.6900452562E+00    0.1630023392E-03    0.4207660651E-02
    0.3700000000E+03    0.1171417551E-03    0.9268344482E-04    0.6903621315E+00    0.1720903068E-03    0.4206244233E-02
    0.3900000000E+03    0.1230251476E-03    0.9736229408E-04    0.6906467503E+00    0.1812051083E-03    0.4204816277E-02
    0.4100000000E+03    0.1289312725E-03    0.1020589512E-03    0.6909037987E+00    0.1903489883E-03    0.4203377490E-02
    0.4300000000E+03    0.1348608967E-03    0.1067740527E-03    0.6911370973E+00    0.1995240011E-03    0.4201928435E-02
    0.4500000000E+03    0.1408147722E-03    0.1115082195E-03    0.6913497918E+00    0.2087320403E-03    0.4200469556E-02
    0.4700000000E+03    0.1467936346E-03    0.1162620566E-03    0.6915444958E+00    0.2179748629E-03    0.4199001211E-02
    0.4900000000E+03    0.1527982024E-03    0.1210361527E-03    0.6917233989E+00    0.2272541092E-03    0.4197523678E-02
    0.1000000000E+03    0.3967650628E-04    0.3101831505E-04    0.6756999041E+00    0.5006555740E-04    0.4223224738E-02
    0.3000000000E+03    0.9671761975E-04    0.7643823892E-04    0.6890700282E+00    0.1403829113E-03    0.4211144710E-02
    0.5000000000E+03    0.1558103459E-03    0.1234309776E-03    0.6918075142E+00    0.2319078759E-03    0.4196781539E-02
    0.7000000000E+03    0.2175659355E-03    0.1725237134E-03    0.6929871646E+00    0.3272304690E-03    0.4181488504E-02
    0.9000000000E+03    0.2826140972E-03    0.2242263765E-03    0.6936441125E+00    0.4275870432E-03    0.4165341763E-02
    0.1100000000E+04    0.3515152757E-03    0.2789879258E-03    0.6940627105E+00    0.5339280160E-03    0.4148281481E-02
    0.1300000000E+04    0.4248203011E-03    0.3372478453E-03    0.6943527243E+00    0.6471436408E-03    0.4130210941E-02
    0.1500000000E+04    0.5031058443E-03    0.3994654306E-03    0.6945654929E+00    0.7681496226E-03    0.4111014333E-02
    0.1700000000E+04    0.5869983080E-03    0.4661391751E-03    0.6947282365E+00    0.8979340126E-03    0.4090559713E-02
    0.1900000000E+04    0.6771935071E-03    0.5378225854E-03    0.6948567318E+00    0.1037591729E-02    0.4068697951E-02
    0.2100000000E+04    0.7744756993E-03    0.6151393925E-03    0.6949607529E+00    0.1188356105E-02    0.4045260126E-02
    0.2300000000E+04    0.8797379794E-03    0.6987998120E-03    0.6950466784E+00    0.1351631861E-02    0.4020053985E-02
    0.2500000000E+04    0.9940054660E-03    0.7896190063E-03    0.6951188479E+00    0.1529032201E-02    0.3992859563E-02
    0.2700000000E+04    0.1118462549E-02    0.8885387692E-03    0.6951803163E+00    0.1722422248E-02    0.3963423888E-02
    0.2900000000E+04    0.1254485511E-02    0.9966534805E-03    0.6952332965E+00    0.1933971015E-02    0.3931454587E-02
    0.3100000000E+04    0.1403682023E-02    0.1115241522E-02    0.6952794308E+00    0.2166214325E-02    0.3896612171E-02
    0.3300000000E+04    0.1567939253E-02    0.1245803551E-02    0.6953199637E+00    0.2422131575E-02    0.3858500712E-02
    0.3500000000E+04    0.1749482692E-02    0.1390109297E-02    0.6953558551E+00    0.2705239722E-02    0.3816656559E-02
    0.3700000000E+04    0.1950948140E-02    0.1550254826E-02    0.6953878578E+00    0.3019708505E-02    0.3770534739E-02
    0.3900000000E+04    0.2175469619E-02    0.1728732486E-02    0.6954165701E+00    0.3370501513E-02    0.3719492627E-02
    0.4100000000E+04    0.2426786171E-02    0.1928515876E-02    0.6954424735E+00    0.3763548013E-02    0.3662770542E-02
    0.4300000000E+04    0.2709370198E-02    0.2153161976E-02    0.6954659601E+00    0.4205950206E-02    0.3599469094E-02
    0.4500000000E+04    0.3028578818E-02    0.2406931602E-02    0.6954873523E+00    0.4706228831E-02    0.3528523502E-02
    0.4700000000E+04    0.3390826599E-02    0.2694926908E-02    0.6955069176E+00    0.5274605419E-02    0.3448675990E-02
    0.4900000000E+04    0.3803771441E-02    0.3023239405E-02    0.6955248798E+00    0.5923309415E-02    0.3358449001E-02
    0.1000000000E+04    0.3165489052E-03    0.2511975150E-03    0.6938742928E+00    0.4799537292E-03    0.4156931327E-02
    0.3000000000E+04    0.1327326308E-02    0.1054550256E-02    0.6952571339E+00    0.2047331044E-02    0.3914415819E-02
    0.5000000000E+04    0.4032032853E-02    0.3204724203E-02    0.6955333199E+00    0.6282229863E-02    0.3308916123E-02
    0.7000000000E+04    0.1371196227E-01    0.1090404220E-01    0.6956512836E+00    0.2170116700E-01    0.1388570630E-02
    0.9000000000E+04    0.2311992113E-01    0.1840095062E-01    0.6957165663E+00    0.3759509717E-01    0.1405781530E-03
    0.1100000000E+05    0.2675310007E-01    0.2131167406E-01    0.6957579396E+00    0.4477228705E-01    0.8974278623E-04
    0.1300000000E+05    0.2968223504E-01    0.2366567985E-01    0.6957864606E+00    0.5107555416E-01    0.8939823525E-04
    0.1500000000E+05    0.3224089286E-01    0.2572749970E-01    0.6958072845E+00    0.5698995118E-01    0.9008322141E-04
    0.1700000000E+05    0.3449096467E-01    0.2754570816E-01    0.6958231372E+00    0.6257444464E-01    0.9071211881E-04
    0.1900000000E+05    0.3647736817E-01    0.2915551999E-01    0.6958355953E+00    0.6786881407E-01    0.9127532002E-04
    0.2100000000E+05    0.3823681668E-01    0.3058573575E-01    0.6958456335E+00    0.7290609233E-01    0.9178503895E-04
    0.2300000000E+05    0.3979970014E-01    0.3186021215E-01    0.6958538868E+00    0.7771415570E-01    0.9225076640E-04
    0.2500000000E+05    0.4119137810E-01    0.3299887112E-01    0.6958607863E+00    0.8231671754E-01    0.9267966895E-04
    0.2700000000E+05    0.4243316682E-01    0.3401847040E-01    0.6958666353E+00    0.8673409308E-01    0.9307728158E-04
    0.2900000000E+05    0.4354310417E-01    0.3493320083E-01    0.6958716526E+00    0.9098379968E-01    0.9344796932E-04
    0.3100000000E+05    0.4453654842E-01    0.3575515417E-01    0.6958760009E+00    0.9508103309E-01    0.9379523643E-04
    0.3300000000E+05    0.4542665135E-01    0.3649469278E-01    0.6958798030E+00    0.9903904850E-01    0.9412193963E-04
    0.3500000000E+05    0.4622473529E-01    0.3716074443E-01    0.6958831534E+00    0.1028694682E+00    0.9443043895E-04
    0.3700000000E+05    0.4694059591E-01    0.3776103913E-01    0.6958861262E+00    0.1065825317E+00    0.9472270705E-04
    0.3900000000E+05    0.4758274739E-01    0.3830230089E-01    0.6958887804E+00    0.1101873010E+00    0.9500040983E-04
    0.4100000000E+05    0.4815862208E-01    0.3879040408E-01    0.6958911630E+00    0.1136918295E+00    0.9526496725E-04
    0.4300000000E+05    0.4867473431E-01    0.3923050162E-01    0.6958933127E+00    0.1171033024E+00    0.9551759958E-04
    0.4500000000E+05    0.4913681558E-01    0.3962713095E-01    0.6958952607E+00    0.1204281543E+00    0.9575936333E-04
    0.4700000000E+05    0.4954992668E-01    0.3998430185E-01    0.6958970335E+00    0.1236721675E+00    0.9599117944E-04
    0.4900000000E+05    0.4991855131E-01    0.4030556986E-01    0.6958986526E+00    0.1268405551E+00    0.9621385559E-04
    0.1000000000E+05    0.2509644278E-01    0.1998305835E-01    0.6957393430E+00    0.4140441122E-01    0.9598674961E-04
    0.3000000000E+05    0.4405351905E-01    0.3535509023E-01    0.6958739020E+00    0.9305060552E-01    0.9362433874E-04
    0.5000000000E+05    0.5008744415E-01    0.4045374253E-01    0.6958994105E+00    0.1283978804E+00    0.9632199209E-04
    0.7000000000E+05    0.5189504515E-01    0.4214073767E-01    0.6959097439E+00    0.1565112294E+00    0.9814082543E-04
    0.9000000000E+05    0.5192518823E-01    0.4236579469E-01    0.6959151473E+00    0.1804707487E+00    0.9952156955E-04
    0.1100000000E+06    0.5110749996E-01    0.4187661363E-01    0.6959183681E+00    0.2016711902E+00    0.1006379482E-03
    0.1300000000E+06    0.4986059862E-01    0.4101379625E-01    0.6959204454E+00    0.2208576152E+00    0.1015768239E-03
    0.1500000000E+06    0.4839515624E-01    0.3995104512E-01    0.6959218556E+00    0.2384748685E+00    0.1023880210E-03
    0.1700000000E+06    0.4682559801E-01    0.3878418333E-01    0.6959228468E+00    0.2548110121E+00    0.1031028318E-03
    0.1900000000E+06    0.4521745257E-01    0.3756911243E-01    0.6959235599E+00    0.2700646516E+00    0.1037422235E-03
    0.2100000000E+06    0.4360959585E-01    0.3633975590E-01    0.6959240806E+00    0.2843797983E+00    0.1043209461E-03
    0.2300000000E+06    0.4202555886E-01    0.3511724221E-01    0.6959244636E+00    0.2978653258E+00    0.1048497775E-03
    0.2500000000E+06    0.4047964809E-01    0.3391491126E-01    0.6959247456E+00    0.3106064883E+00    0.1053368372E-03
    0.2700000000E+06    0.3898043152E-01    0.3274118840E-01    0.6959249518E+00    0.3226720705E+00    0.1057883975E-03
    0.2900000000E+06    0.3753281006E-01    0.3160130674E-01    0.6959251001E+00    0.3341190044E+00    0.1062094059E-03
    0.3100000000E+06    0.3613929294E-01    0.3049837750E-01    0.6959252034E+00    0.3449954473E+00    0.1066038354E-03
    0.3300000000E+06    0.3480080705E-01    0.2943407620E-01    0.6959252714E+00    0.3553428939E+00    0.1069749253E-03
    0.3500000000E+06    0.3351722394E-01    0.2840909449E-01    0.6959253114E+00    0.3651976605E+00    0.1073253523E-03
    0.3700000000E+06    0.3228771050E-01    0.2742344458E-01    0.6959253289E+00    0.3745919504E+00    0.1076573537E-03
    0.3900000000E+06    0.3111096674E-01    0.2647666851E-01    0.6959253283E+00    0.3835546345E+00    0.1079728197E-03
    0.4100000000E+06    0.2998538942E-01    0.2556798444E-01    0.6959253130E+00    0.3921118327E+00    0.1082733611E-03
    0.4300000000E+06    0.2890918615E-01    0.2469639042E-01    0.6959252856E+00    0.4002873557E+00    0.1085603626E-03
    0.4500000000E+06    0.2788045558E-01    0.2386073883E-01    0.6959252484E+00    0.4081030447E+00    0.1088350232E-03
    0.4700000000E+06    0.2689724419E-01    0.2305979030E-01    0.6959252031E+00    0.4155790376E+00    0.1090983879E-03
    0.4900000000E+06    0.2595758651E-01    0.2229225299E-01    0.6959251511E+00    0.4227339813E+00    0.1093513735E-03
    0.1000000000E+06    0.5158920755E-01    0.4218363236E-01    0.6959169458E+00    0.1913596985E+00    0.1001061678E-03
    0.3000000000E+06    0.3682920068E-01    0.3104509088E-01    0.6959251567E+00    0.3396258075E+00    0.1064097257E-03
    0.5000000000E+06    0.2550348005E-01    0.2192060276E-01    0.6959251229E+00    0.4261965219E+00    0.1094742305E-03
    0.7000000000E+06    0.1826188848E-01    0.1592908542E-01    0.6959244049E+00    0.4822303190E+00    0.1115407929E-03
    0.9000000000E+06    0.1354571773E-01    0.1195678186E-01    0.6959236119E+00    0.5202099917E+00    0.1131097278E-03
    0.1100000000E+07    0.1036807424E-01    0.9243783306E-02    0.6959228538E+00    0.5469734750E+00    0.1143783239E-03
    0.1300000000E+07    0.8152058467E-02    0.7330912555E-02    0.6959221518E+00    0.5664963110E+00    0.1154452458E-03
    0.1500000000E+07    0.6557291418E-02    0.5941531633E-02    0.6959215060E+00    0.5811751175E+00    0.1163670944E-03
    0.1700000000E+07    0.5377295454E-02    0.4905270189E-02    0.6959209111E+00    0.5925051353E+00    0.1171794206E-03
    0.1900000000E+07    0.4482772469E-02    0.4114170395E-02    0.6959203612E+00    0.6014506522E+00    0.1179060468E-03
    0.2100000000E+07    0.3790184460E-02    0.3497800816E-02    0.6959198507E+00    0.6086531019E+00    0.1185637320E-03
    0.2300000000E+07    0.3243963799E-02    0.3008924106E-02    0.6959193746E+00    0.6145514179E+00    0.1191647226E-03
    0.2500000000E+07    0.2806154352E-02    0.2615042162E-02    0.6959189288E+00    0.6194537528E+00    0.1197182449E-03
    0.2700000000E+07    0.2450201308E-02    0.2293274074E-02    0.6959185098E+00    0.6235814819E+00    0.1202314257E-03
    0.2900000000E+07    0.2157121705E-02    0.2027169859E-02    0.6959181145E+00    0.6270969613E+00    0.1207098873E-03
    0.3100000000E+07    0.1913079657E-02    0.1804677742E-02    0.6959177405E+00    0.6301214940E+00    0.1211581443E-03
    0.3300000000E+07    0.1707812933E-02    0.1616816414E-02    0.6959173857E+00    0.6327472379E+00    0.1215798776E-03
    0.3500000000E+07    0.1533588724E-02    0.1456788678E-02    0.6959170480E+00    0.6350452731E+00    0.1219781290E-03
    0.3700000000E+07    0.1384496151E-02    0.1319377733E-02    0.6959167260E+00    0.6370711766E+00    0.1223554410E-03
    0.3900000000E+07    0.1255957785E-02    0.1200528340E-02    0.6959164182E+00    0.6388689467E+00    0.1227139614E-03
    0.4100000000E+07    0.1144386467E-02    0.1097051267E-02    0.6959161235E+00    0.6404738108E+00    0.1230555209E-03
    0.4300000000E+07    0.1046940346E-02    0.1006411455E-02    0.6959158406E+00    0.6419142675E+00    0.1233816930E-03
    0.4500000000E+07    0.9613454418E-03    0.9265739967E-03    0.6959155688E+00    0.6432135912E+00    0.1236938402E-03
    0.4700000000E+07    0.8857653724E-03    0.8558906462E-03    0.6959153072E+00    0.6443909562E+00    0.1239931502E-03
    0.4900000000E+07    0.8187045042E-03    0.7930151703E-03    0.6959150549E+00    0.6454622866E+00    0.1242806647E-03
    0.1000000000E+07    0.1180781839E-01    0.1047703276E-01    0.6959232263E+00    0.5346972654E+00    0.1137740301E-03
    0.3000000000E+07    0.2029681883E-02    0.1911093512E-02    0.6959179250E+00    0.6286642624E+00    0.1209375444E-03
    0.5000000000E+07    0.7879762537E-03    0.7641512219E-03    0.6959149321E+00    0.6459624395E+00    0.1244202901E-03
    0.7000000000E+07    0.4136690080E-03    0.4091551856E-03    0.6959128406E+00    0.6527185384E+00    0.1267689177E-03
    0.9000000000E+07    0.2538251585E-03    0.2548071477E-03    0.6959112261E+00    0.6562517400E+00    0.1285520034E-03
    0.1100000000E+08    0.1713042219E-03    0.1740228061E-03    0.6959099080E+00    0.6584084357E+00    0.1299937582E-03
    0.1300000000E+08    0.1232723655E-03    0.1264761305E-03    0.6959087922E+00    0.6598569453E+00    0.1312063121E-03
    0.1500000000E+08    0.9289935653E-04    0.9612735317E-04    0.6959078237E+00    0.6608949931E+00    0.1322539911E-03
    0.1700000000E+08    0.7248984838E-04    0.7556869583E-04    0.6959069673E+00    0.6616745591E+00    0.1331771985E-03
    0.1900000000E+08    0.5812296310E-04    0.6099352292E-04    0.6959061992E+00    0.6622810921E+00    0.1340030081E-03
    0.2100000000E+08    0.4763142464E-04    0.5028204328E-04    0.6959055024E+00    0.6627662319E+00    0.1347504663E-03
    0.2300000000E+08    0.3973855824E-04    0.4217731628E-04    0.6959048645E+00    0.6631629865E+00    0.1354334913E-03
    0.2500000000E+08    0.3365285179E-04    0.3589544569E-04    0.6959042761E+00    0.6634934214E+00    0.1360625685E-03
    0.2700000000E+08    0.2886251656E-04    0.3092683857E-04    0.6959037299E+00    0.6637728386E+00    0.1366457977E-03
