  Pressure (Pa) 22mC5-500 (mol/kg) 23mC5-500 (mol/kg) 24mC5-500 (mol/kg) 3mC6-500 (mol/kg) C7-500 (mol/kg)
    0.1000000000E+01    0.7524810841E-05    0.3603727997E-05    0.6965147702E-01    0.4801867639E-05    0.4195810417E-02
    0.3000000000E+01    0.1804401046E-04    0.8625481152E-05    0.1740889377E+00    0.1228162752E-04    0.4253587986E-02
    0.5000000000E+01    0.2498350134E-04    0.1192559005E-04    0.2486581854E+00    0.1916252005E-04    0.4292750391E-02
    0.7000000000E+01    0.2981836218E-04    0.1421649976E-04    0.3045694962E+00    0.2575525665E-04    0.4322016185E-02
    0.9000000000E+01    0.3333045461E-04    0.1587506093E-04    0.3480469390E+00    0.3216471397E-04    0.4344824512E-02
    0.1100000000E+02    0.3597011459E-04    0.1711789478E-04    0.3828232236E+00    0.3844338448E-04    0.4363131254E-02
    0.1300000000E+02    0.3801267083E-04    0.1807716519E-04    0.4112728557E+00    0.4462251638E-04    0.4378161582E-02
    0.1500000000E+02    0.3963444757E-04    0.1883732906E-04    0.4349783843E+00    0.5072270230E-04    0.4390727921E-02
    0.1700000000E+02    0.4095265752E-04    0.1945440367E-04    0.4550351631E+00    0.5675846228E-04    0.4401391970E-02
    0.1900000000E+02    0.4204764640E-04    0.1996669751E-04    0.4722254352E+00    0.6274054297E-04    0.4410555161E-02
    0.2100000000E+02    0.4297592060E-04    0.2040108711E-04    0.4871227511E+00    0.6867719424E-04    0.4418512331E-02
    0.2300000000E+02    0.4377809455E-04    0.2077684128E-04    0.5001572135E+00    0.7457493288E-04    0.4425485073E-02
    0.2500000000E+02    0.4448390936E-04    0.2110803286E-04    0.5116576845E+00    0.8043902640E-04    0.4431643265E-02
    0.2700000000E+02    0.4511549741E-04    0.2140510542E-04    0.5218799187E+00    0.8627381387E-04    0.4437119390E-02
    0.2900000000E+02    0.4568956128E-04    0.2167591752E-04    0.5310258093E+00    0.9208292664E-04    0.4442018339E-02
    0.3100000000E+02    0.4621886121E-04    0.2192645451E-04    0.5392568573E+00    0.9786944501E-04    0.4446424276E-02
    0.3300000000E+02    0.4671325101E-04    0.2216132355E-04    0.5467037923E+00    0.1036360124E-03    0.4450405542E-02
    0.3500000000E+02    0.4718041246E-04    0.2238410402E-04    0.5534735679E+00    0.1093849203E-03    0.4454018223E-02
    0.3700000000E+02    0.4762638416E-04    0.2259759944E-04    0.5596545320E+00    0.1151181729E-03    0.4457308799E-02
    0.3900000000E+02    0.4805594797E-04    0.2280402127E-04    0.5653203038E+00    0.1208375371E-03    0.4460316125E-02
    0.4100000000E+02    0.4847291499E-04    0.2300512472E-04    0.5705327207E+00    0.1265445814E-03    0.4463072943E-02
    0.4300000000E+02    0.4888033974E-04    0.2320231027E-04    0.5753441043E+00    0.1322407072E-03    0.4465607046E-02
    0.4500000000E+02    0.4928068228E-04    0.2339670040E-04    0.5797990231E+00    0.1379271737E-03    0.4467942186E-02
    0.4700000000E+02    0.4967593211E-04    0.2358919811E-04    0.5839356773E+00    0.1436051182E-03    0.4470098787E-02
    0.4900000000E+02    0.5006770375E-04    0.2378053197E-04    0.5877869968E+00    0.1492755731E-03    0.4472094510E-02
    0.1000000000E+02    0.3473916291E-04    0.1653875260E-04    0.3663508698E+00    0.3531811546E-04    0.4354451694E-02
    0.3000000000E+02    0.4595913255E-04    0.2180340483E-04    0.5352468893E+00    0.9497883578E-04    0.4444278339E-02
    0.5000000000E+02    0.5026270591E-04    0.2387595124E-04    0.5896147257E+00    0.1521082891E-03    0.4473036921E-02
    0.7000000000E+02    0.5419384406E-04    0.2581775683E-04    0.6164511057E+00    0.2085604243E-03    0.4486287798E-02
    0.9000000000E+02    0.5839158752E-04    0.2790972542E-04    0.6324434961E+00    0.2649809694E-03    0.4493094681E-02
    0.1100000000E+03    0.6291595110E-04    0.3017051271E-04    0.6430598593E+00    0.3217067968E-03    0.4496527949E-02
    0.1300000000E+03    0.6774181741E-04    0.3258343281E-04    0.6506209097E+00    0.3789504162E-03    0.4497930957E-02
    0.1500000000E+03    0.7283634693E-04    0.3513039279E-04    0.6562796444E+00    0.4368628767E-03    0.4497989910E-02
    0.1700000000E+03    0.7817243209E-04    0.3779713102E-04    0.6606737331E+00    0.4955610037E-03    0.4497093944E-02
    0.1900000000E+03    0.8372987250E-04    0.4057325564E-04    0.6641844876E+00    0.5551410673E-03    0.4495480946E-02
    0.2100000000E+03    0.8949423217E-04    0.4345144649E-04    0.6670539239E+00    0.6156863801E-03    0.4493304750E-02
    0.2300000000E+03    0.9545552003E-04    0.4642669392E-04    0.6694430468E+00    0.6772718574E-03    0.4490669214E-02
    0.2500000000E+03    0.1016071162E-03    0.4949571406E-04    0.6714631291E+00    0.7399669264E-03    0.4487646839E-02
    0.2700000000E+03    0.1079449704E-03    0.5265652455E-04    0.6731935367E+00    0.8038374769E-03    0.4484289554E-02
    0.2900000000E+03    0.1144670190E-03    0.5590814132E-04    0.6746924002E+00    0.8689472297E-03    0.4480635296E-02
    0.3100000000E+03    0.1211727633E-03    0.5925036181E-04    0.6760032719E+00    0.9353587333E-03    0.4476712162E-02
    0.3300000000E+03    0.1280629633E-03    0.6268360920E-04    0.6771594262E+00    0.1003134118E-02    0.4472541146E-02
    0.3500000000E+03    0.1351394150E-03    0.6620881970E-04    0.6781867222E+00    0.1072335688E-02    0.4468137981E-02
    0.3700000000E+03    0.1424047874E-03    0.6982736063E-04    0.6791055608E+00    0.1143026398E-02    0.4463514411E-02
    0.3900000000E+03    0.1498625029E-03    0.7354097060E-04    0.6799322523E+00    0.1215270254E-02    0.4458679100E-02
    0.4100000000E+03    0.1575166494E-03    0.7735171590E-04    0.6806799929E+00    0.1289132663E-02    0.4453638278E-02
    0.4300000000E+03    0.1653719170E-03    0.8126195895E-04    0.6813595739E+00    0.1364680734E-02    0.4448396222E-02
    0.4500000000E+03    0.1734335519E-03    0.8527433579E-04    0.6819799058E+00    0.1441983566E-02    0.4442955606E-02
    0.4700000000E+03    0.1817073249E-03    0.8939174050E-04    0.6825484107E+00    0.1521112509E-02    0.4437317771E-02
    0.4900000000E+03    0.1901995107E-03    0.9361731509E-04    0.6830713210E+00    0.1602141416E-02    0.4431482925E-02
    0.1000000000E+03    0.6061398613E-04    0.2901988375E-04    0.6382387127E+00    0.2932905288E-03    0.4495126781E-02
    0.3000000000E+03    0.1177969083E-03    0.5756791282E-04    0.6753690535E+00    0.9019863773E-03    0.4478705884E-02
    0.5000000000E+03    0.1945296037E-03    0.9577171425E-04    0.6833173579E+00    0.1643392180E-02    0.4428491416E-02
    0.7000000000E+03    0.2945531776E-03    0.1455144914E-03    0.6867798457E+00    0.2588975907E-02    0.4357683259E-02
    0.9000000000E+03    0.4278953368E-03    0.2117934707E-03    0.6887176907E+00    0.3840905930E-02    0.4261695572E-02
    0.1100000000E+04    0.6120146195E-03    0.3032908052E-03    0.6899558987E+00    0.5566643418E-02    0.4129520925E-02
    0.1300000000E+04    0.8776644268E-03    0.4352933935E-03    0.6908152385E+00    0.8058462745E-02    0.3941275332E-02
    0.1500000000E+04    0.1280817404E-02    0.6356236101E-03    0.6914464053E+00    0.1184905517E-01    0.3661556121E-02
    0.1700000000E+04    0.1922373528E-02    0.9544450424E-03    0.6919295425E+00    0.1790499738E-01    0.3229830620E-02
    0.1900000000E+04    0.2950788072E-02    0.1465603443E-02    0.6923112014E+00    0.2767316489E-01    0.2568633328E-02
    0.2100000000E+04    0.4398366387E-02    0.2185331940E-02    0.6926202711E+00    0.4156965438E-01    0.1705707851E-02
    0.2300000000E+04    0.5822939687E-02    0.2894079128E-02    0.6928756287E+00    0.5553000144E-01    0.9720819021E-03
    0.2500000000E+04    0.6770128387E-02    0.3365943509E-02    0.6930901301E+00    0.6520111073E-01    0.6186103781E-03
    0.2700000000E+04    0.7359524429E-02    0.3660170934E-02    0.6932728335E+00    0.7160051387E-01    0.5048546161E-03
    0.2900000000E+04    0.7802003472E-02    0.3881492596E-02    0.6934303045E+00    0.7668321603E-01    0.4746473521E-03
    0.3100000000E+04    0.8188464095E-02    0.4075070835E-02    0.6935674189E+00    0.8130316076E-01    0.4679086795E-03
    0.3300000000E+04    0.8547606544E-02    0.4255164915E-02    0.6936878726E+00    0.8573024271E-01    0.4673337453E-03
    0.3500000000E+04    0.8888082752E-02    0.4426069628E-02    0.6937945188E+00    0.9004388364E-01    0.4683131479E-03
    0.3700000000E+04    0.9212781949E-02    0.4589214929E-02    0.6938895945E+00    0.9426832318E-01    0.4696428835E-03
    0.3900000000E+04    0.9522967549E-02    0.4745222580E-02    0.6939748789E+00    0.9841222499E-01    0.4710121694E-03
    0.4100000000E+04    0.9819430172E-02    0.4894479519E-02    0.6940518043E+00    0.1024798212E+00    0.4723438872E-03
    0.4300000000E+04    0.1010280728E-01    0.5037296857E-02    0.6941215369E+00    0.1064740244E+00    0.4736219193E-03
    0.4500000000E+04    0.1037367279E-01    0.5173954436E-02    0.6941850358E+00    0.1103973001E+00    0.4748457927E-03
    0.4700000000E+04    0.1063256312E-01    0.5304713779E-02    0.6942430971E+00    0.1142519153E+00    0.4760187404E-03
    0.4900000000E+04    0.1087998561E-01    0.5429822262E-02    0.6942963870E+00    0.1180400123E+00    0.4771445856E-03
    0.1000000000E+04    0.5120992648E-03    0.2536399054E-03    0.6893982398E+00    0.4630197696E-02    0.4201109399E-02
    0.3000000000E+04    0.7999674455E-02    0.3980476825E-02    0.6935011522E+00    0.7902689084E-01    0.4699227713E-03
    0.5000000000E+04    0.1099954788E-01    0.5490331300E-02    0.6943214216E+00    0.1199097584E+00    0.4776909946E-03
    0.7000000000E+04    0.1289391053E-01    0.6455161679E-02    0.6946708242E+00    0.1542644322E+00    0.4868523422E-03
    0.9000000000E+04    0.1406501655E-01    0.7061706828E-02    0.6948635223E+00    0.1838217656E+00    0.4937776252E-03
    0.1100000000E+05    0.1474666693E-01    0.7424426377E-02    0.6949851836E+00    0.2096738423E+00    0.4993632630E-03
    0.1300000000E+05    0.1509131760E-01    0.7618186833E-02    0.6950687160E+00    0.2325848076E+00    0.5040533347E-03
    0.1500000000E+05    0.1520124580E-01    0.7693388378E-02    0.6951294501E+00    0.2531071809E+00    0.5081010985E-03
    0.1700000000E+05    0.1514668276E-01    0.7684774318E-02    0.6951754860E+00    0.2716518897E+00    0.5116649858E-03
    0.1900000000E+05    0.1497678397E-01    0.7616767170E-02    0.6952115033E+00    0.2885321328E+00    0.5148508483E-03
    0.2100000000E+05    0.1472649311E-01    0.7506811936E-02    0.6952403922E+00    0.3039917974E+00    0.5177329873E-03
    0.2300000000E+05    0.1442096313E-01    0.7367532956E-02    0.6952640332E+00    0.3182244213E+00    0.5203656020E-03
    0.2500000000E+05    0.1407847685E-01    0.7208161254E-02    0.6952837021E+00    0.3313861771E+00    0.5227894673E-03
    0.2700000000E+05    0.1371241949E-01    0.7035500465E-02    0.6953002942E+00    0.3436049723E+00    0.5250360445E-03
    0.2900000000E+05    0.1333263707E-01    0.6854593471E-02    0.6953144564E+00    0.3549869593E+00    0.5271301276E-03
    0.3100000000E+05    0.1294638810E-01    0.6669190561E-02    0.6953266673E+00    0.3656212814E+00    0.5290916095E-03
    0.3300000000E+05    0.1255902049E-01    0.6482083314E-02    0.6953372886E+00    0.3755835913E+00    0.5309366991E-03
    0.3500000000E+05    0.1217445965E-01    0.6295345991E-02    0.6953465984E+00    0.3849387017E+00    0.5326787813E-03
    0.3700000000E+05    0.1179556456E-01    0.6110512207E-02    0.6953548144E+00    0.3937426102E+00    0.5343290395E-03
    0.3900000000E+05    0.1142439035E-01    0.5928705636E-02    0.6953621089E+00    0.4020440666E+00    0.5358969151E-03
    0.4100000000E+05    0.1106238376E-01    0.5750737646E-02    0.6953686202E+00    0.4098858021E+00    0.5373904529E-03
    0.4300000000E+05    0.1071052981E-01    0.5577180848E-02    0.6953744608E+00    0.4173055033E+00    0.5388165647E-03
    0.4500000000E+05    0.1036946265E-01    0.5408424932E-02    0.6953797227E+00    0.4243365929E+00    0.5401812333E-03
    0.4700000000E+05    0.1003954997E-01    0.5244719321E-02    0.6953844822E+00    0.4310088612E+00    0.5414896726E-03
    0.4900000000E+05    0.9720957401E-02    0.5086205954E-02    0.6953888028E+00    0.4373489825E+00    0.5427464542E-03
    0.1000000000E+05    0.1445603762E-01    0.7268155517E-02    0.6949305576E+00    0.1971571729E+00    0.4967039033E-03
    0.3000000000E+05    0.1313994836E-01    0.6762260263E-02    0.6953207809E+00    0.3603925686E+00    0.5281263557E-03
    0.5000000000E+05    0.9565915134E-02    0.5008917681E-02    0.6953908156E+00    0.4404020778E+00    0.5433567520E-03
    0.7000000000E+05    0.7017323545E-02    0.3724975644E-02    0.6954174198E+00    0.4887533935E+00    0.5536198478E-03
    0.9000000000E+05    0.5297164569E-02    0.2843660175E-02    0.6954302806E+00    0.5209473036E+00    0.5614089389E-03
    0.1100000000E+06    0.4114080250E-02    0.2229690159E-02    0.6954372274E+00    0.5437639386E+00    0.5677057366E-03
    0.1300000000E+06    0.3275797453E-02    0.1790084859E-02    0.6954411703E+00    0.5606870264E+00    0.5730008249E-03
    0.1500000000E+06    0.2664189710E-02    0.1466496850E-02    0.6954434201E+00    0.5736868784E+00    0.5775755060E-03
    0.1700000000E+06    0.2206077660E-02    0.1222247564E-02    0.6954446455E+00    0.5839561945E+00    0.5816064096E-03
    0.1900000000E+06    0.1854944310E-02    0.1033756771E-02    0.6954452191E+00    0.5922557647E+00    0.5852118660E-03
    0.2100000000E+06    0.1580354038E-02    0.8854521034E-03    0.6954453625E+00    0.5990918010E+00    0.5884751063E-03
    0.2300000000E+06    0.1361829815E-02    0.7667732047E-03    0.6954452141E+00    0.6048131183E+00    0.5914569425E-03
    0.2500000000E+06    0.1185236325E-02    0.6703796485E-03    0.6954448641E+00    0.6096672824E+00    0.5942031836E-03
    0.2700000000E+06    0.1040586529E-02    0.5910532026E-03    0.6954443730E+00    0.6138345037E+00    0.5967492130E-03
    0.2900000000E+06    0.9206752199E-03    0.5250082203E-03    0.6954437824E+00    0.6174488705E+00    0.5991229408E-03
    0.3100000000E+06    0.8202055722E-03    0.4694476417E-03    0.6954431218E+00    0.6206120853E+00    0.6013467772E-03
    0.3300000000E+06    0.7352172602E-03    0.4222704438E-03    0.6954424122E+00    0.6234026025E+00    0.6034389940E-03
    0.3500000000E+06    0.6627036753E-03    0.3818747097E-03    0.6954416690E+00    0.6258818581E+00    0.6054146881E-03
    0.3700000000E+06    0.6003504722E-03    0.3470224261E-03    0.6954409034E+00    0.6280986116E+00    0.6072864796E-03
    0.3900000000E+06    0.5463536504E-03    0.3167449681E-03    0.6954401238E+00    0.6300920312E+00    0.6090650275E-03
    0.4100000000E+06    0.4992908104E-03    0.2902759197E-03    0.6954393365E+00    0.6318939251E+00    0.6107594178E-03
    0.4300000000E+06    0.4580286133E-03    0.2670025921E-03    0.6954385463E+00    0.6335303813E+00    0.6123774592E-03
    0.4500000000E+06    0.4216553048E-03    0.2464305406E-03    0.6954377567E+00    0.6350229903E+00    0.6139259134E-03
    0.4700000000E+06    0.3894308636E-03    0.2281572563E-03    0.6954369704E+00    0.6363897679E+00    0.6154106743E-03
    0.4900000000E+06    0.3607497183E-03    0.2118524271E-03    0.6954361895E+00    0.6376458620E+00    0.6168369115E-03
    0.1000000000E+06    0.4652659508E-02    0.2510056029E-02    0.6954342547E+00    0.5332615142E+00    0.5647063869E-03
    0.3000000000E+06    0.8682838245E-03    0.4960623333E-03    0.6954434594E+00    0.6190815078E+00    0.6002523693E-03
    0.5000000000E+06    0.3475783205E-03    0.2043509401E-03    0.6954358016E+00    0.6382364891E+00    0.6175295298E-03
    0.7000000000E+06    0.1854090228E-03    0.1111056405E-03    0.6954285353E+00    0.6465157936E+00    0.6291796732E-03
    0.9000000000E+06    0.1149252310E-03    0.6985256575E-04    0.6954222673E+00    0.6511156257E+00    0.6380241296E-03
    0.1100000000E+07    0.7812968652E-04    0.4802334670E-04    0.6954168442E+00    0.6540389378E+00    0.6451753181E-03
    0.1300000000E+07    0.5654581769E-04    0.3507772031E-04    0.6954120870E+00    0.6560598269E+00    0.6511895319E-03
    0.1500000000E+07    0.4281821863E-04    0.2676823809E-04    0.6954078567E+00    0.6575398430E+00    0.6563858882E-03
    0.1700000000E+07    0.3355208899E-04    0.2111486918E-04    0.6954040502E+00    0.6586703078E+00    0.6609648185E-03
    0.1900000000E+07    0.2700544338E-04    0.1709294274E-04    0.6954005906E+00    0.6595618874E+00    0.6650606270E-03
    0.2100000000E+07    0.2221002338E-04    0.1412869306E-04    0.6953974199E+00    0.6602830196E+00    0.6687677953E-03
    0.2300000000E+07    0.1859288444E-04    0.1188038282E-04    0.6953944930E+00    0.6608782917E+00    0.6721553635E-03
    0.2500000000E+07    0.1579748498E-04    0.1013409972E-04    0.6953917747E+00    0.6613779941E+00    0.6752753441E-03
    0.2700000000E+07    0.1359255864E-04    0.8750352473E-05    0.6953892369E+00    0.6618034228E+00    0.6781679155E-03
    0.2900000000E+07    0.1182279509E-04    0.7635006856E-05    0.6953868566E+00    0.6621699860E+00    0.6808647719E-03
    0.3100000000E+07    0.1038076661E-04    0.6722657972E-05    0.6953846150E+00    0.6624891072E+00    0.6833913633E-03
    0.3300000000E+07    0.9190251595E-05    0.5966706839E-05    0.6953824967E+00    0.6627694344E+00    0.6857684410E-03
    0.3500000000E+07    0.8195959356E-05    0.5333219711E-05    0.6953804884E+00    0.6630176346E+00    0.6880131514E-03
    0.3700000000E+07    0.7356995045E-05    0.4797006953E-05    0.6953785790E+00    0.6632389302E+00    0.6901398282E-03
    0.3900000000E+07    0.6642586351E-05    0.4339049386E-05    0.6953767591E+00    0.6634374702E+00    0.6921605783E-03
    0.4100000000E+07    0.6029219790E-05    0.3944767516E-05    0.6953750204E+00    0.6636165923E+00    0.6940857218E-03
    0.4300000000E+07    0.5498679275E-05    0.3602832173E-05    0.6953733558E+00    0.6637790121E+00    0.6959241289E-03
    0.4500000000E+07    0.5036676177E-05    0.3304331194E-05    0.6953717591E+00    0.6639269612E+00    0.6976834798E-03
    0.4700000000E+07    0.4631875497E-05    0.3042175311E-05    0.6953702248E+00    0.6640622910E+00    0.6993704699E-03
    0.4900000000E+07    0.4275192485E-05    0.2810667819E-05    0.6953687482E+00    0.6641865498E+00    0.7009909714E-03
    0.1000000000E+07    0.9388225721E-04    0.5740039491E-04    0.6954194622E+00    0.6527239784E+00    0.6417688800E-03
    0.3000000000E+07    0.1106616572E-04    0.7156725387E-05    0.6953857195E+00    0.6623348822E+00    0.6821479582E-03
    0.5000000000E+07    0.4112541662E-05    0.2704928189E-05    0.6953680301E+00    0.6642449435E+00    0.7017779317E-03
    0.7000000000E+07    0.2171334839E-05    0.1432858698E-05    0.6953558680E+00    0.6650619249E+00    0.7150151194E-03
    0.9000000000E+07    0.1364353223E-05    0.8966842304E-06    0.6953465473E+00    0.6655153777E+00    0.7250645710E-03
    0.1100000000E+08    0.9517029768E-06    0.6200809363E-06    0.6953389678E+00    0.6658037886E+00    0.7331901204E-03
    0.1300000000E+08    0.7117962970E-06    0.4583634487E-06    0.6953325685E+00    0.6660033968E+00    0.7400238083E-03
    0.1500000000E+08    0.5595241457E-06    0.3553761866E-06    0.6953270234E+00    0.6661497500E+00    0.7459282136E-03
    0.1700000000E+08    0.4564904332E-06    0.2855785619E-06    0.6953221261E+00    0.6662616565E+00    0.7511310696E-03
    0.1900000000E+08    0.3832896516E-06    0.2359783052E-06    0.6953177377E+00    0.6663500004E+00    0.7557849764E-03
    0.2100000000E+08    0.3292458763E-06    0.1993900696E-06    0.6953137596E+00    0.6664215172E+00    0.7599972874E-03
    0.2300000000E+08    0.2880853836E-06    0.1715732306E-06    0.6953101198E+00    0.6664805985E+00    0.7638464491E-03
    0.2500000000E+08    0.2559214457E-06    0.1498914024E-06    0.6953067638E+00    0.6665302299E+00    0.7673915607E-03
    0.2700000000E+08    0.2302395756E-06    0.1326341370E-06    0.6953036494E+00    0.6665725120E+00    0.7706782751E-03
