  Pressure (Pa) 22mC5-500 (mol/kg) 23mC5-500 (mol/kg) 24mC5-500 (mol/kg) 3mC6-500 (mol/kg) C7-500 (mol/kg)
    0.1000000000E+01    0.6898598135E-05    0.4625702145E-05    0.1266351521E+00    0.5103705108E-05    0.4146745682E-02
    0.3000000000E+01    0.1426411166E-04    0.9538108592E-05    0.2785365699E+00    0.1259410113E-04    0.4174104336E-02
    0.5000000000E+01    0.1803862535E-04    0.1204088835E-04    0.3664499004E+00    0.1938347149E-04    0.4182671223E-02
    0.7000000000E+01    0.2029026817E-04    0.1352829542E-04    0.4237734042E+00    0.2584128955E-04    0.4187228812E-02
    0.9000000000E+01    0.2179276975E-04    0.1451968214E-04    0.4641070471E+00    0.3208965729E-04    0.4190028979E-02
    0.1100000000E+02    0.2289084713E-04    0.1524537927E-04    0.4940293999E+00    0.3818901171E-04    0.4191862995E-02
    0.1300000000E+02    0.2375659483E-04    0.1581981562E-04    0.5171109162E+00    0.4417505458E-04    0.4193099787E-02
    0.1500000000E+02    0.2448314344E-04    0.1630459029E-04    0.5354569159E+00    0.5007117572E-04    0.4193938924E-02
    0.1700000000E+02    0.2512400000E-04    0.1673489212E-04    0.5503891860E+00    0.5589378932E-04    0.4194499046E-02
    0.1900000000E+02    0.2571134435E-04    0.1713175106E-04    0.5627794617E+00    0.6165499563E-04    0.4194855531E-02
    0.2100000000E+02    0.2626522894E-04    0.1750817987E-04    0.5732259478E+00    0.6736405172E-04    0.4195058727E-02
    0.2300000000E+02    0.2679849971E-04    0.1787244863E-04    0.5821528000E+00    0.7302824784E-04    0.4195143610E-02
    0.2500000000E+02    0.2731956359E-04    0.1822992028E-04    0.5898691330E+00    0.7865346068E-04    0.4195135267E-02
    0.2700000000E+02    0.2783401104E-04    0.1858412295E-04    0.5966055466E+00    0.8424451913E-04    0.4195052169E-02
    0.2900000000E+02    0.2834560090E-04    0.1893739838E-04    0.6025375656E+00    0.8980545524E-04    0.4194908223E-02
    0.3100000000E+02    0.2885687622E-04    0.1929130589E-04    0.6078011558E+00    0.9533968193E-04    0.4194714104E-02
    0.3300000000E+02    0.2936955919E-04    0.1964688018E-04    0.6125032742E+00    0.1008501222E-03    0.4194478139E-02
    0.3500000000E+02    0.2988480994E-04    0.2000479973E-04    0.6167292137E+00    0.1063393052E-03    0.4194206921E-02
    0.3700000000E+02    0.3040339951E-04    0.2036549856E-04    0.6205478238E+00    0.1118094388E-03    0.4193905738E-02
    0.3900000000E+02    0.3092582713E-04    0.2072924180E-04    0.6240152911E+00    0.1172624661E-03    0.4193578877E-02
    0.4100000000E+02    0.3145240114E-04    0.2109617744E-04    0.6271779225E+00    0.1227001093E-03    0.4193229850E-02
    0.4300000000E+02    0.3198329528E-04    0.2146637212E-04    0.6300742253E+00    0.1281239045E-03    0.4192861563E-02
    0.4500000000E+02    0.3251858842E-04    0.2183983617E-04    0.6327364833E+00    0.1335352295E-03    0.4192476438E-02
    0.4700000000E+02    0.3305829273E-04    0.2221654132E-04    0.6351919646E+00    0.1389353271E-03    0.4192076509E-02
    0.4900000000E+02    0.3360237390E-04    0.2259643319E-04    0.6374638600E+00    0.1443253234E-03    0.4191663499E-02
    0.1000000000E+02    0.2237905590E-04    0.1490688195E-04    0.4801002976E+00    0.3515534856E-04    0.4191038074E-02
    0.3000000000E+02    0.2860115455E-04    0.1911419847E-04    0.6052456481E+00    0.9257571435E-04    0.4194816868E-02
    0.5000000000E+02    0.3387603604E-04    0.2278755228E-04    0.6385372792E+00    0.1470168574E-03    0.4191452554E-02
    0.7000000000E+02    0.3955561342E-04    0.2675657003E-04    0.6539542883E+00    0.2005246335E-03    0.4186809010E-02
    0.9000000000E+02    0.4555699090E-04    0.3095025075E-04    0.6628457784E+00    0.2537980484E-03    0.4181711422E-02
    0.1100000000E+03    0.5180313908E-04    0.3531247329E-04    0.6686312169E+00    0.3071957153E-03    0.4176391159E-02
    0.1300000000E+03    0.5824950678E-04    0.3981185707E-04    0.6726961788E+00    0.3609398238E-03    0.4170933099E-02
    0.1500000000E+03    0.6487118090E-04    0.4443119566E-04    0.6757087923E+00    0.4151852245E-03    0.4165372599E-02
    0.1700000000E+03    0.7165440360E-04    0.4916115350E-04    0.6780308844E+00    0.4700491993E-03    0.4159724924E-02
    0.1900000000E+03    0.7859194735E-04    0.5399693839E-04    0.6798754610E+00    0.5256263391E-03    0.4153996141E-02
    0.2100000000E+03    0.8568058026E-04    0.5893650960E-04    0.6813760870E+00    0.5819967789E-03    0.4148187739E-02
    0.2300000000E+03    0.9291962846E-04    0.6397957360E-04    0.6826207627E+00    0.6392311196E-03    0.4142298773E-02
    0.2500000000E+03    0.1003101301E-03    0.6912699849E-04    0.6836698268E+00    0.6973935488E-03    0.4136326940E-02
    0.2700000000E+03    0.1078543204E-03    0.7438046049E-04    0.6845660339E+00    0.7565439214E-03    0.4130269145E-02
    0.2900000000E+03    0.1155553099E-03    0.7974222430E-04    0.6853405245E+00    0.8167392038E-03    0.4124121804E-02
    0.3100000000E+03    0.1234168784E-03    0.8521500363E-04    0.6860165182E+00    0.8780345154E-03    0.4117881017E-02
    0.3300000000E+03    0.1314433409E-03    0.9080187120E-04    0.6866116816E+00    0.9404839047E-03    0.4111542667E-02
    0.3500000000E+03    0.1396394604E-03    0.9650620028E-04    0.6871396946E+00    0.1004140947E-02    0.4105102472E-02
    0.3700000000E+03    0.1480103903E-03    0.1023316269E-03    0.6876113150E+00    0.1069059215E-02    0.4098556012E-02
    0.3900000000E+03    0.1565616379E-03    0.1082820257E-03    0.6880351191E+00    0.1135292671E-02    0.4091898746E-02
    0.4100000000E+03    0.1652990419E-03    0.1143614959E-03    0.6884180279E+00    0.1202895984E-02    0.4085126013E-02
    0.4300000000E+03    0.1742287595E-03    0.1205743529E-03    0.6887656883E+00    0.1271924814E-02    0.4078233032E-02
    0.4500000000E+03    0.1833572613E-03    0.1269251260E-03    0.6890827534E+00    0.1342436057E-02    0.4071214896E-02
    0.4700000000E+03    0.1926913312E-03    0.1334185587E-03    0.6893730915E+00    0.1414488072E-02    0.4064066564E-02
    0.4900000000E+03    0.2022380709E-03    0.1400596126E-03    0.6896399454E+00    0.1488140888E-02    0.4056782851E-02
    0.1000000000E+03    0.4865284909E-04    0.3311269093E-04    0.6660152949E+00    0.2804653687E-03    0.4179072077E-02
    0.3000000000E+03    0.1194657635E-03    0.8246455259E-04    0.6856896205E+00    0.8472459605E-03    0.4121013344E-02
    0.5000000000E+03    0.2070934998E-03    0.1434371088E-03    0.6897654385E+00    0.1525586861E-02    0.4053088565E-02
    0.7000000000E+03    0.3174025273E-03    0.2201564246E-03    0.6915271711E+00    0.2375136357E-02    0.3970675401E-02
    0.9000000000E+03    0.4603197256E-03    0.3195386616E-03    0.6925098068E+00    0.3475547624E-02    0.3867060279E-02
    0.1100000000E+04    0.6516476263E-03    0.4525793689E-03    0.6931365594E+00    0.4950775282E-02    0.3732140075E-02
    0.1300000000E+04    0.9174443935E-03    0.6374060484E-03    0.6935711102E+00    0.7004853204E-02    0.3549852055E-02
    0.1500000000E+04    0.1301870827E-02    0.9047406834E-03    0.6938901080E+00    0.9984604386E-02    0.3294018998E-02
    0.1700000000E+04    0.1878984103E-02    0.1306112903E-02    0.6941342280E+00    0.1447532525E-01    0.2923205970E-02
    0.1900000000E+04    0.2756858182E-02    0.1916753014E-02    0.6943270601E+00    0.2134282617E-01    0.2383931769E-02
    0.2100000000E+04    0.4009602679E-02    0.2788360380E-02    0.6944832267E+00    0.3122170479E-01    0.1662493759E-02
    0.2300000000E+04    0.5452658588E-02    0.3792799257E-02    0.6946122745E+00    0.4275638398E-01    0.9154291185E-03
    0.2500000000E+04    0.6649004237E-02    0.4626165956E-02    0.6947207006E+00    0.5255879326E-01    0.4087221045E-03
    0.2700000000E+04    0.7449284377E-02    0.5184388772E-02    0.6948130803E+00    0.5939507319E-01    0.1799309955E-03
    0.2900000000E+04    0.8006099598E-02    0.5573452324E-02    0.6948927287E+00    0.6440081129E-01    0.9864506512E-04
    0.3100000000E+04    0.8455009561E-02    0.5887595101E-02    0.6949621067E+00    0.6861716489E-01    0.7251213480E-04
    0.3300000000E+04    0.8856302304E-02    0.6168739779E-02    0.6950230793E+00    0.7251162982E-01    0.6445213626E-04
    0.3500000000E+04    0.9231991840E-02    0.6432193485E-02    0.6950770858E+00    0.7625487047E-01    0.6207122390E-04
    0.3700000000E+04    0.9589854750E-02    0.6683359672E-02    0.6951252547E+00    0.7990600201E-01    0.6145380521E-04
    0.3900000000E+04    0.9932825413E-02    0.6924272837E-02    0.6951684833E+00    0.8348593031E-01    0.6138061988E-04
    0.4100000000E+04    0.1026222530E-01    0.7155845285E-02    0.6952074938E+00    0.8700280709E-01    0.6147252204E-04
    0.4300000000E+04    0.1057883158E-01    0.7378610791E-02    0.6952428744E+00    0.9046052597E-01    0.6161142812E-04
    0.4500000000E+04    0.1088322736E-01    0.7592968410E-02    0.6952751087E+00    0.9386152724E-01    0.6176062222E-04
    0.4700000000E+04    0.1117591688E-01    0.7799262628E-02    0.6953045981E+00    0.9720772322E-01    0.6190885907E-04
    0.4900000000E+04    0.1145736392E-01    0.7997810129E-02    0.6953316786E+00    0.1005008057E+00    0.6205289032E-04
    0.1000000000E+04    0.5486151293E-03    0.3809353629E-03    0.6928543833E+00    0.4156001490E-02    0.3804337916E-02
    0.3000000000E+04    0.8238949091E-02    0.5736346915E-02    0.6949285733E+00    0.6656820519E-01    0.8188436049E-04
    0.5000000000E+04    0.1159400888E-01    0.8094272654E-02    0.6953444057E+00    0.1021279251E+00    0.6212305685E-04
    0.7000000000E+04    0.1383228683E-01    0.9682121294E-02    0.6955225080E+00    0.1322287243E+00    0.6330435016E-04
    0.9000000000E+04    0.1533416840E-01    0.1076035016E-01    0.6956213317E+00    0.1584457632E+00    0.6419958064E-04
    0.1100000000E+05    0.1631951901E-01    0.1147952327E-01    0.6956841249E+00    0.1816317594E+00    0.6492260870E-04
    0.1300000000E+05    0.1693564808E-01    0.1194076193E-01    0.6957275249E+00    0.2023915673E+00    0.6553024453E-04
    0.1500000000E+05    0.1728401930E-01    0.1221390334E-01    0.6957592952E+00    0.2211672221E+00    0.6605498804E-04
    0.1700000000E+05    0.1743615570E-01    0.1234832227E-01    0.6957835452E+00    0.2382901938E+00    0.6651721391E-04
    0.1900000000E+05    0.1744346747E-01    0.1237962402E-01    0.6958026533E+00    0.2540146933E+00    0.6693055628E-04
    0.2100000000E+05    0.1734352140E-01    0.1233391847E-01    0.6958180913E+00    0.2685395823E+00    0.6730459688E-04
    0.2300000000E+05    0.1716415286E-01    0.1223062671E-01    0.6958308187E+00    0.2820231871E+00    0.6764633175E-04
    0.2500000000E+05    0.1692622917E-01    0.1208436956E-01    0.6958414878E+00    0.2945935615E+00    0.6796102808E-04
    0.2700000000E+05    0.1664554712E-01    0.1190626611E-01    0.6958505574E+00    0.3063557499E+00    0.6825275253E-04
    0.2900000000E+05    0.1633416092E-01    0.1170484401E-01    0.6958583593E+00    0.3173970276E+00    0.6852471163E-04
    0.3100000000E+05    0.1600132761E-01    0.1148668848E-01    0.6958651400E+00    0.3277907477E+00    0.6877947922E-04
    0.3300000000E+05    0.1565419043E-01    0.1125691239E-01    0.6958710858E+00    0.3375992102E+00    0.6901915329E-04
    0.3500000000E+05    0.1529827965E-01    0.1101950133E-01    0.6958763404E+00    0.3468758313E+00    0.6924546689E-04
    0.3700000000E+05    0.1493788416E-01    0.1077757024E-01    0.6958810166E+00    0.3556668075E+00    0.6945986844E-04
    0.3900000000E+05    0.1457633031E-01    0.1053355638E-01    0.6958852037E+00    0.3640124058E+00    0.6966358107E-04
    0.4100000000E+05    0.1421619321E-01    0.1028936592E-01    0.6958889738E+00    0.3719479763E+00    0.6985764723E-04
    0.4300000000E+05    0.1385945839E-01    0.1004648637E-01    0.6958923853E+00    0.3795047553E+00    0.7004296272E-04
    0.4500000000E+05    0.1350764651E-01    0.9806073521E-02    0.6958954863E+00    0.3867105081E+00    0.7022030310E-04
    0.4700000000E+05    0.1316191021E-01    0.9569019207E-02    0.6958983169E+00    0.3935900485E+00    0.7039034435E-04
    0.4900000000E+05    0.1282310996E-01    0.9336004490E-02    0.6959009103E+00    0.4001656626E+00    0.7055367929E-04
    0.1000000000E+05    0.1588088447E-01    0.1115759927E-01    0.6956558804E+00    0.1703752321E+00    0.6457827547E-04
    0.3000000000E+05    0.1616993577E-01    0.1159750841E-01    0.6958618645E+00    0.3226707079E+00    0.6865410356E-04
    0.5000000000E+05    0.1265651480E-01    0.9221177698E-02    0.6959021270E+00    0.4033458574E+00    0.7063299771E-04
    0.7000000000E+05    0.9761928783E-02    0.7202678919E-02    0.6959189686E+00    0.4549906542E+00    0.7196706095E-04
    0.9000000000E+05    0.7640187889E-02    0.5696960314E-02    0.6959280886E+00    0.4908463378E+00    0.7297974262E-04
    0.1100000000E+06    0.6095693989E-02    0.4586567199E-02    0.6959337385E+00    0.5170324300E+00    0.7379850508E-04
    0.1300000000E+06    0.4954741277E-02    0.3757645252E-02    0.6959375416E+00    0.5368786811E+00    0.7448707178E-04
    0.1500000000E+06    0.4095385078E-02    0.3127756446E-02    0.6959402499E+00    0.5523648290E+00    0.7508199175E-04
    0.1700000000E+06    0.3435416513E-02    0.2640285810E-02    0.6959422585E+00    0.5647394375E+00    0.7560621831E-04
    0.1900000000E+06    0.2919317428E-02    0.2256484934E-02    0.6959437945E+00    0.5748256295E+00    0.7607513078E-04
    0.2100000000E+06    0.2509050373E-02    0.1949524400E-02    0.6959449972E+00    0.5831857522E+00    0.7649954774E-04
    0.2300000000E+06    0.2178075929E-02    0.1700520147E-02    0.6959459568E+00    0.5902156113E+00    0.7688737432E-04
    0.2500000000E+06    0.1907526047E-02    0.1495945375E-02    0.6959467342E+00    0.5962009778E+00    0.7724456574E-04
    0.2700000000E+06    0.1683741343E-02    0.1325942650E-02    0.6959473718E+00    0.6013527876E+00    0.7757572219E-04
    0.2900000000E+06    0.1496663759E-02    0.1183210610E-02    0.6959479001E+00    0.6058297861E+00    0.7788447235E-04
    0.3100000000E+06    0.1338769643E-02    0.1062258535E-02    0.6959483415E+00    0.6097535086E+00    0.7817373001E-04
    0.3300000000E+06    0.1204349063E-02    0.9588990520E-03    0.6959487129E+00    0.6132184350E+00    0.7844587092E-04
    0.3500000000E+06    0.1089010566E-02    0.8698972559E-03    0.6959490272E+00    0.6162990264E+00    0.7870285811E-04
    0.3700000000E+06    0.9893352267E-03    0.7927241804E-03    0.6959492943E+00    0.6190546959E+00    0.7894633259E-04
    0.3900000000E+06    0.9026312243E-03    0.7253809853E-03    0.6959495221E+00    0.6215333829E+00    0.7917768040E-04
    0.4100000000E+06    0.8267571874E-03    0.6662718061E-03    0.6959497169E+00    0.6237741645E+00    0.7939808305E-04
    0.4300000000E+06    0.7599933116E-03    0.6141105806E-03    0.6959498838E+00    0.6258091907E+00    0.7960855598E-04
    0.4500000000E+06    0.7009461366E-03    0.5678519290E-03    0.6959500269E+00    0.6276651390E+00    0.7980997848E-04
    0.4700000000E+06    0.6484773615E-03    0.5266392878E-03    0.6959501496E+00    0.6293643195E+00    0.8000311704E-04
    0.4900000000E+06    0.6016500435E-03    0.4897655709E-03    0.6959502547E+00    0.6309255253E+00    0.8018864393E-04
    0.1000000000E+06    0.6807919456E-02    0.5100193642E-02    0.6959312152E+00    0.5048975776E+00    0.7340849484E-04
    0.3000000000E+06    0.1414461465E-02    0.1120299611E-02    0.6959481305E+00    0.6078543624E+00    0.7803137832E-04
    0.5000000000E+06    0.5801038813E-03    0.4727681522E-03    0.6959503014E+00    0.6316594644E+00    0.8027874105E-04
    0.7000000000E+06    0.3124930445E-03    0.2596235787E-03    0.6959507180E+00    0.6419301197E+00    0.8179424995E-04
    0.9000000000E+06    0.1946418583E-03    0.1640751502E-03    0.6959506601E+00    0.6476134152E+00    0.8294482202E-04
    0.1100000000E+07    0.1326640571E-03    0.1131386592E-03    0.6959504367E+00    0.6512124349E+00    0.8387514075E-04
    0.1300000000E+07    0.9613966106E-04    0.8278826139E-04    0.6959501511E+00    0.6536932031E+00    0.8465756223E-04
    0.1500000000E+07    0.7283688878E-04    0.6324396981E-04    0.6959498448E+00    0.6555057232E+00    0.8533359479E-04
    0.1700000000E+07    0.5707275983E-04    0.4991600846E-04    0.6959495356E+00    0.6568874781E+00    0.8592930969E-04
    0.1900000000E+07    0.4591737684E-04    0.4041779198E-04    0.6959492319E+00    0.6579754908E+00    0.8646217694E-04
    0.2100000000E+07    0.3773646703E-04    0.3340816868E-04    0.6959489375E+00    0.6588543086E+00    0.8694448671E-04
    0.2300000000E+07    0.3156036252E-04    0.2808612932E-04    0.6959486537E+00    0.6595789060E+00    0.8738521987E-04
    0.2500000000E+07    0.2678434533E-04    0.2394917220E-04    0.6959483812E+00    0.6601865636E+00    0.8779114237E-04
    0.2700000000E+07    0.2301549176E-04    0.2066903078E-04    0.6959481198E+00    0.6607034520E+00    0.8816748079E-04
    0.2900000000E+07    0.1998955246E-04    0.1802384968E-04    0.6959478690E+00    0.6611484800E+00    0.8851835809E-04
    0.3100000000E+07    0.1752353077E-04    0.1585929143E-04    0.6959476283E+00    0.6615356489E+00    0.8884708499E-04
    0.3300000000E+07    0.1548745916E-04    0.1406527973E-04    0.6959473971E+00    0.6618755467E+00    0.8915636098E-04
    0.3500000000E+07    0.1378698104E-04    0.1256158408E-04    0.6959471749E+00    0.6621763278E+00    0.8944841659E-04
    0.3700000000E+07    0.1235225753E-04    0.1128860178E-04    0.6959469611E+00    0.6624443738E+00    0.8972511651E-04
    0.3900000000E+07    0.1113070486E-04    0.1020130025E-04    0.6959467551E+00    0.6626847506E+00    0.8998803569E-04
    0.4100000000E+07    0.1008212237E-04    0.9265138739E-05    0.6959465565E+00    0.6629015304E+00    0.9023851672E-04
    0.4300000000E+07    0.9175352486E-05    0.8453263208E-05    0.6959463647E+00    0.6630980239E+00    0.9047771351E-04
    0.4500000000E+07    0.8385946103E-05    0.7744539280E-05    0.6959461793E+00    0.6632769504E+00    0.9070662521E-04
    0.4700000000E+07    0.7694501784E-05    0.7122148761E-05    0.6959459999E+00    0.6634405642E+00    0.9092612283E-04
    0.4900000000E+07    0.7085465456E-05    0.6572572383E-05    0.6959458262E+00    0.6635907498E+00    0.9113697032E-04
    0.1000000000E+07    0.1592395308E-03    0.1350542746E-03    0.6959505604E+00    0.6495949529E+00    0.8343198491E-04
    0.3000000000E+07    0.1869567463E-04    0.1688920891E-04    0.6959477474E+00    0.6613485685E+00    0.8868530920E-04
    0.5000000000E+07    0.6807820105E-05    0.6321578538E-05    0.6959457413E+00    0.6636613131E+00    0.9123936396E-04
    0.7000000000E+07    0.3501186650E-05    0.3304558031E-05    0.6959442724E+00    0.6646475629E+00    0.9296172054E-04
    0.9000000000E+07    0.2135072068E-05    0.2036466107E-05    0.6959431138E+00    0.6651941334E+00    0.9426934024E-04
    0.1100000000E+08    0.1441836617E-05    0.1384737189E-05    0.6959421554E+00    0.6655414423E+00    0.9532664683E-04
    0.1300000000E+08    0.1042302159E-05    0.1005370247E-05    0.6959413368E+00    0.6657816555E+00    0.9621587010E-04
    0.1500000000E+08    0.7911274221E-06    0.7649493008E-06    0.6959406215E+00    0.6659576933E+00    0.9698418312E-04
    0.1700000000E+08    0.6229104361E-06    0.6028626149E-06    0.6959399857E+00    0.6660922444E+00    0.9766121540E-04
    0.1900000000E+08    0.5046938493E-06    0.4883203755E-06    0.6959394129E+00    0.6661984302E+00    0.9826682137E-04
    0.2100000000E+08    0.4184050349E-06    0.4043213777E-06    0.6959388914E+00    0.6662843662E+00    0.9881496871E-04
    0.2300000000E+08    0.3534608446E-06    0.3408494365E-06    0.6959384125E+00    0.6663553418E+00    0.9931586413E-04
    0.2500000000E+08    0.3033292716E-06    0.2916892280E-06    0.6959379695E+00    0.6664149515E+00    0.9977719710E-04
    0.2700000000E+08    0.2638011616E-06    0.2528163979E-06    0.6959375572E+00    0.6664657239E+00    0.1002049076E-03
