  Pressure (Pa) 22mC5-500 (mol/kg) 23mC5-500 (mol/kg) 24mC5-500 (mol/kg) 3mC6-500 (mol/kg) C7-500 (mol/kg)
    0.1000000000E+01    0.7490184918E-05    0.2869265652E-05    0.6964982191E-01    0.3759418817E-05    0.4216277684E-02
    0.3000000000E+01    0.1796588503E-04    0.6869444271E-05    0.1740785406E+00    0.9693448552E-05    0.4299791034E-02
    0.5000000000E+01    0.2486745249E-04    0.9494519795E-05    0.2486368672E+00    0.1516880118E-04    0.4358400179E-02
    0.7000000000E+01    0.2966696151E-04    0.1131325484E-04    0.3045373662E+00    0.2042135449E-04    0.4402558920E-02
    0.9000000000E+01    0.3314529993E-04    0.1262674303E-04    0.3480048031E+00    0.2553118329E-04    0.4437147750E-02
    0.1100000000E+02    0.3575230436E-04    0.1360808317E-04    0.3827720462E+00    0.3053849654E-04    0.4465028955E-02
    0.1300000000E+02    0.3776299628E-04    0.1436288458E-04    0.4112135724E+00    0.3546728618E-04    0.4488014683E-02
    0.1500000000E+02    0.3935349222E-04    0.1495863054E-04    0.4349118418E+00    0.4033339195E-04    0.4507312621E-02
    0.1700000000E+02    0.4064085592E-04    0.1544007594E-04    0.4549621070E+00    0.4514799936E-04    0.4523760100E-02
    0.1900000000E+02    0.4170532193E-04    0.1583782363E-04    0.4721465145E+00    0.4991939747E-04    0.4537956618E-02
    0.2100000000E+02    0.4260331113E-04    0.1617334105E-04    0.4870385294E+00    0.5465395630E-04    0.4550343038E-02
    0.2300000000E+02    0.4337537053E-04    0.1646201664E-04    0.5000681800E+00    0.5935671224E-04    0.4561251021E-02
    0.2500000000E+02    0.4405118709E-04    0.1671508728E-04    0.5115642654E+00    0.6403173936E-04    0.4570935011E-02
    0.2700000000E+02    0.4465284891E-04    0.1694089036E-04    0.5217824865E+00    0.6868239580E-04    0.4579593569E-02
    0.2900000000E+02    0.4519702183E-04    0.1714569823E-04    0.5309246908E+00    0.7331149351E-04    0.4587383988E-02
    0.3100000000E+02    0.4569643523E-04    0.1733428701E-04    0.5391523406E+00    0.7792141877E-04    0.4594432538E-02
    0.3300000000E+02    0.4616091672E-04    0.1751033210E-04    0.5465961325E+00    0.8251422013E-04    0.4600841795E-02
    0.3500000000E+02    0.4659812556E-04    0.1767668810E-04    0.5533629916E+00    0.8709167389E-04    0.4606695978E-02
    0.3700000000E+02    0.4701408085E-04    0.1783559016E-04    0.5595412416E+00    0.9165533393E-04    0.4612064907E-02
    0.3900000000E+02    0.4741354740E-04    0.1798880071E-04    0.5652044806E+00    0.9620657018E-04    0.4617006970E-02
    0.4100000000E+02    0.4780032129E-04    0.1813771801E-04    0.5704145277E+00    0.1007465989E-03    0.4621571386E-02
    0.4300000000E+02    0.4817744373E-04    0.1828345718E-04    0.5752236886E+00    0.1052765065E-03    0.4625799951E-02
    0.4500000000E+02    0.4854736288E-04    0.1842691153E-04    0.5796765179E+00    0.1097972693E-03    0.4629728393E-02
    0.4700000000E+02    0.4891205754E-04    0.1856879922E-04    0.5838112037E+00    0.1143097687E-03    0.4633387447E-02
    0.4900000000E+02    0.4927313260E-04    0.1870969933E-04    0.5876606651E+00    0.1188148046E-03    0.4636803700E-02
    0.1000000000E+02    0.3453756538E-04    0.1315118748E-04    0.3663040921E+00    0.2804590327E-04    0.4451795599E-02
    0.3000000000E+02    0.4545165102E-04    0.1724176824E-04    0.5351440379E+00    0.7561871760E-04    0.4590994101E-02
    0.5000000000E+02    0.4945273065E-04    0.1877992896E-04    0.5894875033E+00    0.1210647539E-03    0.4638428122E-02
    0.7000000000E+02    0.5306658086E-04    0.2020758807E-04    0.6163100461E+00    0.1658196864E-03    0.4662462002E-02
    0.9000000000E+02    0.5692614778E-04    0.2174706348E-04    0.6322933315E+00    0.2103820593E-03    0.4676758252E-02
    0.1100000000E+03    0.6108804211E-04    0.2341193411E-04    0.6429031426E+00    0.2550090213E-03    0.4685962976E-02
    0.1300000000E+03    0.6552467657E-04    0.2518787334E-04    0.6504591882E+00    0.2998598220E-03    0.4692117586E-02
    0.1500000000E+03    0.7020112990E-04    0.2705958161E-04    0.6561139345E+00    0.3450449001E-03    0.4696269997E-02
    0.1700000000E+03    0.7508838026E-04    0.2901489017E-04    0.6605047426E+00    0.3906471867E-03    0.4699017942E-02
    0.1900000000E+03    0.8016437485E-04    0.3104475024E-04    0.6640127321E+00    0.4367328078E-03    0.4700729420E-02
    0.2100000000E+03    0.8541282960E-04    0.3314257184E-04    0.6668797924E+00    0.4833570329E-03    0.4701644480E-02
    0.2300000000E+03    0.9082187483E-04    0.3530360112E-04    0.6692668413E+00    0.5305678374E-03    0.4701926947E-02
    0.2500000000E+03    0.9638295838E-04    0.3752444340E-04    0.6712850894E+00    0.5784081651E-03    0.4701692737E-02
    0.2700000000E+03    0.1020900272E-03    0.3980271711E-04    0.6730138573E+00    0.6269174344E-03    0.4701026313E-02
    0.2900000000E+03    0.1079389309E-03    0.4213680589E-04    0.6745112414E+00    0.6761325806E-03    0.4699990728E-02
    0.3100000000E+03    0.1139269889E-03    0.4452568070E-04    0.6758207677E+00    0.7260888037E-03    0.4698633995E-02
    0.3300000000E+03    0.1200526737E-03    0.4696877117E-04    0.6769756899E+00    0.7768201201E-03    0.4696993291E-02
    0.3500000000E+03    0.1263153791E-03    0.4946587163E-04    0.6780018508E+00    0.8283597819E-03    0.4695097793E-02
    0.3700000000E+03    0.1327152472E-03    0.5201707180E-04    0.6789196382E+00    0.8807406034E-03    0.4692970659E-02
    0.3900000000E+03    0.1392530395E-03    0.5462270517E-04    0.6797453515E+00    0.9339952219E-03    0.4690630428E-02
    0.4100000000E+03    0.1459300398E-03    0.5728331032E-04    0.6804921780E+00    0.9881563109E-03    0.4688092040E-02
    0.4300000000E+03    0.1527479801E-03    0.5999960165E-04    0.6811709016E+00    0.1043256759E-02    0.4685367589E-02
    0.4500000000E+03    0.1597089847E-03    0.6277244721E-04    0.6817904265E+00    0.1099329820E-02    0.4682466883E-02
    0.4700000000E+03    0.1668155271E-03    0.6560285190E-04    0.6823581697E+00    0.1156409251E-02    0.4679397876E-02
    0.4900000000E+03    0.1740703980E-03    0.6849194464E-04    0.6828803588E+00    0.1214529427E-02    0.4676166992E-02
    0.1000000000E+03    0.5897051574E-04    0.2256458426E-04    0.6380850315E+00    0.2326760009E-03    0.4681835819E-02
    0.3000000000E+03    0.1109156851E-03    0.4332444019E-04    0.6751872066E+00    0.7010159092E-03    0.4699349966E-02
    0.5000000000E+03    0.1777544091E-03    0.6995888333E-04    0.6831260491E+00    0.1243990732E-02    0.4674492501E-02
    0.7000000000E+03    0.2601317489E-03    0.1027440757E-03    0.6865830192E+00    0.1897044703E-02    0.4633255570E-02
    0.9000000000E+03    0.3626323399E-03    0.1435143321E-03    0.6885170002E+00    0.2702745518E-02    0.4577101794E-02
    0.1100000000E+04    0.4926942714E-03    0.1952320821E-03    0.6897522417E+00    0.3721987081E-02    0.4503205660E-02
    0.1300000000E+04    0.6619011530E-03    0.2625055575E-03    0.6906091755E+00    0.5047227623E-02    0.4405744746E-02
    0.1500000000E+04    0.8886851525E-03    0.3526652198E-03    0.6912383186E+00    0.6824824256E-02    0.4274974515E-02
    0.1700000000E+04    0.1203240237E-02    0.4777187100E-03    0.6917197091E+00    0.9294694679E-02    0.4094952436E-02
    0.1900000000E+04    0.1655942133E-02    0.6577013431E-03    0.6920998311E+00    0.1285855432E-01    0.3839716310E-02
    0.2100000000E+04    0.2328721323E-02    0.9252049732E-03    0.6924075283E+00    0.1817425605E-01    0.3469073931E-02
    0.2300000000E+04    0.3333395094E-02    0.1324732082E-02    0.6926616456E+00    0.2615375126E-01    0.2934358928E-02
    0.2500000000E+04    0.4725452185E-02    0.1878443759E-02    0.6928750155E+00    0.3729939034E-01    0.2232367393E-02
    0.2700000000E+04    0.6273775551E-02    0.2494576881E-02    0.6930566782E+00    0.4986852687E-01    0.1520836981E-02
    0.2900000000E+04    0.7522634414E-02    0.2991944420E-02    0.6932131858E+00    0.6026830201E-01    0.1040802658E-02
    0.3100000000E+04    0.8340251553E-02    0.3318030325E-02    0.6933494030E+00    0.6738021909E-01    0.8204987538E-03
    0.3300000000E+04    0.8894519295E-02    0.3539499999E-02    0.6934690173E+00    0.7247471002E-01    0.7407015778E-03
    0.3500000000E+04    0.9331186565E-02    0.3714277458E-02    0.6935748745E+00    0.7668748110E-01    0.7153586068E-03
    0.3700000000E+04    0.9716545870E-02    0.3868716545E-02    0.6936692060E+00    0.8054023609E-01    0.7085350492E-03
    0.3900000000E+04    0.1007545712E-01    0.4012700247E-02    0.6937537859E+00    0.8422898513E-01    0.7077093660E-03
    0.4100000000E+04    0.1041686633E-01    0.4149783309E-02    0.6938300426E+00    0.8782336967E-01    0.7087647563E-03
    0.4300000000E+04    0.1074413396E-01    0.4281298843E-02    0.6938991386E+00    0.9134834162E-01    0.7103716313E-03
    0.4500000000E+04    0.1105870517E-01    0.4407818104E-02    0.6939620301E+00    0.9481346713E-01    0.7121042621E-03
    0.4700000000E+04    0.1136136444E-01    0.4529649606E-02    0.6940195105E+00    0.9822302889E-01    0.7138286863E-03
    0.4900000000E+04    0.1165266016E-01    0.4647008066E-02    0.6940722437E+00    0.1015794705E+00    0.7155050707E-03
    0.1000000000E+04    0.4236149643E-03    0.1677647536E-03    0.6891959803E+00    0.3180836097E-02    0.4542660769E-02
    0.3000000000E+04    0.7976811911E-02    0.3173011037E-02    0.6932835772E+00    0.6417255503E-01    0.9052515148E-03
    0.5000000000E+04    0.1179419118E-01    0.4704066358E-02    0.6940970086E+00    0.1032383395E+00    0.7163217646E-03
    0.7000000000E+04    0.1412360510E-01    0.5647626653E-02    0.6944419128E+00    0.1339779895E+00    0.7300519152E-03
    0.9000000000E+04    0.1570043659E-01    0.6293714115E-02    0.6946312378E+00    0.1608105122E+00    0.7404333166E-03
    0.1100000000E+05    0.1674334984E-01    0.6727845314E-02    0.6947501923E+00    0.1845629771E+00    0.7488064456E-03
    0.1300000000E+05    0.1740118091E-01    0.7008364797E-02    0.6948314597E+00    0.2058309088E+00    0.7558370340E-03
    0.1500000000E+05    0.1777776964E-01    0.7176085227E-02    0.6948902441E+00    0.2250549998E+00    0.7619047460E-03
    0.1700000000E+05    0.1794708577E-01    0.7260163592E-02    0.6949345669E+00    0.2425691884E+00    0.7672470877E-03
    0.1900000000E+05    0.1796275683E-01    0.7281805818E-02    0.6949690551E+00    0.2586318465E+00    0.7720227422E-03
    0.2100000000E+05    0.1786424637E-01    0.7256671304E-02    0.6949965626E+00    0.2734466038E+00    0.7763430939E-03
    0.2300000000E+05    0.1768096325E-01    0.7196474026E-02    0.6950189432E+00    0.2871766103E+00    0.7802893929E-03
    0.2500000000E+05    0.1743505679E-01    0.7110072968E-02    0.6950374527E+00    0.2999545278E+00    0.7839227642E-03
    0.2700000000E+05    0.1714335628E-01    0.7004229796E-02    0.6950529712E+00    0.3118896706E+00    0.7872903710E-03
    0.2900000000E+05    0.1681874087E-01    0.6884144796E-02    0.6950661332E+00    0.3230732019E+00    0.7904293812E-03
    0.3100000000E+05    0.1647112255E-01    0.6753842092E-02    0.6950774079E+00    0.3335819793E+00    0.7933696161E-03
    0.3300000000E+05    0.1610816166E-01    0.6616450545E-02    0.6950871491E+00    0.3434814407E+00    0.7961353739E-03
    0.3500000000E+05    0.1573579447E-01    0.6474411249E-02    0.6950956283E+00    0.3528278031E+00    0.7987467194E-03
    0.3700000000E+05    0.1535862669E-01    0.6329632626E-02    0.6951030578E+00    0.3616697562E+00    0.8012204173E-03
    0.3900000000E+05    0.1498022999E-01    0.6183607583E-02    0.6951096054E+00    0.3700497843E+00    0.8035706209E-03
    0.4100000000E+05    0.1460336775E-01    0.6037502870E-02    0.6951154056E+00    0.3780052084E+00    0.8058093898E-03
    0.4300000000E+05    0.1423016823E-01    0.5892227833E-02    0.6951205673E+00    0.3855690159E+00    0.8079470853E-03
    0.4500000000E+05    0.1386225853E-01    0.5748487732E-02    0.6951251799E+00    0.3927705290E+00    0.8099926757E-03
    0.4700000000E+05    0.1350086892E-01    0.5606825389E-02    0.6951293169E+00    0.3996359450E+00    0.8119539771E-03
    0.4900000000E+05    0.1314691467E-01    0.5467653935E-02    0.6951330398E+00    0.4061887805E+00    0.8138378426E-03
    0.1000000000E+05    0.1627804627E-01    0.6533127542E-02    0.6946968537E+00    0.1730301827E+00    0.7448199501E-03
    0.3000000000E+05    0.1664728248E-01    0.6820056851E-02    0.6950719822E+00    0.3284076059E+00    0.7919227147E-03
    0.5000000000E+05    0.1297294182E-01    0.5399102419E-02    0.6951347624E+00    0.4093546876E+00    0.8147526534E-03
    0.7000000000E+05    0.9960003378E-02    0.4198114873E-02    0.6951564916E+00    0.4604673110E+00    0.8301365004E-03
    0.9000000000E+05    0.7766064557E-02    0.3308239063E-02    0.6951656582E+00    0.4956295014E+00    0.8418118099E-03
    0.1100000000E+06    0.6178164623E-02    0.2655802086E-02    0.6951696215E+00    0.5211573162E+00    0.8512501910E-03
    0.1300000000E+06    0.5010556594E-02    0.2171015675E-02    0.6951710573E+00    0.5404320218E+00    0.8591870342E-03
    0.1500000000E+06    0.4134337237E-02    0.1803987679E-02    0.6951711421E+00    0.5554373171E+00    0.8660440115E-03
    0.1700000000E+06    0.3463370085E-02    0.1520774275E-02    0.6951704608E+00    0.5674114238E+00    0.8720858893E-03
    0.1900000000E+06    0.2939888254E-02    0.1298312417E-02    0.6951693295E+00    0.5771642871E+00    0.8774900428E-03
    0.2100000000E+06    0.2524533610E-02    0.1120725427E-02    0.6951679303E+00    0.5852459964E+00    0.8823812336E-03
    0.2300000000E+06    0.2189968951E-02    0.9768904305E-03    0.6951663727E+00    0.5920420129E+00    0.8868506171E-03
    0.2500000000E+06    0.1916830754E-02    0.8588703156E-03    0.6951647251E+00    0.5978297101E+00    0.8909668593E-03
    0.2700000000E+06    0.1691143745E-02    0.7608992012E-03    0.6951630312E+00    0.6028133121E+00    0.8947829987E-03
    0.2900000000E+06    0.1502643515E-02    0.6787175094E-03    0.6951613194E+00    0.6071462266E+00    0.8983408712E-03
    0.3100000000E+06    0.1343668576E-02    0.6091290475E-03    0.6951596086E+00    0.6109457402E+00    0.9016740686E-03
    0.3300000000E+06    0.1208415023E-02    0.5497008791E-03    0.6951579111E+00    0.6143029394E+00    0.9048099794E-03
    0.3500000000E+06    0.1092426124E-02    0.4985564830E-03    0.6951562351E+00    0.6172895610E+00    0.9077712329E-03
    0.3700000000E+06    0.9922368247E-03    0.4542308723E-03    0.6951545858E+00    0.6199628179E+00    0.9105767461E-03
    0.3900000000E+06    0.9051221862E-03    0.4155675431E-03    0.6951529667E+00    0.6223688614E+00    0.9132424961E-03
    0.4100000000E+06    0.8289167169E-03    0.3816441169E-03    0.6951513798E+00    0.6245453061E+00    0.9157821020E-03
    0.4300000000E+06    0.7618828076E-03    0.3517179591E-03    0.6951498259E+00    0.6265230985E+00    0.9182072689E-03
    0.4500000000E+06    0.7026136921E-03    0.3251859078E-03    0.6951483056E+00    0.6283279195E+00    0.9205281316E-03
    0.4700000000E+06    0.6499610118E-03    0.3015541007E-03    0.6951468188E+00    0.6299812490E+00    0.9227535251E-03
    0.4900000000E+06    0.6029801400E-03    0.2804151201E-03    0.6951453650E+00    0.6315011845E+00    0.9248911979E-03
    0.1000000000E+06    0.6909392447E-02    0.2957174229E-02    0.6951680696E+00    0.5093422109E+00    0.8467544223E-03
    0.3000000000E+06    0.1419864771E-02    0.6425162840E-03    0.6951604630E+00    0.6091064437E+00    0.9000337164E-03
    0.5000000000E+06    0.5813666743E-03    0.2706723691E-03    0.6951446502E+00    0.6322160194E+00    0.9259293066E-03
    0.7000000000E+06    0.3130943532E-03    0.1485816833E-03    0.6951318893E+00    0.6422424981E+00    0.9433906147E-03
    0.9000000000E+06    0.1950503841E-03    0.9389861926E-04    0.6951214519E+00    0.6478132094E+00    0.9566465697E-03
    0.1100000000E+07    0.1329917187E-03    0.6475820524E-04    0.6951126587E+00    0.6513512582E+00    0.9673645685E-03
    0.1300000000E+07    0.9642402515E-04    0.4739787464E-04    0.6951050680E+00    0.6537953310E+00    0.9763784268E-03
    0.1500000000E+07    0.7309388967E-04    0.3621933499E-04    0.6950983900E+00    0.6555840572E+00    0.9841664584E-03
    0.1700000000E+07    0.5731042686E-04    0.2859633850E-04    0.6950924271E+00    0.6569495045E+00    0.9910290813E-03
    0.1900000000E+07    0.4614031876E-04    0.2316362560E-04    0.6950870389E+00    0.6580258516E+00    0.9971675968E-03
    0.2100000000E+07    0.3794760464E-04    0.1915410201E-04    0.6950821227E+00    0.6588960351E+00    0.1002723618E-02
    0.2300000000E+07    0.3176169178E-04    0.1610966293E-04    0.6950776011E+00    0.6596140619E+00    0.1007800624E-02
    0.2500000000E+07    0.2697731085E-04    0.1374294123E-04    0.6950734142E+00    0.6602166028E+00    0.1012476572E-02
    0.2700000000E+07    0.2320118623E-04    0.1186621745E-04    0.6950695150E+00    0.6607294282E+00    0.1016811684E-02
    0.2900000000E+07    0.2016883115E-04    0.1035262608E-04    0.6950658655E+00    0.6611711759E+00    0.1020853462E-02
    0.3100000000E+07    0.1769708142E-04    0.9113911656E-05    0.6950624350E+00    0.6615556582E+00    0.1024640052E-02
    0.3300000000E+07    0.1565584681E-04    0.8087128563E-05    0.6950591982E+00    0.6618933277E+00    0.1028202555E-02
    0.3500000000E+07    0.1395067812E-04    0.7226397622E-05    0.6950561338E+00    0.6621922399E+00    0.1031566670E-02
    0.3700000000E+07    0.1251166481E-04    0.6497634924E-05    0.6950532239E+00    0.6624587033E+00    0.1034753882E-02
    0.3900000000E+07    0.1128616644E-04    0.5875087902E-05    0.6950504533E+00    0.6626977279E+00    0.1037782335E-02
    0.4100000000E+07    0.1023393676E-04    0.5339003391E-05    0.6950478090E+00    0.6629133433E+00    0.1040667498E-02
    0.4300000000E+07    0.9323780955E-05    0.4874023625E-05    0.6950452797E+00    0.6631088269E+00    0.1043422664E-02
    0.4500000000E+07    0.8531219095E-05    0.4468061491E-05    0.6950428555E+00    0.6632868719E+00    0.1046059346E-02
    0.4700000000E+07    0.7836823938E-05    0.4111498022E-05    0.6950405279E+00    0.6634497117E+00    0.1048587576E-02
    0.4900000000E+07    0.7225019591E-05    0.3796600731E-05    0.6950382891E+00    0.6635992139E+00    0.1051016158E-02
    0.1000000000E+07    0.1596004340E-03    0.7729513780E-04    0.6951168819E+00    0.6497600985E+00    0.9622591077E-03
    0.3000000000E+07    0.1887201184E-04    0.9703321649E-05    0.6950641246E+00    0.6613698564E+00    0.1022776568E-02
    0.5000000000E+07    0.6946052864E-05    0.3652768698E-05    0.6950372010E+00    0.6636694652E+00    0.1052195543E-02
    0.7000000000E+07    0.3619223225E-05    0.1922574955E-05    0.6950188152E+00    0.6646519735E+00    0.1072033390E-02
    0.9000000000E+07    0.2240007802E-05    0.1193975728E-05    0.6950047716E+00    0.6651969862E+00    0.1087093730E-02
    0.1100000000E+08    0.1537371000E-05    0.8187227331E-06    0.6949933746E+00    0.6655435066E+00    0.1099270727E-02
    0.1300000000E+08    0.1130658063E-05    0.5997852309E-06    0.6949837654E+00    0.6657832706E+00    0.1109511636E-02
    0.1500000000E+08    0.8737654428E-06    0.4606903204E-06    0.6949754477E+00    0.6659590314E+00    0.1118359859E-02
    0.1700000000E+08    0.7008518434E-06    0.3666678069E-06    0.6949681078E+00    0.6660934023E+00    0.1126156699E-02
    0.1900000000E+08    0.5786862644E-06    0.3000397797E-06    0.6949615348E+00    0.6661994661E+00    0.1133130858E-02
    0.2100000000E+08    0.4890154437E-06    0.2510361592E-06    0.6949555798E+00    0.6662853173E+00    0.1139443224E-02
    0.2300000000E+08    0.4211314904E-06    0.2138954550E-06    0.6949501339E+00    0.6663562326E+00    0.1145211363E-02
    0.2500000000E+08    0.3684130807E-06    0.1850389379E-06    0.6949451146E+00    0.6664157993E+00    0.1150523844E-02
    0.2700000000E+08    0.3265851835E-06    0.1621470185E-06    0.6949404584E+00    0.6664665407E+00    0.1155449087E-02
