  Pressure (Pa) 22mC5-500 (mol/kg) 23mC5-500 (mol/kg) 24mC5-500 (mol/kg) 3mC6-500 (mol/kg) C7-500 (mol/kg)
    0.1000000000E+01    0.6811265265E-05    0.3260823496E-05    0.1266339845E+00    0.5388542546E-05    0.4169065044E-02
    0.3000000000E+01    0.1407969922E-04    0.6721609412E-05    0.2785307933E+00    0.1355937892E-04    0.4197115702E-02
    0.5000000000E+01    0.1777343709E-04    0.8469307750E-05    0.3664397164E+00    0.2102624989E-04    0.4209744239E-02
    0.7000000000E+01    0.1995175192E-04    0.9495427865E-05    0.4237595714E+00    0.2815764147E-04    0.4217465480E-02
    0.9000000000E+01    0.2138558759E-04    0.1016955612E-04    0.4640902317E+00    0.3507669522E-04    0.4222679314E-02
    0.1100000000E+02    0.2241831733E-04    0.1065554907E-04    0.4940101209E+00    0.4184471373E-04    0.4226402210E-02
    0.1300000000E+02    0.2322125685E-04    0.1103475598E-04    0.5170895716E+00    0.4849805222E-04    0.4229158001E-02
    0.1500000000E+02    0.2388703460E-04    0.1135092759E-04    0.5354338141E+00    0.5506059954E-04    0.4231247963E-02
    0.1700000000E+02    0.2446881005E-04    0.1162902671E-04    0.5503645694E+00    0.6154916036E-04    0.4232858754E-02
    0.1900000000E+02    0.2499850995E-04    0.1188394947E-04    0.5627535238E+00    0.6797614781E-04    0.4234112588E-02
    0.2100000000E+02    0.2549599526E-04    0.1212489587E-04    0.5731988454E+00    0.7435107494E-04    0.4235093006E-02
    0.2300000000E+02    0.2597396260E-04    0.1235769921E-04    0.5821246621E+00    0.8068144528E-04    0.4235859135E-02
    0.2500000000E+02    0.2644069971E-04    0.1258613115E-04    0.5898400670E+00    0.8697331602E-04    0.4236454044E-02
    0.2700000000E+02    0.2690169990E-04    0.1281266370E-04    0.5965756427E+00    0.9323167082E-04    0.4236909877E-02
    0.2900000000E+02    0.2736064159E-04    0.1303892971E-04    0.6025069007E+00    0.9946067612E-04    0.4237251123E-02
    0.3100000000E+02    0.2782000028E-04    0.1326600953E-04    0.6077697958E+00    0.1056638627E-03    0.4237496780E-02
    0.3300000000E+02    0.2828144074E-04    0.1349461384E-04    0.6124712761E+00    0.1118442578E-03    0.4237661817E-02
    0.3500000000E+02    0.2874607380E-04    0.1372520283E-04    0.6166966271E+00    0.1180044837E-03    0.4237758194E-02
    0.3700000000E+02    0.2921462774E-04    0.1395806536E-04    0.6205146923E+00    0.1241468320E-03    0.4237795585E-02
    0.3900000000E+02    0.2968756444E-04    0.1419337233E-04    0.6239816531E+00    0.1302733217E-03    0.4237781901E-02
    0.4100000000E+02    0.3016515938E-04    0.1443121315E-04    0.6271438121E+00    0.1363857440E-03    0.4237723675E-02
    0.4300000000E+02    0.3064755716E-04    0.1467162102E-04    0.6300396731E+00    0.1424856981E-03    0.4237626353E-02
    0.4500000000E+02    0.3113481073E-04    0.1491459048E-04    0.6327015164E+00    0.1485746203E-03    0.4237494510E-02
    0.4700000000E+02    0.3162690903E-04    0.1516008983E-04    0.6351566077E+00    0.1546538072E-03    0.4237332017E-02
    0.4900000000E+02    0.3212379686E-04    0.1540806990E-04    0.6374281353E+00    0.1607244350E-03    0.4237142176E-02
    0.1000000000E+02    0.2193884243E-04    0.1042976934E-04    0.4800821939E+00    0.3847692615E-04    0.4224687241E-02
    0.3000000000E+02    0.2759014928E-04    0.1315231645E-04    0.6052146280E+00    0.1025652970E-03    0.4237384884E-02
    0.5000000000E+02    0.3237401110E-04    0.1553297162E-04    0.6385013783E+00    0.1637568779E-03    0.4237037899E-02
    0.7000000000E+02    0.3760253512E-04    0.1814461970E-04    0.6539156456E+00    0.2241737847E-03    0.4234029832E-02
    0.9000000000E+02    0.4318037144E-04    0.2093038050E-04    0.6628053095E+00    0.2845506003E-03    0.4229985942E-02
    0.1100000000E+03    0.4902472882E-04    0.2384731560E-04    0.6685894107E+00    0.3452697060E-03    0.4225402808E-02
    0.1300000000E+03    0.5508796345E-04    0.2687147998E-04    0.6726533324E+00    0.4065722899E-03    0.4220481830E-02
    0.1500000000E+03    0.6134340458E-04    0.2998971419E-04    0.6756651026E+00    0.4686300275E-03    0.4215318689E-02
    0.1700000000E+03    0.6777630584E-04    0.3319486168E-04    0.6779864900E+00    0.5315760429E-03    0.4209963402E-02
    0.1900000000E+03    0.7437894190E-04    0.3648325426E-04    0.6798304638E+00    0.5955204165E-03    0.4204443599E-02
    0.2100000000E+03    0.8114792246E-04    0.3985335723E-04    0.6813305651E+00    0.6605587958E-03    0.4198774869E-02
    0.2300000000E+03    0.8808266661E-04    0.4330500846E-04    0.6825747771E+00    0.7267775604E-03    0.4192965840E-02
    0.2500000000E+03    0.9518450290E-04    0.4683897343E-04    0.6836234269E+00    0.7942571174E-03    0.4187020869E-02
    0.2700000000E+03    0.1024561206E-03    0.5045667595E-04    0.6845192597E+00    0.8630741147E-03    0.4180941556E-02
    0.2900000000E+03    0.1099012263E-03    0.5416003056E-04    0.6852934096E+00    0.9333029958E-03    0.4174727642E-02
    0.3100000000E+03    0.1175243235E-03    0.5795133609E-04    0.6859690908E+00    0.1005017138E-02    0.4168377547E-02
    0.3300000000E+03    0.1253305711E-03    0.6183320721E-04    0.6865639660E+00    0.1078289718E-02    0.4161888724E-02
    0.3500000000E+03    0.1333256909E-03    0.6580853042E-04    0.6870917115E+00    0.1153194394E-02    0.4155257877E-02
    0.3700000000E+03    0.1415159085E-03    0.6988043608E-04    0.6875630826E+00    0.1229805864E-02    0.4148481107E-02
    0.3900000000E+03    0.1499079166E-03    0.7405228144E-04    0.6879866533E+00    0.1308200336E-02    0.4141554013E-02
    0.4100000000E+03    0.1585088549E-03    0.7832764128E-04    0.6883693428E+00    0.1388455943E-02    0.4134471751E-02
    0.4300000000E+03    0.1673263005E-03    0.8271030408E-04    0.6887167965E+00    0.1470653112E-02    0.4127229078E-02
    0.4500000000E+03    0.1763682670E-03    0.8720427225E-04    0.6890336661E+00    0.1554874911E-02    0.4119820379E-02
    0.4700000000E+03    0.1856432110E-03    0.9181376550E-04    0.6893238188E+00    0.1641207369E-02    0.4112239676E-02
    0.4900000000E+03    0.1951600424E-03    0.9654322670E-04    0.6895904965E+00    0.1729739801E-02    0.4104480641E-02
    0.1000000000E+03    0.4607284990E-04    0.2237427918E-04    0.6659741114E+00    0.3148501268E-03    0.4227745546E-02
    0.3000000000E+03    0.1136902176E-03    0.5604453283E-04    0.6856423461E+00    0.9689698399E-03    0.4171569757E-02
    0.5000000000E+03    0.2000120780E-03    0.9895439661E-04    0.6897159046E+00    0.1774859891E-02    0.4100532173E-02
    0.7000000000E+03    0.3123680575E-03    0.1547786298E-03    0.6914762638E+00    0.2818199201E-02    0.4010334767E-02
    0.9000000000E+03    0.4639204955E-03    0.2300655259E-03    0.6924579162E+00    0.4225347434E-02    0.3891665052E-02
    0.1100000000E+04    0.6772178281E-03    0.3360219893E-03    0.6930839035E+00    0.6209163154E-02    0.3728895801E-02
    0.1300000000E+04    0.9925819891E-03    0.4926862934E-03    0.6935178282E+00    0.9150351722E-02    0.3494939267E-02
    0.1500000000E+04    0.1483861983E-02    0.7367624164E-03    0.6938362962E+00    0.1374952643E-01    0.3142398535E-02
    0.1700000000E+04    0.2277002412E-02    0.1130866295E-02    0.6940799570E+00    0.2121407490E-01    0.2597217656E-02
    0.1900000000E+04    0.3501024381E-02    0.1739221140E-02    0.6942723836E+00    0.3282890873E-01    0.1807485601E-02
    0.2100000000E+04    0.4981623375E-02    0.2475432474E-02    0.6944281873E+00    0.4708624677E-01    0.9516228010E-03
    0.2300000000E+04    0.6159082223E-02    0.3061452430E-02    0.6945569065E+00    0.5876102452E-01    0.4088775777E-03
    0.2500000000E+04    0.6889593939E-02    0.3425644074E-02    0.6946650324E+00    0.6639006635E-01    0.2021884324E-03
    0.2700000000E+04    0.7392058812E-02    0.3676653203E-02    0.6947571357E+00    0.7195958959E-01    0.1420613015E-03
    0.2900000000E+04    0.7808008688E-02    0.3884776951E-02    0.6948365281E+00    0.7678539602E-01    0.1262876129E-03
    0.3100000000E+04    0.8187047709E-02    0.4074657549E-02    0.6949056674E+00    0.8133183123E-01    0.1224693366E-03
    0.3300000000E+04    0.8544212737E-02    0.4253762021E-02    0.6949664166E+00    0.8573827790E-01    0.1217733540E-03
    0.3500000000E+04    0.8884218626E-02    0.4424427302E-02    0.6950202130E+00    0.9004613787E-01    0.1218793055E-03
    0.3700000000E+04    0.9208858918E-02    0.4587538273E-02    0.6950681837E+00    0.9426895244E-01    0.1221816234E-03
    0.3900000000E+04    0.9519094576E-02    0.4743566157E-02    0.6951112245E+00    0.9841239494E-01    0.1225225909E-03
    0.4100000000E+04    0.9815633006E-02    0.4892856441E-02    0.6951500569E+00    0.1024798604E+00    0.1228617278E-03
    0.4300000000E+04    0.1009908903E-01    0.5035708932E-02    0.6951852678E+00    0.1064740259E+00    0.1231893386E-03
    0.4500000000E+04    0.1037003066E-01    0.5172400508E-02    0.6952173402E+00    0.1103972906E+00    0.1235037778E-03
    0.4700000000E+04    0.1062899304E-01    0.5303192031E-02    0.6952466748E+00    0.1142519024E+00    0.1238054406E-03
    0.4900000000E+04    0.1087648346E-01    0.5428330836E-02    0.6952736068E+00    0.1180399983E+00    0.1240951725E-03
    0.1000000000E+04    0.5608885750E-03    0.2782348055E-03    0.6928020889E+00    0.5126665879E-02    0.3817132517E-02
    0.3000000000E+04    0.8000803532E-02    0.3981332802E-02    0.6948722513E+00    0.7908104746E-01    0.1236930633E-03
    0.5000000000E+04    0.1099607824E-01    0.5488854372E-02    0.6952862620E+00    0.1199097440E+00    0.1242358423E-03
    0.7000000000E+04    0.1289094101E-01    0.6453906996E-02    0.6954631652E+00    0.1542644154E+00    0.1265985320E-03
    0.9000000000E+04    0.1406237376E-01    0.7060596372E-02    0.6955610904E+00    0.1838217469E+00    0.1283886950E-03
    0.1100000000E+05    0.1474425935E-01    0.7423419228E-02    0.6956231633E+00    0.2096738219E+00    0.1298345079E-03
    0.1300000000E+05    0.1508908995E-01    0.7617258388E-02    0.6956659611E+00    0.2325847857E+00    0.1310495734E-03
    0.1500000000E+05    0.1519916165E-01    0.7692522484E-02    0.6956972134E+00    0.2531071577E+00    0.1320988811E-03
    0.1700000000E+05    0.1514471658E-01    0.7683959696E-02    0.6957210086E+00    0.2716518652E+00    0.1330231739E-03
    0.1900000000E+05    0.1497491706E-01    0.7615995573E-02    0.6957397110E+00    0.2885321070E+00    0.1338497157E-03
    0.2100000000E+05    0.1472471125E-01    0.7506077121E-02    0.6957547827E+00    0.3039917706E+00    0.1345976668E-03
    0.2300000000E+05    0.1441925524E-01    0.7366830058E-02    0.6957671762E+00    0.3182243934E+00    0.1352810172E-03
    0.2500000000E+05    0.1407683407E-01    0.7207486398E-02    0.6957775382E+00    0.3313861482E+00    0.1359102994E-03
    0.2700000000E+05    0.1371083461E-01    0.7034850501E-02    0.6957863234E+00    0.3436049424E+00    0.1364936456E-03
    0.2900000000E+05    0.1333110414E-01    0.6853965800E-02    0.6957938607E+00    0.3549869284E+00    0.1370374676E-03
    0.3100000000E+05    0.1294490211E-01    0.6668583010E-02    0.6958003937E+00    0.3656212496E+00    0.1375469124E-03
    0.3300000000E+05    0.1255757721E-01    0.6481494039E-02    0.6958061067E+00    0.3755835586E+00    0.1380261753E-03
    0.3500000000E+05    0.1217305545E-01    0.6294773416E-02    0.6958111418E+00    0.3849386682E+00    0.1384787217E-03
    0.3700000000E+05    0.1179419629E-01    0.6109954971E-02    0.6958156101E+00    0.3937425759E+00    0.1389074480E-03
    0.3900000000E+05    0.1142305528E-01    0.5928162553E-02    0.6958195999E+00    0.4020440315E+00    0.1393148002E-03
    0.4100000000E+05    0.1106107949E-01    0.5750207675E-02    0.6958231821E+00    0.4098857662E+00    0.1397028626E-03
    0.4300000000E+05    0.1070925420E-01    0.5576663072E-02    0.6958264143E+00    0.4173054667E+00    0.1400734267E-03
    0.4500000000E+05    0.1036821383E-01    0.5407918535E-02    0.6958293439E+00    0.4243365555E+00    0.1404280434E-03
    0.4700000000E+05    0.1003832623E-01    0.5244223574E-02    0.6958320101E+00    0.4310088231E+00    0.1407680642E-03
    0.4900000000E+05    0.9719757234E-02    0.5085720205E-02    0.6958344457E+00    0.4373489437E+00    0.1410946748E-03
    0.1000000000E+05    0.1445352102E-01    0.7267100543E-02    0.6955952612E+00    0.1971571534E+00    0.1291459576E-03
    0.3000000000E+05    0.1313843947E-01    0.6761642901E-02    0.6957972401E+00    0.3603925373E+00    0.1372962056E-03
    0.5000000000E+05    0.9564726231E-02    0.5008436705E-02    0.6958355859E+00    0.4404020387E+00    0.1412532828E-03
    0.7000000000E+05    0.7016307466E-02    0.3724567632E-02    0.6958511419E+00    0.4887533481E+00    0.1439209193E-03
    0.9000000000E+05    0.5296261001E-02    0.2843299353E-02    0.6958592889E+00    0.5209472530E+00    0.1459459050E-03
    0.1100000000E+06    0.4113257519E-02    0.2229363072E-02    0.6958641535E+00    0.5437638834E+00    0.1475831210E-03
    0.1300000000E+06    0.3275036479E-02    0.1789783439E-02    0.6958672971E+00    0.5606869671E+00    0.1489599920E-03
    0.1500000000E+06    0.2663477940E-02    0.1466215811E-02    0.6958694361E+00    0.5736868151E+00    0.1501496034E-03
    0.1700000000E+06    0.2205406314E-02    0.1221983219E-02    0.6958709436E+00    0.5839561277E+00    0.1511978537E-03
    0.1900000000E+06    0.1854306958E-02    0.1033506427E-02    0.6958720315E+00    0.5922556946E+00    0.1521354960E-03
    0.2100000000E+06    0.1579745801E-02    0.8852137238E-03    0.6958728289E+00    0.5990917278E+00    0.1529841638E-03
    0.2300000000E+06    0.1361246888E-02    0.7665452036E-03    0.6958734183E+00    0.6048130420E+00    0.1537596643E-03
    0.2500000000E+06    0.1184675671E-02    0.6701607628E-03    0.6958738549E+00    0.6096672033E+00    0.1544739059E-03
    0.2700000000E+06    0.1040045676E-02    0.5908424068E-03    0.6958741766E+00    0.6138344219E+00    0.1551360872E-03
    0.2900000000E+06    0.9201521269E-03    0.5248046682E-03    0.6958744105E+00    0.6174487861E+00    0.1557534644E-03
    0.3100000000E+06    0.8196985278E-03    0.4692506254E-03    0.6958745762E+00    0.6206119984E+00    0.1563318640E-03
    0.3300000000E+06    0.7347248136E-03    0.4220793639E-03    0.6958746883E+00    0.6234025132E+00    0.1568760365E-03
    0.3500000000E+06    0.6622245832E-03    0.3816890533E-03    0.6958747576E+00    0.6258817664E+00    0.1573899073E-03
    0.3700000000E+06    0.5998836598E-03    0.3468417505E-03    0.6958747928E+00    0.6280985177E+00    0.1578767578E-03
    0.3900000000E+06    0.5458981806E-03    0.3165688876E-03    0.6958748002E+00    0.6300919351E+00    0.1583393597E-03
    0.4100000000E+06    0.4988458607E-03    0.2901040963E-03    0.6958747852E+00    0.6318938268E+00    0.1587800753E-03
    0.4300000000E+06    0.4575934565E-03    0.2668347273E-03    0.6958747516E+00    0.6335302810E+00    0.1592009354E-03
    0.4500000000E+06    0.4212292948E-03    0.2462663693E-03    0.6958747030E+00    0.6350228879E+00    0.1596036981E-03
    0.4700000000E+06    0.3890134225E-03    0.2279965418E-03    0.6958746418E+00    0.6363896636E+00    0.1599898961E-03
    0.4900000000E+06    0.3603403273E-03    0.2116949570E-03    0.6958745703E+00    0.6376457557E+00    0.1603608737E-03
    0.1000000000E+06    0.4651799326E-02    0.2509713331E-02    0.6958620041E+00    0.5332614612E+00    0.1468032481E-03
    0.3000000000E+06    0.8677689521E-03    0.4958621302E-03    0.6958745009E+00    0.6190814221E+00    0.1560472176E-03
    0.5000000000E+06    0.3471727760E-03    0.2041950193E-03    0.6958745312E+00    0.6382363818E+00    0.1605410309E-03
    0.7000000000E+06    0.1850624819E-03    0.1109733926E-03    0.6958735059E+00    0.6465156692E+00    0.1635714192E-03
    0.9000000000E+06    0.1146170890E-03    0.6973562341E-04    0.6958723539E+00    0.6511154868E+00    0.1658720776E-03
    0.1100000000E+07    0.7784912726E-04    0.4791734365E-04    0.6958712461E+00    0.6540387861E+00    0.1677323174E-03
    0.1300000000E+07    0.5628632783E-04    0.3498003937E-04    0.6958702169E+00    0.6560596636E+00    0.1692968225E-03
    0.1500000000E+07    0.4257551443E-04    0.2667716449E-04    0.6958692681E+00    0.6575396690E+00    0.1706485932E-03
    0.1700000000E+07    0.3332317382E-04    0.2102920727E-04    0.6958683928E+00    0.6586701240E+00    0.1718397617E-03
    0.1900000000E+07    0.2678812302E-04    0.1701181947E-04    0.6958675828E+00    0.6595616944E+00    0.1729052608E-03
    0.2100000000E+07    0.2200263349E-04    0.1405144786E-04    0.6958668300E+00    0.6602828178E+00    0.1738696661E-03
    0.2300000000E+07    0.1839412675E-04    0.1180650157E-04    0.6958661275E+00    0.6608780817E+00    0.1747509356E-03
    0.2500000000E+07    0.1560632334E-04    0.1006317294E-04    0.6958654693E+00    0.6613777762E+00    0.1755625984E-03
    0.2700000000E+07    0.1340815026E-04    0.8682047697E-05    0.6958648502E+00    0.6618031973E+00    0.1763151056E-03
    0.2900000000E+07    0.1164444341E-04    0.7569049783E-05    0.6958642660E+00    0.6621697534E+00    0.1770167013E-03
    0.3100000000E+07    0.1020788796E-04    0.6658819120E-05    0.6958637129E+00    0.6624888676E+00    0.1776740057E-03
    0.3300000000E+07    0.9022351073E-05    0.5904791914E-05    0.6958631879E+00    0.6627691881E+00    0.1782924166E-03
    0.3500000000E+07    0.8032612948E-05    0.5273062483E-05    0.6958626881E+00    0.6630173818E+00    0.1788763942E-03
    0.3700000000E+07    0.7197836143E-05    0.4738463882E-05    0.6958622113E+00    0.6632386712E+00    0.1794296670E-03
    0.3900000000E+07    0.6487295398E-05    0.4281995509E-05    0.6958617555E+00    0.6634372051E+00    0.1799553843E-03
    0.4100000000E+07    0.5877516210E-05    0.3889093242E-05    0.6958613187E+00    0.6636163213E+00    0.1804562307E-03
    0.4300000000E+07    0.5350315106E-05    0.3548440757E-05    0.6958608995E+00    0.6637787353E+00    0.1809345135E-03
    0.4500000000E+07    0.4891430985E-05    0.3251136721E-05    0.6958604966E+00    0.6639266788E+00    0.1813922306E-03
    0.4700000000E+07    0.4489552262E-05    0.2990101071E-05    0.6958601085E+00    0.6640620031E+00    0.1818311237E-03
    0.4900000000E+07    0.4135614252E-05    0.2759644979E-05    0.6958597344E+00    0.6641862566E+00    0.1822527203E-03
    0.1000000000E+07    0.9358891944E-04    0.5728932995E-04    0.6958717910E+00    0.6527238329E+00    0.1668461957E-03
    0.3000000000E+07    0.1089061748E-04    0.7091853718E-05    0.6958639858E+00    0.6623346460E+00    0.1773505277E-03
    0.5000000000E+07    0.3974275074E-05    0.2654407396E-05    0.6958595522E+00    0.6642446477E+00    0.1824574597E-03
    0.7000000000E+07    0.2053187295E-05    0.1390009144E-05    0.6958564456E+00    0.6650615817E+00    0.1859013596E-03
    0.9000000000E+07    0.1259298408E-05    0.8587942768E-06    0.6958540430E+00    0.6655149942E+00    0.1885159713E-03
    0.1100000000E+08    0.8560527355E-06    0.5857356579E-06    0.6958520784E+00    0.6658033696E+00    0.1906300704E-03
    0.1300000000E+08    0.6233297305E-06    0.4267147513E-06    0.6958504132E+00    0.6660029457E+00    0.1924080800E-03
    0.1500000000E+08    0.4767806314E-06    0.3258684187E-06    0.6958489662E+00    0.6661492695E+00    0.1939443252E-03
    0.1700000000E+08    0.3784482329E-06    0.2578242863E-06    0.6958476853E+00    0.6662611487E+00    0.1952980516E-03
    0.1900000000E+08    0.3092006226E-06    0.2096946273E-06    0.6958465354E+00    0.6663494671E+00    0.1965089590E-03
    0.2100000000E+08    0.2585425574E-06    0.1743629493E-06    0.6958454913E+00    0.6664209598E+00    0.1976049764E-03
    0.2300000000E+08    0.2203251214E-06    0.1476360770E-06    0.6958445347E+00    0.6664800182E+00    0.1986065124E-03
    0.2500000000E+08    0.1907509660E-06    0.1269115311E-06    0.6958436516E+00    0.6665296278E+00    0.1995289425E-03
    0.2700000000E+08    0.1673715338E-06    0.1105038265E-06    0.6958428312E+00    0.6665718890E+00    0.2003841439E-03
