  Pressure (Pa) 22mC5-500 (mol/kg) 23mC5-500 (mol/kg) 24mC5-500 (mol/kg) 3mC6-500 (mol/kg) C7-500 (mol/kg)
    0.1000000000E+01    0.6810828037E-05    0.6521214532E-05    0.1266333044E+00    0.8975054796E-06    0.4169795369E-02
    0.3000000000E+01    0.1407683084E-04    0.1344037896E-04    0.2785277039E+00    0.2255897295E-05    0.4198683475E-02
    0.5000000000E+01    0.1776652987E-04    0.1693177216E-04    0.3664346575E+00    0.3494497330E-05    0.4212016444E-02
    0.7000000000E+01    0.1993936111E-04    0.1897857397E-04    0.4237531326E+00    0.4674956172E-05    0.4220382160E-02
    0.9000000000E+01    0.2136634339E-04    0.2032003166E-04    0.4640828465E+00    0.5817925395E-05    0.4226203458E-02
    0.1100000000E+02    0.2239089876E-04    0.2128390698E-04    0.4940020868E+00    0.6933706625E-05    0.4230507845E-02
    0.1300000000E+02    0.2318437938E-04    0.2203293473E-04    0.5170810929E+00    0.8028420342E-05    0.4233825547E-02
    0.1500000000E+02    0.2383944252E-04    0.2265464511E-04    0.5354250329E+00    0.9106094931E-05    0.4236461957E-02
    0.1700000000E+02    0.2440927122E-04    0.2319898718E-04    0.5503555862E+00    0.1016956842E-04    0.4238606592E-02
    0.1900000000E+02    0.2492581183E-04    0.2369577267E-04    0.5627444109E+00    0.1122094000E-04    0.4240383747E-02
    0.2100000000E+02    0.2540894189E-04    0.2416341810E-04    0.5731896555E+00    0.1226182036E-04    0.4241878539E-02
    0.2300000000E+02    0.2587137220E-04    0.2461360411E-04    0.5821154340E+00    0.1329348126E-04    0.4243151328E-02
    0.2500000000E+02    0.2632140265E-04    0.2505388610E-04    0.5898308295E+00    0.1431695025E-04    0.4244246170E-02
    0.2700000000E+02    0.2676453712E-04    0.2548921856E-04    0.5965664174E+00    0.1533307342E-04    0.4245196010E-02
    0.2900000000E+02    0.2720446320E-04    0.2592287635E-04    0.6024977038E+00    0.1634255849E-04    0.4246026008E-02
    0.3100000000E+02    0.2764366441E-04    0.2635702809E-04    0.6077606395E+00    0.1734600549E-04    0.4246755722E-02
    0.3300000000E+02    0.2808381257E-04    0.2679310210E-04    0.6124621695E+00    0.1834392903E-04    0.4247400599E-02
    0.3500000000E+02    0.2852602465E-04    0.2723202489E-04    0.6166875771E+00    0.1933677490E-04    0.4247973011E-02
    0.3700000000E+02    0.2897103436E-04    0.2767437954E-04    0.6205057039E+00    0.2032493271E-04    0.4248482990E-02
    0.3900000000E+02    0.2941930834E-04    0.2812051257E-04    0.6239727300E+00    0.2130874558E-04    0.4248938760E-02
    0.4100000000E+02    0.2987112622E-04    0.2857060695E-04    0.6271349570E+00    0.2228851784E-04    0.4249347131E-02
    0.4300000000E+02    0.3032663629E-04    0.2902473267E-04    0.6300308877E+00    0.2326452108E-04    0.4249713794E-02
    0.4500000000E+02    0.3078589466E-04    0.2948288198E-04    0.6326928018E+00    0.2423699900E-04    0.4250043544E-02
    0.4700000000E+02    0.3124889304E-04    0.2994499423E-04    0.6351479645E+00    0.2520617144E-04    0.4250340449E-02
    0.4900000000E+02    0.3171557863E-04    0.3041097343E-04    0.6374195637E+00    0.2617223760E-04    0.4250607987E-02
    0.1000000000E+02    0.2191567367E-04    0.2083656429E-04    0.4800744537E+00    0.6378767313E-05    0.4228504906E-02
    0.3000000000E+02    0.2742403442E-04    0.2613978713E-04    0.6052054501E+00    0.1684500280E-04    0.4246402352E-02
    0.5000000000E+02    0.3195027903E-04    0.3064537661E-04    0.6384928424E+00    0.2665416310E-04    0.4250731696E-02
    0.7000000000E+02    0.3681099087E-04    0.3550353952E-04    0.6539077869E+00    0.3616623787E-04    0.4252209823E-02
    0.9000000000E+02    0.4191151687E-04    0.4060120043E-04    0.6627980224E+00    0.4550434383E-04    0.4252570583E-02
    0.1100000000E+03    0.4716814904E-04    0.4585156671E-04    0.6685825970E+00    0.5473052977E-04    0.4252364447E-02
    0.1300000000E+03    0.5253139831E-04    0.5120491157E-04    0.6726469146E+00    0.6388194368E-04    0.4251825238E-02
    0.1500000000E+03    0.5797211628E-04    0.5663245179E-04    0.6756590208E+00    0.7298320964E-04    0.4251070606E-02
    0.1700000000E+03    0.6347259644E-04    0.6211693130E-04    0.6779806970E+00    0.8205180525E-04    0.4250166766E-02
    0.1900000000E+03    0.6902175380E-04    0.6764767417E-04    0.6798249225E+00    0.9110076620E-04    0.4249154078E-02
    0.2100000000E+03    0.7461248712E-04    0.7321792272E-04    0.6813252454E+00    0.1001401905E-03    0.4248058661E-02
    0.2300000000E+03    0.8024018132E-04    0.7882334352E-04    0.6825696544E+00    0.1091781393E-03    0.4246898220E-02
    0.2500000000E+03    0.8590182345E-04    0.8446115315E-04    0.6836184808E+00    0.1182212081E-03    0.4245685208E-02
    0.2700000000E+03    0.9159546161E-04    0.9012958720E-04    0.6845144731E+00    0.1272749055E-03    0.4244428650E-02
    0.2900000000E+03    0.9731986321E-04    0.9582756702E-04    0.6852887678E+00    0.1363439137E-03    0.4243135255E-02
    0.3100000000E+03    0.1030742931E-03    0.1015544845E-03    0.6859645815E+00    0.1454322741E-03    0.4241810111E-02
    0.3300000000E+03    0.1088583657E-03    0.1073100601E-03    0.6865595783E+00    0.1545435215E-03    0.4240457147E-02
    0.3500000000E+03    0.1146719450E-03    0.1130942461E-03    0.6870874361E+00    0.1636807849E-03    0.4239079443E-02
    0.3700000000E+03    0.1205150751E-03    0.1189071613E-03    0.6875589112E+00    0.1728468636E-03    0.4237679442E-02
    0.3900000000E+03    0.1263879311E-03    0.1247490440E-03    0.6879825785E+00    0.1820442861E-03    0.4236259107E-02
    0.4100000000E+03    0.1322907848E-03    0.1306202199E-03    0.6883653583E+00    0.1912753560E-03    0.4234820025E-02
    0.4300000000E+03    0.1382239794E-03    0.1365210785E-03    0.6887128964E+00    0.2005421894E-03    0.4233363492E-02
    0.4500000000E+03    0.1441879113E-03    0.1424520557E-03    0.6890298452E+00    0.2098467435E-03    0.4231890573E-02
    0.4700000000E+03    0.1501830168E-03    0.1484136220E-03    0.6893200724E+00    0.2191908413E-03    0.4230402148E-02
    0.4900000000E+03    0.1562097618E-03    0.1544062733E-03    0.6895868204E+00    0.2285761908E-03    0.4228898946E-02
    0.1000000000E+03    0.4452403264E-04    0.4321104890E-04    0.6659670719E+00    0.5012871852E-04    0.4252519789E-02
    0.3000000000E+03    0.1001933555E-03    0.9868743244E-04    0.6856377721E+00    0.1408854434E-03    0.4242476383E-02
    0.5000000000E+03    0.1592351511E-03    0.1574144160E-03    0.6897122623E+00    0.2332848415E-03    0.4228141998E-02
    0.7000000000E+03    0.2215307682E-03    0.2193407200E-03    0.6914731451E+00    0.3299769080E-03    0.4212329178E-02
    0.9000000000E+03    0.2876081008E-03    0.2850087506E-03    0.6924551444E+00    0.4322796150E-03    0.4195333519E-02
    0.1100000000E+04    0.3580383727E-03    0.3549930836E-03    0.6930813832E+00    0.5412451135E-03    0.4177155212E-02
    0.1300000000E+04    0.4334270799E-03    0.4298987608E-03    0.6935155011E+00    0.6578879773E-03    0.4157709730E-02
    0.1500000000E+04    0.5144341778E-03    0.5103834490E-03    0.6938341235E+00    0.7832750274E-03    0.4136871736E-02
    0.1700000000E+04    0.6017953791E-03    0.5971793833E-03    0.6940779114E+00    0.9185779222E-03    0.4114486199E-02
    0.1900000000E+04    0.6963439030E-03    0.6911153229E-03    0.6942704452E+00    0.1065115031E-02    0.4090369935E-02
    0.2100000000E+04    0.7990342049E-03    0.7931403041E-03    0.6944263407E+00    0.1224392364E-02    0.4064309336E-02
    0.2300000000E+04    0.9109692553E-03    0.9043508454E-03    0.6945551398E+00    0.1398148471E-02    0.4036055924E-02
    0.2500000000E+04    0.1033432930E-02    0.1026023197E-02    0.6946633360E+00    0.1588406729E-02    0.4005320220E-02
    0.2700000000E+04    0.1167929213E-02    0.1159652346E-02    0.6947555019E+00    0.1797538133E-02    0.3971763889E-02
    0.2900000000E+04    0.1316230183E-02    0.1306999740E-02    0.6948349504E+00    0.2028337968E-02    0.3934989960E-02
    0.3100000000E+04    0.1480435167E-02    0.1470152122E-02    0.6949041404E+00    0.2284120271E-02    0.3894530743E-02
    0.3300000000E+04    0.1663043908E-02    0.1651594281E-02    0.6949649357E+00    0.2568834787E-02    0.3849833001E-02
    0.3500000000E+04    0.1867047140E-02    0.1854299126E-02    0.6950187744E+00    0.2887211979E-02    0.3800239809E-02
    0.3700000000E+04    0.2096038420E-02    0.2081838908E-02    0.6950667839E+00    0.3244942501E-02    0.3744968561E-02
    0.3900000000E+04    0.2354351271E-02    0.2338521612E-02    0.6951098606E+00    0.3648897929E-02    0.3683084627E-02
    0.4100000000E+04    0.2647225072E-02    0.2629555974E-02    0.6951487262E+00    0.4107398854E-02    0.3613470500E-02
    0.4300000000E+04    0.2981000889E-02    0.2961246302E-02    0.6951839680E+00    0.4630533142E-02    0.3534791047E-02
    0.4500000000E+04    0.3363342681E-02    0.3341212610E-02    0.6952160694E+00    0.5230518498E-02    0.3445457097E-02
    0.4700000000E+04    0.3803466925E-02    0.3778619232E-02    0.6952454310E+00    0.5922084488E-02    0.3343592866E-02
    0.4900000000E+04    0.4312339104E-02    0.4284370679E-02    0.6952723885E+00    0.6722811002E-02    0.3227018656E-02
    0.1000000000E+04    0.3222423005E-03    0.3194245331E-03    0.6927994519E+00    0.4858665662E-03    0.4186396275E-02
    0.3000000000E+04    0.1396198791E-02    0.1386455300E-02    0.6948706996E+00    0.2152875899E-02    0.3915253390E-02
    0.5000000000E+04    0.4596484234E-02    0.4566782848E-02    0.6952850559E+00    0.7170429407E-02    0.3162454620E-02
    0.7000000000E+04    0.1578559591E-01    0.1569352342E-01    0.6954621455E+00    0.2510197130E-01    0.9009671501E-03
    0.9000000000E+04    0.2281852581E-01    0.2270656588E-01    0.6955601919E+00    0.3738569439E-01    0.1469263588E-03
    0.1100000000E+05    0.2611600645E-01    0.2601229305E-01    0.6956223518E+00    0.4409348124E-01    0.1301869176E-03
    0.1300000000E+05    0.2888959942E-01    0.2880105762E-01    0.6956652162E+00    0.5020808754E-01    0.1310572745E-03
    0.1500000000E+05    0.3130272408E-01    0.3123430781E-01    0.6956965216E+00    0.5594051023E-01    0.1320989585E-03
    0.1700000000E+05    0.3341404145E-01    0.3336954758E-01    0.6957203604E+00    0.6134394513E-01    0.1330230605E-03
    0.1900000000E+05    0.3526920314E-01    0.3525153657E-01    0.6957390996E+00    0.6645946064E-01    0.1338496023E-03
    0.2100000000E+05    0.3690529707E-01    0.3691666429E-01    0.6957542028E+00    0.7132109354E-01    0.1345975585E-03
    0.2300000000E+05    0.3835277207E-01    0.3839482868E-01    0.6957666236E+00    0.7595736890E-01    0.1352809134E-03
    0.2500000000E+05    0.3963684454E-01    0.3971080874E-01    0.6957770098E+00    0.8039239593E-01    0.1359101997E-03
    0.2700000000E+05    0.4077856343E-01    0.4088530433E-01    0.6957858166E+00    0.8464670859E-01    0.1364935495E-03
    0.2900000000E+05    0.4179562689E-01    0.4193573376E-01    0.6957933732E+00    0.8873791930E-01    0.1370373748E-03
    0.3100000000E+05    0.4270301542E-01    0.4287685238E-01    0.6957999237E+00    0.9268123278E-01    0.1375468226E-03
    0.3300000000E+05    0.4351348758E-01    0.4372123716E-01    0.6958056527E+00    0.9648985388E-01    0.1380260882E-03
    0.3500000000E+05    0.4423797181E-01    0.4447966980E-01    0.6958107024E+00    0.1001753143E+00    0.1384786371E-03
    0.3700000000E+05    0.4488587876E-01    0.4516144227E-01    0.6958151841E+00    0.1037477365E+00    0.1389073657E-03
    0.3900000000E+05    0.4546535216E-01    0.4577460239E-01    0.6958191864E+00    0.1072160486E+00    0.1393147200E-03
    0.4100000000E+05    0.4598347199E-01    0.4632615269E-01    0.6958227801E+00    0.1105881603E+00    0.1397027845E-03
    0.4300000000E+05    0.4644641999E-01    0.4682221257E-01    0.6958260231E+00    0.1138711088E+00    0.1400733505E-03
    0.4500000000E+05    0.4685961552E-01    0.4726815143E-01    0.6958289628E+00    0.1170711790E+00    0.1404279689E-03
    0.4700000000E+05    0.4722782764E-01    0.4766869853E-01    0.6958316386E+00    0.1201940054E+00    0.1407679914E-03
    0.4900000000E+05    0.4755526815E-01    0.4802803429E-01    0.6958340831E+00    0.1232446560E+00    0.1410946035E-03
    0.1000000000E+05    0.2456206102E-01    0.2445311985E-01    0.6955944094E+00    0.4085714091E-01    0.1316581749E-03
    0.3000000000E+05    0.4226218607E-01    0.4241912473E-01    0.6957967615E+00    0.9072719519E-01    0.1372961144E-03
    0.5000000000E+05    0.4770488224E-01    0.4819342323E-01    0.6958352275E+00    0.1247443623E+00    0.1412532122E-03
    0.7000000000E+05    0.4926965588E-01    0.5004724723E-01    0.6958508499E+00    0.1518552380E+00    0.1439208606E-03
    0.9000000000E+05    0.4923297754E-01    0.5024960024E-01    0.6958590410E+00    0.1750321577E+00    0.1459458543E-03
    0.1100000000E+06    0.4844112647E-01    0.4965313894E-01    0.6958639380E+00    0.1956046364E+00    0.1475830763E-03
    0.1300000000E+06    0.4727017791E-01    0.4864142998E-01    0.6958671069E+00    0.2142784074E+00    0.1489599520E-03
    0.1500000000E+06    0.4590766632E-01    0.4740844844E-01    0.6958692665E+00    0.2314732507E+00    0.1501495673E-03
    0.1700000000E+06    0.4445477382E-01    0.4606058210E-01    0.6958707912E+00    0.2474602691E+00    0.1511978209E-03
    0.1900000000E+06    0.4296916196E-01    0.4465965448E-01    0.6958718940E+00    0.2624259465E+00    0.1521354662E-03
    0.2100000000E+06    0.4148491961E-01    0.4324309594E-01    0.6958727043E+00    0.2765052030E+00    0.1529841364E-03
    0.2300000000E+06    0.4002263338E-01    0.4183419979E-01    0.6958733053E+00    0.2897998085E+00    0.1537596392E-03
    0.2500000000E+06    0.3859480671E-01    0.4044768390E-01    0.6958737522E+00    0.3023892731E+00    0.1544738828E-03
    0.2700000000E+06    0.3720893113E-01    0.3909286899E-01    0.6958740833E+00    0.3143376067E+00    0.1551360661E-03
    0.2900000000E+06    0.3586930320E-01    0.3777557593E-01    0.6958743257E+00    0.3256976824E+00    0.1557534450E-03
    0.3100000000E+06    0.3457813898E-01    0.3649930093E-01    0.6958744993E+00    0.3365141486E+00    0.1563318461E-03
    0.3300000000E+06    0.3333627879E-01    0.3526596673E-01    0.6958746186E+00    0.3468254263E+00    0.1568760201E-03
    0.3500000000E+06    0.3214364479E-01    0.3407641612E-01    0.6958746947E+00    0.3566651131E+00    0.1573898923E-03
    0.3700000000E+06    0.3099954475E-01    0.3293074387E-01    0.6958747362E+00    0.3660629903E+00    0.1578767442E-03
    0.3900000000E+06    0.2990287767E-01    0.3182852453E-01    0.6958747496E+00    0.3750457602E+00    0.1583393472E-03
    0.4100000000E+06    0.2885227509E-01    0.3076897176E-01    0.6958747402E+00    0.3836375946E+00    0.1587800641E-03
    0.4300000000E+06    0.2784619960E-01    0.2975105120E-01    0.6958747120E+00    0.3918605496E+00    0.1592009253E-03
    0.4500000000E+06    0.2688301422E-01    0.2877356174E-01    0.6958746684E+00    0.3997348846E+00    0.1596036890E-03
    0.4700000000E+06    0.2596103148E-01    0.2783519434E-01    0.6958746120E+00    0.4072793102E+00    0.1599898880E-03
    0.4900000000E+06    0.2507854846E-01    0.2693457521E-01    0.6958745451E+00    0.4145111857E+00    0.1603608666E-03
    0.1000000000E+06    0.4890161356E-01    0.5002090172E-01    0.6958617735E+00    0.1855906904E+00    0.1468032005E-03
    0.3000000000E+06    0.3521758465E-01    0.3713216088E-01    0.6958744201E+00    0.3311713382E+00    0.1560471990E-03
    0.5000000000E+06    0.2465158924E-01    0.2649798220E-01    0.6958745082E+00    0.4180150116E+00    0.1605410242E-03
    0.7000000000E+06    0.1779607782E-01    0.1941022000E-01    0.6958735192E+00    0.4750952552E+00    0.1635714204E-03
    0.9000000000E+06    0.1327765199E-01    0.1465404734E-01    0.6958723943E+00    0.5141980537E+00    0.1658720848E-03
    0.1100000000E+07    0.1020577548E-01    0.1137616595E-01    0.6958713081E+00    0.5419495204E+00    0.1677323296E-03
    0.1300000000E+07    0.8049182647E-02    0.9049453519E-02    0.6958702972E+00    0.5622870610E+00    0.1692968389E-03
    0.1500000000E+07    0.6489409812E-02    0.7350982645E-02    0.6958693643E+00    0.5776234798E+00    0.1706486133E-03
    0.1700000000E+07    0.5330919072E-02    0.6079350256E-02    0.6958685033E+00    0.5894822842E+00    0.1718397851E-03
    0.1900000000E+07    0.4450120685E-02    0.5105702471E-02    0.6958677061E+00    0.5988546637E+00    0.1729052874E-03
    0.2100000000E+07    0.3766587915E-02    0.4345349616E-02    0.6958669651E+00    0.6064042296E+00    0.1738696955E-03
    0.2300000000E+07    0.3226519114E-02    0.3741160386E-02    0.6958662735E+00    0.6125872764E+00    0.1747509676E-03
    0.2500000000E+07    0.2792998268E-02    0.3253647649E-02    0.6958656255E+00    0.6177252909E+00    0.1755626329E-03
    0.2700000000E+07    0.2440103937E-02    0.2854905771E-02    0.6958650160E+00    0.6220498431E+00    0.1763151425E-03
    0.2900000000E+07    0.2149250585E-02    0.2524811001E-02    0.6958644408E+00    0.6257311019E+00    0.1770167405E-03
    0.3100000000E+07    0.1906858518E-02    0.2248582810E-02    0.6958638963E+00    0.6288963922E+00    0.1776740471E-03
    0.3300000000E+07    0.1702834715E-02    0.2015183106E-02    0.6958633795E+00    0.6316425490E+00    0.1782924600E-03
    0.3500000000E+07    0.1529560604E-02    0.1816243210E-02    0.6958628876E+00    0.6340443152E+00    0.1788764396E-03
    0.3700000000E+07    0.1381203985E-02    0.1645330495E-02    0.6958624183E+00    0.6361601606E+00    0.1794297143E-03
    0.3900000000E+07    0.1253242602E-02    0.1497438108E-02    0.6958619696E+00    0.6380363874E+00    0.1799554334E-03
    0.4100000000E+07    0.1142128630E-02    0.1368624004E-02    0.6958615399E+00    0.6397100735E+00    0.1804562816E-03
    0.4300000000E+07    0.1045048688E-02    0.1255751665E-02    0.6958611274E+00    0.6412112151E+00    0.1809345661E-03
    0.4500000000E+07    0.9597496870E-03    0.1156301239E-02    0.6958607310E+00    0.6425643078E+00    0.1813922849E-03
    0.4700000000E+07    0.8844107741E-03    0.1068230147E-02    0.6958603493E+00    0.6437895292E+00    0.1818311796E-03
    0.4900000000E+07    0.8175479943E-03    0.9898689678E-03    0.6958599812E+00    0.6449036329E+00    0.1822527778E-03
    0.1000000000E+07    0.1160050072E-01    0.1286931378E-01    0.6958718427E+00    0.5292007091E+00    0.1668462055E-03
    0.3000000000E+07    0.2022695628E-02    0.2380726582E-02    0.6958641649E+00    0.6273715900E+00    0.1773505680E-03
    0.5000000000E+07    0.7869054998E-03    0.9538901754E-03    0.6958598021E+00    0.6454234866E+00    0.1824575180E-03
    0.7000000000E+07    0.4133866781E-03    0.5110839750E-03    0.6958567485E+00    0.6524254253E+00    0.1859014319E-03
    0.9000000000E+07    0.2537322251E-03    0.3183796285E-03    0.6958543897E+00    0.6560677523E+00    0.1885160553E-03
    0.1100000000E+08    0.1712733258E-03    0.2174764691E-03    0.6958524630E+00    0.6582821907E+00    0.1906301648E-03
    0.1300000000E+08    0.1232659626E-03    0.1580744270E-03    0.6958508317E+00    0.6597649140E+00    0.1924081838E-03
    0.1500000000E+08    0.9290384022E-04    0.1201528385E-03    0.6958494154E+00    0.6608248993E+00    0.1939444375E-03
    0.1700000000E+08    0.7249953780E-04    0.9446171944E-04    0.6958481629E+00    0.6616193745E+00    0.1952981719E-03
    0.1900000000E+08    0.5813523303E-04    0.7624657537E-04    0.6958470394E+00    0.6622365034E+00    0.1965090868E-03
    0.2100000000E+08    0.4764496803E-04    0.6285932697E-04    0.6958460201E+00    0.6627294454E+00    0.1976051112E-03
    0.2300000000E+08    0.3975268777E-04    0.5272958912E-04    0.6958450869E+00    0.6631321125E+00    0.1986066540E-03
    0.2500000000E+08    0.3366719177E-04    0.4487789500E-04    0.6958442261E+00    0.6634671361E+00    0.1995290905E-03
    0.2700000000E+08    0.2887685654E-04    0.3866747109E-04    0.6958434269E+00    0.6637501866E+00    0.2003842980E-03
