  Pressure (Pa) 22mC5-500 (mol/kg) 23mC5-500 (mol/kg) 24mC5-500 (mol/kg) 3mC6-500 (mol/kg) C7-500 (mol/kg)
    0.1000000000E+01    0.8053565489E-05    0.6947239914E-05    0.3666077870E-01    0.4490039141E-05    0.4171674945E-02
    0.3000000000E+01    0.2123626813E-04    0.1829683326E-04    0.9949164483E-01    0.1129661970E-04    0.4212324053E-02
    0.5000000000E+01    0.3166602665E-04    0.2725812906E-04    0.1513801631E+00    0.1751467479E-04    0.4240157713E-02
    0.7000000000E+01    0.4008255817E-04    0.3447569596E-04    0.1949560251E+00    0.2345140158E-04    0.4262825249E-02
    0.9000000000E+01    0.4698155350E-04    0.4038080460E-04    0.2320687717E+00    0.2920949683E-04    0.4281931698E-02
    0.1100000000E+02    0.5271234848E-04    0.4527706556E-04    0.2640571282E+00    0.3484010318E-04    0.4298323870E-02
    0.1300000000E+02    0.5752837503E-04    0.4938452034E-04    0.2919139651E+00    0.4037356024E-04    0.4312563295E-02
    0.1500000000E+02    0.6161766894E-04    0.5286627060E-04    0.3163912108E+00    0.4582980952E-04    0.4325055067E-02
    0.1700000000E+02    0.6512238833E-04    0.5584550206E-04    0.3380687594E+00    0.5122288219E-04    0.4336104122E-02
    0.1900000000E+02    0.6815175688E-04    0.5841676644E-04    0.3574010090E+00    0.5656314456E-04    0.4345946265E-02
    0.2100000000E+02    0.7079088785E-04    0.6065366842E-04    0.3747490684E+00    0.6185854226E-04    0.4354767472E-02
    0.2300000000E+02    0.7310694013E-04    0.6261422536E-04    0.3904035292E+00    0.6711534308E-04    0.4362716729E-02
    0.2500000000E+02    0.7515349937E-04    0.6434467969E-04    0.4046008780E+00    0.7233860696E-04    0.4369914965E-02
    0.2700000000E+02    0.7697375107E-04    0.6588225841E-04    0.4175355287E+00    0.7753249714E-04    0.4376461453E-02
    0.2900000000E+02    0.7860281497E-04    0.6725720205E-04    0.4293687807E+00    0.8270049406E-04    0.4382438500E-02
    0.3100000000E+02    0.8006948653E-04    0.6849427746E-04    0.4402355815E+00    0.8784554695E-04    0.4387914959E-02
    0.3300000000E+02    0.8139755287E-04    0.6961392024E-04    0.4502496968E+00    0.9297018424E-04    0.4392948888E-02
    0.3500000000E+02    0.8260679863E-04    0.7063310741E-04    0.4595077101E+00    0.9807659568E-04    0.4397589604E-02
    0.3700000000E+02    0.8371378303E-04    0.7156603124E-04    0.4680921481E+00    0.1031666947E-03    0.4401879275E-02
    0.3900000000E+02    0.8473244602E-04    0.7242462446E-04    0.4760739485E+00    0.1082421665E-03    0.4405854181E-02
    0.4100000000E+02    0.8567458537E-04    0.7321897340E-04    0.4835144255E+00    0.1133045057E-03    0.4409545710E-02
    0.4300000000E+02    0.8655023533E-04    0.7395764574E-04    0.4904668477E+00    0.1183550467E-03    0.4412981161E-02
    0.4500000000E+02    0.8736796941E-04    0.7464795235E-04    0.4969777163E+00    0.1233949871E-03    0.4416184393E-02
    0.4700000000E+02    0.8813514432E-04    0.7529615810E-04    0.5030878067E+00    0.1284254079E-03    0.4419176351E-02
    0.4900000000E+02    0.8885809780E-04    0.7590765275E-04    0.5088330233E+00    0.1334472889E-03    0.4421975504E-02
    0.1000000000E+02    0.4997531472E-04    0.4293970168E-04    0.2486347876E+00    0.3203851836E-04    0.4290427361E-02
    0.3000000000E+02    0.7935485879E-04    0.6789160589E-04    0.4349154325E+00    0.8527572169E-04    0.4385235448E-02
    0.5000000000E+02    0.8920473376E-04    0.7620111322E-04    0.5115788686E+00    0.1359553091E-03    0.4423307961E-02
    0.7000000000E+02    0.9481561497E-04    0.8098967265E-04    0.5533885941E+00    0.1858482064E-03    0.4442958138E-02
    0.9000000000E+02    0.9929944626E-04    0.8488815068E-04    0.5797120292E+00    0.2355643187E-03    0.4454206956E-02
    0.1100000000E+03    0.1035552861E-03    0.8864228511E-04    0.5978094009E+00    0.2854179835E-03    0.4460866183E-02
    0.1300000000E+03    0.1078892379E-03    0.9249912195E-04    0.6110158778E+00    0.3356046057E-03    0.4464711912E-02
    0.1500000000E+03    0.1124122701E-03    0.9654419603E-04    0.6210782748E+00    0.3862607160E-03    0.4466686835E-02
    0.1700000000E+03    0.1171630589E-03    0.1008044867E-03    0.6290000242E+00    0.4374899216E-03    0.4467339092E-02
    0.1900000000E+03    0.1221518382E-03    0.1052846722E-03    0.6353986038E+00    0.4893759029E-03    0.4467009642E-02
    0.2100000000E+03    0.1273776202E-03    0.1099811237E-03    0.6406748274E+00    0.5419896197E-03    0.4465921841E-02
    0.2300000000E+03    0.1328353814E-03    0.1148876082E-03    0.6451002135E+00    0.5953936233E-03    0.4464228083E-02
    0.2500000000E+03    0.1385191517E-03    0.1199976559E-03    0.6488652312E+00    0.6496447950E-03    0.4462035784E-02
    0.2700000000E+03    0.1444233355E-03    0.1253055147E-03    0.6521074432E+00    0.7047961716E-03    0.4459422670E-02
    0.2900000000E+03    0.1505432416E-03    0.1308064889E-03    0.6549286829E+00    0.7608982146E-03    0.4456446187E-02
    0.3100000000E+03    0.1568752549E-03    0.1364970086E-03    0.6574059479E+00    0.8179997247E-03    0.4453149514E-02
    0.3300000000E+03    0.1634168469E-03    0.1423745857E-03    0.6595985359E+00    0.8761485236E-03    0.4449565538E-02
    0.3500000000E+03    0.1701665184E-03    0.1484377283E-03    0.6615528552E+00    0.9353919780E-03    0.4445719542E-02
    0.3700000000E+03    0.1771237195E-03    0.1546858452E-03    0.6633057457E+00    0.9957774145E-03    0.4441631088E-02
    0.3900000000E+03    0.1842887650E-03    0.1611191553E-03    0.6648868247E+00    0.1057352458E-02    0.4437315345E-02
    0.4100000000E+03    0.1916627565E-03    0.1677386067E-03    0.6663201740E+00    0.1120165313E-02    0.4432784055E-02
    0.4300000000E+03    0.1992475139E-03    0.1745458082E-03    0.6676255755E+00    0.1184265010E-02    0.4428046237E-02
    0.4500000000E+03    0.2070455170E-03    0.1815429714E-03    0.6688194299E+00    0.1249701619E-02    0.4423108726E-02
    0.4700000000E+03    0.2150598573E-03    0.1887328641E-03    0.6699154496E+00    0.1316526443E-02    0.4417976562E-02
    0.4900000000E+03    0.2232941988E-03    0.1961187724E-03    0.6709251878E+00    0.1384792201E-02    0.4412653305E-02
    0.1000000000E+03    0.1014297124E-03    0.8676197392E-04    0.5895275205E+00    0.2604599145E-03    0.4457971568E-02
    0.3000000000E+03    0.1536829179E-03    0.1336282355E-03    0.6562062565E+00    0.7893210313E-03    0.4454835614E-02
    0.5000000000E+03    0.2274951636E-03    0.1998863934E-03    0.6714008239E+00    0.1419482334E-02    0.4409920783E-02
    0.7000000000E+03    0.3243926712E-03    0.2867217351E-03    0.6781317319E+00    0.2203446816E-02    0.4345281228E-02
    0.9000000000E+03    0.4515482820E-03    0.4005648453E-03    0.6819301347E+00    0.3210589421E-02    0.4259197959E-02
    0.1100000000E+04    0.6219414628E-03    0.5530383097E-03    0.6843696098E+00    0.4547784507E-02    0.4144383697E-02
    0.1300000000E+04    0.8574891515E-03    0.7637541543E-03    0.6860687014E+00    0.6389564537E-02    0.3987782231E-02
    0.1500000000E+04    0.1195641971E-02    0.1066218221E-02    0.6873200121E+00    0.9032273944E-02    0.3767339415E-02
    0.1700000000E+04    0.1700664306E-02    0.1517929118E-02    0.6882799075E+00    0.1298565330E-01    0.3446652461E-02
    0.1900000000E+04    0.2474910968E-02    0.2210490747E-02    0.6890395409E+00    0.1906896457E-01    0.2972236438E-02
    0.2100000000E+04    0.3627612774E-02    0.3241756216E-02    0.6896556393E+00    0.2818384178E-01    0.2301644882E-02
    0.2300000000E+04    0.5085116495E-02    0.4546150503E-02    0.6901653541E+00    0.3983827142E-01    0.1522389723E-02
    0.2500000000E+04    0.6420565033E-02    0.5742093999E-02    0.6905940343E+00    0.5074162041E-01    0.9121543584E-03
    0.2700000000E+04    0.7333899122E-02    0.6561023851E-02    0.6909595686E+00    0.5848696934E-01    0.6083013840E-03
    0.2900000000E+04    0.7936439026E-02    0.7102247826E-02    0.6912749417E+00    0.6387536621E-01    0.4973831356E-03
    0.3100000000E+04    0.8396493643E-02    0.7516204242E-02    0.6915498069E+00    0.6820016956E-01    0.4627066134E-03
    0.3300000000E+04    0.8796590436E-02    0.7876686183E-02    0.6917914903E+00    0.7210375199E-01    0.4530826739E-03
    0.3500000000E+04    0.9167157128E-02    0.8210902799E-02    0.6920056519E+00    0.7582370168E-01    0.4511827347E-03
    0.3700000000E+04    0.9518698723E-02    0.8528243589E-02    0.6921967340E+00    0.7944104641E-01    0.4515932523E-03
    0.3900000000E+04    0.9854999977E-02    0.8832085771E-02    0.6923682718E+00    0.8298357537E-01    0.4526612154E-03
    0.4100000000E+04    0.1017764948E-01    0.9123841595E-02    0.6925231137E+00    0.8646161025E-01    0.4538860084E-03
    0.4300000000E+04    0.1048751320E-01    0.9404276931E-02    0.6926635804E+00    0.8987976110E-01    0.4551181512E-03
    0.4500000000E+04    0.1078520825E-01    0.9673935366E-02    0.6927915818E+00    0.9324073576E-01    0.4563151541E-03
    0.4700000000E+04    0.1107125557E-01    0.9933274824E-02    0.6929087036E+00    0.9654657308E-01    0.4574670212E-03
    0.4900000000E+04    0.1134612970E-01    0.1018271218E-01    0.6930162739E+00    0.9979904462E-01    0.4585734402E-03
    0.1000000000E+04    0.5302369944E-03    0.4709854458E-03    0.6832696883E+00    0.3829087989E-02    0.4206036884E-02
    0.3000000000E+04    0.8177350743E-02    0.7318941575E-02    0.6914169344E+00    0.6611689905E-01    0.4749041549E-03
    0.5000000000E+04    0.1147951687E-01    0.1030384057E-01    0.6930668342E+00    0.1014057836E+00    0.4591103169E-03
    0.7000000000E+04    0.1365775638E-01    0.1229184778E-01    0.6937746059E+00    0.1310976250E+00    0.4680831078E-03
    0.9000000000E+04    0.1511107901E-01    0.1363459090E-01    0.6941673377E+00    0.1569231246E+00    0.4748337933E-03
    0.1100000000E+05    0.1605948811E-01    0.1452586584E-01    0.6944167343E+00    0.1797502923E+00    0.4802634356E-03
    0.1300000000E+05    0.1664899268E-01    0.1509460161E-01    0.6945889475E+00    0.2001890556E+00    0.4848141973E-03
    0.1500000000E+05    0.1697937477E-01    0.1542914688E-01    0.6947148712E+00    0.2186817173E+00    0.4887366760E-03
    0.1700000000E+05    0.1712051923E-01    0.1559156402E-01    0.6948108651E+00    0.2355578172E+00    0.4921869607E-03
    0.1900000000E+05    0.1712239262E-01    0.1562637216E-01    0.6948864000E+00    0.2510687220E+00    0.4952690057E-03
    0.2100000000E+05    0.1702134784E-01    0.1556607709E-01    0.6949473374E+00    0.2654101721E+00    0.4980556015E-03
    0.2300000000E+05    0.1684422487E-01    0.1543477222E-01    0.6949974983E+00    0.2787374076E+00    0.5005997428E-03
    0.2500000000E+05    0.1661108668E-01    0.1525054430E-01    0.6950394797E+00    0.2911755759E+00    0.5029412354E-03
    0.2700000000E+05    0.1633708593E-01    0.1502711714E-01    0.6950751080E+00    0.3028270545E+00    0.5051107530E-03
    0.2900000000E+05    0.1603376427E-01    0.1477499748E-01    0.6951057048E+00    0.3137767067E+00    0.5071324423E-03
    0.3100000000E+05    0.1570997289E-01    0.1450228819E-01    0.6951322500E+00    0.3240957225E+00    0.5090256591E-03
    0.3300000000E+05    0.1537253507E-01    0.1421527464E-01    0.6951554853E+00    0.3338444706E+00    0.5108061619E-03
    0.3500000000E+05    0.1502672998E-01    0.1391885367E-01    0.6951759825E+00    0.3430746481E+00    0.5124869545E-03
    0.3700000000E+05    0.1467665053E-01    0.1361685154E-01    0.6951941892E+00    0.3518309223E+00    0.5140788954E-03
    0.3900000000E+05    0.1432547106E-01    0.1331226234E-01    0.6952104610E+00    0.3601522012E+00    0.5155911464E-03
    0.4100000000E+05    0.1397564978E-01    0.1300742871E-01    0.6952250839E+00    0.3680726264E+00    0.5170315108E-03
    0.4300000000E+05    0.1362908330E-01    0.1270418008E-01    0.6952382903E+00    0.3756223598E+00    0.5184066895E-03
    0.4500000000E+05    0.1328722562E-01    0.1240393948E-01    0.6952502712E+00    0.3828282104E+00    0.5197224808E-03
    0.4700000000E+05    0.1295118047E-01    0.1210780660E-01    0.6952611849E+00    0.3897141406E+00    0.5209839358E-03
    0.4900000000E+05    0.1262177340E-01    0.1181662292E-01    0.6952711638E+00    0.3963016779E+00    0.5221954822E-03
    0.1000000000E+05    0.1563793648E-01    0.1412743202E-01    0.6943045795E+00    0.1686686162E+00    0.4776798241E-03
    0.3000000000E+05    0.1587395971E-01    0.1464078677E-01    0.6951194329E+00    0.3190110455E+00    0.5080940518E-03
    0.5000000000E+05    0.1245975531E-01    0.1167309226E-01    0.6952758382E+00    0.3994896950E+00    0.5227837776E-03
    0.7000000000E+05    0.9638979596E-02    0.9144708138E-02    0.6953398914E+00    0.4514522845E+00    0.5326738379E-03
    0.9000000000E+05    0.7562666915E-02    0.7250572079E-02    0.6953737657E+00    0.4877385244E+00    0.5401767816E-03
    0.1100000000E+06    0.6045651651E-02    0.5848517193E-02    0.6953942063E+00    0.5143403361E+00    0.5462408481E-03
    0.1300000000E+06    0.4921631375E-02    0.4798698339E-02    0.6954075702E+00    0.5345514989E+00    0.5513394650E-03
    0.1500000000E+06    0.4072998600E-02    0.3999029416E-02    0.6954167841E+00    0.5503470534E+00    0.5557439451E-03
    0.1700000000E+06    0.3420016462E-02    0.3378975794E-02    0.6954233758E+00    0.5629808718E+00    0.5596245810E-03
    0.1900000000E+06    0.2908592365E-02    0.2890032882E-02    0.6954282172E+00    0.5732837702E+00    0.5630954261E-03
    0.2100000000E+06    0.2501530546E-02    0.2498488863E-02    0.6954318400E+00    0.5818255404E+00    0.5662366867E-03
    0.2300000000E+06    0.2172801976E-02    0.2180542771E-02    0.6954345859E+00    0.5890084025E+00    0.5691069548E-03
    0.2500000000E+06    0.1903856437E-02    0.1919103038E-02    0.6954366834E+00    0.5951234050E+00    0.5717503614E-03
    0.2700000000E+06    0.1681237527E-02    0.1701688615E-02    0.6954382909E+00    0.6003857414E+00    0.5742009904E-03
    0.2900000000E+06    0.1495019895E-02    0.1519038807E-02    0.6954395211E+00    0.6049575676E+00    0.5764857241E-03
    0.3100000000E+06    0.1337768548E-02    0.1364179254E-02    0.6954404564E+00    0.6089631482E+00    0.5786261460E-03
    0.3300000000E+06    0.1203833968E-02    0.1231784496E-02    0.6954411579E+00    0.6124991529E+00    0.5806398524E-03
    0.3500000000E+06    0.1088866622E-02    0.1117736018E-02    0.6954416720E+00    0.6156418073E+00    0.5825413816E-03
    0.3700000000E+06    0.9894771570E-03    0.1018811097E-02    0.6954420346E+00    0.6184519538E+00    0.5843428860E-03
    0.3900000000E+06    0.9029949350E-03    0.9324605196E-03    0.6954422734E+00    0.6209786963E+00    0.5860546291E-03
    0.4100000000E+06    0.8272939687E-03    0.8566475754E-03    0.6954424105E+00    0.6232620664E+00    0.5876853595E-03
    0.4300000000E+06    0.7606657714E-03    0.7897299224E-03    0.6954424634E+00    0.6253350015E+00    0.5892425956E-03
    0.4500000000E+06    0.7017253071E-03    0.7303718473E-03    0.6954424464E+00    0.6272248316E+00    0.5907328475E-03
    0.4700000000E+06    0.6493406142E-03    0.6774783606E-03    0.6954423708E+00    0.6289544115E+00    0.5921617897E-03
    0.4900000000E+06    0.6025795682E-03    0.6301451643E-03    0.6954422462E+00    0.6305429910E+00    0.5935343992E-03
    0.1000000000E+06    0.6745831860E-02    0.6497639689E-02    0.6953851470E+00    0.5020028731E+00    0.5433524911E-03
    0.3000000000E+06    0.1413161832E-02    0.1438500790E-02    0.6954400214E+00    0.6070245461E+00    0.5775727932E-03
    0.5000000000E+06    0.5810610534E-03    0.6083235955E-03    0.6954421680E+00    0.6312896051E+00    0.5942009713E-03
    0.7000000000E+06    0.3136284097E-03    0.3345292501E-03    0.6954393454E+00    0.6417224717E+00    0.6054127470E-03
    0.9000000000E+06    0.1957353692E-03    0.2116837338E-03    0.6954356719E+00    0.6474806958E+00    0.6139241486E-03
    0.1100000000E+07    0.1336891851E-03    0.1461565733E-03    0.6954319766E+00    0.6511203375E+00    0.6208059270E-03
    0.1300000000E+07    0.9710025881E-04    0.1070934562E-03    0.6954284676E+00    0.6536255745E+00    0.6265935010E-03
    0.1500000000E+07    0.7374132712E-04    0.8192741498E-04    0.6954251899E+00    0.6554539730E+00    0.6315939996E-03
    0.1700000000E+07    0.5792896970E-04    0.6475840011E-04    0.6954221400E+00    0.6568466191E+00    0.6360003195E-03
    0.1900000000E+07    0.4673201177E-04    0.5251758919E-04    0.6954192997E+00    0.6579424293E+00    0.6399417131E-03
    0.2100000000E+07    0.3851495670E-04    0.4348001501E-04    0.6954166478E+00    0.6588270239E+00    0.6435091067E-03
    0.2300000000E+07    0.3230713069E-04    0.3661520679E-04    0.6954141640E+00    0.6595560218E+00    0.6467689420E-03
    0.2500000000E+07    0.2750302139E-04    0.3127658290E-04    0.6954118299E+00    0.6601671103E+00    0.6497712729E-03
    0.2700000000E+07    0.2370908265E-04    0.2704167365E-04    0.6954096295E+00    0.6606867263E+00    0.6525547650E-03
    0.2900000000E+07    0.2066057535E-04    0.2362490458E-04    0.6954075489E+00    0.6611339596E+00    0.6551499185E-03
    0.3100000000E+07    0.1817411414E-04    0.2082757469E-04    0.6954055759E+00    0.6615229375E+00    0.6575812250E-03
    0.3300000000E+07    0.1611941986E-04    0.1850794114E-04    0.6954037001E+00    0.6618643382E+00    0.6598686539E-03
    0.3500000000E+07    0.1440188343E-04    0.1656267415E-04    0.6954019126E+00    0.6621663819E+00    0.6620287054E-03
    0.3700000000E+07    0.1295145933E-04    0.1491499678E-04    0.6954002053E+00    0.6624354993E+00    0.6640751733E-03
    0.3900000000E+07    0.1171539305E-04    0.1350688981E-04    0.6953985713E+00    0.6626767934E+00    0.6660197081E-03
    0.4100000000E+07    0.1065334151E-04    0.1229384331E-04    0.6953970046E+00    0.6628943648E+00    0.6678722411E-03
    0.4300000000E+07    0.9734027439E-05    0.1124124607E-04    0.6953954998E+00    0.6630915465E+00    0.6696413080E-03
    0.4500000000E+07    0.8932900274E-05    0.1032185358E-04    0.6953940521E+00    0.6632710754E+00    0.6713342997E-03
    0.4700000000E+07    0.8230471995E-05    0.9513981162E-05    0.6953926574E+00    0.6634352195E+00    0.6729576591E-03
    0.4900000000E+07    0.7611114144E-05    0.8800194228E-05    0.6953913117E+00    0.6635858745E+00    0.6745170372E-03
    0.1000000000E+07    0.1602991482E-03    0.1743539950E-03    0.6954338077E+00    0.6494853138E+00    0.6175278327E-03
    0.3000000000E+07    0.1935623275E-04    0.2215874514E-04    0.6954065496E+00    0.6613349958E+00    0.6563847126E-03
    0.5000000000E+07    0.7328536005E-05    0.8474054249E-05    0.6953906562E+00    0.6636566527E+00    0.6752743140E-03
    0.7000000000E+07    0.3946191176E-05    0.4542507521E-05    0.6953794581E+00    0.6646455206E+00    0.6880121883E-03
    0.9000000000E+07    0.2530778026E-05    0.2878115690E-05    0.6953707779E+00    0.6651932350E+00    0.6976825527E-03
    0.1100000000E+08    0.1802124956E-05    0.2015879840E-05    0.6953636718E+00    0.6655411624E+00    0.7055015818E-03
    0.1300000000E+08    0.1375534858E-05    0.1509635128E-05    0.6953576452E+00    0.6657817590E+00    0.7120774790E-03
    0.1500000000E+08    0.1102804823E-05    0.1185843853E-05    0.6953524063E+00    0.6659580584E+00    0.7177591478E-03
    0.1700000000E+08    0.9168804643E-06    0.9654240138E-06    0.6953477683E+00    0.6660928012E+00    0.7227657315E-03
    0.1900000000E+08    0.7837741808E-06    0.8080721964E-06    0.6953436041E+00    0.6661991352E+00    0.7272440739E-03
    0.2100000000E+08    0.6847329162E-06    0.6914577266E-06    0.6953398235E+00    0.6662851909E+00    0.7312974792E-03
    0.2300000000E+08    0.6087034838E-06    0.6023773736E-06    0.6953363599E+00    0.6663562663E+00    0.7350014345E-03
    0.2500000000E+08    0.5488172567E-06    0.5326075514E-06    0.6953331629E+00    0.6664159617E+00    0.7384128097E-03
    0.2700000000E+08    0.5006167684E-06    0.4768029488E-06    0.6953301932E+00    0.6664668092E+00    0.7415755356E-03
