  Pressure (Pa) 22mC5-500 (mol/kg) 23mC5-500 (mol/kg) 24mC5-500 (mol/kg) 3mC6-500 (mol/kg) C7-500 (mol/kg)
    0.1000000000E+01    0.5529648006E-05    0.5285002789E-06    0.2142747260E+00    0.1503129463E-05    0.4204571481E-02
    0.3000000000E+01    0.9412520041E-05    0.8961112256E-06    0.3978272037E+00    0.3872966444E-05    0.4244213275E-02
    0.5000000000E+01    0.1084358705E-04    0.1030510750E-05    0.4800760895E+00    0.6056605363E-05    0.4261866020E-02
    0.7000000000E+01    0.1161354595E-04    0.1103031069E-05    0.5267487663E+00    0.8148653717E-05    0.4272150188E-02
    0.9000000000E+01    0.1215377581E-04    0.1154510341E-05    0.5568232075E+00    0.1018127417E-04    0.4278967471E-02
    0.1100000000E+02    0.1260575445E-04    0.1198177400E-05    0.5778169307E+00    0.1217063686E-04    0.4283857545E-02
    0.1300000000E+02    0.1302426391E-04    0.1239076486E-05    0.5933032260E+00    0.1412640129E-04    0.4287557389E-02
    0.1500000000E+02    0.1343262913E-04    0.1279311625E-05    0.6051979797E+00    0.1605495162E-04    0.4290466274E-02
    0.1700000000E+02    0.1384125291E-04    0.1319793260E-05    0.6146207687E+00    0.1796080067E-04    0.4292820288E-02
    0.1900000000E+02    0.1425477065E-04    0.1360906843E-05    0.6222696361E+00    0.1984729575E-04    0.4294768476E-02
    0.2100000000E+02    0.1467510027E-04    0.1402795130E-05    0.6286024140E+00    0.2171701138E-04    0.4296409851E-02
    0.2300000000E+02    0.1510283995E-04    0.1445486082E-05    0.6339318656E+00    0.2357198463E-04    0.4297812929E-02
    0.2500000000E+02    0.1553794344E-04    0.1488953824E-05    0.6384789260E+00    0.2541386444E-04    0.4299026743E-02
    0.2700000000E+02    0.1598005885E-04    0.1533148690E-05    0.6424040988E+00    0.2724401077E-04    0.4300087375E-02
    0.2900000000E+02    0.1642870250E-04    0.1578012283E-05    0.6458267955E+00    0.2906356296E-04    0.4301022017E-02
    0.3100000000E+02    0.1688334892E-04    0.1623485026E-05    0.6488376953E+00    0.3087348825E-04    0.4301851584E-02
    0.3300000000E+02    0.1734347695E-04    0.1669509830E-05    0.6515068960E+00    0.3267461725E-04    0.4302592448E-02
    0.3500000000E+02    0.1780859238E-04    0.1716033739E-05    0.6538894403E+00    0.3446767036E-04    0.4303257629E-02
    0.3700000000E+02    0.1827823797E-04    0.1763008515E-05    0.6560291511E+00    0.3625327782E-04    0.4303857621E-02
    0.3900000000E+02    0.1875199671E-04    0.1810390674E-05    0.6579613519E+00    0.3803199531E-04    0.4304400986E-02
    0.4100000000E+02    0.1922949147E-04    0.1858141247E-05    0.6597148320E+00    0.3980431610E-04    0.4304894791E-02
    0.4300000000E+02    0.1971038283E-04    0.1906225427E-05    0.6613132906E+00    0.4157068080E-04    0.4305344920E-02
    0.4500000000E+02    0.2019436618E-04    0.1954612170E-05    0.6627764141E+00    0.4333148516E-04    0.4305756321E-02
    0.4700000000E+02    0.2068116840E-04    0.2003273796E-05    0.6641206911E+00    0.4508708643E-04    0.4306133187E-02
    0.4900000000E+02    0.2117054477E-04    0.2052185617E-05    0.6653600361E+00    0.4683780856E-04    0.4306479098E-02
    0.1000000000E+02    0.1238627728E-04    0.1176902370E-05    0.5681771245E+00    0.1118065797E-04    0.4281596219E-02
    0.3000000000E+02    0.1665530839E-04    0.1600676163E-05    0.6473789313E+00    0.2996967419E-04    0.4301448821E-02
    0.5000000000E+02    0.2141612878E-04    0.2076728367E-05    0.6659441249E+00    0.4771143319E-04    0.4306641423E-02
    0.7000000000E+02    0.2642045906E-04    0.2576479037E-05    0.6742301237E+00    0.6498749889E-04    0.4308824181E-02
    0.9000000000E+02    0.3153357881E-04    0.3086518036E-05    0.6789228313E+00    0.8199875702E-04    0.4309786910E-02
    0.1100000000E+03    0.3670463379E-04    0.3601921561E-05    0.6819430237E+00    0.9884706946E-04    0.4310105640E-02
    0.1300000000E+03    0.4191212283E-04    0.4120655026E-05    0.6840495397E+00    0.1155937329E-03    0.4310031116E-02
    0.1500000000E+03    0.4714636275E-04    0.4641827469E-05    0.6856024732E+00    0.1322795790E-03    0.4309692935E-02
    0.1700000000E+03    0.5240299098E-04    0.5165055207E-05    0.6867946694E+00    0.1489337364E-03    0.4309166016E-02
    0.1900000000E+03    0.5768023548E-04    0.5690197760E-05    0.6877387230E+00    0.1655780481E-03    0.4308497228E-02
    0.2100000000E+03    0.6297765370E-04    0.6217237235E-05    0.6885047879E+00    0.1822295337E-03    0.4307717671E-02
    0.2300000000E+03    0.6829550729E-04    0.6746219185E-05    0.6891388518E+00    0.1989018662E-03    0.4306848934E-02
    0.2500000000E+03    0.7363443511E-04    0.7277222066E-05    0.6896723169E+00    0.2156063098E-03    0.4305906556E-02
    0.2700000000E+03    0.7899527542E-04    0.7810340849E-05    0.6901273571E+00    0.2323523422E-03    0.4304902054E-02
    0.2900000000E+03    0.8437896646E-04    0.8345678021E-05    0.6905200762E+00    0.2491480843E-03    0.4303844171E-02
    0.3100000000E+03    0.8978648997E-04    0.8883338581E-05    0.6908624516E+00    0.2660006043E-03    0.4302739681E-02
    0.3300000000E+03    0.9521883897E-04    0.9423427267E-05    0.6911635767E+00    0.2829161408E-03    0.4301593922E-02
    0.3500000000E+03    0.1006769996E-03    0.9966047063E-05    0.6914304794E+00    0.2999002678E-03    0.4300411162E-02
    0.3700000000E+03    0.1061619410E-03    0.1051129844E-04    0.6916686770E+00    0.3169580208E-03    0.4299194858E-02
    0.3900000000E+03    0.1116746109E-03    0.1105927906E-04    0.6918825615E+00    0.3340939947E-03    0.4297947840E-02
    0.4100000000E+03    0.1172159328E-03    0.1161008364E-04    0.6920756724E+00    0.3513124195E-03    0.4296672443E-02
    0.4300000000E+03    0.1227868063E-03    0.1216380413E-04    0.6922508942E+00    0.3686172216E-03    0.4295370615E-02
    0.4500000000E+03    0.1283881078E-03    0.1272052975E-04    0.6924106010E+00    0.3860120722E-03    0.4294043989E-02
    0.4700000000E+03    0.1340206916E-03    0.1328034729E-04    0.6925567646E+00    0.4035004278E-03    0.4292693941E-02
    0.4900000000E+03    0.1396853916E-03    0.1384334125E-04    0.6926910363E+00    0.4210855625E-03    0.4291321640E-02
    0.1000000000E+03    0.3411360629E-04    0.3343715124E-05    0.6805806487E+00    0.9043881942E-04    0.4310006986E-02
    0.3000000000E+03    0.8707968710E-04    0.8614211303E-05    0.6906969321E+00    0.2575668399E-03    0.4303297390E-02
    0.5000000000E+03    0.1425300407E-03    0.1412605524E-04    0.6927541569E+00    0.4299154020E-03    0.4290627460E-02
    0.7000000000E+03    0.2013006109E-03    0.1996639344E-04    0.6936385961E+00    0.6122943158E-03    0.4275751042E-02
    0.9000000000E+03    0.2641477671E-03    0.2621124807E-04    0.6941303644E+00    0.8073933621E-03    0.4259195533E-02
    0.1100000000E+04    0.3317919141E-03    0.3293252142E-04    0.6944433045E+00    0.1017565232E-02    0.4241033509E-02
    0.1300000000E+04    0.4049913724E-03    0.4020572129E-04    0.6946598621E+00    0.1245229256E-02    0.4221190240E-02
    0.1500000000E+04    0.4845879606E-03    0.4811459186E-04    0.6948185646E+00    0.1493052690E-02    0.4199514989E-02
    0.1700000000E+04    0.5715440927E-03    0.5675483623E-04    0.6949398254E+00    0.1764079428E-02    0.4175800784E-02
    0.1900000000E+04    0.6669802666E-03    0.6623785803E-04    0.6950354687E+00    0.2061853145E-02    0.4149787504E-02
    0.2100000000E+04    0.7722178357E-03    0.7669502071E-04    0.6951128164E+00    0.2390555114E-02    0.4121157424E-02
    0.2300000000E+04    0.8888308731E-03    0.8828280790E-04    0.6951766445E+00    0.2755170358E-02    0.4089525905E-02
    0.2500000000E+04    0.1018711059E-02    0.1011892772E-03    0.6952302007E+00    0.3161695273E-02    0.4054427743E-02
    0.2700000000E+04    0.1164150280E-02    0.1156422749E-03    0.6952757706E+00    0.3617402084E-02    0.4015298819E-02
    0.2900000000E+04    0.1327946911E-02    0.1319200054E-03    0.6953150088E+00    0.4131179537E-02    0.3971452037E-02
    0.3100000000E+04    0.1513543451E-02    0.1503647197E-03    0.6953491431E+00    0.4713974896E-02    0.3922046155E-02
    0.3300000000E+04    0.1725205406E-02    0.1714005059E-03    0.6953791034E+00    0.5379369554E-02    0.3866045593E-02
    0.3500000000E+04    0.1968253619E-02    0.1955563979E-03    0.6954056067E+00    0.6144328641E-02    0.3802169024E-02
    0.3700000000E+04    0.2249364227E-02    0.2234962134E-03    0.6954292151E+00    0.7030172017E-02    0.3728824433E-02
    0.3900000000E+04    0.2576950048E-02    0.2560564967E-03    0.6954503752E+00    0.8063814427E-02    0.3644029131E-02
    0.4100000000E+04    0.2961630347E-02    0.2942932651E-03    0.6954694464E+00    0.9279303070E-02    0.3545315907E-02
    0.4300000000E+04    0.3416773061E-02    0.3395359821E-03    0.6954867212E+00    0.1071961161E-01    0.3429633746E-02
    0.4500000000E+04    0.3959034795E-02    0.3934413501E-03    0.6955024398E+00    0.1243846783E-01    0.3293268005E-02
    0.4700000000E+04    0.4608691369E-02    0.4580263381E-03    0.6955168017E+00    0.1450157649E-01    0.3131839615E-02
    0.4900000000E+04    0.5389283998E-02    0.5356332519E-03    0.6955299737E+00    0.1698575026E-01    0.2940508516E-02
    0.1000000000E+04    0.2973243174E-03    0.2950775969E-04    0.6943024921E+00    0.9104481140E-03    0.4250317796E-02
    0.3000000000E+04    0.1417775316E-02    0.1408471437E-03    0.6953326500E+00    0.4413170703E-02    0.3947503611E-02
    0.5000000000E+04    0.5836500511E-02    0.5800981596E-03    0.6955361583E+00    0.1841149424E-01    0.2832133705E-02
    0.7000000000E+04    0.1826759847E-01    0.1817304224E-02    0.6956221905E+00    0.5933076123E-01    0.3482290212E-03
    0.9000000000E+04    0.2245830411E-01    0.2236851796E-02    0.6956693088E+00    0.7576145902E-01    0.2011975249E-03
    0.1100000000E+05    0.2543571265E-01    0.2536355270E-02    0.6956988542E+00    0.8904448539E-01    0.2024109186E-03
    0.1300000000E+05    0.2794016332E-01    0.2789267903E-02    0.6957190008E+00    0.1013985164E+00    0.2042935574E-03
    0.1500000000E+05    0.3005375070E-01    0.3003618716E-02    0.6957335465E+00    0.1129590934E+00    0.2059265713E-03
    0.1700000000E+05    0.3183838204E-01    0.3185460028E-02    0.6957444934E+00    0.1238234854E+00    0.2073653867E-03
    0.1900000000E+05    0.3334437724E-01    0.3339715680E-02    0.6957529954E+00    0.1340725598E+00    0.2086522402E-03
    0.2100000000E+05    0.3461301768E-01    0.3470428883E-02    0.6957597635E+00    0.1437742337E+00    0.2098168798E-03
    0.2300000000E+05    0.3567843486E-01    0.3580945840E-02    0.6957652596E+00    0.1529859976E+00    0.2108810357E-03
    0.2500000000E+05    0.3656905093E-01    0.3674055863E-02    0.6957697959E+00    0.1617568701E+00    0.2118610742E-03
    0.2700000000E+05    0.3730868966E-01    0.3752099465E-02    0.6957735914E+00    0.1701289264E+00    0.2127696348E-03
    0.2900000000E+05    0.3791744159E-01    0.3817052571E-02    0.6957768038E+00    0.1781385073E+00    0.2136166861E-03
    0.3100000000E+05    0.3841234407E-01    0.3870592738E-02    0.6957795496E+00    0.1858171830E+00    0.2144102316E-03
    0.3300000000E+05    0.3880792017E-01    0.3914151656E-02    0.6957819166E+00    0.1931925279E+00    0.2151567960E-03
    0.3500000000E+05    0.3911660932E-01    0.3948957118E-02    0.6957839722E+00    0.2002887489E+00    0.2158617699E-03
    0.3700000000E+05    0.3934911386E-01    0.3976066808E-02    0.6957857690E+00    0.2071271975E+00    0.2165296594E-03
    0.3900000000E+05    0.3951467987E-01    0.3996395698E-02    0.6957873485E+00    0.2137267916E+00    0.2171642699E-03
    0.4100000000E+05    0.3962132621E-01    0.4010738403E-02    0.6957887441E+00    0.2201043636E+00    0.2177688452E-03
    0.4300000000E+05    0.3967603253E-01    0.4019787534E-02    0.6957899827E+00    0.2262749500E+00    0.2183461728E-03
    0.4500000000E+05    0.3968489435E-01    0.4024148853E-02    0.6957910864E+00    0.2322520342E+00    0.2188986666E-03
    0.4700000000E+05    0.3965325176E-01    0.4024353853E-02    0.6957920734E+00    0.2380477499E+00    0.2194284304E-03
    0.4900000000E+05    0.3958579678E-01    0.4020870254E-02    0.6957929589E+00    0.2436730539E+00    0.2199373094E-03
    0.1000000000E+05    0.2401320849E-01    0.2393121713E-02    0.6956856133E+00    0.8253268852E-01    0.2014211240E-03
    0.3000000000E+05    0.3817816290E-01    0.3845154566E-02    0.6957782290E+00    0.1820173993E+00    0.2140197092E-03
    0.5000000000E+05    0.3953995112E-01    0.4017876150E-02    0.6957933677E+00    0.2464249401E+00    0.2201844332E-03
    0.7000000000E+05    0.3752145687E-01    0.3842345846E-02    0.6957984365E+00    0.2944978790E+00    0.2243410763E-03
    0.9000000000E+05    0.3456783820E-01    0.3564240982E-02    0.6958004583E+00    0.3327903459E+00    0.2274966059E-03
    0.1100000000E+06    0.3148263805E-01    0.3266234579E-02    0.6958012345E+00    0.3643846076E+00    0.2300479867E-03
    0.1300000000E+06    0.2855327375E-01    0.2979017747E-02    0.6958014152E+00    0.3910228165E+00    0.2321937142E-03
    0.1500000000E+06    0.2587680996E-01    0.2713745161E-02    0.6958012839E+00    0.4138170348E+00    0.2340476491E-03
    0.1700000000E+06    0.2347401027E-01    0.2473532751E-02    0.6958009804E+00    0.4335376344E+00    0.2356813034E-03
    0.1900000000E+06    0.2133443452E-01    0.2258074717E-02    0.6958005793E+00    0.4507487492E+00    0.2371425944E-03
    0.2100000000E+06    0.1943567849E-01    0.2065653159E-02    0.6958001230E+00    0.4658796073E+00    0.2384652308E-03
    0.2300000000E+06    0.1775190934E-01    0.1894054273E-02    0.6957996369E+00    0.4792657550E+00    0.2396738443E-03
    0.2500000000E+06    0.1625765563E-01    0.1740991905E-02    0.6957991363E+00    0.4911747500E+00    0.2407869914E-03
    0.2700000000E+06    0.1492939923E-01    0.1604298187E-02    0.6957986310E+00    0.5018231716E+00    0.2418190066E-03
    0.2900000000E+06    0.1374612766E-01    0.1482000948E-02    0.6957981270E+00    0.5113884299E+00    0.2427811971E-03
    0.3100000000E+06    0.1268939751E-01    0.1372345729E-02    0.6957976283E+00    0.5200172722E+00    0.2436826428E-03
    0.3300000000E+06    0.1174317791E-01    0.1273791265E-02    0.6957971373E+00    0.5278320880E+00    0.2445307470E-03
    0.3500000000E+06    0.1089360727E-01    0.1184993098E-02    0.6957966556E+00    0.5349356866E+00    0.2453316268E-03
    0.3700000000E+06    0.1012872866E-01    0.1104782798E-02    0.6957961840E+00    0.5414149834E+00    0.2460903962E-03
    0.3900000000E+06    0.9438234716E-02    0.1032146550E-02    0.6957957230E+00    0.5473438819E+00    0.2468113742E-03
    0.4100000000E+06    0.8813235620E-02    0.9662049007E-03    0.6957952729E+00    0.5527855556E+00    0.2474982429E-03
    0.4300000000E+06    0.8246054398E-02    0.9061944319E-03    0.6957948336E+00    0.5577942716E+00    0.2481541667E-03
    0.4500000000E+06    0.7730049697E-02    0.8514515879E-03    0.6957944049E+00    0.5624168601E+00    0.2487818857E-03
    0.4700000000E+06    0.7259463951E-02    0.8013986225E-03    0.6957939866E+00    0.5666939075E+00    0.2493837885E-03
    0.4900000000E+06    0.6829294153E-02    0.7555314975E-03    0.6957935786E+00    0.5706607321E+00    0.2499619702E-03
    0.1000000000E+06    0.3301708707E-01    0.3415131460E-02    0.6958009484E+00    0.3492959520E+00    0.2288326491E-03
    0.3000000000E+06    0.1320300075E-01    0.1425694254E-02    0.6957978768E+00    0.5158117451E+00    0.2432390163E-03
    0.5000000000E+06    0.6627980793E-02    0.7340276855E-03    0.6957933783E+00    0.5725376077E+00    0.2502427516E-03
    0.7000000000E+06    0.3919732580E-02    0.4419272070E-03    0.6957898265E+00    0.5995331566E+00    0.2549657298E-03
    0.9000000000E+06    0.2573544236E-02    0.2941869617E-03    0.6957869454E+00    0.6149307567E+00    0.2585514012E-03
    0.1100000000E+07    0.1813809975E-02    0.2096847301E-03    0.6957845289E+00    0.6247676860E+00    0.2614506621E-03
    0.1300000000E+07    0.1345034868E-02    0.1569731540E-03    0.6957824487E+00    0.6315536455E+00    0.2638890070E-03
    0.1500000000E+07    0.1036171219E-02    0.1219217084E-03    0.6957806221E+00    0.6364999107E+00    0.2659957950E-03
    0.1700000000E+07    0.8222069321E-03    0.9744566214E-04    0.6957789933E+00    0.6402570678E+00    0.2678522765E-03
    0.1900000000E+07    0.6680142933E-03    0.7968268729E-04    0.6957775232E+00    0.6432037087E+00    0.2695128961E-03
    0.2100000000E+07    0.5532970173E-03    0.6638392788E-04    0.6957761830E+00    0.6455742819E+00    0.2710159560E-03
    0.2300000000E+07    0.4656782627E-03    0.5616866571E-04    0.6957749512E+00    0.6475213556E+00    0.2723894446E-03
    0.2500000000E+07    0.3972685122E-03    0.4815140619E-04    0.6957738113E+00    0.6491483127E+00    0.2736544479E-03
    0.2700000000E+07    0.3428488446E-03    0.4174316089E-04    0.6957727503E+00    0.6505276010E+00    0.2748272542E-03
    0.2900000000E+07    0.2988567276E-03    0.3653984758E-04    0.6957717576E+00    0.6517114489E+00    0.2759207127E-03
    0.3100000000E+07    0.2627937835E-03    0.3225677022E-04    0.6957708248E+00    0.6527384310E+00    0.2769451410E-03
    0.3300000000E+07    0.2328663838E-03    0.2868866073E-04    0.6957699450E+00    0.6536376395E+00    0.2779089520E-03
    0.3500000000E+07    0.2077601444E-03    0.2568449362E-04    0.6957691123E+00    0.6544314197E+00    0.2788190971E-03
    0.3700000000E+07    0.1864942474E-03    0.2313114746E-04    0.6957683218E+00    0.6551372119E+00    0.2796813873E-03
    0.3900000000E+07    0.1683248826E-03    0.2094253265E-04    0.6957675693E+00    0.6557688236E+00    0.2805007311E-03
    0.4100000000E+07    0.1526797649E-03    0.1905219128E-04    0.6957668512E+00    0.6563373258E+00    0.2812813126E-03
    0.4300000000E+07    0.1391128114E-03    0.1740815740E-04    0.6957661645E+00    0.6568516973E+00    0.2820267276E-03
    0.4500000000E+07    0.1272721886E-03    0.1596932166E-04    0.6957655065E+00    0.6573192951E+00    0.2827400903E-03
    0.4700000000E+07    0.1168774083E-03    0.1470281736E-04    0.6957648748E+00    0.6577462044E+00    0.2834241148E-03
    0.4900000000E+07    0.1077026591E-03    0.1358211257E-04    0.6957642673E+00    0.6581375010E+00    0.2840811821E-03
    0.1000000000E+07    0.2144641630E-02    0.2466046116E-03    0.6957856885E+00    0.6203427683E+00    0.2600696048E-03
    0.3000000000E+07    0.2799595967E-03    0.3429762102E-04    0.6957712842E+00    0.6522425451E+00    0.2764409911E-03
    0.5000000000E+07    0.1035140862E-03    0.1306952079E-04    0.6957639720E+00    0.6583211551E+00    0.2844002727E-03
    0.7000000000E+07    0.5331555985E-04    0.6867079013E-05    0.6957589863E+00    0.6608745523E+00    0.2897676508E-03
    0.9000000000E+07    0.3238995884E-04    0.4234448592E-05    0.6957551810E+00    0.6622781137E+00    0.2938425539E-03
    0.1100000000E+08    0.2172827996E-04    0.2874548729E-05    0.6957520944E+00    0.6631654232E+00    0.2971373929E-03
    0.1300000000E+08    0.1557369242E-04    0.2080748690E-05    0.6957494930E+00    0.6637769633E+00    0.2999084275E-03
    0.1500000000E+08    0.1170379878E-04    0.1576932650E-05    0.6957472419E+00    0.6642239688E+00    0.3023026666E-03
    0.1700000000E+08    0.9114035584E-05    0.1237043934E-05    0.6957452559E+00    0.6645649542E+00    0.3044124464E-03
    0.1900000000E+08    0.7296677768E-05    0.9968298488E-06    0.6957434777E+00    0.6648336330E+00    0.3062996402E-03
    0.2100000000E+08    0.5972753985E-05    0.8207252471E-06    0.6957418670E+00    0.6650507965E+00    0.3080077760E-03
    0.2300000000E+08    0.4978688221E-05    0.6877395141E-06    0.6957403942E+00    0.6652299631E+00    0.3095686614E-03
    0.2500000000E+08    0.4213438357E-05    0.5848301256E-06    0.6957390370E+00    0.6653803021E+00    0.3110062592E-03
    0.2700000000E+08    0.3611865817E-05    0.5035439476E-06    0.6957377780E+00    0.6655082527E+00    0.3123390805E-03
