  Pressure (Pa) 22mC5-500 (mol/kg) 23mC5-500 (mol/kg) 24mC5-500 (mol/kg) 3mC6-500 (mol/kg) C7-500 (mol/kg)
    0.1000000000E+01    0.5309530864E-05    0.1014749050E-05    0.2321284784E+00    0.7724735733E-06    0.4195542045E-02
    0.3000000000E+01    0.8742558998E-05    0.1664310122E-05    0.4177185340E+00    0.1982686823E-05    0.4226818326E-02
    0.5000000000E+01    0.9967154122E-05    0.1894528087E-05    0.4972267394E+00    0.3095629020E-05    0.4239912261E-02
    0.7000000000E+01    0.1064889700E-04    0.2023623219E-05    0.5413901690E+00    0.4160661912E-05    0.4247379982E-02
    0.9000000000E+01    0.1115641755E-04    0.2121148853E-05    0.5694912871E+00    0.5194536171E-05    0.4252280509E-02
    0.1100000000E+02    0.1160350958E-04    0.2208254480E-05    0.5889445938E+00    0.6205666622E-05    0.4255777595E-02
    0.1300000000E+02    0.1203177950E-04    0.2292521257E-05    0.6032096645E+00    0.7199077718E-05    0.4258416808E-02
    0.1500000000E+02    0.1245780408E-04    0.2376883447E-05    0.6141178502E+00    0.8178089317E-05    0.4260489777E-02
    0.1700000000E+02    0.1288832396E-04    0.2462476894E-05    0.6227293273E+00    0.9145047751E-05    0.4262167351E-02
    0.1900000000E+02    0.1332589848E-04    0.2549688224E-05    0.6297003581E+00    0.1010169321E-04    0.4263556667E-02
    0.2100000000E+02    0.1377123101E-04    0.2638580940E-05    0.6354589209E+00    0.1104936408E-04    0.4264728545E-02
    0.2300000000E+02    0.1422419427E-04    0.2729080434E-05    0.6402960300E+00    0.1198911931E-04    0.4265731811E-02
    0.2500000000E+02    0.1468430436E-04    0.2821057812E-05    0.6444164676E+00    0.1292181611E-04    0.4266601302E-02
    0.2700000000E+02    0.1515094583E-04    0.2914368609E-05    0.6479685203E+00    0.1384816149E-04    0.4267362600E-02
    0.2900000000E+02    0.1562347922E-04    0.3008870496E-05    0.6510622050E+00    0.1476874775E-04    0.4268034949E-02
    0.3100000000E+02    0.1610129101E-04    0.3104430947E-05    0.6537808663E+00    0.1568407780E-04    0.4268633133E-02
    0.3300000000E+02    0.1658381503E-04    0.3200930025E-05    0.6561887974E+00    0.1659458350E-04    0.4269168711E-02
    0.3500000000E+02    0.1707053959E-04    0.3298260826E-05    0.6583363899E+00    0.1750063942E-04    0.4269650868E-02
    0.3700000000E+02    0.1756100750E-04    0.3396328842E-05    0.6602636978E+00    0.1840257330E-04    0.4270087005E-02
    0.3900000000E+02    0.1805481286E-04    0.3495050869E-05    0.6620029596E+00    0.1930067411E-04    0.4270483158E-02
    0.4100000000E+02    0.1855159645E-04    0.3594353783E-05    0.6635804155E+00    0.2019519836E-04    0.4270844305E-02
    0.4300000000E+02    0.1905104079E-04    0.3694173339E-05    0.6650176407E+00    0.2108637521E-04    0.4271174592E-02
    0.4500000000E+02    0.1955286531E-04    0.3794453053E-05    0.6663325378E+00    0.2197441050E-04    0.4271477506E-02
    0.4700000000E+02    0.2005682191E-04    0.3895143203E-05    0.6675400864E+00    0.2285949002E-04    0.4271756000E-02
    0.4900000000E+02    0.2056269092E-04    0.3996199951E-05    0.6686529164E+00    0.2374178228E-04    0.4272012596E-02
    0.1000000000E+02    0.1138403216E-04    0.2165365365E-05    0.5800286287E+00    0.5702577742E-05    0.4254161959E-02
    0.3000000000E+02    0.1586176194E-04    0.3056526205E-05    0.6524640185E+00    0.1522704133E-04    0.4268342525E-02
    0.5000000000E+02    0.2081628084E-04    0.4046853518E-05    0.6691772275E+00    0.2418193169E-04    0.4272133372E-02
    0.7000000000E+02    0.2595146058E-04    0.5071856781E-05    0.6766047008E+00    0.3286965600E-04    0.4273795094E-02
    0.9000000000E+02    0.3115086367E-04    0.6108584587E-05    0.6808025257E+00    0.4139469253E-04    0.4274590310E-02
    0.1100000000E+03    0.3637418695E-04    0.7149324963E-05    0.6835009297E+00    0.4980997650E-04    0.4274926920E-02
    0.1300000000E+03    0.4160586489E-04    0.8191191146E-05    0.6853814962E+00    0.5814729663E-04    0.4274983293E-02
    0.1500000000E+03    0.4683976240E-04    0.9233101585E-05    0.6867670725E+00    0.6642775499E-04    0.4274852023E-02
    0.1700000000E+03    0.5207375555E-04    0.1027472800E-04    0.6878303403E+00    0.7466633071E-04    0.4274586861E-02
    0.1900000000E+03    0.5730754235E-04    0.1131607631E-04    0.6886720285E+00    0.8287418316E-04    0.4274221565E-02
    0.2100000000E+03    0.6254167147E-04    0.1235730325E-04    0.6893548535E+00    0.9105993685E-04    0.4273778616E-02
    0.2300000000E+03    0.6777708202E-04    0.1339863088E-04    0.6899199047E+00    0.9923045288E-04    0.4273273680E-02
    0.2500000000E+03    0.7301487581E-04    0.1444030510E-04    0.6903952266E+00    0.1073913193E-03    0.4272718071E-02
    0.2700000000E+03    0.7825620191E-04    0.1548257513E-04    0.6908006149E+00    0.1155471768E-03    0.4272120209E-02
    0.2900000000E+03    0.8350219791E-04    0.1652568349E-04    0.6911504414E+00    0.1237019438E-03    0.4271486509E-02
    0.3100000000E+03    0.8875396100E-04    0.1756986140E-04    0.6914553928E+00    0.1318589761E-03    0.4270821961E-02
    0.3300000000E+03    0.9401253481E-04    0.1861532694E-04    0.6917235804E+00    0.1400211833E-03    0.4270130517E-02
    0.3500000000E+03    0.9927890484E-04    0.1966228471E-04    0.6919612717E+00    0.1481911161E-03    0.4269415352E-02
    0.3700000000E+03    0.1045539984E-03    0.2071092629E-04    0.6921733866E+00    0.1563710324E-03    0.4268679051E-02
    0.3900000000E+03    0.1098386870E-03    0.2176143094E-04    0.6923638405E+00    0.1645629482E-03    0.4267923743E-02
    0.4100000000E+03    0.1151337898E-03    0.2281396661E-04    0.6925357888E+00    0.1727686780E-03    0.4267151199E-02
    0.4300000000E+03    0.1204400777E-03    0.2386869084E-04    0.6926918022E+00    0.1809898668E-03    0.4266362905E-02
    0.4500000000E+03    0.1257582771E-03    0.2492575178E-04    0.6928339965E+00    0.1892280155E-03    0.4265560119E-02
    0.4700000000E+03    0.1310890741E-03    0.2598528899E-04    0.6929641289E+00    0.1974845022E-03    0.4264743912E-02
    0.4900000000E+03    0.1364331181E-03    0.2704743433E-04    0.6930836707E+00    0.2057605991E-03    0.4263915203E-02
    0.1000000000E+03    0.3376083184E-04    0.6628695984E-05    0.6822840268E+00    0.4561373753E-04    0.4274801881E-02
    0.3000000000E+03    0.8612729200E-04    0.1704762480E-04    0.6913079692E+00    0.1277799856E-03    0.4271157823E-02
    0.5000000000E+03    0.1391103014E-03    0.2757952432E-04    0.6931398658E+00    0.2099063736E-03    0.4263496413E-02
    0.7000000000E+03    0.1934848080E-03    0.3838561041E-04    0.6939272204E+00    0.2941014805E-03    0.4254608921E-02
    0.9000000000E+03    0.2497446699E-03    0.4956548766E-04    0.6943649999E+00    0.3812573516E-03    0.4244950275E-02
    0.1100000000E+04    0.3082547194E-03    0.6119217311E-04    0.6946436050E+00    0.4719750027E-03    0.4234651934E-02
    0.1300000000E+04    0.3693297711E-03    0.7332846450E-04    0.6948364262E+00    0.5667569817E-03    0.4223750715E-02
    0.1500000000E+04    0.4332686958E-03    0.8603388387E-04    0.6949777547E+00    0.6660752287E-03    0.4212244797E-02
    0.1700000000E+04    0.5003720117E-03    0.9936823301E-04    0.6950857584E+00    0.7704028017E-03    0.4200112432E-02
    0.1900000000E+04    0.5709527202E-03    0.1133937716E-03    0.6951709605E+00    0.8802322978E-03    0.4187319334E-02
    0.2100000000E+04    0.6453441805E-03    0.1281767939E-03    0.6952398773E+00    0.9960887758E-03    0.4173821801E-02
    0.2300000000E+04    0.7239067272E-03    0.1437889503E-03    0.6952967590E+00    0.1118540409E-02    0.4159567965E-02
    0.2500000000E+04    0.8070338963E-03    0.1603084881E-03    0.6953444963E+00    0.1248208422E-02    0.4144498112E-02
    0.2700000000E+04    0.8951587723E-03    0.1778215158E-03    0.6953851232E+00    0.1385777198E-02    0.4128544451E-02
    0.2900000000E+04    0.9887608059E-03    0.1964233592E-03    0.6954201126E+00    0.1532005129E-02    0.4111630531E-02
    0.3100000000E+04    0.1088373383E-02    0.2162200681E-03    0.6954505570E+00    0.1687736677E-02    0.4093670355E-02
    0.3300000000E+04    0.1194592408E-02    0.2373301226E-03    0.6954772844E+00    0.1853916067E-02    0.4074567254E-02
    0.3500000000E+04    0.1308086167E-02    0.2598863961E-03    0.6955009329E+00    0.2031603048E-02    0.4054212486E-02
    0.3700000000E+04    0.1429606769E-02    0.2840384299E-03    0.6955220029E+00    0.2221991190E-02    0.4032483562E-02
    0.3900000000E+04    0.1560003502E-02    0.3099550901E-03    0.6955408921E+00    0.2426429273E-02    0.4009242258E-02
    0.4100000000E+04    0.1700238492E-02    0.3378276822E-03    0.6955579203E+00    0.2646446401E-02    0.3984332258E-02
    0.4300000000E+04    0.1851405133E-02    0.3678736168E-03    0.6955733479E+00    0.2883781582E-02    0.3957576387E-02
    0.4500000000E+04    0.2014749827E-02    0.4003407332E-03    0.6955873890E+00    0.3140418676E-02    0.3928773347E-02
    0.4700000000E+04    0.2191697666E-02    0.4355124092E-03    0.6956002211E+00    0.3418627735E-02    0.3897693887E-02
    0.4900000000E+04    0.2383882805E-02    0.4737136015E-03    0.6956119927E+00    0.3721013965E-02    0.3864076309E-02
    0.1000000000E+04    0.2786980907E-03    0.5531892078E-04    0.6945182386E+00    0.4261383034E-03    0.4239877501E-02
    0.3000000000E+04    0.1037780107E-02    0.2061652634E-03    0.6954358460E+00    0.1608626448E-02    0.4102787001E-02
    0.5000000000E+04    0.2486265905E-02    0.4940649165E-03    0.6956175208E+00    0.3882193343E-02    0.3846223795E-02
    0.7000000000E+04    0.6027490035E-02    0.1198085422E-02    0.6956945044E+00    0.9485901454E-02    0.3247952719E-02
    0.9000000000E+04    0.1643920902E-01    0.3268927406E-02    0.6957367710E+00    0.2620049764E-01    0.1641841945E-02
    0.1100000000E+05    0.2800209932E-01    0.5571912029E-02    0.6957633422E+00    0.4559622076E-01    0.2844037710E-03
    0.1300000000E+05    0.3230394060E-01    0.6432707679E-02    0.6957815089E+00    0.5387804635E-01    0.1581216730E-03
    0.1500000000E+05    0.3542670027E-01    0.7059753145E-02    0.6957946615E+00    0.6049523306E-01    0.1538102918E-03
    0.1700000000E+05    0.3818606388E-01    0.7615137892E-02    0.6958045884E+00    0.6672321621E-01    0.1546369082E-03
    0.1900000000E+05    0.4065961946E-01    0.8114168865E-02    0.6958123211E+00    0.7265692773E-01    0.1555844668E-03
    0.2100000000E+05    0.4288316265E-01    0.8563858590E-02    0.6958184959E+00    0.7832792342E-01    0.1564522283E-03
    0.2300000000E+05    0.4488574578E-01    0.8969896874E-02    0.6958235261E+00    0.8376102664E-01    0.1572456712E-03
    0.2500000000E+05    0.4669219574E-01    0.9337148453E-02    0.6958276917E+00    0.8897771817E-01    0.1579764335E-03
    0.2700000000E+05    0.4832390015E-01    0.9669806529E-02    0.6958311891E+00    0.9399678901E-01    0.1586539060E-03
    0.2900000000E+05    0.4979937664E-01    0.9971503739E-02    0.6958341597E+00    0.9883476122E-01    0.1592855181E-03
    0.3100000000E+05    0.5113473099E-01    0.1024540146E-01    0.6958367083E+00    0.1035062265E+00    0.1598772365E-03
    0.3300000000E+05    0.5234403082E-01    0.1049426265E-01    0.6958389137E+00    0.1080241254E+00    0.1604339256E-03
    0.3500000000E+05    0.5343961259E-01    0.1072051175E-01    0.6958408367E+00    0.1123999783E+00    0.1609596044E-03
    0.3700000000E+05    0.5443233516E-01    0.1092628414E-01    0.6958425245E+00    0.1166440796E+00    0.1614576323E-03
    0.3900000000E+05    0.5533179061E-01    0.1111346730E-01    0.6958440148E+00    0.1207656591E+00    0.1619308467E-03
    0.4100000000E+05    0.5614648028E-01    0.1128373511E-01    0.6958453374E+00    0.1247730198E+00    0.1623816659E-03
    0.4300000000E+05    0.5688396251E-01    0.1143857678E-01    0.6958465168E+00    0.1286736534E+00    0.1628121684E-03
    0.4500000000E+05    0.5755097730E-01    0.1157932116E-01    0.6958475729E+00    0.1324743399E+00    0.1632241538E-03
    0.4700000000E+05    0.5815355190E-01    0.1170715737E-01    0.6958485221E+00    0.1361812316E+00    0.1636191907E-03
    0.4900000000E+05    0.5869709063E-01    0.1182315236E-01    0.6958493783E+00    0.1397999261E+00    0.1639986550E-03
    0.1000000000E+05    0.2358828252E-01    0.4691958102E-02    0.6957514256E+00    0.3796799491E-01    0.6998483424E-03
    0.3000000000E+05    0.5048364597E-01    0.1011174627E-01    0.6958354813E+00    0.1011904627E+00    0.1595860376E-03
    0.5000000000E+05    0.5894825918E-01    0.1187701315E-01    0.6958497752E+00    0.1415778127E+00    0.1641829323E-03
    0.7000000000E+05    0.6182398749E-01    0.1252086526E-01    0.6958548449E+00    0.1735354969E+00    0.1672825151E-03
    0.9000000000E+05    0.6218651455E-01    0.1265261172E-01    0.6958570701E+00    0.2004783629E+00    0.1696355991E-03
    0.1100000000E+06    0.6129953106E-01    0.1252468571E-01    0.6958581060E+00    0.2240368588E+00    0.1715381809E-03
    0.1300000000E+06    0.5976149504E-01    0.1225778460E-01    0.6958585577E+00    0.2451085914E+00    0.1731382713E-03
    0.1500000000E+06    0.5788412493E-01    0.1191547999E-01    0.6958586924E+00    0.2642400272E+00    0.1745207739E-03
    0.1700000000E+06    0.5584085832E-01    0.1153360962E-01    0.6958586441E+00    0.2817901312E+00    0.1757390136E-03
    0.1900000000E+06    0.5373268140E-01    0.1113337138E-01    0.6958584857E+00    0.2980093097E+00    0.1768287218E-03
    0.2100000000E+06    0.5162013738E-01    0.1072772231E-01    0.6958582595E+00    0.3130810094E+00    0.1778150347E-03
    0.2300000000E+06    0.4954005144E-01    0.1032474050E-01    0.6958579913E+00    0.3271451964E+00    0.1787163203E-03
    0.2500000000E+06    0.4751478984E-01    0.9929497591E-02    0.6958576973E+00    0.3403123554E+00    0.1795464158E-03
    0.2700000000E+06    0.4555763432E-01    0.9545152682E-02    0.6958573880E+00    0.3526722228E+00    0.1803160106E-03
    0.2900000000E+06    0.4367602678E-01    0.9173617644E-02    0.6958570705E+00    0.3642994441E+00    0.1810335365E-03
    0.3100000000E+06    0.4187359366E-01    0.8815975506E-02    0.6958567495E+00    0.3752573608E+00    0.1817057643E-03
    0.3300000000E+06    0.4015144444E-01    0.8472751218E-02    0.6958564281E+00    0.3856006184E+00    0.1823382147E-03
    0.3500000000E+06    0.3850902393E-01    0.8144091145E-02    0.6958561085E+00    0.3953770097E+00    0.1829354493E-03
    0.3700000000E+06    0.3694468249E-01    0.7829884496E-02    0.6958557922E+00    0.4046288082E+00    0.1835012816E-03
    0.3900000000E+06    0.3545606341E-01    0.7529846867E-02    0.6958554803E+00    0.4133937544E+00    0.1840389323E-03
    0.4100000000E+06    0.3404036926E-01    0.7243578514E-02    0.6958551733E+00    0.4217058003E+00    0.1845511472E-03
    0.4300000000E+06    0.3269454649E-01    0.6970605419E-02    0.6958548717E+00    0.4295956825E+00    0.1850402861E-03
    0.4500000000E+06    0.3141541398E-01    0.6710408454E-02    0.6958545758E+00    0.4370913716E+00    0.1855083921E-03
    0.4700000000E+06    0.3019975264E-01    0.6462444188E-02    0.6958542857E+00    0.4442184312E+00    0.1859572466E-03
    0.4900000000E+06    0.2904436745E-01    0.6226159730E-02    0.6958540014E+00    0.4510003089E+00    0.1863884119E-03
    0.1000000000E+06    0.6185238503E-01    0.1261169128E-01    0.6958576869E+00    0.2126134570E+00    0.1706318942E-03
    0.3000000000E+06    0.4276479676E-01    0.8993016523E-02    0.6958569102E+00    0.3698584710E+00    0.1813749422E-03
    0.5000000000E+06    0.2848829735E-01    0.6112224733E-02    0.6958538614E+00    0.4542686132E+00    0.1865977981E-03
    0.7000000000E+06    0.1983354182E-01    0.4320223200E-02    0.6958513451E+00    0.5059419074E+00    0.1901198553E-03
    0.9000000000E+06    0.1442616949E-01    0.3180863232E-02    0.6958492707E+00    0.5397319736E+00    0.1927937996E-03
    0.1100000000E+07    0.1089102081E-01    0.2425964222E-02    0.6958475162E+00    0.5630171996E+00    0.1949558719E-03
    0.1300000000E+07    0.8478979859E-02    0.1905269688E-02    0.6958459982E+00    0.5797753014E+00    0.1967742276E-03
    0.1500000000E+07    0.6770824306E-02    0.1533131991E-02    0.6958446606E+00    0.5922781548E+00    0.1983453328E-03
    0.1700000000E+07    0.5522077490E-02    0.1258916257E-02    0.6958434650E+00    0.6018900697E+00    0.1997297775E-03
    0.1900000000E+07    0.4584126310E-02    0.1051504863E-02    0.6958423838E+00    0.6094673591E+00    0.2009681626E-03
    0.2100000000E+07    0.3863113194E-02    0.8910659518E-03    0.6958413968E+00    0.6155687020E+00    0.2020890508E-03
    0.2300000000E+07    0.3297702852E-02    0.7645381684E-03    0.6958404885E+00    0.6205711256E+00    0.2031133139E-03
    0.2500000000E+07    0.2846583277E-02    0.6630638321E-03    0.6958396472E+00    0.6247366968E+00    0.2040566761E-03
    0.2700000000E+07    0.2481175971E-02    0.5804780540E-03    0.6958388635E+00    0.6282523525E+00    0.2049312841E-03
    0.2900000000E+07    0.2181238185E-02    0.5123900793E-03    0.6958381297E+00    0.6312545129E+00    0.2057467200E-03
    0.3100000000E+07    0.1932127218E-02    0.4556079020E-03    0.6958374399E+00    0.6338447599E+00    0.2065106778E-03
    0.3300000000E+07    0.1723050836E-02    0.4077680477E-03    0.6958367889E+00    0.6361001024E+00    0.2072294314E-03
    0.3500000000E+07    0.1545920028E-02    0.3670914868E-03    0.6958361725E+00    0.6380798625E+00    0.2079081644E-03
    0.3700000000E+07    0.1394579548E-02    0.3322191114E-03    0.6958355871E+00    0.6398303998E+00    0.2085512106E-03
    0.3900000000E+07    0.1264281163E-02    0.3020985951E-03    0.6958350297E+00    0.6413884163E+00    0.2091622301E-03
    0.4100000000E+07    0.1151316288E-02    0.2759051553E-03    0.6958344977E+00    0.6427833113E+00    0.2097443431E-03
    0.4300000000E+07    0.1052755405E-02    0.2529851276E-03    0.6958339887E+00    0.6440388872E+00    0.2103002314E-03
    0.4500000000E+07    0.9662603356E-03    0.2328151682E-03    0.6958335009E+00    0.6451746038E+00    0.2108322170E-03
    0.4700000000E+07    0.8899470702E-03    0.2149723406E-03    0.6958330324E+00    0.6462065129E+00    0.2113423242E-03
    0.4900000000E+07    0.8222842144E-03    0.1991118983E-03    0.6958325819E+00    0.6471479644E+00    0.2118323284E-03
    0.1000000000E+07    0.1248171587E-01    0.2766748096E-02    0.6958483595E+00    0.5523854933E+00    0.1939259724E-03
    0.3000000000E+07    0.2051078395E-02    0.4827495644E-03    0.6958377797E+00    0.6325958302E+00    0.2061347127E-03
    0.5000000000E+07    0.7912954201E-03    0.1918345219E-03    0.6958323629E+00    0.6475883368E+00    0.2120702885E-03
    0.7000000000E+07    0.4145927452E-03    0.1025161273E-03    0.6958286621E+00    0.6536005590E+00    0.2160729891E-03
    0.9000000000E+07    0.2541701535E-03    0.6378889470E-04    0.6958258350E+00    0.6568047923E+00    0.2191118412E-03
    0.1100000000E+08    0.1714567323E-03    0.4354544873E-04    0.6958235409E+00    0.6587877198E+00    0.2215689679E-03
    0.1300000000E+08    0.1233467747E-03    0.3163929740E-04    0.6958216068E+00    0.6601333663E+00    0.2236354716E-03
    0.1500000000E+08    0.9293749052E-04    0.2404293276E-04    0.6958199327E+00    0.6611054987E+00    0.2254209825E-03
    0.1700000000E+08    0.7250941658E-04    0.1889850959E-04    0.6958184557E+00    0.6618402849E+00    0.2269943593E-03
    0.1900000000E+08    0.5813231845E-04    0.1525205842E-04    0.6958171331E+00    0.6624150021E+00    0.2284017437E-03
    0.2100000000E+08    0.4763484637E-04    0.1257261703E-04    0.6958159350E+00    0.6628767202E+00    0.2296755962E-03
    0.2300000000E+08    0.3973838613E-04    0.1054546356E-04    0.6958148394E+00    0.6632557285E+00    0.2308396371E-03
    0.2500000000E+08    0.3365043403E-04    0.8974373209E-05    0.6958138297E+00    0.6635723930E+00    0.2319117366E-03
    0.2700000000E+08    0.2885866393E-04    0.7731810886E-05    0.6958128932E+00    0.6638409081E+00    0.2329056990E-03
