  Pressure (Pa) 22mC5-500 (mol/kg) 23mC5-500 (mol/kg) 24mC5-500 (mol/kg) 3mC6-500 (mol/kg) C7-500 (mol/kg)
    0.1000000000E+01    0.6405300727E-05    0.6128740015E-06    0.1514032433E+00    0.5602658454E-05    0.4191177686E-02
    0.3000000000E+01    0.1248056176E-04    0.1190344826E-05    0.3164882620E+00    0.1433199943E-04    0.4229521760E-02
    0.5000000000E+01    0.1525265596E-04    0.1451840829E-05    0.4047546684E+00    0.2236502431E-04    0.4248650658E-02
    0.7000000000E+01    0.1679580057E-04    0.1596772523E-05    0.4597008636E+00    0.3006406902E-04    0.4260438420E-02
    0.9000000000E+01    0.1779085985E-04    0.1690223860E-05    0.4971985379E+00    0.3755138492E-04    0.4268436812E-02
    0.1100000000E+02    0.1851442577E-04    0.1758471460E-05    0.5244202187E+00    0.4488813910E-04    0.4274200796E-02
    0.1300000000E+02    0.1909481434E-04    0.1813622863E-05    0.5450809787E+00    0.5211073313E-04    0.4278529625E-02
    0.1500000000E+02    0.1959717964E-04    0.1861779136E-05    0.5612976763E+00    0.5924315024E-04    0.4281878628E-02
    0.1700000000E+02    0.2005679790E-04    0.1906214887E-05    0.5743649348E+00    0.6630229828E-04    0.4284527097E-02
    0.1900000000E+02    0.2049367492E-04    0.1948768314E-05    0.5851190263E+00    0.7330068955E-04    0.4286656256E-02
    0.2100000000E+02    0.2091953659E-04    0.1990503625E-05    0.5941242223E+00    0.8024792861E-04    0.4288389042E-02
    0.2300000000E+02    0.2134140759E-04    0.2032048609E-05    0.6017750649E+00    0.8715160209E-04    0.4289811912E-02
    0.2500000000E+02    0.2176354452E-04    0.2073776109E-05    0.6083557200E+00    0.9401784230E-04    0.4290987520E-02
    0.2700000000E+02    0.2218852703E-04    0.2115905903E-05    0.6140760531E+00    0.1008517009E-03    0.4291962424E-02
    0.2900000000E+02    0.2261789608E-04    0.2158563966E-05    0.6190944229E+00    0.1076574060E-03    0.4292771983E-02
    0.3100000000E+02    0.2305253872E-04    0.2201817962E-05    0.6235325696E+00    0.1144385446E-03    0.4293443548E-02
    0.3300000000E+02    0.2349292587E-04    0.2245699023E-05    0.6274856210E+00    0.1211981955E-03    0.4293998630E-02
    0.3500000000E+02    0.2393926221E-04    0.2290215372E-05    0.6310289873E+00    0.1279390282E-03    0.4294454390E-02
    0.3700000000E+02    0.2439158242E-04    0.2335360982E-05    0.6342232182E+00    0.1346633781E-03    0.4294824693E-02
    0.3900000000E+02    0.2484981364E-04    0.2381121146E-05    0.6371174919E+00    0.1413733047E-03    0.4295120869E-02
    0.4100000000E+02    0.2531381657E-04    0.2427476081E-05    0.6397521644E+00    0.1480706370E-03    0.4295352275E-02
    0.4300000000E+02    0.2578341253E-04    0.2474403280E-05    0.6421606633E+00    0.1547570098E-03    0.4295526708E-02
    0.4500000000E+02    0.2625840148E-04    0.2521879041E-05    0.6443709132E+00    0.1614338925E-03    0.4295650720E-02
    0.4700000000E+02    0.2673857389E-04    0.2569879448E-05    0.6464064236E+00    0.1681026131E-03    0.4295729861E-02
    0.4900000000E+02    0.2722371859E-04    0.2618381001E-05    0.6482871279E+00    0.1747643775E-03    0.4295768863E-02
    0.1000000000E+02    0.1817647167E-04    0.1726542474E-05    0.5118104519E+00    0.4123592353E-04    0.4271537092E-02
    0.3000000000E+02    0.2283452110E-04    0.2180113860E-05    0.6213795478E+00    0.1110508431E-03    0.4293123553E-02
    0.5000000000E+02    0.2746809041E-04    0.2642812577E-05    0.6491748435E+00    0.1780929986E-03    0.4295774605E-02
    0.7000000000E+02    0.3257079079E-04    0.3152869194E-05    0.6618629951E+00    0.2445238455E-03    0.4294520752E-02
    0.9000000000E+02    0.3799270198E-04    0.3694376094E-05    0.6691284371E+00    0.3111008739E-03    0.4291706875E-02
    0.1100000000E+03    0.4365296831E-04    0.4259192641E-05    0.6738353769E+00    0.3782237540E-03    0.4288064683E-02
    0.1300000000E+03    0.4951102609E-04    0.4843323888E-05    0.6771328838E+00    0.4461486777E-03    0.4283899814E-02
    0.1500000000E+03    0.5554630602E-04    0.5444780141E-05    0.6795715391E+00    0.5150613837E-03    0.4279362790E-02
    0.1700000000E+03    0.6174872432E-04    0.6062608207E-05    0.6814481941E+00    0.5851087740E-03    0.4274535828E-02
    0.1900000000E+03    0.6811409315E-04    0.6696431798E-05    0.6829370311E+00    0.6564147899E-03    0.4269466939E-02
    0.2100000000E+03    0.7464176623E-04    0.7346218456E-05    0.6841469940E+00    0.7290892554E-03    0.4264185324E-02
    0.2300000000E+03    0.8133336099E-04    0.8012154163E-05    0.6851497162E+00    0.8032332052E-03    0.4258709056E-02
    0.2500000000E+03    0.8819203159E-04    0.8694572562E-05    0.6859942328E+00    0.8789423065E-03    0.4253049232E-02
    0.2700000000E+03    0.9522204012E-04    0.9393913495E-05    0.6867152410E+00    0.9563091764E-03    0.4247212347E-02
    0.2900000000E+03    0.1024284967E-03    0.1011069806E-04    0.6873379831E+00    0.1035425031E-02    0.4241201723E-02
    0.3100000000E+03    0.1098172000E-03    0.1084551342E-04    0.6878812620E+00    0.1116380913E-02    0.4235018406E-02
    0.3300000000E+03    0.1173945387E-03    0.1159900352E-04    0.6883593711E+00    0.1199268643E-02    0.4228661744E-02
    0.3500000000E+03    0.1251674329E-03    0.1237186366E-04    0.6887833699E+00    0.1284181587E-02    0.4222129770E-02
    0.3700000000E+03    0.1331433012E-03    0.1316483744E-04    0.6891619498E+00    0.1371215310E-02    0.4215419461E-02
    0.3900000000E+03    0.1413300446E-03    0.1397871549E-04    0.6895020352E+00    0.1460468138E-02    0.4208526913E-02
    0.4100000000E+03    0.1497360438E-03    0.1481433532E-04    0.6898092113E+00    0.1552041671E-02    0.4201447465E-02
    0.4300000000E+03    0.1583701656E-03    0.1567258208E-04    0.6900880326E+00    0.1646041260E-02    0.4194175783E-02
    0.4500000000E+03    0.1672417753E-03    0.1655438995E-04    0.6903422505E+00    0.1742576465E-02    0.4186705913E-02
    0.4700000000E+03    0.1763607562E-03    0.1746074412E-04    0.6905749826E+00    0.1841761502E-02    0.4179031319E-02
    0.4900000000E+03    0.1857375327E-03    0.1839268317E-04    0.6907888409E+00    0.1943715691E-02    0.4171144902E-02
    0.1000000000E+03    0.4079620957E-04    0.3974184316E-05    0.6717091059E+00    0.3445758718E-03    0.4289964899E-02
    0.3000000000E+03    0.1060996812E-03    0.1047581290E-04    0.6876185738E+00    0.1075667258E-02    0.4238131657E-02
    0.5000000000E+03    0.1905260066E-03    0.1886858688E-04    0.6908893953E+00    0.1995770011E-02    0.4167119891E-02
    0.7000000000E+03    0.3029227691E-03    0.3003768543E-04    0.6922998077E+00    0.3216961618E-02    0.4073281098E-02
    0.9000000000E+03    0.4591796273E-03    0.4556363424E-04    0.6930853259E+00    0.4916263673E-02    0.3945061081E-02
    0.1100000000E+04    0.6880094411E-03    0.6830064221E-04    0.6935857764E+00    0.7410719606E-02    0.3761420270E-02
    0.1300000000E+04    0.1044243705E-02    0.1036991640E-03    0.6939324143E+00    0.1130713055E-01    0.3483266997E-02
    0.1500000000E+04    0.1634532595E-02    0.1623625371E-03    0.6941866474E+00    0.1779347986E-01    0.3038402288E-02
    0.1700000000E+04    0.2634364413E-02    0.2617466869E-03    0.6943810401E+00    0.2885585938E-01    0.2322156010E-02
    0.1900000000E+04    0.4095235123E-02    0.4070116346E-03    0.6945344675E+00    0.4521320687E-01    0.1361109929E-02
    0.2100000000E+04    0.5468507640E-02    0.5436711614E-03    0.6946586241E+00    0.6097141516E-01    0.6031303040E-03
    0.2300000000E+04    0.6307084850E-02    0.6272584985E-03    0.6947611412E+00    0.7109587120E-01    0.2985874373E-03
    0.2500000000E+04    0.6831291372E-02    0.6796329490E-03    0.6948472109E+00    0.7787879504E-01    0.2180349892E-03
    0.2700000000E+04    0.7246353552E-02    0.7211824901E-03    0.6949204877E+00    0.8355057809E-01    0.1999422056E-03
    0.2900000000E+04    0.7620157977E-02    0.7586530285E-03    0.6949836188E+00    0.8885612188E-01    0.1964512420E-03
    0.3100000000E+04    0.7970698370E-02    0.7938318795E-03    0.6950385687E+00    0.9399094803E-01    0.1962198397E-03
    0.3300000000E+04    0.8302937920E-02    0.8272109060E-03    0.6950868257E+00    0.9900552457E-01    0.1966900890E-03
    0.3500000000E+04    0.8618656770E-02    0.8589654958E-03    0.6951295379E+00    0.1039147222E+00    0.1972905855E-03
    0.3700000000E+04    0.8918845616E-02    0.8891926004E-03    0.6951676055E+00    0.1087247185E+00    0.1978951875E-03
    0.3900000000E+04    0.9204277251E-02    0.9179675880E-03    0.6952017438E+00    0.1134394806E+00    0.1984777222E-03
    0.4100000000E+04    0.9475644114E-02    0.9453579259E-03    0.6952325285E+00    0.1180623277E+00    0.1990343819E-03
    0.4300000000E+04    0.9733592785E-02    0.9714266084E-03    0.6952604284E+00    0.1225963146E+00    0.1995661882E-03
    0.4500000000E+04    0.9978733855E-02    0.9962331336E-03    0.6952858287E+00    0.1270443301E+00    0.2000750301E-03
    0.4700000000E+04    0.1021164581E-01    0.1019833884E-02    0.6953090491E+00    0.1314091268E+00    0.2005627907E-03
    0.4900000000E+04    0.1043287737E-01    0.1042282356E-02    0.6953303571E+00    0.1356933339E+00    0.2010311762E-03
    0.1000000000E+04    0.5619381121E-03    0.5577382713E-04    0.6933605284E+00    0.6035547157E-02    0.3862041797E-02
    0.3000000000E+04    0.7797897303E-02    0.7764853793E-03    0.6950120141E+00    0.9144028044E-01    0.1961701003E-03
    0.5000000000E+04    0.1053927679E-01    0.1053090460E-02    0.6953403658E+00    0.1378060062E+00    0.2012585843E-03
    0.7000000000E+04    0.1216738073E-01    0.1219817245E-02    0.6954799464E+00    0.1763847162E+00    0.2050792458E-03
    0.9000000000E+04    0.1308156348E-01    0.1315668290E-02    0.6955568171E+00    0.2091844912E+00    0.2079753524E-03
    0.1100000000E+05    0.1352815624E-01    0.1364779709E-02    0.6956052925E+00    0.2375435553E+00    0.2103149656E-03
    0.1300000000E+05    0.1366464635E-01    0.1382641899E-02    0.6956385398E+00    0.2623957914E+00    0.2122815055E-03
    0.1500000000E+05    0.1359442099E-01    0.1379468712E-02    0.6956626886E+00    0.2844152165E+00    0.2139799661E-03
    0.1700000000E+05    0.1338679634E-01    0.1362142148E-02    0.6956809752E+00    0.3041025021E+00    0.2154761968E-03
    0.1900000000E+05    0.1308901967E-01    0.1335379503E-02    0.6956952684E+00    0.3218389090E+00    0.2168142753E-03
    0.2100000000E+05    0.1273370238E-01    0.1302457538E-02    0.6957067219E+00    0.3379210936E+00    0.2180251852E-03
    0.2300000000E+05    0.1234355503E-01    0.1265674788E-02    0.6957160859E+00    0.3525842630E+00    0.2191315534E-03
    0.2500000000E+05    0.1193447808E-01    0.1226654070E-02    0.6957238692E+00    0.3660179970E+00    0.2201504173E-03
    0.2700000000E+05    0.1151762215E-01    0.1186544695E-02    0.6957304287E+00    0.3783773235E+00    0.2210949328E-03
    0.2900000000E+05    0.1110078683E-01    0.1146160171E-02    0.6957360221E+00    0.3897906389E+00    0.2219754742E-03
    0.3100000000E+05    0.1068938553E-01    0.1106073518E-02    0.6957408401E+00    0.4003654859E+00    0.2228003696E-03
    0.3300000000E+05    0.1028712032E-01    0.1066684160E-02    0.6957450268E+00    0.4101928415E+00    0.2235764077E-03
    0.3500000000E+05    0.9896459530E-02    0.1028265481E-02    0.6957486929E+00    0.4193503537E+00    0.2243091967E-03
    0.3700000000E+05    0.9518979361E-02    0.9909989668E-03    0.6957519249E+00    0.4279048197E+00    0.2250034242E-03
    0.3900000000E+05    0.9155610314E-02    0.9549989657E-03    0.6957547914E+00    0.4359141099E+00    0.2256630487E-03
    0.4100000000E+05    0.8806816330E-02    0.9203307766E-03    0.6957573475E+00    0.4434286805E+00    0.2262914441E-03
    0.4300000000E+05    0.8472725791E-02    0.8870239529E-03    0.6957596379E+00    0.4504927759E+00    0.2268915098E-03
    0.4500000000E+05    0.8153227791E-02    0.8550821407E-03    0.6957616990E+00    0.4571453955E+00    0.2274657561E-03
    0.4700000000E+05    0.7848043134E-02    0.8244903848E-03    0.6957635612E+00    0.4634210777E+00    0.2280163711E-03
    0.4900000000E+05    0.7556776802E-02    0.7952205708E-03    0.6957652498E+00    0.4693505422E+00    0.2285452737E-03
    0.1000000000E+05    0.1335188531E-01    0.1344944325E-02    0.6955835337E+00    0.2238533298E+00    0.2092006967E-03
    0.3000000000E+05    0.1089414182E-01    0.1126051213E-02    0.6957385181E+00    0.3951768389E+00    0.2223944221E-03
    0.5000000000E+05    0.7416217667E-02    0.7810700296E-03    0.6957660357E+00    0.4721941308E+00    0.2288021195E-03
    0.7000000000E+05    0.5206893172E-02    0.5564149974E-03    0.6957763634E+00    0.5162188726E+00    0.2331221279E-03
    0.9000000000E+05    0.3813805888E-02    0.4123894151E-03    0.6957812792E+00    0.5445197393E+00    0.2364015183E-03
    0.1100000000E+06    0.2898551444E-02    0.3165471925E-03    0.6957838788E+00    0.5641326258E+00    0.2390529734E-03
    0.1300000000E+06    0.2270952835E-02    0.2501354559E-03    0.6957853088E+00    0.5784696608E+00    0.2412828248E-03
    0.1500000000E+06    0.1824128982E-02    0.2024310788E-03    0.6957860839E+00    0.5893783796E+00    0.2432094206E-03
    0.1700000000E+06    0.1495701083E-02    0.1670951514E-03    0.6957864658E+00    0.5979415635E+00    0.2449070874E-03
    0.1900000000E+06    0.1247699047E-02    0.1402293475E-03    0.6957865997E+00    0.6048334451E+00    0.2464256268E-03
    0.2100000000E+06    0.1056086048E-02    0.1193444761E-03    0.6957865714E+00    0.6104945922E+00    0.2478000724E-03
    0.2300000000E+06    0.9051048509E-03    0.1027965498E-03    0.6957864346E+00    0.6152244427E+00    0.2490560233E-03
    0.2500000000E+06    0.7841037517E-03    0.8946691838E-04    0.6957862239E+00    0.6192332934E+00    0.2502127648E-03
    0.2700000000E+06    0.6856855768E-03    0.7857413299E-04    0.6957859623E+00    0.6226729866E+00    0.2512851938E-03
    0.2900000000E+06    0.6045899128E-03    0.6955949906E-04    0.6957856657E+00    0.6256557938E+00    0.2522850613E-03
    0.3100000000E+06    0.5369965310E-03    0.6201529223E-04    0.6957853453E+00    0.6282664525E+00    0.2532218035E-03
    0.3300000000E+06    0.4800788489E-03    0.5563847505E-04    0.6957850089E+00    0.6305700801E+00    0.2541031139E-03
    0.3500000000E+06    0.4317103221E-03    0.5020010561E-04    0.6957846622E+00    0.6326175163E+00    0.2549353496E-03
    0.3700000000E+06    0.3902669367E-03    0.4552466037E-04    0.6957843094E+00    0.6344490168E+00    0.2557238250E-03
    0.3900000000E+06    0.3544915835E-03    0.4147577297E-04    0.6957839535E+00    0.6360968605E+00    0.2564730287E-03
    0.4100000000E+06    0.3233991729E-03    0.3794621613E-04    0.6957835967E+00    0.6375872247E+00    0.2571867868E-03
    0.4300000000E+06    0.2962091191E-03    0.3485074603E-04    0.6957832408E+00    0.6389415570E+00    0.2578683879E-03
    0.4500000000E+06    0.2722965502E-03    0.3212091296E-04    0.6957828870E+00    0.6401775933E+00    0.2585206795E-03
    0.4700000000E+06    0.2511565487E-03    0.2970124497E-04    0.6957825361E+00    0.6413101256E+00    0.2591461439E-03
    0.4900000000E+06    0.2323775993E-03    0.2754640528E-04    0.6957821890E+00    0.6423515861E+00    0.2597469581E-03
    0.1000000000E+06    0.3310925131E-02    0.3598644007E-03    0.6957827744E+00    0.5551476925E+00    0.2377899728E-03
    0.3000000000E+06    0.5693013689E-03    0.6562456780E-04    0.6957855080E+00    0.6270031845E+00    0.2527608068E-03
    0.5000000000E+06    0.2237654458E-03    0.2655636128E-04    0.6957820169E+00    0.6428415176E+00    0.2600387303E-03
    0.7000000000E+06    0.1183902741E-03    0.1432617380E-04    0.6957788297E+00    0.6497279060E+00    0.2649465705E-03
    0.9000000000E+06    0.7302580611E-04    0.8966201082E-05    0.6957761127E+00    0.6535728363E+00    0.2686725756E-03
    0.1100000000E+07    0.4947410632E-04    0.6145324529E-05    0.6957737754E+00    0.6560253820E+00    0.2716852996E-03
    0.1300000000E+07    0.3570937544E-04    0.4478384645E-05    0.6957717321E+00    0.6577255303E+00    0.2742190661E-03
    0.1500000000E+07    0.2697793178E-04    0.3411136783E-05    0.6957699192E+00    0.6589733224E+00    0.2764082984E-03
    0.1700000000E+07    0.2109615125E-04    0.2686431454E-05    0.6957682906E+00    0.6599280367E+00    0.2783374275E-03
    0.1900000000E+07    0.1694737596E-04    0.2171647096E-05    0.6957668121E+00    0.6606820491E+00    0.2800630293E-03
    0.2100000000E+07    0.1391254202E-04    0.1792714151E-05    0.6957654584E+00    0.6612926139E+00    0.2816249050E-03
    0.2300000000E+07    0.1162608577E-04    0.1505606257E-05    0.6957642097E+00    0.6617971032E+00    0.2830521386E-03
    0.2500000000E+07    0.9860898713E-05    0.1282810308E-05    0.6957630506E+00    0.6622209468E+00    0.2843666412E-03
    0.2700000000E+07    0.8469875158E-05    0.1106409645E-05    0.6957619690E+00    0.6625820485E+00    0.2855853389E-03
    0.2900000000E+07    0.7354341268E-05    0.9643273648E-06    0.6957609550E+00    0.6628933784E+00    0.2867215834E-03
    0.3100000000E+07    0.6446114597E-05    0.8481806998E-06    0.6957600004E+00    0.6631645625E+00    0.2877860965E-03
    0.3300000000E+07    0.5696862183E-05    0.7520023422E-06    0.6957590986E+00    0.6634028949E+00    0.2887876201E-03
    0.3500000000E+07    0.5071551595E-05    0.6714501570E-06    0.6957582438E+00    0.6636140041E+00    0.2897333777E-03
    0.3700000000E+07    0.4544290276E-05    0.6033030821E-06    0.6957574313E+00    0.6638023021E+00    0.2906294077E-03
    0.3900000000E+07    0.4095607432E-05    0.5451305671E-06    0.6957566570E+00    0.6639712965E+00    0.2914808108E-03
    0.4100000000E+07    0.3710634067E-05    0.4950704585E-06    0.6957559174E+00    0.6641238109E+00    0.2922919346E-03
    0.4300000000E+07    0.3377857381E-05    0.4516764755E-06    0.6957552094E+00    0.6642621438E+00    0.2930665160E-03
    0.4500000000E+07    0.3088251395E-05    0.4138114197E-06    0.6957545304E+00    0.6643881854E+00    0.2938077906E-03
    0.4700000000E+07    0.2834659323E-05    0.3805710826E-06    0.6957538780E+00    0.6645035042E+00    0.2945185791E-03
    0.4900000000E+07    0.2611347744E-05    0.3512291609E-06    0.6957532502E+00    0.6646094126E+00    0.2952013555E-03
    0.1000000000E+07    0.5954451740E-04    0.7355624323E-05    0.6957749025E+00    0.6549212349E+00    0.2702501950E-03
    0.3000000000E+07    0.6877709072E-05    0.9034306243E-06    0.6957604708E+00    0.6630334872E+00    0.2872622198E-03
    0.5000000000E+07    0.2509562435E-05    0.3378315993E-06    0.6957529449E+00    0.6646591907E+00    0.2955329312E-03
    0.7000000000E+07    0.1298014792E-05    0.1769362524E-06    0.6957477759E+00    0.6653561648E+00    0.3011103147E-03
    0.9000000000E+07    0.7975169305E-06    0.1093798044E-06    0.6957438158E+00    0.6657434463E+00    0.3053446492E-03
    0.1100000000E+08    0.5432755177E-06    0.7466171914E-07    0.6957405957E+00    0.6659899346E+00    0.3087683964E-03
    0.1300000000E+08    0.3965014452E-06    0.5444359296E-07    0.6957378768E+00    0.6661606031E+00    0.3116478438E-03
    0.1500000000E+08    0.3040336651E-06    0.4162077529E-07    0.6957355207E+00    0.6662857761E+00    0.3141357525E-03
    0.1700000000E+08    0.2419543620E-06    0.3296742970E-07    0.6957334397E+00    0.6663815090E+00    0.3163280719E-03
    0.1900000000E+08    0.1982089017E-06    0.2684533201E-07    0.6957315745E+00    0.6664570975E+00    0.3182890962E-03
    0.2100000000E+08    0.1661843524E-06    0.2234997409E-07    0.6957298836E+00    0.6665182963E+00    0.3200640567E-03
    0.2300000000E+08    0.1420060591E-06    0.1894843537E-07    0.6957283362E+00    0.6665688587E+00    0.3216860054E-03
    0.2500000000E+08    0.1232808793E-06    0.1630996806E-07    0.6957269093E+00    0.6666113371E+00    0.3231798428E-03
    0.2700000000E+08    0.1084654494E-06    0.1422036298E-07    0.6957255848E+00    0.6666475276E+00    0.3245648041E-03
