  Pressure (Pa) 22mC5-500 (mol/kg) 23mC5-500 (mol/kg) 24mC5-500 (mol/kg) 3mC6-500 (mol/kg) C7-500 (mol/kg)
    0.1000000000E+01    0.6474912243E-05    0.2479074345E-05    0.1514060764E+00    0.5388476571E-05    0.4168387284E-02
    0.3000000000E+01    0.1263207689E-04    0.4821403489E-05    0.3165009074E+00    0.1355895986E-04    0.4193948731E-02
    0.5000000000E+01    0.1547324233E-04    0.5894749734E-05    0.4047757059E+00    0.2102526922E-04    0.4204376508E-02
    0.7000000000E+01    0.1707949801E-04    0.6499478311E-05    0.4597283867E+00    0.2815591721E-04    0.4210375831E-02
    0.9000000000E+01    0.1813392263E-04    0.6896802196E-05    0.4972311239E+00    0.3507405502E-04    0.4214241885E-02
    0.1100000000E+02    0.1891418665E-04    0.7192254967E-05    0.5244568515E+00    0.4184099053E-04    0.4216889955E-02
    0.1300000000E+02    0.1954923374E-04    0.7434515301E-05    0.5451209217E+00    0.4849308266E-04    0.4218770923E-02
    0.1500000000E+02    0.2010462349E-04    0.7648148027E-05    0.5613403818E+00    0.5505422299E-04    0.4220135440E-02
    0.1700000000E+02    0.2061591313E-04    0.7846362811E-05    0.5744099857E+00    0.6154121839E-04    0.4221134770E-02
    0.1900000000E+02    0.2110331320E-04    0.8036593514E-05    0.5851660977E+00    0.6796648376E-04    0.4221865899E-02
    0.2100000000E+02    0.2157870462E-04    0.8223158330E-05    0.5941730560E+00    0.7433953362E-04    0.4222394005E-02
    0.2300000000E+02    0.2204923294E-04    0.8408616275E-05    0.6018254522E+00    0.8066787270E-04    0.4222764569E-02
    0.2500000000E+02    0.2251925137E-04    0.8594496966E-05    0.6084074897E+00    0.8695755920E-04    0.4223010325E-02
    0.2700000000E+02    0.2299141826E-04    0.8781710678E-05    0.6141290628E+00    0.9321357764E-04    0.4223155457E-02
    0.2900000000E+02    0.2346733979E-04    0.8970787128E-05    0.6191485529E+00    0.9944009511E-04    0.4223218224E-02
    0.3100000000E+02    0.2394795782E-04    0.9162018668E-05    0.6235877181E+00    0.1056406430E-03    0.4223212682E-02
    0.3300000000E+02    0.2443378983E-04    0.9355548270E-05    0.6275417007E+00    0.1118182489E-03    0.4223149828E-02
    0.3500000000E+02    0.2492508055E-04    0.9551424678E-05    0.6310859225E+00    0.1179755356E-03    0.4223038396E-02
    0.3700000000E+02    0.2542189938E-04    0.9749637535E-05    0.6342809433E+00    0.1241147949E-03    0.4222885409E-02
    0.3900000000E+02    0.2592420381E-04    0.9950140022E-05    0.6371759490E+00    0.1302380460E-03    0.4222696581E-02
    0.4100000000E+02    0.2643188126E-04    0.1015286359E-04    0.6398113025E+00    0.1363470802E-03    0.4222476609E-02
    0.4300000000E+02    0.2694477673E-04    0.1035772760E-04    0.6422204371E+00    0.1424434968E-03    0.4222229391E-02
    0.4500000000E+02    0.2746271128E-04    0.1056464559E-04    0.6444312823E+00    0.1485287322E-03    0.4221958188E-02
    0.4700000000E+02    0.2798549429E-04    0.1077352937E-04    0.6464673516E+00    0.1546040829E-03    0.4221665749E-02
    0.4900000000E+02    0.2851293160E-04    0.1098429170E-04    0.6483485823E+00    0.1606707250E-03    0.4221354410E-02
    0.1000000000E+02    0.1854817077E-04    0.7053421589E-05    0.5118451683E+00    0.3847376508E-04    0.4215683457E-02
    0.3000000000E+02    0.2370702156E-04    0.9066121843E-05    0.6214341988E+00    0.1025434155E-03    0.4223223243E-02
    0.5000000000E+02    0.2877833534E-04    0.1109035072E-04    0.6492365499E+00    0.1637011189E-03    0.4221192288E-02
    0.7000000000E+02    0.3428804573E-04    0.1329182818E-04    0.6619286031E+00    0.2240691519E-03    0.4217317402E-02
    0.9000000000E+02    0.4009639527E-04    0.1561094798E-04    0.6691966330E+00    0.2843818131E-03    0.4212736361E-02
    0.1100000000E+03    0.4612725320E-04    0.1801701835E-04    0.6739054677E+00    0.3450209879E-03    0.4207786249E-02
    0.1300000000E+03    0.5234260689E-04    0.2049506924E-04    0.6772044509E+00    0.4062272315E-03    0.4202599838E-02
    0.1500000000E+03    0.5872334841E-04    0.2303771994E-04    0.6796443062E+00    0.4681714819E-03    0.4197238023E-02
    0.1700000000E+03    0.6526022593E-04    0.2564148639E-04    0.6815219669E+00    0.5309860358E-03    0.4191731146E-02
    0.1900000000E+03    0.7194948050E-04    0.2830503240E-04    0.6830116665E+00    0.5947800633E-03    0.4186094803E-02
    0.2100000000E+03    0.7879061458E-04    0.3102828606E-04    0.6842223828E+00    0.6596482216E-03    0.4180336776E-02
    0.2300000000E+03    0.8578518540E-04    0.3381196639E-04    0.6852257725E+00    0.7256758200E-03    0.4174460398E-02
    0.2500000000E+03    0.9293612134E-04    0.3665731737E-04    0.6860708875E+00    0.7929421138E-03    0.4168466308E-02
    0.2700000000E+03    0.1002473200E-03    0.3956595277E-04    0.6867924374E+00    0.8615225151E-03    0.4162353421E-02
    0.2900000000E+03    0.1077234054E-03    0.4253976304E-04    0.6874156741E+00    0.9314901441E-03    0.4156119499E-02
    0.3100000000E+03    0.1153695784E-03    0.4558085866E-04    0.6879594076E+00    0.1002916963E-02    0.4149761482E-02
    0.3300000000E+03    0.1231915247E-03    0.4869153535E-04    0.6884379371E+00    0.1075874634E-02    0.4143275705E-02
    0.3500000000E+03    0.1311953581E-03    0.5187425329E-04    0.6888623270E+00    0.1150435200E-02    0.4136658021E-02
    0.3700000000E+03    0.1393875884E-03    0.5513162516E-04    0.6892412720E+00    0.1226671633E-02    0.4129903887E-02
    0.3900000000E+03    0.1477751036E-03    0.5846641028E-04    0.6895816999E+00    0.1304658300E-02    0.4123008416E-02
    0.4100000000E+03    0.1563651640E-03    0.6188151279E-04    0.6898891985E+00    0.1384471367E-02    0.4115966409E-02
    0.4300000000E+03    0.1651654038E-03    0.6537998287E-04    0.6901683245E+00    0.1466189161E-02    0.4108772368E-02
    0.4500000000E+03    0.1741838383E-03    0.6896502007E-04    0.6904228310E+00    0.1549892506E-02    0.4101420509E-02
    0.4700000000E+03    0.1834288761E-03    0.7263997845E-04    0.6906558371E+00    0.1635665039E-02    0.4093904760E-02
    0.4900000000E+03    0.1929093342E-03    0.7640837296E-04    0.6908699564E+00    0.1723593516E-02    0.4086218760E-02
    0.1000000000E+03    0.4308698649E-04    0.1680429255E-04    0.6717783142E+00    0.3146433830E-03    0.4210296647E-02
    0.3000000000E+03    0.1115248862E-03    0.4405176074E-04    0.6876964967E+00    0.9670166774E-03    0.4152956219E-02
    0.5000000000E+03    0.1977407175E-03    0.7832875303E-04    0.6909706367E+00    0.1768394271E-02    0.4082309845E-02
    0.7000000000E+03    0.3092883633E-03    0.1226611639E-03    0.6923830986E+00    0.2802237632E-02    0.3993359739E-02
    0.9000000000E+03    0.4589593946E-03    0.1821388368E-03    0.6931700996E+00    0.4190546628E-02    0.3877059513E-02
    0.1100000000E+04    0.6683931972E-03    0.2653653090E-03    0.6936717128E+00    0.6137308845E-02    0.3718519200E-02
    0.1300000000E+04    0.9759674801E-03    0.3875978965E-03    0.6940193074E+00    0.9004683647E-02    0.3492157306E-02
    0.1500000000E+04    0.1451609304E-02    0.5766398725E-03    0.6942743538E+00    0.1345574027E-01    0.3153377369E-02
    0.1700000000E+04    0.2215558756E-02    0.8803133202E-03    0.6944694541E+00    0.2064185020E-01    0.2631495524E-02
    0.1900000000E+04    0.3402305676E-02    0.1352162123E-02    0.6946235081E+00    0.3189283319E-01    0.1868266817E-02
    0.2100000000E+04    0.4884663781E-02    0.1941795359E-02    0.6947482270E+00    0.4614032514E-01    0.1007820789E-02
    0.2300000000E+04    0.6116178564E-02    0.2432068899E-02    0.6948512544E+00    0.5830102596E-01    0.4266451365E-03
    0.2500000000E+04    0.6889077342E-02    0.2740256923E-02    0.6949377911E+00    0.6631789039E-01    0.1933383876E-03
    0.2700000000E+04    0.7410114966E-02    0.2948437989E-02    0.6950114987E+00    0.7205506438E-01    0.1233493800E-03
    0.2900000000E+04    0.7833988965E-02    0.3118078503E-02    0.6950750297E+00    0.7694862507E-01    0.1045594097E-03
    0.3100000000E+04    0.8217468863E-02    0.3271740005E-02    0.6951303526E+00    0.8152995251E-01    0.9982767034E-04
    0.3300000000E+04    0.8578032110E-02    0.3416366483E-02    0.6951789593E+00    0.8596157527E-01    0.9881921899E-04
    0.3500000000E+04    0.8921130152E-02    0.3554120470E-02    0.6952220007E+00    0.9029197958E-01    0.9878351490E-04
    0.3700000000E+04    0.9248767527E-02    0.3685793845E-02    0.6952603792E+00    0.9453677753E-01    0.9899457674E-04
    0.3900000000E+04    0.9561961246E-02    0.3811785915E-02    0.6952948122E+00    0.9870221632E-01    0.9926092869E-04
    0.4100000000E+04    0.9861430101E-02    0.3932377622E-02    0.6953258770E+00    0.1027918259E+00    0.9953243799E-04
    0.4300000000E+04    0.1014778787E-01    0.4047808408E-02    0.6953540437E+00    0.1068082919E+00    0.9979649324E-04
    0.4500000000E+04    0.1042159844E-01    0.4158298141E-02    0.6953796988E+00    0.1107539874E+00    0.1000504427E-03
    0.4700000000E+04    0.1068339237E-01    0.4264053697E-02    0.6954031631E+00    0.1146311269E+00    0.1002942343E-03
    0.4900000000E+04    0.1093367272E-01    0.4365271252E-02    0.6954247050E+00    0.1184418134E+00    0.1005284447E-03
    0.1000000000E+04    0.5543316619E-03    0.2200383507E-03    0.6934459146E+00    0.5076458490E-02    0.3804338624E-02
    0.3000000000E+04    0.8029223483E-02    0.3196288816E-02    0.6951036146E+00    0.7926378630E-01    0.1013800573E-03
    0.5000000000E+04    0.1105464566E-01    0.4414236925E-02    0.6954348271E+00    0.1203228680E+00    0.1006421703E-03
    0.7000000000E+04    0.1297422158E-01    0.5196118074E-02    0.6955763031E+00    0.1549006185E+00    0.1025529954E-03
    0.9000000000E+04    0.1416432589E-01    0.5688961510E-02    0.6956545993E+00    0.1846644888E+00    0.1040014361E-03
    0.1100000000E+05    0.1485914308E-01    0.5984464615E-02    0.6957042203E+00    0.2106992371E+00    0.1051715593E-03
    0.1300000000E+05    0.1521208841E-01    0.6142883454E-02    0.6957384271E+00    0.2337675154E+00    0.1061550977E-03
    0.1500000000E+05    0.1532646355E-01    0.6204932036E-02    0.6957634022E+00    0.2544229085E+00    0.1070045617E-03
    0.1700000000E+05    0.1527341113E-01    0.6198758366E-02    0.6957824151E+00    0.2730784469E+00    0.1077528843E-03
    0.1900000000E+05    0.1510283947E-01    0.6144194144E-02    0.6957973567E+00    0.2900497532E+00    0.1084221100E-03
    0.2100000000E+05    0.1485029111E-01    0.6055430288E-02    0.6958093961E+00    0.3055831251E+00    0.1090277347E-03
    0.2300000000E+05    0.1454138513E-01    0.5942750093E-02    0.6958192947E+00    0.3198743497E+00    0.1095810746E-03
    0.2500000000E+05    0.1419476200E-01    0.5813680201E-02    0.6958275697E+00    0.3330816313E+00    0.1100906506E-03
    0.2700000000E+05    0.1382407846E-01    0.5673771793E-02    0.6958345846E+00    0.3453346799E+00    0.1105630426E-03
    0.2900000000E+05    0.1343938466E-01    0.5527141100E-02    0.6958406023E+00    0.3567412303E+00    0.1110034388E-03
    0.3100000000E+05    0.1304809108E-01    0.5376849776E-02    0.6958458175E+00    0.3673918061E+00    0.1114160045E-03
    0.3300000000E+05    0.1265565749E-01    0.5225176657E-02    0.6958503775E+00    0.3773632600E+00    0.1118041350E-03
    0.3500000000E+05    0.1226609044E-01    0.5073814536E-02    0.6958543959E+00    0.3867214456E+00    0.1121706351E-03
    0.3700000000E+05    0.1188230659E-01    0.4924014337E-02    0.6958579615E+00    0.3955232617E+00    0.1125178491E-03
    0.3900000000E+05    0.1150640097E-01    0.4776691889E-02    0.6958611449E+00    0.4038182388E+00    0.1128477569E-03
    0.4100000000E+05    0.1113984674E-01    0.4632507741E-02    0.6958640026E+00    0.4116497834E+00    0.1131620459E-03
    0.4300000000E+05    0.1078364520E-01    0.4491927316E-02    0.6958665809E+00    0.4190561665E+00    0.1134621662E-03
    0.4500000000E+05    0.1043843924E-01    0.4355266600E-02    0.6958689174E+00    0.4260713163E+00    0.1137493732E-03
    0.4700000000E+05    0.1010459961E-01    0.4222727048E-02    0.6958710437E+00    0.4327254608E+00    0.1140247612E-03
    0.4900000000E+05    0.9782290965E-02    0.4094422410E-02    0.6958729857E+00    0.4390456525E+00    0.1142892901E-03
    0.1000000000E+05    0.1456260448E-01    0.5857048662E-02    0.6956819165E+00    0.1980943947E+00    0.1046142736E-03
    0.3000000000E+05    0.1324418248E-01    0.5452294850E-02    0.6958433001E+00    0.3621559262E+00    0.1112129726E-03
    0.5000000000E+05    0.9625468585E-02    0.4031874948E-02    0.6958738947E+00    0.4420882100E+00    0.1144177508E-03
    0.7000000000E+05    0.7050639759E-02    0.2994058807E-02    0.6958862897E+00    0.4901927120E+00    0.1165783956E-03
    0.9000000000E+05    0.5316473268E-02    0.2283222706E-02    0.6958927718E+00    0.5221448723E+00    0.1182185849E-03
    0.1100000000E+06    0.4125727526E-02    0.1788842441E-02    0.6958966361E+00    0.5447594628E+00    0.1195447167E-03
    0.1300000000E+06    0.3283066822E-02    0.1435306888E-02    0.6958991288E+00    0.5615205728E+00    0.1206599858E-03
    0.1500000000E+06    0.2668844672E-02    0.1175319865E-02    0.6959008215E+00    0.5743916083E+00    0.1216235829E-03
    0.1700000000E+06    0.2209107866E-02    0.9792200303E-03    0.6959020114E+00    0.5845580679E+00    0.1224726818E-03
    0.1900000000E+06    0.1856929021E-02    0.8279726482E-03    0.6959028678E+00    0.5927748021E+00    0.1232321906E-03
    0.2100000000E+06    0.1581645483E-02    0.7090246837E-03    0.6959034932E+00    0.5995434467E+00    0.1239196310E-03
    0.2300000000E+06    0.1362649556E-02    0.6138726831E-03    0.6959039535E+00    0.6052093657E+00    0.1245478064E-03
    0.2500000000E+06    0.1185727957E-02    0.5366111679E-03    0.6959042926E+00    0.6100175313E+00    0.1251263621E-03
    0.2700000000E+06    0.1040845604E-02    0.4730450058E-03    0.6959045407E+00    0.6141461957E+00    0.1256627488E-03
    0.2900000000E+06    0.9207668216E-03    0.4201325727E-03    0.6959047192E+00    0.6177279576E+00    0.1261628438E-03
    0.3100000000E+06    0.8201749517E-03    0.3756276438E-03    0.6959048437E+00    0.6208633754E+00    0.1266313665E-03
    0.3300000000E+06    0.7350964617E-03    0.3378436584E-03    0.6959049259E+00    0.6236300156E+00    0.1270721649E-03
    0.3500000000E+06    0.6625157624E-03    0.3054951587E-03    0.6959049744E+00    0.6260886192E+00    0.1274884184E-03
    0.3700000000E+06    0.6001122869E-03    0.2775890019E-03    0.6959049960E+00    0.6282873958E+00    0.1278827850E-03
    0.3900000000E+06    0.5460776512E-03    0.2533483533E-03    0.6959049957E+00    0.6302650744E+00    0.1282575097E-03
    0.4100000000E+06    0.4989863197E-03    0.2321586896E-03    0.6959049778E+00    0.6320531101E+00    0.1286145061E-03
    0.4300000000E+06    0.4577026786E-03    0.2135288458E-03    0.6959049454E+00    0.6336773040E+00    0.1289554191E-03
    0.4500000000E+06    0.4213133023E-03    0.1970625176E-03    0.6959049012E+00    0.6351590117E+00    0.1292816727E-03
    0.4700000000E+06    0.3890769273E-03    0.1824371389E-03    0.6959048472E+00    0.6365160559E+00    0.1295945085E-03
    0.4900000000E+06    0.3603870496E-03    0.1693880378E-03    0.6959047851E+00    0.6377634239E+00    0.1298950154E-03
    0.1000000000E+06    0.4667585186E-02    0.2014510853E-02    0.6958949295E+00    0.5343527497E+00    0.1189130233E-03
    0.3000000000E+06    0.8683096055E-03    0.3969455434E-03    0.6959047874E+00    0.6193461561E+00    0.1264007935E-03
    0.5000000000E+06    0.3472122579E-03    0.1633846933E-03    0.6959047515E+00    0.6383500229E+00    0.1300409501E-03
    0.7000000000E+06    0.1850377724E-03    0.8877645169E-04    0.6959038925E+00    0.6465784962E+00    0.1324956948E-03
    0.9000000000E+06    0.1145800488E-03    0.5577950860E-04    0.6959029423E+00    0.6511553246E+00    0.1343593336E-03
    0.1100000000E+07    0.7781018273E-04    0.3832326903E-04    0.6959020333E+00    0.6540663047E+00    0.1358662166E-03
    0.1300000000E+07    0.5624812446E-04    0.2797321858E-04    0.6959011910E+00    0.6560798172E+00    0.1371335424E-03
    0.1500000000E+07    0.4253874093E-04    0.2133114941E-04    0.6959004158E+00    0.6575550684E+00    0.1382285442E-03
    0.1700000000E+07    0.3328794248E-04    0.1681314721E-04    0.6958997014E+00    0.6586822753E+00    0.1391934512E-03
    0.1900000000E+07    0.2675436659E-04    0.1359962721E-04    0.6958990407E+00    0.6595715276E+00    0.1400565604E-03
    0.2100000000E+07    0.2197023374E-04    0.1123170846E-04    0.6958984271E+00    0.6602909380E+00    0.1408377789E-03
    0.2300000000E+07    0.1836295858E-04    0.9436105143E-05    0.6958978547E+00    0.6608849000E+00    0.1415516536E-03
    0.2500000000E+07    0.1557626970E-04    0.8041767909E-05    0.6958973186E+00    0.6613835815E+00    0.1422091436E-03
    0.2700000000E+07    0.1337910641E-04    0.6937166032E-05    0.6958968146E+00    0.6618081986E+00    0.1428187146E-03
    0.2900000000E+07    0.1161631728E-04    0.6047040760E-05    0.6958963390E+00    0.6621741058E+00    0.1433870450E-03
    0.3100000000E+07    0.1018059906E-04    0.5319106535E-05    0.6958958888E+00    0.6624926886E+00    0.1439194972E-03
    0.3300000000E+07    0.8995829082E-05    0.4716114793E-05    0.6958954616E+00    0.6627725682E+00    0.1444204438E-03
    0.3500000000E+07    0.8006796277E-05    0.4210943258E-05    0.6958950550E+00    0.6630203921E+00    0.1448934976E-03
    0.3700000000E+07    0.7172670657E-05    0.3783460399E-05    0.6958946671E+00    0.6632413682E+00    0.1453416791E-03
    0.3900000000E+07    0.6462733312E-05    0.3418467505E-05    0.6958942963E+00    0.6634396342E+00    0.1457675392E-03
    0.4100000000E+07    0.5853515156E-05    0.3104314823E-05    0.6958939411E+00    0.6636185196E+00    0.1461732526E-03
    0.4300000000E+07    0.5326837349E-05    0.2831950634E-05    0.6958936002E+00    0.6637807332E+00    0.1465606884E-03
    0.4500000000E+07    0.4868442771E-05    0.2594255037E-05    0.6958932724E+00    0.6639285017E+00    0.1469314649E-03
    0.4700000000E+07    0.4467023272E-05    0.2385564993E-05    0.6958929569E+00    0.6640636721E+00    0.1472869930E-03
    0.4900000000E+07    0.4113517143E-05    0.2201330326E-05    0.6958926527E+00    0.6641877895E+00    0.1476285100E-03
    0.1000000000E+07    0.9355035306E-04    0.4582137165E-04    0.6959024801E+00    0.6527566579E+00    0.1351484154E-03
    0.3000000000E+07    0.1086291936E-04    0.5665411747E-05    0.6958961109E+00    0.6623387199E+00    0.1436574624E-03
    0.5000000000E+07    0.3952384475E-05    0.2117202507E-05    0.6958925046E+00    0.6642461185E+00    0.1477943605E-03
    0.7000000000E+07    0.2034472498E-05    0.1106639240E-05    0.6958899792E+00    0.6650623011E+00    0.1505841173E-03
    0.9000000000E+07    0.1242655084E-05    0.6822874560E-06    0.6958880265E+00    0.6655153929E+00    0.1527021064E-03
    0.1100000000E+08    0.8408983908E-06    0.4642842980E-06    0.6958864300E+00    0.6658035998E+00    0.1544146531E-03
    0.1300000000E+08    0.6093130558E-06    0.3374053065E-06    0.6958850768E+00    0.6660030752E+00    0.1558549488E-03
    0.1500000000E+08    0.4636704296E-06    0.2569964438E-06    0.6958839009E+00    0.6661493330E+00    0.1570994017E-03
    0.1700000000E+08    0.3660827253E-06    0.2027808331E-06    0.6958828600E+00    0.6662611658E+00    0.1581960039E-03
    0.1900000000E+08    0.2974613301E-06    0.1644613711E-06    0.6958819255E+00    0.6663494499E+00    0.1591769147E-03
    0.2100000000E+08    0.2473396051E-06    0.1363534823E-06    0.6958810770E+00    0.6664209162E+00    0.1600647578E-03
    0.2300000000E+08    0.2095883970E-06    0.1151085678E-06    0.6958802996E+00    0.6664799535E+00    0.1608760656E-03
    0.2500000000E+08    0.1804245114E-06    0.9864889080E-07    0.6958795819E+00    0.6665295458E+00    0.1616232929E-03
    0.2700000000E+08    0.1574098328E-06    0.8562918973E-07    0.6958789151E+00    0.6665717925E+00    0.1623160610E-03
