  Pressure (Pa) 22mC5-500 (mol/kg) 23mC5-500 (mol/kg) 24mC5-500 (mol/kg) 3mC6-500 (mol/kg) C7-500 (mol/kg)
    0.1000000000E+01    0.6722071287E-05    0.1286661448E-05    0.1266300736E+00    0.4637886663E-05    0.4202296327E-02
    0.3000000000E+01    0.1388413277E-04    0.2649907773E-05    0.2785116115E+00    0.1191722110E-04    0.4254848727E-02
    0.5000000000E+01    0.1748748604E-04    0.3331086048E-05    0.3664061326E+00    0.1862613326E-04    0.4284275939E-02
    0.7000000000E+01    0.1958275449E-04    0.3725085814E-05    0.4237142155E+00    0.2505959679E-04    0.4303536030E-02
    0.9000000000E+01    0.2093807244E-04    0.3979185077E-05    0.4640353621E+00    0.3131747250E-04    0.4317182677E-02
    0.1100000000E+02    0.2189543428E-04    0.4158653450E-05    0.4939474726E+00    0.3744982198E-04    0.4327375087E-02
    0.1300000000E+02    0.2262534989E-04    0.4295871133E-05    0.5170204616E+00    0.4348647971E-04    0.4335281582E-02
    0.1500000000E+02    0.2321992617E-04    0.4408235214E-05    0.5353592524E+00    0.4944712378E-04    0.4341592433E-02
    0.1700000000E+02    0.2373196120E-04    0.4505659301E-05    0.5502853432E+00    0.5534563929E-04    0.4346742767E-02
    0.1900000000E+02    0.2419311855E-04    0.4594049772E-05    0.5626702569E+00    0.6119230917E-04    0.4351021006E-02
    0.2100000000E+02    0.2462306019E-04    0.4677047262E-05    0.5731120400E+00    0.6699503138E-04    0.4354626176E-02
    0.2300000000E+02    0.2503432774E-04    0.4756954419E-05    0.5820347282E+00    0.7276004759E-04    0.4357700228E-02
    0.2500000000E+02    0.2543508520E-04    0.4835255431E-05    0.5897473438E+00    0.7849240494E-04    0.4360347239E-02
    0.2700000000E+02    0.2583072519E-04    0.4912919170E-05    0.5964804142E+00    0.8419626241E-04    0.4362645328E-02
    0.2900000000E+02    0.2622484273E-04    0.4990582285E-05    0.6024094069E+00    0.8987510172E-04    0.4364654328E-02
    0.3100000000E+02    0.2661984325E-04    0.5068663051E-05    0.6076702416E+00    0.9553187707E-04    0.4366420875E-02
    0.3300000000E+02    0.2701733196E-04    0.5147433948E-05    0.6123698379E+00    0.1011691242E-03    0.4367981884E-02
    0.3500000000E+02    0.2741836847E-04    0.5227068919E-05    0.6165934580E+00    0.1067890419E-03    0.4369366977E-02
    0.3700000000E+02    0.2782363657E-04    0.5307674709E-05    0.6204099259E+00    0.1123935534E-03    0.4370600213E-02
    0.3900000000E+02    0.2823355926E-04    0.5389311974E-05    0.6238754070E+00    0.1179843546E-03    0.4371701346E-02
    0.4100000000E+02    0.2864837763E-04    0.5472009689E-05    0.6270361902E+00    0.1235629512E-03    0.4372686759E-02
    0.4300000000E+02    0.2906820584E-04    0.5555775090E-05    0.6299307677E+00    0.1291306885E-03    0.4373570157E-02
    0.4500000000E+02    0.2949306955E-04    0.5640600603E-05    0.6325914101E+00    0.1346887755E-03    0.4374363100E-02
    0.4700000000E+02    0.2992293320E-04    0.5726468702E-05    0.6350453746E+00    0.1402383043E-03    0.4375075410E-02
    0.4900000000E+02    0.3035771948E-04    0.5813355332E-05    0.6373158420E+00    0.1457802659E-03    0.4375715491E-02
    0.1000000000E+02    0.2145330879E-04    0.4075739772E-05    0.4800232471E+00    0.3439715979E-04    0.4322622547E-02
    0.3000000000E+02    0.2642211703E-04    0.5029550664E-05    0.6051160804E+00    0.9270608017E-04    0.4365565406E-02
    0.5000000000E+02    0.3057692650E-04    0.5857171908E-05    0.6383885779E+00    0.1485486944E-03    0.4376010746E-02
    0.7000000000E+02    0.3518824236E-04    0.6779524902E-05    0.6537950294E+00    0.2037033999E-03    0.4379445534E-02
    0.9000000000E+02    0.4014705618E-04    0.7771153567E-05    0.6626795597E+00    0.2587899759E-03    0.4380070449E-02
    0.1100000000E+03    0.4536355141E-04    0.8813491160E-05    0.6684599345E+00    0.3141311636E-03    0.4379228231E-02
    0.1300000000E+03    0.5078560898E-04    0.9896073033E-05    0.6725209745E+00    0.3699298207E-03    0.4377491505E-02
    0.1500000000E+03    0.5638329253E-04    0.1101298818E-04    0.6755304173E+00    0.4263294028E-03    0.4375148928E-02
    0.1700000000E+03    0.6213923387E-04    0.1216085420E-04    0.6778498645E+00    0.4834401780E-03    0.4372362864E-02
    0.1900000000E+03    0.6804345055E-04    0.1333775620E-04    0.6796921821E+00    0.5413523883E-03    0.4369231924E-02
    0.2100000000E+03    0.7409050654E-04    0.1454267448E-04    0.6811908426E+00    0.6001435666E-03    0.4365819424E-02
    0.2300000000E+03    0.8027789466E-04    0.1577516202E-04    0.6824337827E+00    0.6598829267E-03    0.4362167718E-02
    0.2500000000E+03    0.8660507794E-04    0.1703515481E-04    0.6834812956E+00    0.7206341601E-03    0.4358305989E-02
    0.2700000000E+03    0.9307290087E-04    0.1832285620E-04    0.6843761020E+00    0.7824573086E-03    0.4354254765E-02
    0.2900000000E+03    0.9968321677E-04    0.1963866420E-04    0.6851493171E+00    0.8454100715E-03    0.4350028653E-02
    0.3100000000E+03    0.1064386462E-03    0.2098312448E-04    0.6858241410E+00    0.9095487555E-03    0.4345638079E-02
    0.3300000000E+03    0.1133424173E-03    0.2235689958E-04    0.6864182246E+00    0.9749289875E-03    0.4341090425E-02
    0.3500000000E+03    0.1203982586E-03    0.2376074837E-04    0.6869452355E+00    0.1041606269E-02    0.4336390801E-02
    0.3700000000E+03    0.1276103275E-03    0.2519551231E-04    0.6874159214E+00    0.1109636419E-02    0.4331542572E-02
    0.3900000000E+03    0.1349831619E-03    0.2666210637E-04    0.6878388503E+00    0.1179075944E-02    0.4326547739E-02
    0.4100000000E+03    0.1425216483E-03    0.2816151305E-04    0.6882209364E+00    0.1249982346E-02    0.4321407205E-02
    0.4300000000E+03    0.1502310022E-03    0.2969477877E-04    0.6885678209E+00    0.1322414403E-02    0.4316120980E-02
    0.4500000000E+03    0.1581167567E-03    0.3126301180E-04    0.6888841517E+00    0.1396432410E-02    0.4310688318E-02
    0.4700000000E+03    0.1661847574E-03    0.3286738151E-04    0.6891737933E+00    0.1472098411E-02    0.4305107834E-02
    0.4900000000E+03    0.1744411625E-03    0.3450911852E-04    0.6894399847E+00    0.1549476409E-02    0.4299377579E-02
    0.1000000000E+03    0.4272702647E-04    0.8286777899E-05    0.6658463668E+00    0.2864142186E-03    0.4379787245E-02
    0.3000000000E+03    0.1030426033E-03    0.2030727385E-04    0.6854978161E+00    0.8773276878E-03    0.4347853401E-02
    0.5000000000E+03    0.1786420275E-03    0.3534440128E-04    0.6895651583E+00    0.1588827997E-02    0.4296455541E-02
    0.7000000000E+03    0.2743430067E-03    0.5436922869E-04    0.6913217136E+00    0.2483580696E-02    0.4229306108E-02
    0.9000000000E+03    0.3989912858E-03    0.7914358870E-04    0.6923006254E+00    0.3648010710E-02    0.4141674452E-02
    0.1100000000E+04    0.5670352830E-03    0.1125408802E-03    0.6929244694E+00    0.5219574065E-02    0.4024563412E-02
    0.1300000000E+04    0.8029984291E-03    0.1594368351E-03    0.6933566328E+00    0.7430944452E-02    0.3862564798E-02
    0.1500000000E+04    0.1150272036E-02    0.2284586513E-03    0.6936736048E+00    0.1069481909E-01    0.3628965595E-02
    0.1700000000E+04    0.1686929273E-02    0.3351314095E-03    0.6939159648E+00    0.1575778525E-01    0.3277605555E-02
    0.1900000000E+04    0.2541937868E-02    0.5051094454E-03    0.6941072401E+00    0.2386684170E-01    0.2738366603E-02
    0.2100000000E+04    0.3837133989E-02    0.7626616192E-03    0.6942620107E+00    0.3625144480E-01    0.1966766047E-02
    0.2300000000E+04    0.5379133513E-02    0.1069429560E-02    0.6943897927E+00    0.5121196757E-01    0.1135758090E-02
    0.2500000000E+04    0.6600592868E-02    0.1312651241E-02    0.6944970608E+00    0.6340999560E-01    0.6003564496E-03
    0.2700000000E+04    0.7353170043E-02    0.1462762524E-02    0.6945883730E+00    0.7132672484E-01    0.3893736640E-03
    0.2900000000E+04    0.7860238101E-02    0.1564118306E-02    0.6946670311E+00    0.7700178180E-01    0.3259128030E-03
    0.3100000000E+04    0.8272896865E-02    0.1646744819E-02    0.6947354853E+00    0.8184970455E-01    0.3090341845E-03
    0.3300000000E+04    0.8646169336E-02    0.1721578492E-02    0.6947955923E+00    0.8638968026E-01    0.3051921506E-03
    0.3500000000E+04    0.8997194330E-02    0.1792024976E-02    0.6948487842E+00    0.9078248933E-01    0.3048623476E-03
    0.3700000000E+04    0.9331378640E-02    0.1859157092E-02    0.6948961838E+00    0.9507681332E-01    0.3054497061E-03
    0.3900000000E+04    0.9650705747E-02    0.1923366853E-02    0.6949386835E+00    0.9928842783E-01    0.3062540140E-03
    0.4100000000E+04    0.9956161142E-02    0.1984847851E-02    0.6949770014E+00    0.1034235535E+00    0.3070878361E-03
    0.4300000000E+04    0.1024842593E-01    0.2043733233E-02    0.6950117222E+00    0.1074855932E+00    0.3079025604E-03
    0.4500000000E+04    0.1052807517E-01    0.2100135179E-02    0.6950433265E+00    0.1114770701E+00    0.3086871511E-03
    0.4700000000E+04    0.1079563546E-01    0.2154156347E-02    0.6950722131E+00    0.1154001888E+00    0.3094406169E-03
    0.4900000000E+04    0.1105160237E-01    0.2205893343E-02    0.6950987155E+00    0.1192570000E+00    0.3101645019E-03
    0.1000000000E+04    0.4763674531E-03    0.9452152828E-04    0.6926436686E+00    0.4371315991E-02    0.4087574526E-02
    0.3000000000E+04    0.8073523606E-02    0.1606809714E-02    0.6947024061E+00    0.7948343183E-01    0.3146608913E-03
    0.5000000000E+04    0.1117538625E-01    0.2230934118E-02    0.6951111623E+00    0.1211611527E+00    0.3105159887E-03
    0.7000000000E+04    0.1314556990E-01    0.2631952580E-02    0.6952845823E+00    0.1561955747E+00    0.3164198236E-03
    0.9000000000E+04    0.1437414204E-01    0.2886093583E-02    0.6953798865E+00    0.1863836382E+00    0.3208930254E-03
    0.1100000000E+05    0.1509571820E-01    0.3039272241E-02    0.6954398519E+00    0.2127942839E+00    0.3245057554E-03
    0.1300000000E+05    0.1546551442E-01    0.3121957337E-02    0.6954808842E+00    0.2361865484E+00    0.3275418899E-03
    0.1500000000E+05    0.1558885881E-01    0.3154895772E-02    0.6955106155E+00    0.2571158798E+00    0.3301638278E-03
    0.1700000000E+05    0.1553873481E-01    0.3152518662E-02    0.6955330733E+00    0.2759994641E+00    0.3324733786E-03
    0.1900000000E+05    0.1536658858E-01    0.3125042028E-02    0.6955505817E+00    0.2931578422E+00    0.3345386703E-03
    0.2100000000E+05    0.1510919458E-01    0.3079803105E-02    0.6955645743E+00    0.3088422647E+00    0.3364075811E-03
    0.2300000000E+05    0.1479313508E-01    0.3022133582E-02    0.6955759828E+00    0.3232531745E+00    0.3381150690E-03
    0.2500000000E+05    0.1443779177E-01    0.2955943817E-02    0.6955854387E+00    0.3365530011E+00    0.3396874531E-03
    0.2700000000E+05    0.1405738493E-01    0.2884121846E-02    0.6955933846E+00    0.3488752134E+00    0.3411450537E-03
    0.2900000000E+05    0.1366238872E-01    0.2808810920E-02    0.6956001400E+00    0.3603308520E+00    0.3425038930E-03
    0.3100000000E+05    0.1326052923E-01    0.2731605694E-02    0.6956059410E+00    0.3710133272E+00    0.3437768320E-03
    0.3300000000E+05    0.1285749828E-01    0.2653692901E-02    0.6956109658E+00    0.3810020013E+00    0.3449743538E-03
    0.3500000000E+05    0.1245747039E-01    0.2575953535E-02    0.6956153513E+00    0.3903649041E+00    0.3461051180E-03
    0.3700000000E+05    0.1206348134E-01    0.2499037903E-02    0.6956192046E+00    0.3991608182E+00    0.3471763619E-03
    0.3900000000E+05    0.1167770815E-01    0.2423421308E-02    0.6956226102E+00    0.4074409030E+00    0.3481941972E-03
    0.4100000000E+05    0.1130167787E-01    0.2349445747E-02    0.6956256361E+00    0.4152499731E+00    0.3491638328E-03
    0.4300000000E+05    0.1093642462E-01    0.2277351366E-02    0.6956283373E+00    0.4226275158E+00    0.3500897447E-03
    0.4500000000E+05    0.1058260839E-01    0.2207300364E-02    0.6956307589E+00    0.4296085098E+00    0.3509758080E-03
    0.4700000000E+05    0.1024060537E-01    0.2139395275E-02    0.6956329382E+00    0.4362240901E+00    0.3518254006E-03
    0.4900000000E+05    0.9910577219E-02    0.2073693005E-02    0.6956349063E+00    0.4425020924E+00    0.3526414845E-03
    0.1000000000E+05    0.1478716464E-01    0.2973118708E-02    0.6954129525E+00    0.2000079389E+00    0.3227852402E-03
    0.3000000000E+05    0.1346192032E-01    0.2770362716E-02    0.6956031476E+00    0.3657634810E+00    0.3431503965E-03
    0.5000000000E+05    0.9750058876E-02    0.2041675955E-02    0.6956358194E+00    0.4455224106E+00    0.3530377892E-03
    0.7000000000E+05    0.7120902634E-02    0.1511743407E-02    0.6956475614E+00    0.4931125106E+00    0.3597032257E-03
    0.9000000000E+05    0.5357843124E-02    0.1150371237E-02    0.6956528178E+00    0.5245669656E+00    0.3647628714E-03
    0.1100000000E+06    0.4151313419E-02    0.8998889880E-03    0.6956553478E+00    0.5467684859E+00    0.3688536043E-03
    0.1300000000E+06    0.3299623175E-02    0.7212190375E-03    0.6956565295E+00    0.5631999794E+00    0.3722938225E-03
    0.1500000000E+06    0.2679990853E-02    0.5900760989E-03    0.6956569745E+00    0.5758097474E+00    0.3752661436E-03
    0.1700000000E+06    0.2216873400E-02    0.4913026200E-03    0.6956569898E+00    0.5857681026E+00    0.3778852538E-03
    0.1900000000E+06    0.1862502371E-02    0.4152066687E-03    0.6956567436E+00    0.5938175511E+00    0.3802279954E-03
    0.2100000000E+06    0.1585750458E-02    0.3554145127E-03    0.6956563338E+00    0.6004502976E+00    0.3823484228E-03
    0.2300000000E+06    0.1365742645E-02    0.3076181047E-03    0.6956558205E+00    0.6060046327E+00    0.3842860332E-03
    0.2500000000E+06    0.1188106105E-02    0.2688308823E-03    0.6956552416E+00    0.6107202341E+00    0.3860705814E-03
    0.2700000000E+06    0.1042707343E-02    0.2369342998E-03    0.6956546221E+00    0.6147713692E+00    0.3877250518E-03
    0.2900000000E+06    0.9222481632E-03    0.2103941493E-03    0.6956539786E+00    0.6182876117E+00    0.3892675745E-03
    0.3100000000E+06    0.8213711292E-03    0.1880785402E-03    0.6956533224E+00    0.6213672012E+00    0.3907127079E-03
    0.3300000000E+06    0.7360754712E-03    0.1691383038E-03    0.6956526614E+00    0.6240859087E+00    0.3920723221E-03
    0.3500000000E+06    0.6633270150E-03    0.1529266772E-03    0.6956520008E+00    0.6265030699E+00    0.3933562249E-03
    0.3700000000E+06    0.6007922654E-03    0.1389442728E-03    0.6956513444E+00    0.6286657843E+00    0.3945726155E-03
    0.3900000000E+06    0.5466536860E-03    0.1268006722E-03    0.6956506949E+00    0.6306118960E+00    0.3957284188E-03
    0.4100000000E+06    0.4994791572E-03    0.1161871698E-03    0.6956500540E+00    0.6323721477E+00    0.3968295381E-03
    0.4300000000E+06    0.4581282592E-03    0.1068571258E-03    0.6956494229E+00    0.6339717628E+00    0.3978810468E-03
    0.4500000000E+06    0.4216840109E-03    0.9861160365E-04    0.6956488024E+00    0.6354316247E+00    0.3988873381E-03
    0.4700000000E+06    0.3894024858E-03    0.9128873113E-04    0.6956481929E+00    0.6367691671E+00    0.3998522415E-03
    0.4900000000E+06    0.3606751622E-03    0.8475572479E-04    0.6956475948E+00    0.6379990547E+00    0.4007791159E-03
    0.1000000000E+06    0.4699925373E-02    0.1014136296E-02    0.6956543102E+00    0.5365571646E+00    0.3669050241E-03
    0.3000000000E+06    0.8696384116E-03    0.1987668848E-03    0.6956536516E+00    0.6198768074E+00    0.3900015183E-03
    0.5000000000E+06    0.3474840392E-03    0.8175036180E-04    0.6956473000E+00    0.6385775856E+00    0.4012292318E-03
    0.7000000000E+06    0.1851529750E-03    0.4441081391E-04    0.6956419743E+00    0.6467043033E+00    0.4088004958E-03
    0.9000000000E+06    0.1146523288E-03    0.2790273384E-04    0.6956375589E+00    0.6512351277E+00    0.4145485104E-03
    0.1100000000E+07    0.7786554896E-04    0.1917094215E-04    0.6956338132E+00    0.6541214665E+00    0.4191961368E-03
    0.1300000000E+07    0.5629496509E-04    0.1399414629E-04    0.6956305660E+00    0.6561202520E+00    0.4231048738E-03
    0.1500000000E+07    0.4258046883E-04    0.1067210116E-04    0.6956277010E+00    0.6575860001E+00    0.4264820994E-03
    0.1700000000E+07    0.3332620569E-04    0.8412447050E-05    0.6956251374E+00    0.6587067169E+00    0.4294580664E-03
    0.1900000000E+07    0.2679007286E-04    0.6805224730E-05    0.6956228174E+00    0.6595913390E+00    0.4321200549E-03
    0.2100000000E+07    0.2200393709E-04    0.5620915411E-05    0.6956206980E+00    0.6603073296E+00    0.4345294664E-03
    0.2300000000E+07    0.1839502539E-04    0.4722835565E-05    0.6956187468E+00    0.6608986936E+00    0.4367311687E-03
    0.2500000000E+07    0.1560695797E-04    0.4025437646E-05    0.6956169386E+00    0.6613953546E+00    0.4387589640E-03
    0.2700000000E+07    0.1340860694E-04    0.3472942495E-05    0.6956152534E+00    0.6618183693E+00    0.4406389639E-03
    0.2900000000E+07    0.1164477674E-04    0.3027711916E-05    0.6956136752E+00    0.6621829839E+00    0.4423917661E-03
    0.3100000000E+07    0.1020813367E-04    0.2663597215E-05    0.6956121910E+00    0.6625005090E+00    0.4440339107E-03
    0.3300000000E+07    0.9022533236E-05    0.2361969968E-05    0.6956107900E+00    0.6627795119E+00    0.4455788838E-03
    0.3500000000E+07    0.8032748174E-05    0.2109266038E-05    0.6956094630E+00    0.6630266010E+00    0.4470378290E-03
    0.3700000000E+07    0.7197936139E-05    0.1895417419E-05    0.6956082025E+00    0.6632469550E+00    0.4484200616E-03
    0.3900000000E+07    0.6487368576E-05    0.1712823039E-05    0.6956070020E+00    0.6634446898E+00    0.4497334502E-03
    0.4100000000E+07    0.5877568715E-05    0.1555656678E-05    0.6956058559E+00    0.6636231179E+00    0.4509847018E-03
    0.4300000000E+07    0.5350351498E-05    0.1419391403E-05    0.6956047594E+00    0.6637849351E+00    0.4521795811E-03
    0.4500000000E+07    0.4891454692E-05    0.1300466395E-05    0.6956037081E+00    0.6639323576E+00    0.4533230798E-03
    0.4700000000E+07    0.4489565898E-05    0.1196049419E-05    0.6956026985E+00    0.6640672243E+00    0.4544195491E-03
    0.4900000000E+07    0.4135619828E-05    0.1103864790E-05    0.6956017273E+00    0.6641910736E+00    0.4554728056E-03
    0.1000000000E+07    0.9361254625E-04    0.2292145830E-04    0.6956356146E+00    0.6528224326E+00    0.4169822529E-03
    0.3000000000E+07    0.1089090339E-04    0.2836821363E-05    0.6956129221E+00    0.6623470436E+00    0.4432257656E-03
    0.5000000000E+07    0.3974277232E-05    0.1061768821E-05    0.6956012552E+00    0.6642492802E+00    0.4559842967E-03
    0.7000000000E+07    0.2053161516E-05    0.5560015001E-06    0.6955932718E+00    0.6650639954E+00    0.4645879725E-03
    0.9000000000E+07    0.1259268722E-05    0.3435140605E-06    0.6955871673E+00    0.6655164756E+00    0.4711198147E-03
    0.1100000000E+08    0.8560232983E-06    0.2342903483E-06    0.6955822097E+00    0.6658043721E+00    0.4764012250E-03
    0.1300000000E+08    0.6233014021E-06    0.1706820275E-06    0.6955780275E+00    0.6660036697E+00    0.4808429886E-03
    0.1500000000E+08    0.4767535301E-06    0.1303436188E-06    0.6955744058E+00    0.6661498173E+00    0.4846807602E-03
    0.1700000000E+08    0.3784222900E-06    0.1031261076E-06    0.6955712088E+00    0.6662615779E+00    0.4880625537E-03
    0.1900000000E+08    0.3091757280E-06    0.8387438217E-07    0.6955683448E+00    0.6663498125E+00    0.4910875510E-03
    0.2100000000E+08    0.2585186008E-06    0.6974183945E-07    0.6955657494E+00    0.6664212438E+00    0.4938255266E-03
    0.2300000000E+08    0.2203020038E-06    0.5905120793E-07    0.6955633753E+00    0.6664802560E+00    0.4963274671E-03
    0.2500000000E+08    0.1907286013E-06    0.5076149635E-07    0.6955611867E+00    0.6665298298E+00    0.4986317843E-03
    0.2700000000E+08    0.1673498484E-06    0.4419851158E-07    0.6955591559E+00    0.6665720628E+00    0.5007681506E-03
