  Pressure (Pa) 22mC5-500 (mol/kg) 23mC5-500 (mol/kg) 24mC5-500 (mol/kg) 3mC6-500 (mol/kg) C7-500 (mol/kg)
    0.1000000000E+01    0.6079740424E-05    0.1162950338E-05    0.1741073547E+00    0.3091110085E-05    0.4199231124E-02
    0.3000000000E+01    0.1125370879E-04    0.2145095249E-05    0.3481191616E+00    0.7939165014E-05    0.4240738660E-02
    0.5000000000E+01    0.1341718245E-04    0.2552362024E-05    0.4350895396E+00    0.1240340335E-04    0.4260824259E-02
    0.7000000000E+01    0.1458355262E-04    0.2771260881E-05    0.4872605239E+00    0.1668079263E-04    0.4272985479E-02
    0.9000000000E+01    0.1534208083E-04    0.2914099845E-05    0.5220365388E+00    0.2083807403E-04    0.4281193490E-02
    0.1100000000E+02    0.1591398929E-04    0.3022707524E-05    0.5468742910E+00    0.2490873126E-04    0.4287123933E-02
    0.1300000000E+02    0.1639556950E-04    0.3115126675E-05    0.5655013741E+00    0.2891273261E-04    0.4291614630E-02
    0.1500000000E+02    0.1683297260E-04    0.3199913704E-05    0.5799883756E+00    0.3286325673E-04    0.4295133328E-02
    0.1700000000E+02    0.1724979573E-04    0.3281387483E-05    0.5915775149E+00    0.3676960755E-04    0.4297962639E-02
    0.1900000000E+02    0.1765862354E-04    0.3361813902E-05    0.6010592301E+00    0.4063867843E-04    0.4300283853E-02
    0.2100000000E+02    0.1806632639E-04    0.3442403078E-05    0.6089604450E+00    0.4447576600E-04    0.4302218867E-02
    0.2300000000E+02    0.1847667153E-04    0.3523797769E-05    0.6156459337E+00    0.4828505732E-04    0.4303852818E-02
    0.2500000000E+02    0.1889168351E-04    0.3606326115E-05    0.6213762372E+00    0.5206993895E-04    0.4305247070E-02
    0.2700000000E+02    0.1931238499E-04    0.3690138205E-05    0.6263424122E+00    0.5583320188E-04    0.4306447033E-02
    0.2900000000E+02    0.1973921466E-04    0.3775282442E-05    0.6306877462E+00    0.5957718277E-04    0.4307487074E-02
    0.3100000000E+02    0.2017226967E-04    0.3861749390E-05    0.6345218092E+00    0.6330386421E-04    0.4308393714E-02
    0.3300000000E+02    0.2061144934E-04    0.3949497451E-05    0.6379298202E+00    0.6701494780E-04    0.4309187770E-02
    0.3500000000E+02    0.2105654169E-04    0.4038468098E-05    0.6409790560E+00    0.7071190868E-04    0.4309885821E-02
    0.3700000000E+02    0.2150727610E-04    0.4128594968E-05    0.6437233370E+00    0.7439603692E-04    0.4310501251E-02
    0.3900000000E+02    0.2196335542E-04    0.4219809283E-05    0.6462062312E+00    0.7806846956E-04    0.4311044992E-02
    0.4100000000E+02    0.2242447552E-04    0.4312043033E-05    0.6484633849E+00    0.8173021570E-04    0.4311526065E-02
    0.4300000000E+02    0.2289033698E-04    0.4405230787E-05    0.6505242444E+00    0.8538217652E-04    0.4311951989E-02
    0.4500000000E+02    0.2336065190E-04    0.4499310670E-05    0.6524133481E+00    0.8902516132E-04    0.4312329083E-02
    0.4700000000E+02    0.2383514754E-04    0.4594224812E-05    0.6541513080E+00    0.9265990062E-04    0.4312662700E-02
    0.4900000000E+02    0.2431356811E-04    0.4689919480E-05    0.6557555649E+00    0.9628705689E-04    0.4312957409E-02
    0.1000000000E+02    0.1564365438E-04    0.2971234440E-05    0.5354109464E+00    0.2288277306E-04    0.4284379027E-02
    0.3000000000E+02    0.1995496688E-04    0.3818352640E-05    0.6326628761E+00    0.6144257370E-04    0.4307955654E-02
    0.5000000000E+02    0.2455417510E-04    0.4738043842E-05    0.6565122850E+00    0.9809798202E-04    0.4313091421E-02
    0.7000000000E+02    0.2952348559E-04    0.5731443705E-05    0.6672925592E+00    0.1340405645E-03    0.4314443715E-02
    0.9000000000E+02    0.3470526171E-04    0.6766206279E-05    0.6734357079E+00    0.1696817750E-03    0.4314286535E-02
    0.1100000000E+03    0.4002739108E-04    0.7828046288E-05    0.6774040153E+00    0.2052316944E-03    0.4313341187E-02
    0.1300000000E+03    0.4545542934E-04    0.8910271129E-05    0.6801786550E+00    0.2408184751E-03    0.4311916083E-02
    0.1500000000E+03    0.5097191706E-04    0.1000954607E-04    0.6822277553E+00    0.2765292359E-03    0.4310167666E-02
    0.1700000000E+03    0.5656775178E-04    0.1112416710E-04    0.6838029632E+00    0.3124278228E-03    0.4308184654E-02
    0.1900000000E+03    0.6223826693E-04    0.1225328662E-04    0.6850516129E+00    0.3485637362E-03    0.4306021461E-02
    0.2100000000E+03    0.6798129973E-04    0.1339653576E-04    0.6860656998E+00    0.3849770914E-03    0.4303713440E-02
    0.2300000000E+03    0.7379617333E-04    0.1455382708E-04    0.6869056317E+00    0.4217015885E-03    0.4301284588E-02
    0.2500000000E+03    0.7968313084E-04    0.1572524580E-04    0.6876127145E+00    0.4587663945E-03    0.4298751748E-02
    0.2700000000E+03    0.8564300660E-04    0.1691098704E-04    0.6882161490E+00    0.4961973927E-03    0.4296127055E-02
    0.2900000000E+03    0.9167702823E-04    0.1811131840E-04    0.6887371629E+00    0.5340180434E-03    0.4293419428E-02
    0.3100000000E+03    0.9778669416E-04    0.1932655689E-04    0.6891915578E+00    0.5722499962E-03    0.4290635515E-02
    0.3300000000E+03    0.1039736960E-03    0.2055705455E-04    0.6895913389E+00    0.6109135385E-03    0.4287780326E-02
    0.3500000000E+03    0.1102398687E-03    0.2180318924E-04    0.6899457906E+00    0.6500279305E-03    0.4284857652E-02
    0.3700000000E+03    0.1165871579E-03    0.2306535871E-04    0.6902622057E+00    0.6896116626E-03    0.4281870361E-02
    0.3900000000E+03    0.1230175988E-03    0.2434397683E-04    0.6905463925E+00    0.7296826554E-03    0.4278820613E-02
    0.4100000000E+03    0.1295333025E-03    0.2563947116E-04    0.6908030340E+00    0.7702584200E-03    0.4275710008E-02
    0.4300000000E+03    0.1361364471E-03    0.2695228145E-04    0.6910359479E+00    0.8113561863E-03    0.4272539702E-02
    0.4500000000E+03    0.1428292722E-03    0.2828285878E-04    0.6912482777E+00    0.8529930093E-03    0.4269310493E-02
    0.4700000000E+03    0.1496140762E-03    0.2963166511E-04    0.6914426352E+00    0.8951858579E-03    0.4266022880E-02
    0.4900000000E+03    0.1564932147E-03    0.3099917313E-04    0.6916212082E+00    0.9379516900E-03    0.4262677119E-02
    0.1000000000E+03    0.3735148788E-04    0.7294269794E-05    0.6756125316E+00    0.1874588676E-03    0.4313887918E-02
    0.3000000000E+03    0.9472230377E-04    0.1871705294E-04    0.6889718631E+00    0.5530813115E-03    0.4292036661E-02
    0.5000000000E+03    0.1599689111E-03    0.3169009094E-04    0.6917051641E+00    0.9595547872E-03    0.4260982454E-02
    0.7000000000E+03    0.2350628689E-03    0.4661574930E-04    0.6928822164E+00    0.1425977636E-02    0.4223960821E-02
    0.9000000000E+03    0.3228236598E-03    0.6405683609E-04    0.6935372801E+00    0.1971136811E-02    0.4180355650E-02
    0.1100000000E+04    0.4269542852E-03    0.8475028750E-04    0.6939543992E+00    0.2618657269E-02    0.4128696490E-02
    0.1300000000E+04    0.5524862112E-03    0.1096966691E-03    0.6942431954E+00    0.3400371705E-02    0.4066792827E-02
    0.1500000000E+04    0.7064555370E-03    0.1402949021E-03    0.6944549285E+00    0.4360745360E-02    0.3991524672E-02
    0.1700000000E+04    0.8989562060E-03    0.1785517957E-03    0.6946167712E+00    0.5563630302E-02    0.3898428106E-02
    0.1900000000E+04    0.1144814462E-02    0.2274150941E-03    0.6947444686E+00    0.7102993514E-02    0.3781022512E-02
    0.2100000000E+04    0.1466247391E-02    0.2913022930E-03    0.6948477736E+00    0.9120019083E-02    0.3629770462E-02
    0.2300000000E+04    0.1896902006E-02    0.3769042581E-03    0.6949330494E+00    0.1182930664E-01    0.3430593939E-02
    0.2500000000E+04    0.2487044382E-02    0.4942182891E-03    0.6950046241E+00    0.1555318705E-01    0.3163262370E-02
    0.2700000000E+04    0.3306176205E-02    0.6570714757E-03    0.6950655441E+00    0.2074155653E-01    0.2801697025E-02
    0.2900000000E+04    0.4427283585E-02    0.8799951759E-03    0.6951180153E+00    0.2787831489E-01    0.2323484872E-02
    0.3100000000E+04    0.5856704790E-02    0.1164287908E-02    0.6951636748E+00    0.3704338937E-01    0.1742660343E-02
    0.3300000000E+04    0.7416316422E-02    0.1474581977E-02    0.6952037625E+00    0.4715564908E-01    0.1154818780E-02
    0.3500000000E+04    0.8785366734E-02    0.1747121157E-02    0.6952392350E+00    0.5619741606E-01    0.7001211348E-03
    0.3700000000E+04    0.9790163718E-02    0.1947339128E-02    0.6952708420E+00    0.6303377994E-01    0.4328274586E-03
    0.3900000000E+04    0.1049311962E-01    0.2087602993E-02    0.6952991793E+00    0.6801809324E-01    0.3040211050E-03
    0.4100000000E+04    0.1102048324E-01    0.2192991091E-02    0.6953247264E+00    0.7192830471E-01    0.2484652687E-03
    0.4300000000E+04    0.1145872966E-01    0.2280688764E-02    0.6953478736E+00    0.7530529106E-01    0.2258167224E-03
    0.4500000000E+04    0.1185165893E-01    0.2359402292E-02    0.6953689416E+00    0.7842498948E-01    0.2169333866E-03
    0.4700000000E+04    0.1221908875E-01    0.2433071064E-02    0.6953881966E+00    0.8141252776E-01    0.2136440040E-03
    0.4900000000E+04    0.1256968460E-01    0.2503417209E-02    0.6954058613E+00    0.8432230710E-01    0.2126009390E-03
    0.1000000000E+04    0.3725659453E-03    0.7394196330E-04    0.6937666815E+00    0.2280348362E-02    0.4155651387E-02
    0.3000000000E+04    0.5109152586E-02    0.1015600139E-02    0.6951416113E+00    0.3224026047E-01    0.2042135732E-02
    0.5000000000E+04    0.1273996470E-01    0.2537601469E-02    0.6954141571E+00    0.8575601845E-01    0.2124601692E-03
    0.7000000000E+04    0.1563232752E-01    0.3120263928E-02    0.6955297111E+00    0.1124721032E+00    0.2158067183E-03
    0.9000000000E+04    0.1775466493E-01    0.3551129869E-02    0.6955931825E+00    0.1361816955E+00    0.2188517868E-03
    0.1100000000E+05    0.1930295769E-01    0.3868473738E-02    0.6956331008E+00    0.1574660301E+00    0.2213122341E-03
    0.1300000000E+05    0.2041622574E-01    0.4099486687E-02    0.6956604038E+00    0.1767502651E+00    0.2233805621E-03
    0.1500000000E+05    0.2119606415E-01    0.4264077271E-02    0.6956801788E+00    0.1943593786E+00    0.2251670689E-03
    0.1700000000E+05    0.2171798732E-01    0.4377073654E-02    0.6956951099E+00    0.2105463954E+00    0.2267409491E-03
    0.1900000000E+05    0.2203895769E-01    0.4449685987E-02    0.6957067455E+00    0.2255115798E+00    0.2281485288E-03
    0.2100000000E+05    0.2220249988E-01    0.4490500436E-02    0.6957160406E+00    0.2394157897E+00    0.2294223769E-03
    0.2300000000E+05    0.2224224705E-01    0.4506169015E-02    0.6957236159E+00    0.2523899622E+00    0.2305862807E-03
    0.2500000000E+05    0.2218444613E-01    0.4501897270E-02    0.6957298919E+00    0.2645419739E+00    0.2316581533E-03
    0.2700000000E+05    0.2204975709E-01    0.4481794884E-02    0.6957351633E+00    0.2759616871E+00    0.2326518276E-03
    0.2900000000E+05    0.2185456482E-01    0.4449131533E-02    0.6957396429E+00    0.2867247161E+00    0.2335782126E-03
    0.3100000000E+05    0.2161194875E-01    0.4406526202E-02    0.6957434878E+00    0.2968952778E+00    0.2344460661E-03
    0.3300000000E+05    0.2133240839E-01    0.4356089007E-02    0.6957468166E+00    0.3065283754E+00    0.2352625274E-03
    0.3500000000E+05    0.2102441246E-01    0.4299528658E-02    0.6957497205E+00    0.3156714920E+00    0.2360334947E-03
    0.3700000000E+05    0.2069481881E-01    0.4238234746E-02    0.6957522706E+00    0.3243659166E+00    0.2367638979E-03
    0.3900000000E+05    0.2034919859E-01    0.4173341358E-02    0.6957545233E+00    0.3326477932E+00    0.2374579005E-03
    0.4100000000E+05    0.1999208870E-01    0.4105776689E-02    0.6957565237E+00    0.3405489590E+00    0.2381190510E-03
    0.4300000000E+05    0.1962718996E-01    0.4036302047E-02    0.6957583085E+00    0.3480976184E+00    0.2387503992E-03
    0.4500000000E+05    0.1925752391E-01    0.3965542766E-02    0.6957599076E+00    0.3553188916E+00    0.2393545854E-03
    0.4700000000E+05    0.1888555760E-01    0.3894012849E-02    0.6957613459E+00    0.3622352617E+00    0.2399339112E-03
    0.4900000000E+05    0.1851330360E-01    0.3822134764E-02    0.6957626439E+00    0.3688669443E+00    0.2404903950E-03
    0.1000000000E+05    0.1859083336E-01    0.3722089396E-02    0.6956151963E+00    0.1470976876E+00    0.2201403769E-03
    0.3000000000E+05    0.2173847523E-01    0.4428929208E-02    0.6957416365E+00    0.2918804236E+00    0.2340189767E-03
    0.5000000000E+05    0.1832759354E-01    0.3786176149E-02    0.6957632458E+00    0.3720818015E+00    0.2407606358E-03
    0.7000000000E+05    0.1485890731E-01    0.3105004174E-02    0.6957709609E+00    0.4250660197E+00    0.2453060139E-03
    0.9000000000E+05    0.1206034742E-01    0.2544884545E-02    0.6957743810E+00    0.4628781109E+00    0.2487565595E-03
    0.1100000000E+06    0.9893194384E-02    0.2105324859E-02    0.6957760006E+00    0.4911464081E+00    0.2515464303E-03
    0.1300000000E+06    0.8218901024E-02    0.1762130765E-02    0.6957767325E+00    0.5129917596E+00    0.2538927058E-03
    0.1500000000E+06    0.6913739976E-02    0.1492227938E-02    0.6957769814E+00    0.5303142088E+00    0.2559199026E-03
    0.1700000000E+06    0.5883662802E-02    0.1277579258E-02    0.6957769498E+00    0.5443416047E+00    0.2577062230E-03
    0.1900000000E+06    0.5060038236E-02    0.1104791007E-02    0.6957767485E+00    0.5559021650E+00    0.2593040663E-03
    0.2100000000E+06    0.4393130233E-02    0.9640328457E-03    0.6957764418E+00    0.5655735329E+00    0.2607502937E-03
    0.2300000000E+06    0.3846702415E-02    0.8480701383E-03    0.6957760691E+00    0.5737697908E+00    0.2620718403E-03
    0.2500000000E+06    0.3394083203E-02    0.7515330156E-03    0.6957756553E+00    0.5807947525E+00    0.2632889976E-03
    0.2700000000E+06    0.3015404239E-02    0.6703923590E-03    0.6957752165E+00    0.5868758553E+00    0.2644174400E-03
    0.2900000000E+06    0.2695680139E-02    0.6015899280E-03    0.6957747636E+00    0.5921863937E+00    0.2654695321E-03
    0.3100000000E+06    0.2423469697E-02    0.5427774992E-03    0.6957743038E+00    0.5968604916E+00    0.2664552025E-03
    0.3300000000E+06    0.2189934993E-02    0.4921318133E-03    0.6957738421E+00    0.6010034207E+00    0.2673825464E-03
    0.3500000000E+06    0.1988173241E-02    0.4482221226E-03    0.6957733819E+00    0.6046988544E+00    0.2682582528E-03
    0.3700000000E+06    0.1812736908E-02    0.4099144108E-03    0.6957729257E+00    0.6080140626E+00    0.2690879135E-03
    0.3900000000E+06    0.1659285053E-02    0.3763013821E-03    0.6957724749E+00    0.6110036908E+00    0.2698762516E-03
    0.4100000000E+06    0.1524327105E-02    0.3466507332E-03    0.6957720308E+00    0.6137125519E+00    0.2706272928E-03
    0.4300000000E+06    0.1405032487E-02    0.3203665313E-03    0.6957715941E+00    0.6161777156E+00    0.2713444977E-03
    0.4500000000E+06    0.1299087670E-02    0.2969600833E-03    0.6957711651E+00    0.6184300921E+00    0.2720308622E-03
    0.4700000000E+06    0.1204587760E-02    0.2760277511E-03    0.6957707441E+00    0.6204956463E+00    0.2726889982E-03
    0.4900000000E+06    0.1119953493E-02    0.2572339009E-03    0.6957703313E+00    0.6223963377E+00    0.2733211967E-03
    0.1000000000E+06    0.1090637426E-01    0.2311461512E-02    0.6957753407E+00    0.4779720279E+00    0.2502174933E-03
    0.3000000000E+06    0.2554240175E-02    0.5710594572E-03    0.6957745342E+00    0.5945958391E+00    0.2659701268E-03
    0.5000000000E+06    0.1080915407E-02    0.2485492999E-03    0.6957701279E+00    0.6232908114E+00    0.2736282101E-03
    0.7000000000E+06    0.5904726523E-03    0.1383934344E-03    0.6957664635E+00    0.6358688736E+00    0.2787924220E-03
    0.9000000000E+06    0.3706664130E-03    0.8814208687E-04    0.6957634343E+00    0.6428750378E+00    0.2827130665E-03
    0.1100000000E+07    0.2538821509E-03    0.6107866761E-04    0.6957608684E+00    0.6473272328E+00    0.2858831707E-03
    0.1300000000E+07    0.1845973434E-03    0.4484485048E-04    0.6957586461E+00    0.6504025498E+00    0.2885492977E-03
    0.1500000000E+07    0.1401843940E-03    0.3434159410E-04    0.6957566868E+00    0.6526526002E+00    0.2908528927E-03
    0.1700000000E+07    0.1100343148E-03    0.2715392232E-04    0.6957549344E+00    0.6543695937E+00    0.2928827971E-03
    0.1900000000E+07    0.8864146829E-04    0.2201776102E-04    0.6957533491E+00    0.6557225670E+00    0.2946985421E-03
    0.2100000000E+07    0.7291949629E-04    0.1821918354E-04    0.6957519014E+00    0.6568160162E+00    0.2963420080E-03
    0.2300000000E+07    0.6102997735E-04    0.1533010983E-04    0.6957505688E+00    0.6577179824E+00    0.2978437984E-03
    0.2500000000E+07    0.5182278597E-04    0.1308113507E-04    0.6957493342E+00    0.6584746581E+00    0.2992269687E-03
    0.2700000000E+07    0.4454866949E-04    0.1129580539E-04    0.6957481838E+00    0.6591184976E+00    0.3005093293E-03
    0.2900000000E+07    0.3870264338E-04    0.9854604488E-05    0.6957471066E+00    0.6596729673E+00    0.3017049296E-03
    0.3100000000E+07    0.3393435221E-04    0.8674233724E-05    0.6957460937E+00    0.6601554529E+00    0.3028250511E-03
    0.3300000000E+07    0.2999457222E-04    0.7695187612E-05    0.6957451376E+00    0.6605791084E+00    0.3038788926E-03
    0.3500000000E+07    0.2670211743E-04    0.6874034355E-05    0.6957442322E+00    0.6609540686E+00    0.3048740549E-03
    0.3700000000E+07    0.2392271966E-04    0.6178469317E-05    0.6957433723E+00    0.6612882683E+00    0.3058168920E-03
    0.3900000000E+07    0.2155517684E-04    0.5584058466E-05    0.6957425533E+00    0.6615880078E+00    0.3067127708E-03
    0.4100000000E+07    0.1952204614E-04    0.5072042483E-05    0.6957417716E+00    0.6618583534E+00    0.3075662662E-03
    0.4300000000E+07    0.1776325477E-04    0.4627824203E-05    0.6957410236E+00    0.6621034248E+00    0.3083813102E-03
    0.4500000000E+07    0.1623162833E-04    0.4239906620E-05    0.6957403067E+00    0.6623266067E+00    0.3091613075E-03
    0.4700000000E+07    0.1488970627E-04    0.3899134310E-05    0.6957396182E+00    0.6625307054E+00    0.3099092262E-03
    0.4900000000E+07    0.1370743798E-04    0.3598143023E-05    0.6957389559E+00    0.6627180674E+00    0.3106276694E-03
    0.1000000000E+07    0.3040709328E-03    0.7274893111E-04    0.6957621020E+00    0.6453249002E+00    0.2843730982E-03
    0.3000000000E+07    0.3620126610E-04    0.9235984566E-05    0.6957465926E+00    0.6599223034E+00    0.3022738079E-03
    0.5000000000E+07    0.1316838373E-04    0.3460651771E-05    0.6957386339E+00    0.6628061023E+00    0.3109765659E-03
    0.7000000000E+07    0.6744834770E-05    0.1806609717E-05    0.6957331915E+00    0.6640368597E+00    0.3168452991E-03
    0.9000000000E+07    0.4090131928E-05    0.1110713262E-05    0.6957290314E+00    0.6647191780E+00    0.3213008240E-03
    0.1100000000E+08    0.2743831661E-05    0.7530048327E-06    0.6957256538E+00    0.6651528321E+00    0.3249034180E-03
    0.1300000000E+08    0.1968803581E-05    0.5448415725E-06    0.6957228052E+00    0.6654528023E+00    0.3279332789E-03
    0.1500000000E+08    0.1482300955E-05    0.4129904584E-06    0.6957203388E+00    0.6656726499E+00    0.3305511480E-03
    0.1700000000E+08    0.1157058485E-05    0.3241634122E-06    0.6957181618E+00    0.6658406950E+00    0.3328579868E-03
    0.1900000000E+08    0.9289462881E-06    0.2614458557E-06    0.6957162120E+00    0.6659733179E+00    0.3349214483E-03
    0.2100000000E+08    0.7628054896E-06    0.2154970147E-06    0.6957144452E+00    0.6660806515E+00    0.3367891265E-03
    0.2300000000E+08    0.6380548030E-06    0.1808138474E-06    0.6957128292E+00    0.6661693002E+00    0.3384958000E-03
    0.2500000000E+08    0.5419972593E-06    0.1539818870E-06    0.6957113396E+00    0.6662437530E+00    0.3400676700E-03
    0.2700000000E+08    0.4664556530E-06    0.1327906677E-06    0.6957099576E+00    0.6663071674E+00    0.3415249767E-03
