  Pressure (Pa) 22mC5-500 (mol/kg) 23mC5-500 (mol/kg) 24mC5-500 (mol/kg) 3mC6-500 (mol/kg) C7-500 (mol/kg)
    0.1000000000E+01    0.5529582854E-05    0.1056987665E-05    0.2142745375E+00    0.7514761067E-06    0.4204675739E-02
    0.3000000000E+01    0.9412088617E-05    0.1792136947E-05    0.3978266223E+00    0.1935861511E-05    0.4244446570E-02
    0.5000000000E+01    0.1084253248E-04    0.2060812353E-05    0.4800753155E+00    0.3026751201E-05    0.4262209719E-02
    0.7000000000E+01    0.1161163244E-04    0.2205682517E-05    0.5267479018E+00    0.4071485015E-05    0.4272595635E-02
    0.9000000000E+01    0.1215077979E-04    0.2308426182E-05    0.5568223019E+00    0.5086164374E-05    0.4279509219E-02
    0.1100000000E+02    0.1260146102E-04    0.2395502751E-05    0.5778160094E+00    0.6078887925E-05    0.4284491709E-02
    0.1300000000E+02    0.1301846485E-04    0.2477002021E-05    0.5933023027E+00    0.7054495486E-05    0.4288280996E-02
    0.1500000000E+02    0.1342512150E-04    0.2557133100E-05    0.6051970619E+00    0.8016187030E-05    0.4291276944E-02
    0.1700000000E+02    0.1383183812E-04    0.2637717734E-05    0.6146198608E+00    0.8966225368E-05    0.4293716057E-02
    0.1900000000E+02    0.1424325375E-04    0.2719527554E-05    0.6222687405E+00    0.9906289501E-05    0.4295747681E-02
    0.2100000000E+02    0.1466128944E-04    0.2802848684E-05    0.6286015320E+00    0.1083767124E-04    0.4297471060E-02
    0.2300000000E+02    0.1508654605E-04    0.2887737585E-05    0.6339309978E+00    0.1176139306E-04    0.4298954893E-02
    0.2500000000E+02    0.1551897971E-04    0.2974142977E-05    0.6384780725E+00    0.1267828287E-04    0.4300248355E-02
    0.2700000000E+02    0.1595824062E-04    0.3061965939E-05    0.6424032595E+00    0.1358902369E-04    0.4301387648E-02
    0.2900000000E+02    0.1640384697E-04    0.3151090053E-05    0.6458259702E+00    0.1449418790E-04    0.4302400064E-02
    0.3100000000E+02    0.1685527496E-04    0.3241396495E-05    0.6488368835E+00    0.1539426156E-04    0.4303306599E-02
    0.3300000000E+02    0.1731200495E-04    0.3332771389E-05    0.6515060975E+00    0.1628966218E-04    0.4304123699E-02
    0.3500000000E+02    0.1777354412E-04    0.3425109096E-05    0.6538886545E+00    0.1718075196E-04    0.4304864444E-02
    0.3700000000E+02    0.1823943648E-04    0.3518313391E-05    0.6560283776E+00    0.1806784784E-04    0.4305539381E-02
    0.3900000000E+02    0.1870926618E-04    0.3612297532E-05    0.6579605903E+00    0.1895122932E-04    0.4306157120E-02
    0.4100000000E+02    0.1918265715E-04    0.3706983794E-05    0.6597140818E+00    0.1983114458E-04    0.4306724769E-02
    0.4300000000E+02    0.1965927096E-04    0.3802302758E-05    0.6613125513E+00    0.2070781534E-04    0.4307248249E-02
    0.4500000000E+02    0.2013880388E-04    0.3898192513E-05    0.6627756855E+00    0.2158144077E-04    0.4307732540E-02
    0.4700000000E+02    0.2062098365E-04    0.3994597867E-05    0.6641199727E+00    0.2245220070E-04    0.4308181866E-02
    0.4900000000E+02    0.2110556633E-04    0.4091469597E-05    0.6653593275E+00    0.2332025825E-04    0.4308599832E-02
    0.1000000000E+02    0.1238265896E-04    0.2353086710E-05    0.5681762088E+00    0.5584917547E-05    0.4282184594E-02
    0.3000000000E+02    0.1662886618E-04    0.3196102768E-05    0.6473781128E+00    0.1494483352E-04    0.4302865448E-02
    0.5000000000E+02    0.2134868950E-04    0.4140066434E-05    0.6659434210E+00    0.2375332057E-04    0.4308798041E-02
    0.7000000000E+02    0.2629496497E-04    0.5128038994E-05    0.6742294995E+00    0.3230277334E-04    0.4311682164E-02
    0.9000000000E+02    0.3133349001E-04    0.6133302802E-05    0.6789222650E+00    0.4069437246E-04    0.4313323982E-02
    0.1100000000E+03    0.3641368351E-04    0.7146064344E-05    0.6819425019E+00    0.4897942788E-04    0.4314307582E-02
    0.1300000000E+03    0.4151418448E-04    0.8162282165E-05    0.6840490533E+00    0.5718877158E-04    0.4314888461E-02
    0.1500000000E+03    0.4662536661E-04    0.9180185528E-05    0.6856020158E+00    0.6534288030E-04    0.4315199327E-02
    0.1700000000E+03    0.5174286696E-04    0.1019900691E-04    0.6867942365E+00    0.7345629484E-04    0.4315317286E-02
    0.1900000000E+03    0.5686487134E-04    0.1121845689E-04    0.6877383108E+00    0.8153985139E-04    0.4315290828E-02
    0.2100000000E+03    0.6199086290E-04    0.1223848486E-04    0.6885043938E+00    0.8960192679E-04    0.4315152298E-02
    0.2300000000E+03    0.6712100338E-04    0.1325916200E-04    0.6891384736E+00    0.9764918656E-04    0.4314924277E-02
    0.2500000000E+03    0.7225581066E-04    0.1428062114E-04    0.6896719527E+00    0.1056870603E-03    0.4314623113E-02
    0.2700000000E+03    0.7739598418E-04    0.1530302457E-04    0.6901270055E+00    0.1137200578E-03    0.4314260997E-02
    0.2900000000E+03    0.8254230798E-04    0.1632654660E-04    0.6905197360E+00    0.1217519874E-03    0.4313847245E-02
    0.3100000000E+03    0.8769559599E-04    0.1735136381E-04    0.6908621217E+00    0.1297861107E-03    0.4313389126E-02
    0.3300000000E+03    0.9285666127E-04    0.1837764990E-04    0.6911632563E+00    0.1378252558E-03    0.4312892410E-02
    0.3500000000E+03    0.9802629888E-04    0.1940557281E-04    0.6914301676E+00    0.1458719022E-03    0.4312361750E-02
    0.3700000000E+03    0.1032052768E-03    0.2043529349E-04    0.6916683731E+00    0.1539282445E-03    0.4311800949E-02
    0.3900000000E+03    0.1083943319E-03    0.2146696528E-04    0.6918822650E+00    0.1619962424E-03    0.4311213148E-02
    0.4100000000E+03    0.1135941679E-03    0.2250073399E-04    0.6920753828E+00    0.1700776594E-03    0.4310600972E-02
    0.4300000000E+03    0.1188054561E-03    0.2353673803E-04    0.6922506111E+00    0.1781740944E-03    0.4309966630E-02
    0.4500000000E+03    0.1240288365E-03    0.2457510889E-04    0.6924103239E+00    0.1862870059E-03    0.4309312003E-02
    0.4700000000E+03    0.1292649188E-03    0.2561597152E-04    0.6925564931E+00    0.1944177330E-03    0.4308638698E-02
    0.4900000000E+03    0.1345142851E-03    0.2665944481E-04    0.6926907701E+00    0.2025675119E-03    0.4307948101E-02
    0.1000000000E+03    0.3387010897E-04    0.6639075936E-05    0.6805801061E+00    0.4484797215E-04    0.4313877922E-02
    0.3000000000E+03    0.8511803037E-04    0.1683878234E-04    0.6906965972E+00    0.1257685890E-03    0.4313623341E-02
    0.5000000000E+03    0.1371441245E-03    0.2718219608E-04    0.6927538932E+00    0.2066499072E-03    0.4307596699E-02
    0.7000000000E+03    0.1905619065E-03    0.3779937415E-04    0.6936383715E+00    0.2895408829E-03    0.4299882549E-02
    0.9000000000E+03    0.2458254426E-03    0.4878225786E-04    0.6941301655E+00    0.3753072664E-03    0.4291185068E-02
    0.1100000000E+04    0.3032791759E-03    0.6019990957E-04    0.6944431240E+00    0.4645308888E-03    0.4281730315E-02
    0.1300000000E+04    0.3632230023E-03    0.7211221060E-04    0.6946596957E+00    0.5576969178E-03    0.4271602238E-02
    0.1500000000E+04    0.4259424948E-03    0.8457606787E-04    0.6948184095E+00    0.6552598094E-03    0.4260826625E-02
    0.1700000000E+04    0.4917249742E-03    0.9764867776E-04    0.6949396795E+00    0.7576740677E-03    0.4249399881E-02
    0.1900000000E+04    0.5608695560E-03    0.1113895522E-03    0.6950353306E+00    0.8654120192E-03    0.4237300803E-02
    0.2100000000E+04    0.6336945043E-03    0.1258619941E-03    0.6951126849E+00    0.9789761969E-03    0.4224495893E-02
    0.2300000000E+04    0.7105434223E-03    0.1411343351E-03    0.6951765188E+00    0.1098909470E-02    0.4210941821E-02
    0.2500000000E+04    0.7917910738E-03    0.1572810972E-03    0.6952300802E+00    0.1225804429E-02    0.4196586468E-02
    0.2700000000E+04    0.8778493044E-03    0.1743841719E-03    0.6952756545E+00    0.1360312867E-02    0.4181369177E-02
    0.2900000000E+04    0.9691733869E-03    0.1925340838E-03    0.6953148968E+00    0.1503155923E-02    0.4165220505E-02
    0.3100000000E+04    0.1066269050E-02    0.2118313892E-03    0.6953490348E+00    0.1655135308E-02    0.4148061611E-02
    0.3300000000E+04    0.1169700433E-02    0.2323882580E-03    0.6953789984E+00    0.1817146019E-02    0.4129803341E-02
    0.3500000000E+04    0.1280099202E-02    0.2543302883E-03    0.6954055047E+00    0.1990190932E-02    0.4110345050E-02
    0.3700000000E+04    0.1398175118E-02    0.2777986070E-03    0.6954291159E+00    0.2175397717E-02    0.4089573123E-02
    0.3900000000E+04    0.1524728338E-02    0.3029523179E-03    0.6954502787E+00    0.2374038570E-02    0.4067359205E-02
    0.4100000000E+04    0.1660663830E-02    0.3299713678E-03    0.6954693523E+00    0.2587553342E-02    0.4043558086E-02
    0.4300000000E+04    0.1807008305E-02    0.3590599156E-03    0.6954866292E+00    0.2817576751E-02    0.4018005191E-02
    0.4500000000E+04    0.1964930179E-02    0.3904503015E-03    0.6955023499E+00    0.3065970493E-02    0.3990513620E-02
    0.4700000000E+04    0.2135763128E-02    0.4244077342E-03    0.6955167138E+00    0.3334861188E-02    0.3960870660E-02
    0.4900000000E+04    0.2321033944E-02    0.4612358306E-03    0.6955298876E+00    0.3626685309E-02    0.3928833688E-02
    0.1000000000E+04    0.2742592013E-03    0.5443287360E-04    0.6943023031E+00    0.4194553706E-03    0.4286545195E-02
    0.3000000000E+04    0.1016965982E-02    0.2020325939E-03    0.6953325399E+00    0.1577949984E-02    0.4156772654E-02
    0.5000000000E+04    0.2419621460E-02    0.4808333483E-03    0.6955360731E+00    0.3782056422E-02    0.3911832282E-02
    0.7000000000E+04    0.5794309025E-02    0.1151764739E-02    0.6956221188E+00    0.9127171517E-02    0.3346187650E-02
    0.9000000000E+04    0.1575768646E-01    0.3133448035E-02    0.6956692459E+00    0.2512573727E-01    0.1811100036E-02
    0.1100000000E+05    0.2783638713E-01    0.5538942930E-02    0.6956987977E+00    0.4532824504E-01    0.3606746976E-03
    0.1300000000E+05    0.3229532178E-01    0.6430989133E-02    0.6957189490E+00    0.5386365488E-01    0.2112351270E-03
    0.1500000000E+05    0.3542633925E-01    0.7059678689E-02    0.6957334986E+00    0.6049450627E-01    0.2062371097E-03
    0.1700000000E+05    0.3818610530E-01    0.7615143728E-02    0.6957444487E+00    0.6672317733E-01    0.2073805188E-03
    0.1900000000E+05    0.4065967899E-01    0.8114178408E-02    0.6957529534E+00    0.7265692584E-01    0.2086530341E-03
    0.2100000000E+05    0.4288322061E-01    0.8563867906E-02    0.6957597239E+00    0.7832792368E-01    0.2098169149E-03
    0.2300000000E+05    0.4488580139E-01    0.8969905799E-02    0.6957652220E+00    0.8376102705E-01    0.2108810276E-03
    0.2500000000E+05    0.4669224924E-01    0.9337157022E-02    0.6957697601E+00    0.8897771861E-01    0.2118610638E-03
    0.2700000000E+05    0.4832395176E-01    0.9669814781E-02    0.6957735572E+00    0.9399678946E-01    0.2127696247E-03
    0.2900000000E+05    0.4979942655E-01    0.9971511708E-02    0.6957767711E+00    0.9883476169E-01    0.2136166764E-03
    0.3100000000E+05    0.5113477937E-01    0.1024540917E-01    0.6957795182E+00    0.1035062270E+00    0.2144102222E-03
    0.3300000000E+05    0.5234407782E-01    0.1049427013E-01    0.6957818863E+00    0.1080241259E+00    0.2151567869E-03
    0.3500000000E+05    0.5343965831E-01    0.1072051902E-01    0.6957839430E+00    0.1123999788E+00    0.2158617611E-03
    0.3700000000E+05    0.5443237970E-01    0.1092629122E-01    0.6957857408E+00    0.1166440801E+00    0.2165296509E-03
    0.3900000000E+05    0.5533183408E-01    0.1111347419E-01    0.6957873212E+00    0.1207656596E+00    0.2171642616E-03
    0.4100000000E+05    0.5614652274E-01    0.1128374183E-01    0.6957887177E+00    0.1247730203E+00    0.2177688371E-03
    0.4300000000E+05    0.5688400404E-01    0.1143858335E-01    0.6957899571E+00    0.1286736540E+00    0.2183461650E-03
    0.4500000000E+05    0.5755101795E-01    0.1157932759E-01    0.6957910616E+00    0.1324743405E+00    0.2188986590E-03
    0.4700000000E+05    0.5815359173E-01    0.1170716366E-01    0.6957920494E+00    0.1361812321E+00    0.2194284230E-03
    0.4900000000E+05    0.5869712970E-01    0.1182315852E-01    0.6957929356E+00    0.1397999267E+00    0.2199373022E-03
    0.1000000000E+05    0.2308717357E-01    0.4592304080E-02    0.6956855538E+00    0.3716781263E-01    0.8315011736E-03
    0.3000000000E+05    0.5048369510E-01    0.1011175411E-01    0.6957781969E+00    0.1011904632E+00    0.2140196996E-03
    0.5000000000E+05    0.5894829788E-01    0.1187701925E-01    0.6957933446E+00    0.1415778133E+00    0.2201844261E-03
    0.7000000000E+05    0.6182402057E-01    0.1252087044E-01    0.6957984186E+00    0.1735354976E+00    0.2243410706E-03
    0.9000000000E+05    0.6218654396E-01    0.1265261630E-01    0.6958004438E+00    0.2004783637E+00    0.2274966012E-03
    0.1100000000E+06    0.6129955784E-01    0.1252468986E-01    0.6958012226E+00    0.2240368596E+00    0.2300479828E-03
    0.1300000000E+06    0.5976151981E-01    0.1225778843E-01    0.6958014054E+00    0.2451085923E+00    0.2321937108E-03
    0.1500000000E+06    0.5788414810E-01    0.1191548356E-01    0.6958012759E+00    0.2642400281E+00    0.2340476463E-03
    0.1700000000E+06    0.5584088017E-01    0.1153361297E-01    0.6958009738E+00    0.2817901322E+00    0.2356813011E-03
    0.1900000000E+06    0.5373270214E-01    0.1113337456E-01    0.6958005739E+00    0.2980093107E+00    0.2371425924E-03
    0.2100000000E+06    0.5162015718E-01    0.1072772533E-01    0.6958001188E+00    0.3130810105E+00    0.2384652292E-03
    0.2300000000E+06    0.4954007041E-01    0.1032474340E-01    0.6957996337E+00    0.3271451975E+00    0.2396738430E-03
    0.2500000000E+06    0.4751480808E-01    0.9929500369E-02    0.6957991340E+00    0.3403123566E+00    0.2407869904E-03
    0.2700000000E+06    0.4555765192E-01    0.9545155357E-02    0.6957986295E+00    0.3526722241E+00    0.2418190058E-03
    0.2900000000E+06    0.4367604380E-01    0.9173620227E-02    0.6957981263E+00    0.3642994454E+00    0.2427811966E-03
    0.3100000000E+06    0.4187361016E-01    0.8815978006E-02    0.6957976283E+00    0.3752573622E+00    0.2436826426E-03
    0.3300000000E+06    0.4015146047E-01    0.8472753643E-02    0.6957971380E+00    0.3856006198E+00    0.2445307470E-03
    0.3500000000E+06    0.3850903953E-01    0.8144093501E-02    0.6957966569E+00    0.3953770111E+00    0.2453316270E-03
    0.3700000000E+06    0.3694469769E-01    0.7829886788E-02    0.6957961859E+00    0.4046288096E+00    0.2460903965E-03
    0.3900000000E+06    0.3545607824E-01    0.7529849101E-02    0.6957957255E+00    0.4133937559E+00    0.2468113748E-03
    0.4100000000E+06    0.3404038374E-01    0.7243580695E-02    0.6957952759E+00    0.4217058018E+00    0.2474982436E-03
    0.4300000000E+06    0.3269456065E-01    0.6970607549E-02    0.6957948371E+00    0.4295956840E+00    0.2481541676E-03
    0.4500000000E+06    0.3141542785E-01    0.6710410538E-02    0.6957944089E+00    0.4370913731E+00    0.2487818867E-03
    0.4700000000E+06    0.3019976622E-01    0.6462446228E-02    0.6957939912E+00    0.4442184327E+00    0.2493837897E-03
    0.4900000000E+06    0.2904438078E-01    0.6226161728E-02    0.6957935835E+00    0.4510003105E+00    0.2499619716E-03
    0.1000000000E+06    0.6185241302E-01    0.1261169563E-01    0.6958009353E+00    0.2126134578E+00    0.2288326448E-03
    0.3000000000E+06    0.4276481352E-01    0.8993019064E-02    0.6957978765E+00    0.3698584723E+00    0.2432390159E-03
    0.5000000000E+06    0.2848831055E-01    0.6112226712E-02    0.6957933834E+00    0.4542686149E+00    0.2502427531E-03
    0.7000000000E+06    0.1983355310E-01    0.4320224878E-02    0.6957898353E+00    0.5059419093E+00    0.2549657325E-03
    0.9000000000E+06    0.1442617952E-01    0.3180864716E-02    0.6957869571E+00    0.5397319757E+00    0.2585514050E-03
    0.1100000000E+07    0.1089102994E-01    0.2425965567E-02    0.6957845430E+00    0.5630172019E+00    0.2614506668E-03
    0.1300000000E+07    0.8478988303E-02    0.1905270928E-02    0.6957824648E+00    0.5797753039E+00    0.2638890123E-03
    0.1500000000E+07    0.6770832204E-02    0.1533133146E-02    0.6957806400E+00    0.5922781574E+00    0.2659958010E-03
    0.1700000000E+07    0.5522084940E-02    0.1258917344E-02    0.6957790129E+00    0.6018900726E+00    0.2678522831E-03
    0.1900000000E+07    0.4584133383E-02    0.1051505892E-02    0.6957775443E+00    0.6094673621E+00    0.2695129034E-03
    0.2100000000E+07    0.3863119943E-02    0.8910669320E-03    0.6957762055E+00    0.6155687050E+00    0.2710159638E-03
    0.2300000000E+07    0.3297709320E-02    0.7645391059E-03    0.6957749750E+00    0.6205711288E+00    0.2723894529E-03
    0.2500000000E+07    0.2846589498E-02    0.6630647321E-03    0.6957738363E+00    0.6247367001E+00    0.2736544566E-03
    0.2700000000E+07    0.2481181973E-02    0.5804789207E-03    0.6957727764E+00    0.6282523560E+00    0.2748272634E-03
    0.2900000000E+07    0.2181243989E-02    0.5123909163E-03    0.6957717848E+00    0.6312545165E+00    0.2759207223E-03
    0.3100000000E+07    0.1932132844E-02    0.4556087121E-03    0.6957708531E+00    0.6338447636E+00    0.2769451510E-03
    0.3300000000E+07    0.1723056300E-02    0.4077688334E-03    0.6957699743E+00    0.6361001061E+00    0.2779089624E-03
    0.3500000000E+07    0.1545925344E-02    0.3670922501E-03    0.6957691426E+00    0.6380798663E+00    0.2788191079E-03
    0.3700000000E+07    0.1394584728E-02    0.3322198543E-03    0.6957683530E+00    0.6398304038E+00    0.2796813985E-03
    0.3900000000E+07    0.1264286217E-02    0.3020993191E-03    0.6957676014E+00    0.6413884203E+00    0.2805007427E-03
    0.4100000000E+07    0.1151321225E-02    0.2759058618E-03    0.6957668842E+00    0.6427833154E+00    0.2812813245E-03
    0.4300000000E+07    0.1052760233E-02    0.2529858178E-03    0.6957661984E+00    0.6440388914E+00    0.2820267399E-03
    0.4500000000E+07    0.9662650625E-03    0.2328158432E-03    0.6957655412E+00    0.6451746081E+00    0.2827401029E-03
    0.4700000000E+07    0.8899517021E-03    0.2149730014E-03    0.6957649102E+00    0.6462065173E+00    0.2834241277E-03
    0.4900000000E+07    0.8222887569E-03    0.1991125458E-03    0.6957643035E+00    0.6471479689E+00    0.2840811953E-03
    0.1000000000E+07    0.1248172541E-01    0.2766749506E-02    0.6957857014E+00    0.5523854955E+00    0.2600696090E-03
    0.3000000000E+07    0.2051084108E-02    0.4827503876E-03    0.6957713120E+00    0.6325958338E+00    0.2764410009E-03
    0.5000000000E+07    0.7912999200E-03    0.1918351630E-03    0.6957640087E+00    0.6475883413E+00    0.2844002861E-03
    0.7000000000E+07    0.4145965903E-03    0.1025166711E-03    0.6957590297E+00    0.6536005642E+00    0.2897676670E-03
    0.9000000000E+07    0.2541735725E-03    0.6378937553E-04    0.6957552301E+00    0.6568047982E+00    0.2938425725E-03
    0.1100000000E+08    0.1714598453E-03    0.4354588457E-04    0.6957521485E+00    0.6587877262E+00    0.2971374136E-03
    0.1300000000E+08    0.1233496540E-03    0.3163969902E-04    0.6957495516E+00    0.6601333732E+00    0.2999084502E-03
    0.1500000000E+08    0.9294018349E-04    0.2404330722E-04    0.6957473045E+00    0.6611055060E+00    0.3023026910E-03
    0.1700000000E+08    0.7251195656E-04    0.1889886180E-04    0.6957453222E+00    0.6618402927E+00    0.3044124724E-03
    0.1900000000E+08    0.5813472978E-04    0.1525239197E-04    0.6957435476E+00    0.6624150102E+00    0.3062996678E-03
    0.2100000000E+08    0.4763714751E-04    0.1257293464E-04    0.6957419402E+00    0.6628767287E+00    0.3080078051E-03
    0.2300000000E+08    0.3974059150E-04    0.1054576733E-04    0.6957404705E+00    0.6632557374E+00    0.3095686919E-03
    0.2500000000E+08    0.3365255511E-04    0.8974664836E-05    0.6957391162E+00    0.6635724022E+00    0.3110062911E-03
    0.2700000000E+08    0.2886071008E-04    0.7732091732E-05    0.6957378601E+00    0.6638409176E+00    0.3123391136E-03
