  Pressure (Pa) 22mC5-500 (mol/kg) 23mC5-500 (mol/kg) 24mC5-500 (mol/kg) 3mC6-500 (mol/kg) C7-500 (mol/kg)
    0.1000000000E+01    0.8750062847E-05    0.1256896872E-05    0.1514074989E+00    0.8169415813E-05    0.4145826294E-02
    0.3000000000E+01    0.1709130321E-04    0.2447626496E-05    0.3165072466E+00    0.2017405048E-04    0.4171309590E-02
    0.5000000000E+01    0.2099106569E-04    0.3000872146E-05    0.4047862394E+00    0.3107125219E-04    0.4178251535E-02
    0.7000000000E+01    0.2323581367E-04    0.3318551457E-05    0.4597421548E+00    0.4145080061E-04    0.4181470276E-02
    0.9000000000E+01    0.2473995421E-04    0.3531810981E-05    0.4972474130E+00    0.5150732860E-04    0.4183146970E-02
    0.1100000000E+02    0.2587545079E-04    0.3693675401E-05    0.5244751530E+00    0.6133706533E-04    0.4184013539E-02
    0.1300000000E+02    0.2681522575E-04    0.3828632205E-05    0.5451408675E+00    0.7099680284E-04    0.4184397397E-02
    0.1500000000E+02    0.2764733044E-04    0.3949058647E-05    0.5613616988E+00    0.8052371962E-04    0.4184469572E-02
    0.1700000000E+02    0.2841961395E-04    0.4061624830E-05    0.5744324661E+00    0.8994389074E-04    0.4184328776E-02
    0.1900000000E+02    0.2915934231E-04    0.4170095006E-05    0.5851895797E+00    0.9927652988E-04    0.4184036154E-02
    0.2100000000E+02    0.2988259708E-04    0.4276663970E-05    0.5941974113E+00    0.1085363322E-03    0.4183631649E-02
    0.2300000000E+02    0.3059909275E-04    0.4382639012E-05    0.6018505772E+00    0.1177348693E-03    0.4183142464E-02
    0.2500000000E+02    0.3131478292E-04    0.4488807120E-05    0.6084332995E+00    0.1268814700E-03    0.4182587756E-02
    0.2700000000E+02    0.3203333381E-04    0.4595641515E-05    0.6141554867E+00    0.1359838016E-03    0.4181981396E-02
    0.2900000000E+02    0.3275698804E-04    0.4703422063E-05    0.6191755315E+00    0.1450482688E-03    0.4181333666E-02
    0.3100000000E+02    0.3348708658E-04    0.4812307592E-05    0.6236152011E+00    0.1540802963E-03    0.4180652337E-02
    0.3300000000E+02    0.3422439217E-04    0.4922380394E-05    0.6275696446E+00    0.1630845337E-03    0.4179943385E-02
    0.3500000000E+02    0.3496929401E-04    0.5033674184E-05    0.6311142902E+00    0.1720650080E-03    0.4179211474E-02
    0.3700000000E+02    0.3572193957E-04    0.5146191944E-05    0.6343097020E+00    0.1810252393E-03    0.4178460292E-02
    0.3900000000E+02    0.3648232063E-04    0.5259917466E-05    0.6372050702E+00    0.1899683292E-03    0.4177692788E-02
    0.4100000000E+02    0.3725033019E-04    0.5374822879E-05    0.6398407610E+00    0.1988970312E-03    0.4176911345E-02
    0.4300000000E+02    0.3802580023E-04    0.5490873602E-05    0.6422502104E+00    0.2078138058E-03    0.4176117906E-02
    0.4500000000E+02    0.3880852706E-04    0.5608031590E-05    0.6444613505E+00    0.2167208644E-03    0.4175314070E-02
    0.4700000000E+02    0.3959828827E-04    0.5726257472E-05    0.6464976968E+00    0.2256202060E-03    0.4174501157E-02
    0.4900000000E+02    0.4039485400E-04    0.5845511930E-05    0.6483791884E+00    0.2345136460E-03    0.4173680271E-02
    0.1000000000E+02    0.2534017085E-04    0.3617236213E-05    0.5118625171E+00    0.5644638884E-04    0.4183655798E-02
    0.3000000000E+02    0.3312117339E-04    0.4757720157E-05    0.6214614354E+00    0.1495680307E-03    0.4180996793E-02
    0.5000000000E+02    0.4079561662E-04    0.5905512830E-05    0.6492672807E+00    0.2389586763E-03    0.4173267133E-02
    0.7000000000E+02    0.4911671874E-04    0.7151195183E-05    0.6619612691E+00    0.3278869825E-03    0.4164746186E-02
    0.9000000000E+02    0.5791774838E-04    0.8467879308E-05    0.6692305846E+00    0.4175009394E-03    0.4155931057E-02
    0.1100000000E+03    0.6710973570E-04    0.9842084168E-05    0.6739403624E+00    0.5084198664E-03    0.4146929791E-02
    0.1300000000E+03    0.7665218731E-04    0.1126784118E-04    0.6772400814E+00    0.6010554487E-03    0.4137764954E-02
    0.1500000000E+03    0.8652900033E-04    0.1274285553E-04    0.6796805356E+00    0.6957202079E-03    0.4128433823E-02
    0.1700000000E+03    0.9673704868E-04    0.1426675654E-04    0.6815586988E+00    0.7926742869E-03    0.4118924955E-02
    0.1900000000E+03    0.1072806999E-03    0.1584027300E-04    0.6830488299E+00    0.8921489706E-03    0.4109223618E-02
    0.2100000000E+03    0.1181690410E-03    0.1746482119E-04    0.6842599233E+00    0.9943598933E-03    0.4099313749E-02
    0.2300000000E+03    0.1294144083E-03    0.1914228895E-04    0.6852636474E+00    0.1099515136E-02    0.4089178667E-02
    0.2500000000E+03    0.1410315857E-03    0.2087491891E-04    0.6861090625E+00    0.1207820584E-02    0.4078801300E-02
    0.2700000000E+03    0.1530373634E-03    0.2266524503E-04    0.6868308842E+00    0.1319483726E-02    0.4068164214E-02
    0.2900000000E+03    0.1654503030E-03    0.2451605933E-04    0.6874543691E+00    0.1434716531E-02    0.4057249558E-02
    0.3100000000E+03    0.1782906270E-03    0.2643039670E-04    0.6879983309E+00    0.1553737772E-02    0.4046038975E-02
    0.3300000000E+03    0.1915801859E-03    0.2841153100E-04    0.6884770717E+00    0.1676775004E-02    0.4034513494E-02
    0.3500000000E+03    0.2053424789E-03    0.3046297883E-04    0.6889016580E+00    0.1804066354E-02    0.4022653418E-02
    0.3700000000E+03    0.2196027110E-03    0.3258850874E-04    0.6892807867E+00    0.1935862199E-02    0.4010438210E-02
    0.3900000000E+03    0.2343878801E-03    0.3479215453E-04    0.6896213869E+00    0.2072426806E-02    0.3997846372E-02
    0.4100000000E+03    0.2497268868E-03    0.3707823204E-04    0.6899290478E+00    0.2214039979E-02    0.3984855329E-02
    0.4300000000E+03    0.2656506659E-03    0.3945135898E-04    0.6902083270E+00    0.2360998751E-02    0.3971441298E-02
    0.4500000000E+03    0.2821923369E-03    0.4191647760E-04    0.6904629788E+00    0.2513619151E-02    0.3957579162E-02
    0.4700000000E+03    0.2993873741E-03    0.4447888021E-04    0.6906961229E+00    0.2672238070E-02    0.3943242329E-02
    0.4900000000E+03    0.3172737960E-03    0.4714423757E-04    0.6909103737E+00    0.2837215259E-02    0.3928402593E-02
    0.1000000000E+03    0.6246817278E-04    0.9148281463E-05    0.6718127695E+00    0.4627684164E-03    0.4151451347E-02
    0.3000000000E+03    0.1718157145E-03    0.2546508863E-04    0.6877353081E+00    0.1493739603E-02    0.4051682428E-02
    0.5000000000E+03    0.3264889040E-03    0.4851740756E-04    0.6910111174E+00    0.2922207400E-02    0.3920784842E-02
    0.7000000000E+03    0.5591584286E-03    0.8318549198E-04    0.6924246123E+00    0.5069323715E-02    0.3733329367E-02
    0.9000000000E+03    0.9380607469E-03    0.1396418162E-03    0.6932123616E+00    0.8575893446E-02    0.3441583089E-02
    0.1100000000E+04    0.1611388856E-02    0.2399780353E-03    0.6937145616E+00    0.1483789589E-01    0.2948894693E-02
    0.1300000000E+04    0.2856306418E-02    0.4255312505E-03    0.6940626392E+00    0.2650751773E-01    0.2099489818E-02
    0.1500000000E+04    0.4714940857E-02    0.7026842766E-03    0.6943180962E+00    0.4419204499E-01    0.9774621339E-03
    0.1700000000E+04    0.6238863913E-02    0.9301686550E-03    0.6945135538E+00    0.5919123220E-01    0.2835888791E-03
    0.1900000000E+04    0.7102064090E-02    0.1059303685E-02    0.6946679241E+00    0.6827009338E-01    0.9230282623E-04
    0.2100000000E+04    0.7709222993E-02    0.1150342438E-02    0.6947929269E+00    0.7509514375E-01    0.5581576849E-04
    0.2300000000E+04    0.8237211546E-02    0.1229636073E-02    0.6948962119E+00    0.8130394137E-01    0.4956332096E-04
    0.2500000000E+04    0.8726729888E-02    0.1303246903E-02    0.6949829844E+00    0.8727158793E-01    0.4864929103E-04
    0.2700000000E+04    0.9186952154E-02    0.1372538019E-02    0.6950569094E+00    0.9307671678E-01    0.4865759167E-04
    0.2900000000E+04    0.9620833280E-02    0.1437945404E-02    0.6951206421E+00    0.9873917929E-01    0.4881736574E-04
    0.3100000000E+04    0.1003007707E-01    0.1499718747E-02    0.6951761533E+00    0.1042673239E+00    0.4899427358E-04
    0.3300000000E+04    0.1041607924E-01    0.1558062099E-02    0.6952249364E+00    0.1096670536E+00    0.4916556751E-04
    0.3500000000E+04    0.1078010976E-01    0.1613161059E-02    0.6952681439E+00    0.1149435656E+00    0.4932813119E-04
    0.3700000000E+04    0.1112335211E-01    0.1665188615E-02    0.6953066793E+00    0.1201016994E+00    0.4948222355E-04
    0.3900000000E+04    0.1144691529E-01    0.1714306908E-02    0.6953412608E+00    0.1251460186E+00    0.4962859219E-04
    0.4100000000E+04    0.1175184025E-01    0.1760668174E-02    0.6953724669E+00    0.1300808406E+00    0.4976797260E-04
    0.4300000000E+04    0.1203910492E-01    0.1804415478E-02    0.6954007681E+00    0.1349102552E+00    0.4990101479E-04
    0.4500000000E+04    0.1230962869E-01    0.1845683362E-02    0.6954265518E+00    0.1396381396E+00    0.5002828441E-04
    0.4700000000E+04    0.1256427649E-01    0.1884598440E-02    0.6954501391E+00    0.1442681725E+00    0.5015027460E-04
    0.4900000000E+04    0.1280386254E-01    0.1921279940E-02    0.6954717988E+00    0.1488038465E+00    0.5026741747E-04
    0.1000000000E+04    0.1223588286E-02    0.1821879473E-03    0.6934884857E+00    0.1122680373E-01    0.3229268562E-02
    0.3000000000E+04    0.9828443782E-02    0.1469273014E-02    0.6951493227E+00    0.1015196477E+00    0.4890596299E-04
    0.5000000000E+04    0.1291824884E-01    0.1938818463E-02    0.6954819781E+00    0.1510373425E+00    0.5032429192E-04
    0.7000000000E+04    0.1457948064E-01    0.2196404073E-02    0.6956244093E+00    0.1914780243E+00    0.5127983572E-04
    0.9000000000E+04    0.1537995077E-01    0.2325347583E-02    0.6957034233E+00    0.2254055192E+00    0.5200415324E-04
    0.1100000000E+05    0.1564883436E-01    0.2374149272E-02    0.6957536209E+00    0.2544551953E+00    0.5258929416E-04
    0.1300000000E+05    0.1558524823E-01    0.2372288411E-02    0.6957883104E+00    0.2797249615E+00    0.5308113067E-04
    0.1500000000E+05    0.1531363684E-01    0.2338291799E-02    0.6958137010E+00    0.3019837582E+00    0.5350592124E-04
    0.1700000000E+05    0.1491373296E-01    0.2284105904E-02    0.6958330790E+00    0.3217895882E+00    0.5388013448E-04
    0.1900000000E+05    0.1443756671E-01    0.2217584170E-02    0.6958483465E+00    0.3395597447E+00    0.5421479406E-04
    0.2100000000E+05    0.1391951774E-01    0.2143960647E-02    0.6958606802E+00    0.3556144013E+00    0.5451764890E-04
    0.2300000000E+05    0.1338246045E-01    0.2066753417E-02    0.6958708473E+00    0.3702046763E+00    0.5479435786E-04
    0.2500000000E+05    0.1284162939E-01    0.1988334723E-02    0.6958793693E+00    0.3835312871E+00    0.5504918199E-04
    0.2700000000E+05    0.1230711061E-01    0.1910299752E-02    0.6958866129E+00    0.3957573086E+00    0.5528541155E-04
    0.2900000000E+05    0.1178548074E-01    0.1833710251E-02    0.6958928435E+00    0.4070171208E+00    0.5550564111E-04
    0.3100000000E+05    0.1128090453E-01    0.1759258376E-02    0.6958982580E+00    0.4174228298E+00    0.5571195352E-04
    0.3300000000E+05    0.1079588071E-01    0.1687378598E-02    0.6959030054E+00    0.4270689699E+00    0.5590604665E-04
    0.3500000000E+05    0.1033175520E-01    0.1618325125E-02    0.6959072005E+00    0.4360360129E+00    0.5608932311E-04
    0.3700000000E+05    0.9889077934E-02    0.1552226045E-02    0.6959109335E+00    0.4443930310E+00    0.5626295524E-04
    0.3900000000E+05    0.9467852919E-02    0.1489121536E-02    0.6959142757E+00    0.4521997488E+00    0.5642793307E-04
    0.4100000000E+05    0.9067714624E-02    0.1428991019E-02    0.6959172848E+00    0.4595081472E+00    0.5658510041E-04
    0.4300000000E+05    0.8688052916E-02    0.1371772546E-02    0.6959200074E+00    0.4663637326E+00    0.5673518241E-04
    0.4500000000E+05    0.8328101740E-02    0.1317376707E-02    0.6959224821E+00    0.4728065537E+00    0.5687880689E-04
    0.4700000000E+05    0.7987002057E-02    0.1265696605E-02    0.6959247407E+00    0.4788720232E+00    0.5701652108E-04
    0.4900000000E+05    0.7663846379E-02    0.1216615009E-02    0.6959268098E+00    0.4845915906E+00    0.5714880493E-04
    0.1000000000E+05    0.1556616525E-01    0.2357596918E-02    0.6957310428E+00    0.2404619027E+00    0.5231061346E-04
    0.3000000000E+05    0.1153087264E-01    0.1796184959E-02    0.6958956425E+00    0.4123204639E+00    0.5561042302E-04
    0.5000000000E+05    0.7508708621E-02    0.1193010482E-02    0.6959277805E+00    0.4873305434E+00    0.5721304471E-04
    0.7000000000E+05    0.5134433806E-02    0.8281872577E-03    0.6959412112E+00    0.5293802446E+00    0.5829352744E-04
    0.9000000000E+05    0.3695370514E-02    0.6033558385E-03    0.6959484775E+00    0.5560212605E+00    0.5911374561E-04
    0.1100000000E+06    0.2773774280E-02    0.4575054452E-03    0.6959529747E+00    0.5742835647E+00    0.5977691262E-04
    0.1300000000E+06    0.2153116377E-02    0.3582401122E-03    0.6959559988E+00    0.5875226261E+00    0.6033463301E-04
    0.1500000000E+06    0.1717122985E-02    0.2878829550E-03    0.6959581502E+00    0.5975307034E+00    0.6081650633E-04
    0.1700000000E+06    0.1399963900E-02    0.2363032337E-03    0.6959597440E+00    0.6053463464E+00    0.6124112215E-04
    0.1900000000E+06    0.1162441735E-02    0.1974086469E-03    0.6959609613E+00    0.6116102081E+00    0.6162093625E-04
    0.2100000000E+06    0.9801570142E-03    0.1673748876E-03    0.6959619132E+00    0.6167376593E+00    0.6196471081E-04
    0.2300000000E+06    0.8373264826E-03    0.1437100051E-03    0.6959626717E+00    0.6210091677E+00    0.6227884843E-04
    0.2500000000E+06    0.7233957344E-03    0.1247368004E-03    0.6959632853E+00    0.6246206143E+00    0.6256817247E-04
    0.2700000000E+06    0.6311006808E-03    0.1092942157E-03    0.6959637877E+00    0.6277127613E+00    0.6283640885E-04
    0.2900000000E+06    0.5553145138E-03    0.9655847251E-04    0.6959642033E+00    0.6303892592E+00    0.6308649662E-04
    0.3100000000E+06    0.4923380525E-03    0.8593230480E-04    0.6959645498E+00    0.6327280587E+00    0.6332079583E-04
    0.3300000000E+06    0.4394495561E-03    0.7697429789E-04    0.6959648408E+00    0.6347888733E+00    0.6354123075E-04
    0.3500000000E+06    0.3946113447E-03    0.6935260635E-04    0.6959650864E+00    0.6366181934E+00    0.6374939137E-04
    0.3700000000E+06    0.3562739588E-03    0.6281391527E-04    0.6959652947E+00    0.6382527397E+00    0.6394660685E-04
    0.3900000000E+06    0.3232425790E-03    0.5716217790E-04    0.6959654718E+00    0.6397218910E+00    0.6413399985E-04
    0.4100000000E+06    0.2945841218E-03    0.5224376899E-04    0.6959656228E+00    0.6410494252E+00    0.6431252736E-04
    0.4300000000E+06    0.2695614803E-03    0.4793693656E-04    0.6959657516E+00    0.6422547883E+00    0.6448301188E-04
    0.4500000000E+06    0.2475862255E-03    0.4414418832E-04    0.6959658617E+00    0.6433540348E+00    0.6464616561E-04
    0.4700000000E+06    0.2281840851E-03    0.4078671658E-04    0.6959659556E+00    0.6443605342E+00    0.6480260937E-04
    0.4900000000E+06    0.2109694095E-03    0.3780026153E-04    0.6959660356E+00    0.6452855077E+00    0.6495288771E-04
    0.1000000000E+06    0.3186632276E-02    0.5230500354E-03    0.6959509667E+00    0.5659385778E+00    0.5946101763E-04
    0.3000000000E+06    0.5224140615E-03    0.9101229885E-04    0.6959643842E+00    0.6315967798E+00    0.6320549067E-04
    0.5000000000E+06    0.2030812813E-03    0.3642928113E-04    0.6959660710E+00    0.6457204452E+00    0.6502586717E-04
    0.7000000000E+06    0.1069371661E-03    0.1955868752E-04    0.6959663712E+00    0.6518206312E+00    0.6625344521E-04
    0.9000000000E+06    0.6579352107E-04    0.1220902601E-04    0.6959662999E+00    0.6552158628E+00    0.6718542322E-04
    0.1100000000E+07    0.4450712513E-04    0.8354433997E-05    0.6959661008E+00    0.6573775491E+00    0.6793899451E-04
    0.1300000000E+07    0.3209439158E-04    0.6081816745E-05    0.6959658550E+00    0.6588742364E+00    0.6857276765E-04
    0.1500000000E+07    0.2423295110E-04    0.4629112406E-05    0.6959655948E+00    0.6599717486E+00    0.6912036464E-04
    0.1700000000E+07    0.1894331890E-04    0.3643829594E-05    0.6959653341E+00    0.6608109357E+00    0.6960290337E-04
    0.1900000000E+07    0.1521545641E-04    0.2944578532E-05    0.6959650789E+00    0.6614733739E+00    0.7003453471E-04
    0.2100000000E+07    0.1249034434E-04    0.2430223494E-05    0.6959648322E+00    0.6620095705E+00    0.7042521381E-04
    0.2300000000E+07    0.1043830916E-04    0.2040730068E-05    0.6959645949E+00    0.6624524667E+00    0.7078221529E-04
    0.2500000000E+07    0.8854755649E-05    0.1738621590E-05    0.6959643673E+00    0.6628244615E+00    0.7111101963E-04
    0.2700000000E+07    0.7607275644E-05    0.1499514649E-05    0.6959641491E+00    0.6631413167E+00    0.7141586043E-04
    0.2900000000E+07    0.6607118162E-05    0.1306985522E-05    0.6959639400E+00    0.6634144447E+00    0.7170007734E-04
    0.3100000000E+07    0.5792994789E-05    0.1149641403E-05    0.6959637394E+00    0.6636523124E+00    0.7196635209E-04
    0.3300000000E+07    0.5121482232E-05    0.1019376642E-05    0.6959635469E+00    0.6638613333E+00    0.7221687129E-04
    0.3500000000E+07    0.4561120791E-05    0.9102958867E-06    0.6959633618E+00    0.6640464546E+00    0.7245344172E-04
    0.3700000000E+07    0.4088667573E-05    0.8180276546E-06    0.6959631838E+00    0.6642115536E+00    0.7267757379E-04
    0.3900000000E+07    0.3686650230E-05    0.7392744942E-06    0.6959630124E+00    0.6643597119E+00    0.7289054324E-04
    0.4100000000E+07    0.3341729868E-05    0.6715108806E-06    0.6959628470E+00    0.6644934096E+00    0.7309343758E-04
    0.4300000000E+07    0.3043581129E-05    0.6127758655E-06    0.6959626874E+00    0.6646146652E+00    0.7328719150E-04
    0.4500000000E+07    0.2784110856E-05    0.5615279599E-06    0.6959625331E+00    0.6647251384E+00    0.7347261433E-04
    0.4700000000E+07    0.2556903232E-05    0.5165417733E-06    0.6959623839E+00    0.6648262062E+00    0.7365041159E-04
    0.4900000000E+07    0.2356819367E-05    0.4768332140E-06    0.6959622393E+00    0.6649190207E+00    0.7382120210E-04
    0.1000000000E+07    0.5360197674E-04    0.1000698475E-04    0.6959662094E+00    0.6564047347E+00    0.6758003190E-04
    0.3000000000E+07    0.6179852415E-05    0.1224483955E-05    0.6959638387E+00    0.6635373452E+00    0.7183531075E-04
    0.5000000000E+07    0.2265618293E-05    0.4587026730E-06    0.6959621687E+00    0.6649626426E+00    0.7390414292E-04
    0.7000000000E+07    0.1179670885E-05    0.2409687936E-06    0.6959609461E+00    0.6655732898E+00    0.7529928548E-04
    0.9000000000E+07    0.7304727651E-06    0.1495133210E-06    0.6959599808E+00    0.6659125014E+00    0.7635848374E-04
    0.1100000000E+08    0.5018742818E-06    0.1024783907E-06    0.6959591814E+00    0.6661283601E+00    0.7721492374E-04
    0.1300000000E+08    0.3696175490E-06    0.7506114728E-07    0.6959584979E+00    0.6662778065E+00    0.7793521306E-04
    0.1500000000E+08    0.2860928930E-06    0.5765301238E-07    0.6959578999E+00    0.6663874083E+00    0.7855756274E-04
    0.1700000000E+08    0.2298691293E-06    0.4589074392E-07    0.6959573678E+00    0.6664712296E+00    0.7910597324E-04
    0.1900000000E+08    0.1901378036E-06    0.3755799267E-07    0.6959568879E+00    0.6665374118E+00    0.7959652702E-04
    0.2100000000E+08    0.1609650799E-06    0.3143068169E-07    0.6959564505E+00    0.6665909948E+00    0.8004053815E-04
    0.2300000000E+08    0.1388712354E-06    0.2678734539E-07    0.6959560485E+00    0.6666352653E+00    0.8044627428E-04
    0.2500000000E+08    0.1217050616E-06    0.2318003602E-07    0.6959556763E+00    0.6666724582E+00    0.8081996401E-04
    0.2700000000E+08    0.1080778442E-06    0.2031850994E-07    0.6959553295E+00    0.6667041462E+00    0.8116641888E-04
