  Pressure (Pa) 22mC5-500 (mol/kg) 23mC5-500 (mol/kg) 24mC5-500 (mol/kg) 3mC6-500 (mol/kg) C7-500 (mol/kg)
    0.1000000000E+01    0.1073867397E-04    0.2315877309E-05    0.3666089776E-01    0.8986133509E-05    0.4170917763E-02
    0.3000000000E+01    0.2831902667E-04    0.6099835980E-05    0.9949250554E-01    0.2263470366E-04    0.4210696159E-02
    0.5000000000E+01    0.4223117631E-04    0.9088228115E-05    0.1513821203E+00    0.3513192621E-04    0.4237795051E-02
    0.7000000000E+01    0.5346112597E-04    0.1149584648E-04    0.1949592154E+00    0.4708985809E-04    0.4259788266E-02
    0.9000000000E+01    0.6266964835E-04    0.1346641512E-04    0.2320732171E+00    0.5871266604E-04    0.4278257134E-02
    0.1100000000E+02    0.7032243540E-04    0.1510111778E-04    0.2640627911E+00    0.7010185260E-04    0.4294037069E-02
    0.1300000000E+02    0.7675733863E-04    0.1647328884E-04    0.2919207780E+00    0.8131755140E-04    0.4307683016E-02
    0.1500000000E+02    0.8222503323E-04    0.1763728682E-04    0.3163990931E+00    0.9239924586E-04    0.4319595830E-02
    0.1700000000E+02    0.8691503573E-04    0.1863416747E-04    0.3380776268E+00    0.1033746969E-03    0.4330077517E-02
    0.1900000000E+02    0.9097295785E-04    0.1949544361E-04    0.3574107784E+00    0.1142644061E-03    0.4339361750E-02
    0.2100000000E+02    0.9451226942E-04    0.2024564688E-04    0.3747596605E+00    0.1250840857E-03    0.4347632892E-02
    0.2300000000E+02    0.9762250494E-04    0.2090411405E-04    0.3904148698E+00    0.1358461331E-03    0.4355038670E-02
    0.2500000000E+02    0.1003751042E-03    0.2148625750E-04    0.4046128986E+00    0.1465605619E-03    0.4361699009E-02
    0.2700000000E+02    0.1028276424E-03    0.2200448500E-04    0.4175481666E+00    0.1572356188E-03    0.4367712361E-02
    0.2900000000E+02    0.1050269420E-03    0.2246887589E-04    0.4293819787E+00    0.1678782062E-03    0.4373160353E-02
    0.3100000000E+02    0.1070113947E-03    0.2288768525E-04    0.4402492873E+00    0.1784941824E-03    0.4378111266E-02
    0.3300000000E+02    0.1088127156E-03    0.2326772471E-04    0.4502638632E+00    0.1890885796E-03    0.4382622672E-02
    0.3500000000E+02    0.1104572841E-03    0.2361465326E-04    0.4595222940E+00    0.1996657661E-03    0.4386743465E-02
    0.3700000000E+02    0.1119671800E-03    0.2393320181E-04    0.4681071107E+00    0.2102295691E-03    0.4390515451E-02
    0.3900000000E+02    0.1133609914E-03    0.2422734831E-04    0.4760892544E+00    0.2207833697E-03    0.4393974586E-02
    0.4100000000E+02    0.1146544510E-03    0.2450045535E-04    0.4835300426E+00    0.2313301773E-03    0.4397151978E-02
    0.4300000000E+02    0.1158609406E-03    0.2475537948E-04    0.4904827468E+00    0.2418726881E-03    0.4400074672E-02
    0.4500000000E+02    0.1169918951E-03    0.2499455840E-04    0.4969938709E+00    0.2524133332E-03    0.4402766302E-02
    0.4700000000E+02    0.1180571273E-03    0.2522008130E-04    0.5031041926E+00    0.2629543163E-03    0.4405247609E-02
    0.4900000000E+02    0.1190650919E-03    0.2543374573E-04    0.5088496186E+00    0.2734976455E-03    0.4407536878E-02
    0.1000000000E+02    0.6666696452E-04    0.1432063749E-04    0.2486398488E+00    0.6443206477E-04    0.4286443996E-02
    0.3000000000E+02    0.1060439030E-03    0.2268352248E-04    0.4349288905E+00    0.1731891889E-03    0.4375694122E-02
    0.5000000000E+02    0.1195499233E-03    0.2553662463E-04    0.5115955609E+00    0.2787707706E-03    0.4408614627E-02
    0.7000000000E+02    0.1275744552E-03    0.2725417355E-04    0.5534064513E+00    0.3847340407E-03    0.4423176866E-02
    0.9000000000E+02    0.1342734656E-03    0.2871462309E-04    0.5797301901E+00    0.4923761024E-03    0.4429286197E-02
    0.1100000000E+03    0.1408549219E-03    0.3016861392E-04    0.5978274776E+00    0.6024336082E-03    0.4430692391E-02
    0.1300000000E+03    0.1477380506E-03    0.3170097338E-04    0.6110336887E+00    0.7154272353E-03    0.4429129876E-02
    0.1500000000E+03    0.1550835164E-03    0.3334305363E-04    0.6210957362E+00    0.8317786602E-03    0.4425509000E-02
    0.1700000000E+03    0.1629571315E-03    0.3510703179E-04    0.6290171011E+00    0.9518614766E-03    0.4420350198E-02
    0.1900000000E+03    0.1713883236E-03    0.3699799538E-04    0.6354152869E+00    0.1076027243E-02    0.4413969016E-02
    0.2100000000E+03    0.1803931524E-03    0.3901861905E-04    0.6406911209E+00    0.1204620561E-02    0.4406564360E-02
    0.2300000000E+03    0.1899839798E-03    0.4117108567E-04    0.6451161285E+00    0.1337988783E-02    0.4398264303E-02
    0.2500000000E+03    0.2001737076E-03    0.4345790198E-04    0.6488807824E+00    0.1476488898E-02    0.4389151501E-02
    0.2700000000E+03    0.2109776824E-03    0.4588224892E-04    0.6521226468E+00    0.1620492889E-02    0.4379278051E-02
    0.2900000000E+03    0.2224145707E-03    0.4844813204E-04    0.6549435555E+00    0.1770392257E-02    0.4368674549E-02
    0.3100000000E+03    0.2345067798E-03    0.5116044771E-04    0.6574205057E+00    0.1926602123E-02    0.4357355798E-02
    0.3300000000E+03    0.2472806907E-03    0.5402501737E-04    0.6596127948E+00    0.2089565169E-02    0.4345324493E-02
    0.3500000000E+03    0.2607668284E-03    0.5704861405E-04    0.6615668300E+00    0.2259755595E-02    0.4332573637E-02
    0.3700000000E+03    0.2750000317E-03    0.6023899258E-04    0.6633194505E+00    0.2437683209E-02    0.4319088131E-02
    0.3900000000E+03    0.2900196519E-03    0.6360492888E-04    0.6649002728E+00    0.2623897778E-02    0.4304845812E-02
    0.4100000000E+03    0.3058697979E-03    0.6715627104E-04    0.6663333777E+00    0.2818993704E-02    0.4289818097E-02
    0.4300000000E+03    0.3225996351E-03    0.7090400375E-04    0.6676385463E+00    0.3023615120E-02    0.4273970357E-02
    0.4500000000E+03    0.3402637456E-03    0.7486032706E-04    0.6688321787E+00    0.3238461493E-02    0.4257262076E-02
    0.4700000000E+03    0.3589225545E-03    0.7903875042E-04    0.6699279864E+00    0.3464293805E-02    0.4239646845E-02
    0.4900000000E+03    0.3786428273E-03    0.8345420302E-04    0.6709375221E+00    0.3701941415E-02    0.4221072226E-02
    0.1000000000E+03    0.1375433645E-03    0.2943518416E-04    0.5895456713E+00    0.5470671845E-03    0.4430441389E-02
    0.3000000000E+03    0.2283772066E-03    0.4978564396E-04    0.6562209697E+00    0.1847681402E-02    0.4363104161E-02
    0.5000000000E+03    0.3889237501E-03    0.8575589994E-04    0.6714130602E+00    0.3825475688E-02    0.4211407049E-02
    0.7000000000E+03    0.6737492950E-03    0.1494848808E-03    0.6781423768E+00    0.7200008673E-02    0.3948799387E-02
    0.9000000000E+03    0.1232249240E-02    0.2743828790E-03    0.6819396619E+00    0.1375642555E-01    0.3457139141E-02
    0.1100000000E+04    0.2420648226E-02    0.5401429563E-03    0.6843783000E+00    0.2775972139E-01    0.2484055128E-02
    0.1300000000E+04    0.4312159159E-02    0.9633491103E-03    0.6860767358E+00    0.5043698944E-01    0.1144495501E-02
    0.1500000000E+04    0.5599345003E-02    0.1251806287E-02    0.6873275151E+00    0.6666005993E-01    0.5407139518E-03
    0.1700000000E+04    0.6281655562E-02    0.1405185490E-02    0.6882869688E+00    0.7607774947E-01    0.4440782045E-03
    0.1900000000E+04    0.6813773400E-02    0.1525083295E-02    0.6890462277E+00    0.8392426354E-01    0.4349479085E-03
    0.2100000000E+04    0.7295282602E-02    0.1633756570E-02    0.6896620034E+00    0.9135698092E-01    0.4362164522E-03
    0.2300000000E+04    0.7741789519E-02    0.1734685804E-02    0.6901714365E+00    0.9854640348E-01    0.4384862045E-03
    0.2500000000E+04    0.8157184500E-02    0.1828731355E-02    0.6905998679E+00    0.1055240819E+00    0.4406944045E-03
    0.2700000000E+04    0.8543717033E-02    0.1916387200E-02    0.6909651806E+00    0.1123028505E+00    0.4427441579E-03
    0.2900000000E+04    0.8903297753E-02    0.1998072282E-02    0.6912803544E+00    0.1188925389E+00    0.4446461215E-03
    0.3100000000E+04    0.9237674671E-02    0.2074169898E-02    0.6915550394E+00    0.1253020525E+00    0.4464192485E-03
    0.3300000000E+04    0.9548465490E-02    0.2145034877E-02    0.6917965586E+00    0.1315396859E+00    0.4480800904E-03
    0.3500000000E+04    0.9837170731E-02    0.2210996460E-02    0.6920105700E+00    0.1376132033E+00    0.4496423189E-03
    0.3700000000E+04    0.1010518360E-01    0.2272360453E-02    0.6922015138E+00    0.1435298846E+00    0.4511172561E-03
    0.3900000000E+04    0.1035379876E-01    0.2329411139E-02    0.6923729239E+00    0.1492965628E+00    0.4525143711E-03
    0.4100000000E+04    0.1058422023E-01    0.2382413007E-02    0.6925276474E+00    0.1549196587E+00    0.4538416626E-03
    0.4300000000E+04    0.1079756866E-01    0.2431612329E-02    0.6926680039E+00    0.1604052114E+00    0.4551059489E-03
    0.4500000000E+04    0.1099488789E-01    0.2477238598E-02    0.6927959022E+00    0.1657589065E+00    0.4563130892E-03
    0.4700000000E+04    0.1117715100E-01    0.2519505842E-02    0.6929129276E+00    0.1709861023E+00    0.4574681563E-03
    0.4900000000E+04    0.1134526577E-01    0.2558613814E-02    0.6930204073E+00    0.1760918529E+00    0.4585755717E-03
    0.1000000000E+04    0.1717052337E-02    0.3827927644E-03    0.6832787696E+00    0.1945437355E-01    0.3049275604E-02
    0.3000000000E+04    0.9073532707E-02    0.2036796719E-02    0.6914222548E+00    0.1221192861E+00    0.4455476825E-03
    0.5000000000E+04    0.1142428460E-01    0.2577041864E-02    0.6930709243E+00    0.1786006878E+00    0.4591126403E-03
    0.7000000000E+04    0.1244000562E-01    0.2818997976E-02    0.6937780336E+00    0.2234300052E+00    0.4680853391E-03
    0.9000000000E+04    0.1272496649E-01    0.2896000986E-02    0.6941703367E+00    0.2602006425E+00    0.4748357727E-03
    0.1100000000E+05    0.1260211393E-01    0.2879726581E-02    0.6944194271E+00    0.2910982844E+00    0.4802652328E-03
    0.1300000000E+05    0.1225253921E-01    0.2810649012E-02    0.6945914074E+00    0.3175399879E+00    0.4848158545E-03
    0.1500000000E+05    0.1178131270E-01    0.2712448570E-02    0.6947171464E+00    0.3404928656E+00    0.4887382212E-03
    0.1700000000E+05    0.1125078354E-01    0.2599318922E-02    0.6948129892E+00    0.3606451641E+00    0.4921884135E-03
    0.1900000000E+05    0.1069838896E-01    0.2479888381E-02    0.6948883974E+00    0.3785038463E+00    0.4952703805E-03
    0.2100000000E+05    0.1014661926E-01    0.2359422743E-02    0.6949492267E+00    0.3944531674E+00    0.4980569093E-03
    0.2300000000E+05    0.9608802532E-02    0.2241109968E-02    0.6949992938E+00    0.4087914056E+00    0.5006009922E-03
    0.2500000000E+05    0.9092565163E-02    0.2126832718E-02    0.6950411929E+00    0.4217547848E+00    0.5029424332E-03
    0.2700000000E+05    0.8601953067E-02    0.2017644752E-02    0.6950767481E+00    0.4335335816E+00    0.5051119048E-03
    0.2900000000E+05    0.8138757799E-02    0.1914070754E-02    0.6951072795E+00    0.4442832897E+00    0.5071335527E-03
    0.3100000000E+05    0.7703358462E-02    0.1816298148E-02    0.6951337657E+00    0.4541325619E+00    0.5090267321E-03
    0.3300000000E+05    0.7295262393E-02    0.1724301353E-02    0.6951569474E+00    0.4631889899E+00    0.5108072007E-03
    0.3500000000E+05    0.6913455069E-02    0.1637923024E-02    0.6951773956E+00    0.4715433967E+00    0.5124879620E-03
    0.3700000000E+05    0.6556627394E-02    0.1556927446E-02    0.6951955574E+00    0.4792730820E+00    0.5140798740E-03
    0.3900000000E+05    0.6223323189E-02    0.1481035698E-02    0.6952117877E+00    0.4864443165E+00    0.5155920983E-03
    0.4100000000E+05    0.5912034294E-02    0.1409948734E-02    0.6952263720E+00    0.4931142852E+00    0.5170324378E-03
    0.4300000000E+05    0.5621261017E-02    0.1343362402E-02    0.6952395426E+00    0.4993326224E+00    0.5184075933E-03
    0.4500000000E+05    0.5349549574E-02    0.1280977064E-02    0.6952514901E+00    0.5051426364E+00    0.5197233628E-03
    0.4700000000E+05    0.5095514234E-02    0.1222503567E-02    0.6952623726E+00    0.5105822984E+00    0.5209847975E-03
    0.4900000000E+05    0.4857849328E-02    0.1167666768E-02    0.6952723221E+00    0.5156850470E+00    0.5221963246E-03
    0.1000000000E+05    0.1270086656E-01    0.2896479604E-02    0.6943074139E+00    0.2762817292E+00    0.4776817059E-03
    0.3000000000E+05    0.7917598830E-02    0.1864457001E-02    0.6951209773E+00    0.4493133185E+00    0.5080951430E-03
    0.5000000000E+05    0.4744771064E-02    0.1141530466E-02    0.6952769824E+00    0.5181194541E+00    0.5227846108E-03
    0.7000000000E+05    0.3092068543E-02    0.7558401356E-03    0.6953408205E+00    0.5547571695E+00    0.5326745286E-03
    0.9000000000E+05    0.2157975632E-02    0.5341791281E-03    0.6953745544E+00    0.5772793284E+00    0.5401773774E-03
    0.1100000000E+06    0.1586003825E-02    0.3966808256E-03    0.6953948936E+00    0.5924334882E+00    0.5462413743E-03
    0.1300000000E+06    0.1212592758E-02    0.3059592539E-03    0.6954081795E+00    0.6032880472E+00    0.5513399370E-03
    0.1500000000E+06    0.9561729784E-03    0.2430999129E-03    0.6954173306E+00    0.6114275687E+00    0.5557443729E-03
    0.1700000000E+06    0.7728340013E-03    0.1978049084E-03    0.6954238703E+00    0.6177485051E+00    0.5596249718E-03
    0.1900000000E+06    0.6373732808E-03    0.1641080421E-03    0.6954286675E+00    0.6227942896E+00    0.5630957852E-03
    0.2100000000E+06    0.5345355869E-03    0.1383688266E-03    0.6954322521E+00    0.6269127109E+00    0.5662370181E-03
    0.2300000000E+06    0.4546675473E-03    0.1182673387E-03    0.6954349644E+00    0.6303362960E+00    0.5691072617E-03
    0.2500000000E+06    0.3914274154E-03    0.1022699441E-03    0.6954370320E+00    0.6332262083E+00    0.5717506464E-03
    0.2700000000E+06    0.3405137598E-03    0.8933053411E-04    0.6954386126E+00    0.6356975689E+00    0.5742012556E-03
    0.2900000000E+06    0.2989276172E-03    0.7871600186E-04    0.6954398184E+00    0.6378347440E+00    0.5764859712E-03
    0.3100000000E+06    0.2645274485E-03    0.6990036403E-04    0.6954407314E+00    0.6397009382E+00    0.5786263763E-03
    0.3300000000E+06    0.2357515428E-03    0.6249837127E-04    0.6954414124E+00    0.6413444178E+00    0.5806400674E-03
    0.3500000000E+06    0.2114396922E-03    0.5622265455E-04    0.6954419076E+00    0.6428026653E+00    0.5825415822E-03
    0.3700000000E+06    0.1907156123E-03    0.5085534421E-04    0.6954422525E+00    0.6441052238E+00    0.5843430732E-03
    0.3900000000E+06    0.1729075977E-03    0.4622883906E-04    0.6954424749E+00    0.6452756880E+00    0.5860548038E-03
    0.4100000000E+06    0.1574938554E-03    0.4221250587E-04    0.6954425965E+00    0.6463331262E+00    0.5876855222E-03
    0.4300000000E+06    0.1440641299E-03    0.3870330893E-04    0.6954426349E+00    0.6472931139E+00    0.5892427472E-03
    0.4500000000E+06    0.1322923043E-03    0.3561909728E-04    0.6954426041E+00    0.6481684968E+00    0.5907329884E-03
    0.4700000000E+06    0.1219165356E-03    0.3289372205E-04    0.6954425156E+00    0.6489699623E+00    0.5921619205E-03
    0.4900000000E+06    0.1127246484E-03    0.3047343545E-04    0.6954423786E+00    0.6497064741E+00    0.5935345204E-03
    0.1000000000E+06    0.1839683581E-02    0.4578587753E-03    0.6953858813E+00    0.5855359879E+00    0.5433530498E-03
    0.3000000000E+06    0.2809380246E-03    0.7411010788E-04    0.6954403073E+00    0.6387984034E+00    0.5775730317E-03
    0.5000000000E+06    0.1085172004E-03    0.2936361882E-04    0.6954422944E+00    0.6500527859E+00    0.5942010879E-03
    0.7000000000E+06    0.5746376457E-04    0.1577403655E-04    0.6954393759E+00    0.6549102212E+00    0.6054127873E-03
    0.9000000000E+06    0.3573732506E-04    0.9893565514E-05    0.6954356334E+00    0.6576149066E+00    0.6139241324E-03
    0.1100000000E+07    0.2451179149E-04    0.6817977026E-05    0.6954318840E+00    0.6593377971E+00    0.6208058657E-03
    0.1300000000E+07    0.1796023763E-04    0.5006018804E-05    0.6954283300E+00    0.6605312013E+00    0.6265934014E-03
    0.1500000000E+07    0.1380168892E-04    0.3847282171E-05    0.6954250137E+00    0.6614066415E+00    0.6315938667E-03
    0.1700000000E+07    0.1099471254E-04    0.3060427835E-05    0.6954219297E+00    0.6620762335E+00    0.6360001569E-03
    0.1900000000E+07    0.9008818828E-05    0.2501009457E-05    0.6954190589E+00    0.6626049348E+00    0.6399415236E-03
    0.2100000000E+07    0.7550644482E-05    0.2088605615E-05    0.6954163793E+00    0.6630329765E+00    0.6435088925E-03
    0.2300000000E+07    0.6447219415E-05    0.1775519342E-05    0.6954138699E+00    0.6633866055E+00    0.6467687048E-03
    0.2500000000E+07    0.5591171915E-05    0.1531988985E-05    0.6954115121E+00    0.6636836740E+00    0.6497710143E-03
    0.2700000000E+07    0.4912972043E-05    0.1338653256E-05    0.6954092895E+00    0.6639367468E+00    0.6525544861E-03
    0.2900000000E+07    0.4365973466E-05    0.1182469568E-05    0.6954071880E+00    0.6641549240E+00    0.6551496205E-03
    0.3100000000E+07    0.3917927404E-05    0.1054387627E-05    0.6954051953E+00    0.6643449580E+00    0.6575809088E-03
    0.3300000000E+07    0.3545954937E-05    0.9479652726E-06    0.6954033008E+00    0.6645119646E+00    0.6598683203E-03
    0.3500000000E+07    0.3233455577E-05    0.8585140829E-06    0.6954014953E+00    0.6646598905E+00    0.6620283552E-03
    0.3700000000E+07    0.2968144302E-05    0.7825549313E-06    0.6953997709E+00    0.6647918296E+00    0.6640748070E-03
    0.3900000000E+07    0.2740769539E-05    0.7174612408E-06    0.6953981206E+00    0.6649102407E+00    0.6660193264E-03
    0.4100000000E+07    0.2544254830E-05    0.6612194110E-06    0.6953965381E+00    0.6650171035E+00    0.6678718446E-03
    0.4300000000E+07    0.2373111329E-05    0.6122643738E-06    0.6953950181E+00    0.6651140290E+00    0.6696408970E-03
    0.4500000000E+07    0.2223027641E-05    0.5693644869E-06    0.6953935557E+00    0.6652023420E+00    0.6713338748E-03
    0.4700000000E+07    0.2090578318E-05    0.5315395270E-06    0.6953921468E+00    0.6652831419E+00    0.6729572206E-03
    0.4900000000E+07    0.1973013332E-05    0.4980013269E-06    0.6953907873E+00    0.6653573484E+00    0.6745165855E-03
    0.1000000000E+07    0.2930809632E-04    0.8135999833E-05    0.6954337407E+00    0.6585623512E+00    0.6175277928E-03
    0.3000000000E+07    0.4131187712E-05    0.1115367718E-05    0.6954061787E+00    0.6642531072E+00    0.6563844054E-03
    0.5000000000E+07    0.1919098923E-05    0.4826350004E-06    0.6953901251E+00    0.6653922265E+00    0.6752738558E-03
    0.7000000000E+07    0.1252685758E-05    0.2940958563E-06    0.6953788087E+00    0.6658806027E+00    0.6880116151E-03
    0.9000000000E+07    0.9509880334E-06    0.2106307507E-06    0.6953700317E+00    0.6661520303E+00    0.6976818832E-03
    0.1100000000E+08    0.7824320739E-06    0.1652439290E-06    0.6953628420E+00    0.6663248324E+00    0.7055008280E-03
    0.1300000000E+08    0.6753504008E-06    0.1372218678E-06    0.6953567412E+00    0.6664445215E+00    0.7120766493E-03
    0.1500000000E+08    0.6012092629E-06    0.1183631640E-06    0.6953514350E+00    0.6665323386E+00    0.7177582486E-03
    0.1700000000E+08    0.5466374643E-06    0.1048566752E-06    0.6953467350E+00    0.6665995294E+00    0.7227647677E-03
    0.1900000000E+08    0.5046057925E-06    0.9471939630E-07    0.6953425132E+00    0.6666526055E+00    0.7272430497E-03
    0.2100000000E+08    0.4710882954E-06    0.8682861908E-07    0.6953386785E+00    0.6666955978E+00    0.7312963979E-03
    0.2300000000E+08    0.4436207086E-06    0.8050560025E-07    0.6953351639E+00    0.6667311357E+00    0.7350002990E-03
    0.2500000000E+08    0.4206125384E-06    0.7531787808E-07    0.6953319184E+00    0.6667610071E+00    0.7384116225E-03
    0.2700000000E+08    0.4009918528E-06    0.7097780503E-07    0.6953289025E+00    0.6667864706E+00    0.7415742988E-03
