  Pressure (Pa) 22mC5-500 (mol/kg) 23mC5-500 (mol/kg) 24mC5-500 (mol/kg) 3mC6-500 (mol/kg) C7-500 (mol/kg)
    0.1000000000E+01    0.9935376559E-05    0.2140466989E-05    0.6964613875E-01    0.6981205972E-06    0.4254404403E-02
    0.3000000000E+01    0.2383437947E-04    0.5125331198E-05    0.1740554941E+00    0.1815607664E-05    0.4391333118E-02
    0.5000000000E+01    0.3297488323E-04    0.7080435434E-05    0.2485897769E+00    0.2849220711E-05    0.4489269681E-02
    0.7000000000E+01    0.3931578973E-04    0.8431485441E-05    0.3044666161E+00    0.3841215186E-05    0.4563431189E-02
    0.9000000000E+01    0.4389699874E-04    0.9404013533E-05    0.3479122847E+00    0.4806050095E-05    0.4621725982E-02
    0.1100000000E+02    0.4731758890E-04    0.1012768649E-04    0.3826599677E+00    0.5751021685E-05    0.4668868842E-02
    0.1300000000E+02    0.4994379822E-04    0.1068160933E-04    0.4110840524E+00    0.6680500004E-05    0.4707861066E-02
    0.1500000000E+02    0.5201012761E-04    0.1111632305E-04    0.4347667834E+00    0.7597379285E-05    0.4740707860E-02
    0.1700000000E+02    0.5367242660E-04    0.1146534151E-04    0.4548031754E+00    0.8503708865E-05    0.4768801466E-02
    0.1900000000E+02    0.5503749667E-04    0.1175157739E-04    0.4719751523E+00    0.9401011020E-05    0.4793139576E-02
    0.2100000000E+02    0.5618042810E-04    0.1199110078E-04    0.4868559825E+00    0.1029045806E-04    0.4814456352E-02
    0.2300000000E+02    0.5715517523E-04    0.1219542901E-04    0.4998755261E+00    0.1117297860E-04    0.4833304379E-02
    0.2500000000E+02    0.5800123395E-04    0.1237297058E-04    0.5113624389E+00    0.1204932509E-04    0.4850107760E-02
    0.2700000000E+02    0.5874798462E-04    0.1252996294E-04    0.5215723011E+00    0.1292011868E-04    0.4865197571E-02
    0.2900000000E+02    0.5941759046E-04    0.1267109757E-04    0.5307068578E+00    0.1378588017E-04    0.4878836163E-02
    0.3100000000E+02    0.6002697582E-04    0.1279994590E-04    0.5389274849E+00    0.1464705207E-04    0.4891234202E-02
    0.3300000000E+02    0.6058920369E-04    0.1291925555E-04    0.5463648050E+00    0.1550401462E-04    0.4902562871E-02
    0.3500000000E+02    0.6111445205E-04    0.1303115989E-04    0.5531256807E+00    0.1635709784E-04    0.4912962759E-02
    0.3700000000E+02    0.6161071696E-04    0.1313732877E-04    0.5592983815E+00    0.1720659063E-04    0.4922550442E-02
    0.3900000000E+02    0.6208432609E-04    0.1323907843E-04    0.5649564594E+00    0.1805274786E-04    0.4931423438E-02
    0.4100000000E+02    0.6254031879E-04    0.1333745268E-04    0.5701616933E+00    0.1889579588E-04    0.4939663971E-02
    0.4300000000E+02    0.6298273061E-04    0.1343328358E-04    0.5749663540E+00    0.1973593701E-04    0.4947341879E-02
    0.4500000000E+02    0.6341480867E-04    0.1352723734E-04    0.5794149657E+00    0.2057335303E-04    0.4954516880E-02
    0.4700000000E+02    0.6383917619E-04    0.1361984924E-04    0.5835456900E+00    0.2140820811E-04    0.4961240355E-02
    0.4900000000E+02    0.6425795941E-04    0.1371155057E-04    0.5873914226E+00    0.2224065121E-04    0.4967556766E-02
    0.1000000000E+02    0.4572553244E-04    0.9791156091E-05    0.3662015183E+00    0.5280700182E-05    0.4646474320E-02
    0.3000000000E+02    0.5972891679E-04    0.1273686928E-04    0.5349226203E+00    0.1421701475E-04    0.4885178745E-02
    0.5000000000E+02    0.6446581022E-04    0.1375717136E-04    0.5892164770E+00    0.2265601114E-04    0.4970574609E-02
    0.7000000000E+02    0.6860977459E-04    0.1467743121E-04    0.6160116453E+00    0.3086407096E-04    0.5016743888E-02
    0.9000000000E+02    0.7299647759E-04    0.1566256241E-04    0.6319772972E+00    0.3893369172E-04    0.5046557568E-02
    0.1100000000E+03    0.7769696050E-04    0.1672176525E-04    0.6425746256E+00    0.4691187466E-04    0.5067816422E-02
    0.1300000000E+03    0.8267114884E-04    0.1784356299E-04    0.6501212593E+00    0.5482691071E-04    0.5083959190E-02
    0.1500000000E+03    0.8786958450E-04    0.1901583551E-04    0.6557685825E+00    0.6269762066E-04    0.5096757536E-02
    0.1700000000E+03    0.9325079629E-04    0.2022883695E-04    0.6601533363E+00    0.7053739342E-04    0.5107226188E-02
    0.1900000000E+03    0.9878260843E-04    0.2147516164E-04    0.6636562581E+00    0.7835622676E-04    0.5115992810E-02
    0.2100000000E+03    0.1044404833E-03    0.2274923580E-04    0.6665189884E+00    0.8616186670E-04    0.5123469044E-02
    0.2300000000E+03    0.1102056853E-03    0.2404684382E-04    0.6689022753E+00    0.9396049231E-04    0.5129937579E-02
    0.2500000000E+03    0.1160638003E-03    0.2536476658E-04    0.6709172097E+00    0.1017571512E-03    0.5135599906E-02
    0.2700000000E+03    0.1220036329E-03    0.2670051935E-04    0.6726430249E+00    0.1095560489E-03    0.5140604108E-02
    0.2900000000E+03    0.1280164026E-03    0.2805216399E-04    0.6741377520E+00    0.1173607492E-03    0.5145061852E-02
    0.3100000000E+03    0.1340951595E-03    0.2941817403E-04    0.6754448673E+00    0.1251743157E-03    0.5149059205E-02
    0.3300000000E+03    0.1402343572E-03    0.3079733684E-04    0.6765975858E+00    0.1329994160E-03    0.5152663758E-02
    0.3500000000E+03    0.1464295365E-03    0.3218868192E-04    0.6776217197E+00    0.1408383988E-03    0.5155929471E-02
    0.3700000000E+03    0.1526770906E-03    0.3359142766E-04    0.6785376320E+00    0.1486933531E-03    0.5158900041E-02
    0.3900000000E+03    0.1589740866E-03    0.3500494138E-04    0.6793616024E+00    0.1565661537E-03    0.5161611305E-02
    0.4100000000E+03    0.1653181308E-03    0.3642870901E-04    0.6801068016E+00    0.1644584967E-03    0.5164092987E-02
    0.4300000000E+03    0.1717072634E-03    0.3786231178E-04    0.6807839998E+00    0.1723719283E-03    0.5166369990E-02
    0.4500000000E+03    0.1781398779E-03    0.3930540817E-04    0.6814020898E+00    0.1803078675E-03    0.5168463370E-02
    0.4700000000E+03    0.1846146569E-03    0.4075771974E-04    0.6819684787E+00    0.1882676250E-03    0.5170391071E-02
    0.4900000000E+03    0.1911305216E-03    0.4221902001E-04    0.6824893862E+00    0.1962524181E-03    0.5172168509E-02
    0.1000000000E+03    0.7530933225E-04    0.1618352365E-04    0.6377622755E+00    0.4293215310E-04    0.5057985006E-02
    0.3000000000E+03    0.1310479080E-03    0.2873345553E-04    0.6748124837E+00    0.1212662492E-03    0.5147113485E-02
    0.5000000000E+03    0.1944035792E-03    0.4295298210E-04    0.6827344606E+00    0.2002545612E-03    0.5173005114E-02
    0.7000000000E+03    0.2618836253E-03    0.5807594133E-04    0.6861816224E+00    0.2818561712E-03    0.5184306862E-02
    0.9000000000E+03    0.3331367993E-03    0.7403259574E-04    0.6881087122E+00    0.3669584204E-03    0.5188893503E-02
    0.1100000000E+04    0.4083155958E-03    0.9086106542E-04    0.6893386390E+00    0.4562030001E-03    0.5189436534E-02
    0.1300000000E+04    0.4877247322E-03    0.1086315985E-03    0.6901912421E+00    0.5501597095E-03    0.5187133711E-02
    0.1500000000E+04    0.5717447688E-03    0.1274305267E-03    0.6908167263E+00    0.6493894963E-03    0.5182604052E-02
    0.1700000000E+04    0.6608135667E-03    0.1473565458E-03    0.6912949458E+00    0.7544758013E-03    0.5176190890E-02
    0.1900000000E+04    0.7554245220E-03    0.1685205195E-03    0.6916722674E+00    0.8660446634E-03    0.5168087218E-02
    0.2100000000E+04    0.8561311595E-03    0.1910466088E-03    0.6919774553E+00    0.9847806709E-03    0.5158394723E-02
    0.2300000000E+04    0.9635550111E-03    0.2150740916E-03    0.6922292981E+00    0.1111441797E-02    0.5147154123E-02
    0.2500000000E+04    0.1078395886E-02    0.2407596931E-03    0.6924405870E+00    0.1246874714E-02    0.5134361587E-02
    0.2700000000E+04    0.1201444415E-02    0.2682804130E-03    0.6926203310E+00    0.1392031606E-02    0.5119977750E-02
    0.2900000000E+04    0.1333597092E-02    0.2978369040E-03    0.6927750580E+00    0.1547989341E-02    0.5103932454E-02
    0.3100000000E+04    0.1475874239E-02    0.3296575003E-03    0.6929096136E+00    0.1715971773E-02    0.5086126775E-02
    0.3300000000E+04    0.1629441479E-02    0.3640030289E-03    0.6930276699E+00    0.1897376074E-02    0.5066433163E-02
    0.3500000000E+04    0.1795635476E-02    0.4011725718E-03    0.6931320602E+00    0.2093804072E-02    0.5044694136E-02
    0.3700000000E+04    0.1975994853E-02    0.4415103902E-03    0.6932250055E+00    0.2307099802E-02    0.5020719704E-02
    0.3900000000E+04    0.2172297467E-02    0.4854142664E-03    0.6933082713E+00    0.2539394710E-02    0.4994283583E-02
    0.4100000000E+04    0.2386605427E-02    0.5333455805E-03    0.6933832784E+00    0.2793162240E-02    0.4965118170E-02
    0.4300000000E+04    0.2621319565E-02    0.5858415028E-03    0.6934511833E+00    0.3071283934E-02    0.4932908151E-02
    0.4500000000E+04    0.2879245393E-02    0.6435297567E-03    0.6935129367E+00    0.3377129557E-02    0.4897282573E-02
    0.4700000000E+04    0.3163672920E-02    0.7071464847E-03    0.6935693274E+00    0.3714654208E-02    0.4857805177E-02
    0.4900000000E+04    0.3478472996E-02    0.7775578146E-03    0.6936210152E+00    0.4088515786E-02    0.4813962743E-02
    0.1000000000E+04    0.3702186546E-03    0.8233392803E-04    0.6887848844E+00    0.4110265993E-03    0.5189576301E-02
    0.3000000000E+04    0.1403400939E-02    0.3134487113E-03    0.6928446048E+00    0.1630394549E-02    0.5095256955E-02
    0.5000000000E+04    0.3648659234E-02    0.8156239378E-03    0.6936452728E+00    0.4290754938E-02    0.4790219849E-02
    0.7000000000E+04    0.1043795483E-01    0.2334499019E-02    0.6939816808E+00    0.1241386143E-01    0.3856718855E-02
    0.9000000000E+04    0.2799658825E-01    0.6265650706E-02    0.6941645885E+00    0.3395051887E-01    0.1746763285E-02
    0.1100000000E+05    0.3626586390E-01    0.8123173223E-02    0.6942783672E+00    0.4517795135E-01    0.1264013404E-02
    0.1300000000E+05    0.4047397346E-01    0.9073390053E-02    0.6943552878E+00    0.5179220882E-01    0.1259405145E-02
    0.1500000000E+05    0.4406044635E-01    0.9885505624E-02    0.6944103193E+00    0.5786750626E-01    0.1269031613E-02
    0.1700000000E+05    0.4722529585E-01    0.1060404635E-01    0.6944513367E+00    0.6360831370E-01    0.1277908595E-02
    0.1900000000E+05    0.5003101638E-01    0.1124280066E-01    0.6944828692E+00    0.6905791927E-01    0.1285857148E-02
    0.2100000000E+05    0.5252600973E-01    0.1181244313E-01    0.6945077018E+00    0.7424855682E-01    0.1293048333E-02
    0.2300000000E+05    0.5475051428E-01    0.1232185336E-01    0.6945276384E+00    0.7920744599E-01    0.1299616880E-02
    0.2500000000E+05    0.5673832115E-01    0.1277849315E-01    0.6945438969E+00    0.8395786187E-01    0.1305664522E-02
    0.2700000000E+05    0.5851800290E-01    0.1318867624E-01    0.6945573284E+00    0.8851984263E-01    0.1311269771E-02
    0.2900000000E+05    0.6011387059E-01    0.1355777838E-01    0.6945685448E+00    0.9291074465E-01    0.1316494498E-02
    0.3100000000E+05    0.6154672914E-01    0.1389040327E-01    0.6945779965E+00    0.9714568592E-01    0.1321388347E-02
    0.3300000000E+05    0.6283447864E-01    0.1419051463E-01    0.6945860225E+00    0.1012379035E+00    0.1325991764E-02
    0.3500000000E+05    0.6399259703E-01    0.1446154230E-01    0.6945928820E+00    0.1051990438E+00    0.1330338151E-02
    0.3700000000E+05    0.6503453035E-01    0.1470646806E-01    0.6945987768E+00    0.1090394002E+00    0.1334455416E-02
    0.3900000000E+05    0.6597201051E-01    0.1492789548E-01    0.6946038660E+00    0.1127681089E+00    0.1338367117E-02
    0.4100000000E+05    0.6681531574E-01    0.1512810723E-01    0.6946082767E+00    0.1163933111E+00    0.1342093329E-02
    0.4300000000E+05    0.6757348533E-01    0.1530911238E-01    0.6946121115E+00    0.1199222888E+00    0.1345651301E-02
    0.4500000000E+05    0.6825449774E-01    0.1547268559E-01    0.6946154541E+00    0.1233615778E+00    0.1349055960E-02
    0.4700000000E+05    0.6886541912E-01    0.1562039981E-01    0.6946183733E+00    0.1267170642E+00    0.1352320318E-02
    0.4900000000E+05    0.6941252774E-01    0.1575365373E-01    0.6946209262E+00    0.1299940650E+00    0.1355455782E-02
    0.1000000000E+05    0.3337372699E-01    0.7472170776E-02    0.6942274930E+00    0.4101155813E-01    0.1340265610E-02
    0.3000000000E+05    0.6084949533E-01    0.1372838910E-01    0.6945734679E+00    0.9504684267E-01    0.1318980067E-02
    0.5000000000E+05    0.6966392494E-01    0.1581525327E-01    0.6946220806E+00    0.1316046567E+00    0.1356978369E-02
    0.7000000000E+05    0.7242131819E-01    0.1652919025E-01    0.6946342497E+00    0.1606566879E+00    0.1382582464E-02
    0.9000000000E+05    0.7258427397E-01    0.1664456077E-01    0.6946361544E+00    0.1853653879E+00    0.1402013789E-02
    0.1100000000E+06    0.7149327430E-01    0.1646403169E-01    0.6946342435E+00    0.2071785404E+00    0.1417721880E-02
    0.1300000000E+06    0.6976004796E-01    0.1612723900E-01    0.6946307373E+00    0.2268740009E+00    0.1430930792E-02
    0.1500000000E+06    0.6769558137E-01    0.1570606691E-01    0.6946265511E+00    0.2449178232E+00    0.1442342387E-02
    0.1700000000E+06    0.6547018960E-01    0.1524046544E-01    0.6946221054E+00    0.2616125766E+00    0.1452397355E-02
    0.1900000000E+06    0.6318211077E-01    0.1475388342E-01    0.6946176063E+00    0.2771673425E+00    0.1461390924E-02
    0.2100000000E+06    0.6089000878E-01    0.1426062431E-01    0.6946131584E+00    0.2917340736E+00    0.1469530750E-02
    0.2300000000E+06    0.5862961652E-01    0.1376963652E-01    0.6946088145E+00    0.3054279223E+00    0.1476968552E-02
    0.2500000000E+06    0.5642280158E-01    0.1328659204E-01    0.6946046004E+00    0.3183392827E+00    0.1483818617E-02
    0.2700000000E+06    0.5428275985E-01    0.1281508612E-01    0.6946005269E+00    0.3305412680E+00    0.1490169220E-02
    0.2900000000E+06    0.5221711833E-01    0.1235735969E-01    0.6945965963E+00    0.3420945349E+00    0.1496089993E-02
    0.3100000000E+06    0.5022985536E-01    0.1191475035E-01    0.6945928066E+00    0.3530505001E+00    0.1501636843E-02
    0.3300000000E+06    0.4832252507E-01    0.1148798275E-01    0.6945891531E+00    0.3634535459E+00    0.1506855355E-02
    0.3500000000E+06    0.4649505842E-01    0.1107736059E-01    0.6945856299E+00    0.3733425686E+00    0.1511783192E-02
    0.3700000000E+06    0.4474629862E-01    0.1068289636E-01    0.6945822305E+00    0.3827520917E+00    0.1516451837E-02
    0.3900000000E+06    0.4307436561E-01    0.1030440092E-01    0.6945789483E+00    0.3917130807E+00    0.1520887882E-02
    0.4100000000E+06    0.4147690787E-01    0.9941546264E-02    0.6945757769E+00    0.4002535520E+00    0.1525113993E-02
    0.4300000000E+06    0.3995127854E-01    0.9593910110E-02    0.6945727100E+00    0.4083990351E+00    0.1529149650E-02
    0.4500000000E+06    0.3849465963E-01    0.9261007999E-02    0.6945697416E+00    0.4161729303E+00    0.1533011723E-02
    0.4700000000E+06    0.3710415013E-01    0.8942316534E-02    0.6945668661E+00    0.4235967904E+00    0.1536714913E-02
    0.4900000000E+06    0.3577682856E-01    0.8637290331E-02    0.6945640784E+00    0.4306905447E+00    0.1540272118E-02
    0.1000000000E+06    0.7214727406E-01    0.1658030701E-01    0.6946354900E+00    0.1965753516E+00    0.1410239703E-02
    0.3000000000E+06    0.5121354656E-01    0.1213410835E-01    0.6945946841E+00    0.3476442622E+00    0.1498907099E-02
    0.5000000000E+06    0.3513595590E-01    0.8489728382E-02    0.6945627159E+00    0.4341194620E+00    0.1541999583E-02
    0.7000000000E+06    0.2497372297E-01    0.6124447697E-02    0.6945390577E+00    0.4892326769E+00    0.1571055615E-02
    0.9000000000E+06    0.1842334950E-01    0.4572500455E-02    0.6945203465E+00    0.5261725495E+00    0.1593113261E-02
    0.1100000000E+07    0.1404527159E-01    0.3521102042E-02    0.6945048633E+00    0.5520020566E+00    0.1610947433E-02
    0.1300000000E+07    0.1101073221E-01    0.2784329746E-02    0.6944916463E+00    0.5707445915E+00    0.1625945755E-02
    0.1500000000E+07    0.8837060516E-02    0.2251684823E-02    0.6944801072E+00    0.5847872128E+00    0.1638904218E-02
    0.1700000000E+07    0.7234479537E-02    0.1855841933E-02    0.6944698609E+00    0.5956013167E+00    0.1650322755E-02
    0.1900000000E+07    0.6023002554E-02    0.1554496444E-02    0.6944606415E+00    0.6041272124E+00    0.1660536358E-02
    0.2100000000E+07    0.5087089849E-02    0.1320231122E-02    0.6944522579E+00    0.6109860840E+00    0.1669780681E-02
    0.2300000000E+07    0.4350281651E-02    0.1134754384E-02    0.6944445680E+00    0.6166007799E+00    0.1678227925E-02
    0.2500000000E+07    0.3760567861E-02    0.9855354898E-03    0.6944374633E+00    0.6212669653E+00    0.1686007816E-02
    0.2700000000E+07    0.3281684600E-02    0.8637824906E-03    0.6944308590E+00    0.6251963867E+00    0.1693220564E-02
    0.2900000000E+07    0.2887780886E-02    0.7631925834E-03    0.6944246876E+00    0.6285439673E+00    0.1699945217E-02
    0.3100000000E+07    0.2560059068E-02    0.6791591482E-03    0.6944188947E+00    0.6314252435E+00    0.1706245250E-02
    0.3300000000E+07    0.2284604180E-02    0.6082561040E-03    0.6944134353E+00    0.6339278686E+00    0.1712172416E-02
    0.3500000000E+07    0.2050948559E-02    0.5478949625E-03    0.6944082722E+00    0.6361193759E+00    0.1717769479E-02
    0.3700000000E+07    0.1851102314E-02    0.4960919832E-03    0.6944033741E+00    0.6380525273E+00    0.1723072189E-02
    0.3900000000E+07    0.1678885677E-02    0.4513070659E-03    0.6943987145E+00    0.6397690682E+00    0.1728110738E-02
    0.4100000000E+07    0.1529461009E-02    0.4123303308E-03    0.6943942706E+00    0.6413024088E+00    0.1732910866E-02
    0.4300000000E+07    0.1398999402E-02    0.3782009899E-03    0.6943900229E+00    0.6426795710E+00    0.1737494693E-02
    0.4500000000E+07    0.1284439594E-02    0.3481484622E-03    0.6943859543E+00    0.6439226196E+00    0.1741881375E-02
    0.4700000000E+07    0.1183311229E-02    0.3215490539E-03    0.6943820500E+00    0.6450497323E+00    0.1746087608E-02
    0.4900000000E+07    0.1093603647E-02    0.2978936890E-03    0.6943782968E+00    0.6460760056E+00    0.1750128037E-02
    0.1000000000E+07    0.1602515325E-01    0.3998128391E-02    0.6945122732E+00    0.5401744197E+00    0.1602452262E-02
    0.3000000000E+07    0.2716611753E-02    0.7193434293E-03    0.6944217469E+00    0.6300368670E+00    0.1703144838E-02
    0.5000000000E+07    0.1052505243E-02    0.2870361673E-03    0.6943764732E+00    0.6465553577E+00    0.1752090172E-02
    0.7000000000E+07    0.5522295836E-03    0.1535954565E-03    0.6943457204E+00    0.6530487271E+00    0.1785093697E-02
    0.9000000000E+07    0.3387933805E-03    0.9563252551E-04    0.6943222924E+00    0.6564626797E+00    0.1810148322E-02
    0.1100000000E+08    0.2286515240E-03    0.6530863338E-04    0.6943033109E+00    0.6585552108E+00    0.1830405709E-02
    0.1300000000E+08    0.1645564112E-03    0.4746526729E-04    0.6942873256E+00    0.6599651917E+00    0.1847441944E-02
    0.1500000000E+08    0.1240302524E-03    0.3607744601E-04    0.6942735008E+00    0.6609782621E+00    0.1862161147E-02
    0.1700000000E+08    0.9679964869E-04    0.2836377326E-04    0.6942613097E+00    0.6617406940E+00    0.1875131174E-02
    0.1900000000E+08    0.7763151388E-04    0.2289535412E-04    0.6942503987E+00    0.6623349512E+00    0.1886732530E-02
    0.2100000000E+08    0.6363373536E-04    0.1887662623E-04    0.6942405186E+00    0.6628109879E+00    0.1897232893E-02
    0.2300000000E+08    0.5310285681E-04    0.1583591599E-04    0.6942314868E+00    0.6632008006E+00    0.1906827860E-02
    0.2500000000E+08    0.4498285523E-04    0.1347908861E-04    0.6942231658E+00    0.6635258178E+00    0.1915664787E-02
    0.2700000000E+08    0.3859094837E-04    0.1161494640E-04    0.6942154492E+00    0.6638009233E+00    0.1923857501E-02
