  Pressure (Pa) 22mC5-500 (mol/kg) 23mC5-500 (mol/kg) 24mC5-500 (mol/kg) 3mC6-500 (mol/kg) C7-500 (mol/kg)
    0.1000000000E+01    0.8749233869E-05    0.5027095260E-05    0.1514065733E+00    0.2040656471E-05    0.4146937498E-02
    0.3000000000E+01    0.1708593497E-04    0.9787315507E-05    0.3165034985E+00    0.5032103669E-05    0.4173626142E-02
    0.5000000000E+01    0.2097815825E-04    0.1199581299E-04    0.4047804971E+00    0.7739835281E-05    0.4181569078E-02
    0.7000000000E+01    0.2321266256E-04    0.1326043398E-04    0.4597351597E+00    0.1031197697E-04    0.4185698627E-02
    0.9000000000E+01    0.2470400061E-04    0.1410585159E-04    0.4972396365E+00    0.1279754871E-04    0.4188231188E-02
    0.1100000000E+02    0.2582423234E-04    0.1474422213E-04    0.5244668897E+00    0.1522084271E-04    0.4189915490E-02
    0.1300000000E+02    0.2674635098E-04    0.1527353785E-04    0.5451323055E+00    0.1759622443E-04    0.4191088613E-02
    0.1500000000E+02    0.2755846263E-04    0.1574334041E-04    0.5613529614E+00    0.1993311446E-04    0.4191927792E-02
    0.1700000000E+02    0.2830845988E-04    0.1618033614E-04    0.5744236358E+00    0.2223812971E-04    0.4192536019E-02
    0.1900000000E+02    0.2902364398E-04    0.1659960303E-04    0.5851807129E+00    0.2451615188E-04    0.4192977551E-02
    0.2100000000E+02    0.2972012545E-04    0.1700993751E-04    0.5941885470E+00    0.2677091826E-04    0.4193294682E-02
    0.2300000000E+02    0.3040764275E-04    0.1741658300E-04    0.6018417424E+00    0.2900537387E-04    0.4193516444E-02
    0.2500000000E+02    0.3109216949E-04    0.1782269937E-04    0.6084245133E+00    0.3122189396E-04    0.4193663458E-02
    0.2700000000E+02    0.3177738866E-04    0.1823018947E-04    0.6141467624E+00    0.3342243109E-04    0.4193750786E-02
    0.2900000000E+02    0.3246555693E-04    0.1864018112E-04    0.6191668784E+00    0.3560861616E-04    0.4193789693E-02
    0.3100000000E+02    0.3315802706E-04    0.1905331664E-04    0.6236066253E+00    0.3778182997E-04    0.4193788780E-02
    0.3300000000E+02    0.3385557161E-04    0.1946993105E-04    0.6275611504E+00    0.3994325530E-04    0.4193754729E-02
    0.3500000000E+02    0.3455858797E-04    0.1989016405E-04    0.6311058800E+00    0.4209391554E-04    0.4193692808E-02
    0.3700000000E+02    0.3526723031E-04    0.2031403157E-04    0.6343013772E+00    0.4423470414E-04    0.4193607232E-02
    0.3900000000E+02    0.3598149586E-04    0.2074147198E-04    0.6371968313E+00    0.4636640720E-04    0.4193501410E-02
    0.4100000000E+02    0.3670128191E-04    0.2117237638E-04    0.6398326078E+00    0.4848972128E-04    0.4193378132E-02
    0.4300000000E+02    0.3742642375E-04    0.2160660838E-04    0.6422421424E+00    0.5060526741E-04    0.4193239700E-02
    0.4500000000E+02    0.3815672010E-04    0.2204401723E-04    0.6444533667E+00    0.5271360251E-04    0.4193088036E-02
    0.4700000000E+02    0.3889195015E-04    0.2248444639E-04    0.6464897960E+00    0.5481522851E-04    0.4192924749E-02
    0.4900000000E+02    0.3963188489E-04    0.2292773909E-04    0.6483713692E+00    0.5691059991E-04    0.4192751205E-02
    0.1000000000E+02    0.2529688774E-04    0.1444318936E-04    0.5118544683E+00    0.1401592951E-04    0.4189152937E-02
    0.3000000000E+02    0.3281119522E-04    0.1884632932E-04    0.6214528203E+00    0.3669676641E-04    0.4193793758E-02
    0.5000000000E+02    0.4000354466E-04    0.2315041113E-04    0.6492595018E+00    0.5795607077E-04    0.4192660955E-02
    0.7000000000E+02    0.4763207495E-04    0.2772067858E-04    0.6619542089E+00    0.7862059050E-04    0.4190525476E-02
    0.9000000000E+02    0.5552758596E-04    0.3244810115E-04    0.6692240933E+00    0.9897062312E-04    0.4188044560E-02
    0.1100000000E+03    0.6359536659E-04    0.3727532813E-04    0.6739343270E+00    0.1191470783E-03    0.4185407177E-02
    0.1300000000E+03    0.7178715119E-04    0.4217384965E-04    0.6772344196E+00    0.1392344358E-03    0.4182686234E-02
    0.1500000000E+03    0.8007754362E-04    0.4712894527E-04    0.6796751863E+00    0.1592889669E-03    0.4179914763E-02
    0.1700000000E+03    0.8845284051E-04    0.5213282635E-04    0.6815536156E+00    0.1793509394E-03    0.4177109247E-02
    0.1900000000E+03    0.9690565924E-04    0.5718140346E-04    0.6830439768E+00    0.1994507319E-03    0.4174278387E-02
    0.2100000000E+03    0.1054322077E-03    0.6227266466E-04    0.6842552715E+00    0.2196122229E-03    0.4171426895E-02
    0.2300000000E+03    0.1140308188E-03    0.6740581407E-04    0.6852591737E+00    0.2398548138E-03    0.4168557296E-02
    0.2500000000E+03    0.1227011255E-03    0.7258079138E-04    0.6861047477E+00    0.2601947092E-03    0.4165670861E-02
    0.2700000000E+03    0.1314435781E-03    0.7779799301E-04    0.6868267125E+00    0.2806457625E-03    0.4162768111E-02
    0.2900000000E+03    0.1402591523E-03    0.8305810486E-04    0.6874503270E+00    0.3012200583E-03    0.4159849112E-02
    0.3100000000E+03    0.1491491675E-03    0.8836199937E-04    0.6879944070E+00    0.3219283241E-03    0.4156913641E-02
    0.3300000000E+03    0.1581151719E-03    0.9371067079E-04    0.6884732561E+00    0.3427802302E-03    0.4153961296E-02
    0.3500000000E+03    0.1671588681E-03    0.9910519384E-04    0.6888979421E+00    0.3637846132E-03    0.4150991560E-02
    0.3700000000E+03    0.1762820644E-03    0.1045466971E-03    0.6892771630E+00    0.3849496448E-03    0.4148003839E-02
    0.3900000000E+03    0.1854866431E-03    0.1100363456E-03    0.6896178489E+00    0.4062829636E-03    0.4144997496E-02
    0.4100000000E+03    0.1947745396E-03    0.1155753298E-03    0.6899255895E+00    0.4277917771E-03    0.4141971864E-02
    0.4300000000E+03    0.2041477282E-03    0.1211648586E-03    0.6902049434E+00    0.4494829443E-03    0.4138926258E-02
    0.4500000000E+03    0.2136082132E-03    0.1268061543E-03    0.6904596650E+00    0.4713630411E-03    0.4135859983E-02
    0.4700000000E+03    0.2231580240E-03    0.1325004506E-03    0.6906928748E+00    0.4934384149E-03    0.4132772340E-02
    0.4900000000E+03    0.2327992109E-03    0.1382489910E-03    0.6909071875E+00    0.5157152285E-03    0.4129662626E-02
    0.1000000000E+03    0.5954368907E-04    0.3485146443E-04    0.6718065181E+00    0.1090743953E-03    0.4186739476E-02
    0.3000000000E+03    0.1446947624E-03    0.8570451942E-04    0.6877313265E+00    0.3115568187E-03    0.4158383457E-02
    0.5000000000E+03    0.2376547165E-03    0.1411439938E-03    0.6910079610E+00    0.5269310599E-03    0.4128099273E-02
    0.7000000000E+03    0.3400813029E-03    0.2022049147E-03    0.6924219152E+00    0.7632508328E-03    0.4095501592E-02
    0.9000000000E+03    0.4541858820E-03    0.2702168715E-03    0.6932099672E+00    0.1026361161E-02    0.4059884802E-02
    0.1100000000E+04    0.5825212076E-03    0.3467059273E-03    0.6937123862E+00    0.1322436841E-02    0.4020496916E-02
    0.1300000000E+04    0.7281663549E-03    0.4335096988E-03    0.6940606318E+00    0.1658764220E-02    0.3976476186E-02
    0.1500000000E+04    0.8949452153E-03    0.5329089776E-03    0.6943162229E+00    0.2044337095E-02    0.3926785958E-02
    0.1700000000E+04    0.1087701315E-02    0.6477921000E-03    0.6945117908E+00    0.2490532061E-02    0.3870141900E-02
    0.1900000000E+04    0.1312664133E-02    0.7818736205E-03    0.6946662539E+00    0.3011986378E-02    0.3804921160E-02
    0.2100000000E+04    0.1577949773E-02    0.9399930338E-03    0.6947913363E+00    0.3627791826E-02    0.3729043330E-02
    0.2300000000E+04    0.1894249691E-02    0.1128525652E-02    0.6948946905E+00    0.4363138588E-02    0.3639812587E-02
    0.2500000000E+04    0.2275769262E-02    0.1355942571E-02    0.6949815239E+00    0.5251563965E-02    0.3533711624E-02
    0.2700000000E+04    0.2741465615E-02    0.1633549323E-02    0.6950555030E+00    0.6337937654E-02    0.3406146487E-02
    0.2900000000E+04    0.3316552265E-02    0.1976384071E-02    0.6951192843E+00    0.7682134368E-02    0.3251171257E-02
    0.3100000000E+04    0.4033962539E-02    0.2404092050E-02    0.6951748394E+00    0.9362715432E-02    0.3061304922E-02
    0.3300000000E+04    0.4934720054E-02    0.2941149703E-02    0.6952236624E+00    0.1147821449E-01    0.2827755128E-02
    0.3500000000E+04    0.6064500795E-02    0.3614819920E-02    0.6952669064E+00    0.1413970849E-01    0.2541773878E-02
    0.3700000000E+04    0.7460982748E-02    0.4447615759E-02    0.6953054754E+00    0.1744190666E-01    0.2198432340E-02
    0.3900000000E+04    0.9125646953E-02    0.5440490646E-02    0.6953400880E+00    0.2139733745E-01    0.1803954165E-02
    0.4100000000E+04    0.1098469313E-01    0.6549524947E-02    0.6953713228E+00    0.2584325412E-01    0.1384353315E-02
    0.4300000000E+04    0.1287497133E-01    0.7677505348E-02    0.6953996508E+00    0.3040442002E-01    0.9854918876E-03
    0.4500000000E+04    0.1460238668E-01    0.8708709207E-02    0.6954254595E+00    0.3462538602E-01    0.6545689564E-03
    0.4700000000E+04    0.1604330133E-01    0.9569361326E-02    0.6954490702E+00    0.3820837880E-01    0.4148547841E-03
    0.4900000000E+04    0.1718655198E-01    0.1025272610E-01    0.6954707519E+00    0.4111709660E-01    0.2597021651E-03
    0.1000000000E+04    0.5163969592E-03    0.3072956451E-03    0.6934862088E+00    0.1169855946E-02    0.4040712779E-02
    0.3000000000E+04    0.3655080851E-02    0.2178205411E-02    0.6951479874E+00    0.8474665400E-02    0.3161126079E-02
    0.5000000000E+04    0.1766422053E-01    0.1053843875E-01    0.6954809418E+00    0.4235748057E-01    0.2070505140E-03
    0.7000000000E+04    0.2312480195E-01    0.1381621623E-01    0.6956235341E+00    0.5808826929E-01    0.5163443533E-04
    0.9000000000E+04    0.2699538676E-01    0.1615134490E-01    0.6957026530E+00    0.7089818857E-01    0.5200511082E-04
    0.1100000000E+05    0.3013846170E-01    0.1805620339E-01    0.6957529260E+00    0.8259647483E-01    0.5258924742E-04
    0.1300000000E+05    0.3270835120E-01    0.1962141990E-01    0.6957876731E+00    0.9337796480E-01    0.5308108378E-04
    0.1500000000E+05    0.3481914192E-01    0.2091405014E-01    0.6958131097E+00    0.1033892656E+00    0.5350587735E-04
    0.1700000000E+05    0.3655773556E-01    0.2198522827E-01    0.6958325256E+00    0.1127453761E+00    0.5388009310E-04
    0.1900000000E+05    0.3799136958E-01    0.2287456326E-01    0.6958478249E+00    0.1215378963E+00    0.5421475481E-04
    0.2100000000E+05    0.3917279068E-01    0.2361316475E-01    0.6958601860E+00    0.1298407824E+00    0.5451761149E-04
    0.2300000000E+05    0.4014389121E-01    0.2422577098E-01    0.6958703769E+00    0.1377144715E+00    0.5479432206E-04
    0.2500000000E+05    0.4093831322E-01    0.2473227351E-01    0.6958789199E+00    0.1452088938E+00    0.5504914762E-04
    0.2700000000E+05    0.4158334440E-01    0.2514882795E-01    0.6958861822E+00    0.1523657069E+00    0.5528537846E-04
    0.2900000000E+05    0.4210131952E-01    0.2548867548E-01    0.6958924297E+00    0.1592199788E+00    0.5550560918E-04
    0.3100000000E+05    0.4251067065E-01    0.2576275881E-01    0.6958978594E+00    0.1658014727E+00    0.5571192264E-04
    0.3300000000E+05    0.4282672389E-01    0.2598018986E-01    0.6959026207E+00    0.1721356393E+00    0.5590601673E-04
    0.3500000000E+05    0.4306231088E-01    0.2614860885E-01    0.6959068286E+00    0.1782443927E+00    0.5608929408E-04
    0.3700000000E+05    0.4322824307E-01    0.2627446299E-01    0.6959105733E+00    0.1841467222E+00    0.5626292704E-04
    0.3900000000E+05    0.4333368307E-01    0.2636322488E-01    0.6959139265E+00    0.1898591806E+00    0.5642790563E-04
    0.4100000000E+05    0.4338643803E-01    0.2641956516E-01    0.6959169456E+00    0.1953962759E+00    0.5658507368E-04
    0.4300000000E+05    0.4339319348E-01    0.2644749015E-01    0.6959196777E+00    0.2007707901E+00    0.5673515634E-04
    0.4500000000E+05    0.4335970093E-01    0.2645045245E-01    0.6959221613E+00    0.2059940382E+00    0.5687878145E-04
    0.4700000000E+05    0.4329092968E-01    0.2643144043E-01    0.6959244282E+00    0.2110760816E+00    0.5701649623E-04
    0.4900000000E+05    0.4319119038E-01    0.2639305116E-01    0.6959265051E+00    0.2160259058E+00    0.5714878063E-04
    0.1000000000E+05    0.2864703856E-01    0.1715120234E-01    0.6957303130E+00    0.7687262535E-01    0.5231062136E-04
    0.3000000000E+05    0.4231855035E-01    0.2563332992E-01    0.6958952365E+00    0.1625431412E+00    0.5561039162E-04
    0.5000000000E+05    0.4313089997E-01    0.2636730957E-01    0.6959274796E+00    0.2184537858E+00    0.5721302068E-04
    0.7000000000E+05    0.4099298081E-01    0.2525555931E-01    0.6959409686E+00    0.2616496569E+00    0.5829350763E-04
    0.9000000000E+05    0.3807737566E-01    0.2361849932E-01    0.6959482738E+00    0.2973072355E+00    0.5911372868E-04
    0.1100000000E+06    0.3505454984E-01    0.2187499830E-01    0.6959527998E+00    0.3277102891E+00    0.5977689786E-04
    0.1300000000E+06    0.3216215715E-01    0.2017987869E-01    0.6959558466E+00    0.3541112040E+00    0.6033461997E-04
    0.1500000000E+06    0.2948396950E-01    0.1859209777E-01    0.6959580165E+00    0.3773031352E+00    0.6081649472E-04
    0.1700000000E+06    0.2704212416E-01    0.1713112274E-01    0.6959596258E+00    0.3978404051E+00    0.6124111176E-04
    0.1900000000E+06    0.2483266731E-01    0.1579901398E-01    0.6959608566E+00    0.4161373994E+00    0.6162092692E-04
    0.2100000000E+06    0.2284072045E-01    0.1459004482E-01    0.6959618203E+00    0.4325183828E+00    0.6196470242E-04
    0.2300000000E+06    0.2104738686E-01    0.1349520117E-01    0.6959625893E+00    0.4472451003E+00    0.6227884088E-04
    0.2500000000E+06    0.1943300051E-01    0.1250437716E-01    0.6959632123E+00    0.4605333817E+00    0.6256816569E-04
    0.2700000000E+06    0.1797864797E-01    0.1160746114E-01    0.6959637233E+00    0.4725638730E+00    0.6283640277E-04
    0.2900000000E+06    0.1666683856E-01    0.1079486066E-01    0.6959641467E+00    0.4834894098E+00    0.6308649119E-04
    0.3100000000E+06    0.1548174448E-01    0.1005773499E-01    0.6959645005E+00    0.4934403466E+00    0.6332079100E-04
    0.3300000000E+06    0.1440922341E-01    0.9388072973E-02    0.6959647983E+00    0.5025285659E+00    0.6354122648E-04
    0.3500000000E+06    0.1343673459E-01    0.8778689577E-02    0.6959650502E+00    0.5108505888E+00    0.6374938763E-04
    0.3700000000E+06    0.1255320708E-01    0.8223181558E-02    0.6959652643E+00    0.5184900462E+00    0.6394660361E-04
    0.3900000000E+06    0.1174889159E-01    0.7715864225E-02    0.6959654470E+00    0.5255196766E+00    0.6413399708E-04
    0.4100000000E+06    0.1101521256E-01    0.7251701760E-02    0.6959656032E+00    0.5320029618E+00    0.6431252504E-04
    0.4300000000E+06    0.1034462849E-01    0.6826237738E-02    0.6959657371E+00    0.5379954805E+00    0.6448300998E-04
    0.4500000000E+06    0.9730504546E-02    0.6435529372E-02    0.6959658519E+00    0.5435460369E+00    0.6464616411E-04
    0.4700000000E+06    0.9166998489E-02    0.6076087117E-02    0.6959659503E+00    0.5486976070E+00    0.6480260827E-04
    0.4900000000E+06    0.8648959861E-02    0.5744820239E-02    0.6959660346E+00    0.5534881365E+00    0.6495288698E-04
    0.1000000000E+06    0.3655911898E-01    0.2274704540E-01    0.6959507784E+00    0.3130725266E+00    0.5946100185E-04
    0.3000000000E+06    0.1605937486E-01    0.1041738385E-01    0.6959643314E+00    0.4885793177E+00    0.6320548554E-04
    0.5000000000E+06    0.8405548486E-02    0.5588883715E-02    0.6959660721E+00    0.5557586621E+00    0.6502586662E-04
    0.7000000000E+06    0.5067261055E-02    0.3429139174E-02    0.6959664070E+00    0.5886017795E+00    0.6625344772E-04
    0.9000000000E+06    0.3360698861E-02    0.2305587612E-02    0.6959663618E+00    0.6073428797E+00    0.6718542810E-04
    0.1100000000E+07    0.2382587829E-02    0.1652915293E-02    0.6959661838E+00    0.6192226402E+00    0.6793900135E-04
    0.1300000000E+07    0.1773404493E-02    0.1241951675E-02    0.6959659561E+00    0.6273350367E+00    0.6857277620E-04
    0.1500000000E+07    0.1369590245E-02    0.9670084071E-03    0.6959657117E+00    0.6331869416E+00    0.6912037469E-04
    0.1700000000E+07    0.1088686709E-02    0.7742181495E-03    0.6959654651E+00    0.6375882496E+00    0.6960291479E-04
    0.1900000000E+07    0.8856542042E-03    0.6338885231E-03    0.6959652228E+00    0.6410086754E+00    0.7003454739E-04
    0.2100000000E+07    0.7342699333E-03    0.5285960105E-03    0.6959649880E+00    0.6437375532E+00    0.7042522766E-04
    0.2300000000E+07    0.6184533836E-03    0.4475821337E-03    0.6959647617E+00    0.6459620026E+00    0.7078223023E-04
    0.2500000000E+07    0.5279108583E-03    0.3839174980E-03    0.6959645444E+00    0.6478079919E+00    0.7111103560E-04
    0.2700000000E+07    0.4558108394E-03    0.3329776894E-03    0.6959643359E+00    0.6493632172E+00    0.7141587738E-04
    0.2900000000E+07    0.3974779933E-03    0.2915817603E-03    0.6959641360E+00    0.6506904939E+00    0.7170009522E-04
    0.3100000000E+07    0.3496267587E-03    0.2574838570E-03    0.6959639442E+00    0.6518359285E+00    0.7196637086E-04
    0.3300000000E+07    0.3098943940E-03    0.2290619222E-03    0.6959637600E+00    0.6528340877E+00    0.7221689093E-04
    0.3500000000E+07    0.2765470503E-03    0.2051208383E-03    0.6959635830E+00    0.6537113714E+00    0.7245346218E-04
    0.3700000000E+07    0.2482893890E-03    0.1847643747E-03    0.6959634127E+00    0.6544882747E+00    0.7267759504E-04
    0.3900000000E+07    0.2241381128E-03    0.1673097834E-03    0.6959632486E+00    0.6551809408E+00    0.7289056526E-04
    0.4100000000E+07    0.2033360411E-03    0.1522295591E-03    0.6959630905E+00    0.6558022517E+00    0.7309346035E-04
    0.4300000000E+07    0.1852925432E-03    0.1391109227E-03    0.6959629378E+00    0.6563626072E+00    0.7328721499E-04
    0.4500000000E+07    0.1695414871E-03    0.1276271245E-03    0.6959627902E+00    0.6568704920E+00    0.7347263852E-04
    0.4700000000E+07    0.1557110611E-03    0.1175167855E-03    0.6959626475E+00    0.6573328955E+00    0.7365043646E-04
    0.4900000000E+07    0.1435017893E-03    0.1085688023E-03    0.6959625092E+00    0.6577556251E+00    0.7382122764E-04
    0.1000000000E+07    0.2809886770E-02    0.1938995170E-02    0.6959662824E+00    0.6138928896E+00    0.6758003781E-04
    0.3000000000E+07    0.3724073967E-03    0.2737338272E-03    0.6959640391E+00    0.6512835568E+00    0.7183532909E-04
    0.5000000000E+07    0.1379271943E-03    0.1044756598E-03    0.6959624417E+00    0.6579536639E+00    0.7390416879E-04
    0.7000000000E+07    0.7108471025E-04    0.5492376124E-04    0.6959612741E+00    0.6606814705E+00    0.7529931723E-04
    0.9000000000E+07    0.4320217591E-04    0.3387764622E-04    0.6959603544E+00    0.6621592126E+00    0.7635852046E-04
    0.1100000000E+08    0.2899114724E-04    0.2300276038E-04    0.6959595946E+00    0.6630848469E+00    0.7721496485E-04
    0.1300000000E+08    0.2078592691E-04    0.1665370777E-04    0.6959589465E+00    0.6637187469E+00    0.7793525813E-04
    0.1500000000E+08    0.1562583219E-04    0.1262352743E-04    0.6959583808E+00    0.6641799335E+00    0.7855761147E-04
    0.1700000000E+08    0.1217221430E-04    0.9904391513E-05    0.6959578784E+00    0.6645304779E+00    0.7910602536E-04
    0.1900000000E+08    0.9748372664E-05    0.7982507664E-05    0.6959574263E+00    0.6648059067E+00    0.7959658233E-04
    0.2100000000E+08    0.7982443437E-05    0.6573446935E-05    0.6959570150E+00    0.6650280149E+00    0.8004059648E-04
    0.2300000000E+08    0.6656360974E-05    0.5509323684E-05    0.6959566376E+00    0.6652109125E+00    0.8044633547E-04
    0.2500000000E+08    0.5635413641E-05    0.4685814786E-05    0.6959562888E+00    0.6653641368E+00    0.8082002794E-04
    0.2700000000E+08    0.4832751290E-05    0.4035302373E-05    0.6959559644E+00    0.6654943648E+00    0.8116648544E-04
