  Pressure (Pa) 22mC5-500 (mol/kg) 23mC5-500 (mol/kg) 24mC5-500 (mol/kg) 3mC6-500 (mol/kg) C7-500 (mol/kg)
    0.1000000000E+01    0.7969217496E-05    0.2860366523E-05    0.1950024652E+00    0.3061333739E-05    0.4146173528E-02
    0.3000000000E+01    0.1420199544E-04    0.5080388623E-05    0.3749144492E+00    0.7550533885E-05    0.4170837022E-02
    0.5000000000E+01    0.1676017161E-04    0.5986575940E-05    0.4597494127E+00    0.1161562845E-04    0.4177210765E-02
    0.7000000000E+01    0.1821723251E-04    0.6504064499E-05    0.5091227668E+00    0.1547865816E-04    0.4180178420E-02
    0.9000000000E+01    0.1925456619E-04    0.6875689843E-05    0.5414257095E+00    0.1921307022E-04    0.4181819783E-02
    0.1100000000E+02    0.2011164640E-04    0.7185976130E-05    0.5642064125E+00    0.2285524802E-04    0.4182794006E-02
    0.1300000000E+02    0.2088735235E-04    0.7469434160E-05    0.5811345080E+00    0.2642669986E-04    0.4183382705E-02
    0.1500000000E+02    0.2162685144E-04    0.7741615147E-05    0.5942086851E+00    0.2994152604E-04    0.4183727878E-02
    0.1700000000E+02    0.2235213974E-04    0.8009961953E-05    0.6046105580E+00    0.3340962759E-04    0.4183909284E-02
    0.1900000000E+02    0.2307432606E-04    0.8278145674E-05    0.6130834826E+00    0.3683830717E-04    0.4183975308E-02
    0.2100000000E+02    0.2379907962E-04    0.8547975248E-05    0.6201185019E+00    0.4023315410E-04    0.4183957045E-02
    0.2300000000E+02    0.2452923035E-04    0.8820301739E-05    0.6260530244E+00    0.4359857186E-04    0.4183875408E-02
    0.2500000000E+02    0.2526608216E-04    0.9095470934E-05    0.6311265506E+00    0.4693811122E-04    0.4183744984E-02
    0.2700000000E+02    0.2601010592E-04    0.9373559678E-05    0.6355137845E+00    0.5025469058E-04    0.4183576256E-02
    0.2900000000E+02    0.2676131761E-04    0.9654503210E-05    0.6393451586E+00    0.5355074716E-04    0.4183376951E-02
    0.3100000000E+02    0.2751948980E-04    0.9938165308E-05    0.6427200222E+00    0.5682834415E-04    0.4183152890E-02
    0.3300000000E+02    0.2828427194E-04    0.1022437740E-04    0.6457153795E+00    0.6008924862E-04    0.4182908536E-02
    0.3500000000E+02    0.2905525928E-04    0.1051296040E-04    0.6483918382E+00    0.6333498941E-04    0.4182647369E-02
    0.3700000000E+02    0.2983203228E-04    0.1080373677E-04    0.6507977522E+00    0.6656690109E-04    0.4182372140E-02
    0.3900000000E+02    0.3061417882E-04    0.1109653690E-04    0.6529721702E+00    0.6978615787E-04    0.4182085050E-02
    0.4100000000E+02    0.3140130610E-04    0.1139120226E-04    0.6549469709E+00    0.7299380010E-04    0.4181787882E-02
    0.4300000000E+02    0.3219304666E-04    0.1168758668E-04    0.6567484367E+00    0.7619075542E-04    0.4181482093E-02
    0.4500000000E+02    0.3298906070E-04    0.1198555651E-04    0.6583984298E+00    0.7937785563E-04    0.4181168883E-02
    0.4700000000E+02    0.3378903640E-04    0.1228499021E-04    0.6599152844E+00    0.8255585045E-04    0.4180849253E-02
    0.4900000000E+02    0.3459268899E-04    0.1258577764E-04    0.6613144904E+00    0.8572541885E-04    0.4180524039E-02
    0.1000000000E+02    0.1969761920E-04    0.7035692500E-05    0.5537222472E+00    0.2104411479E-04    0.4182367924E-02
    0.3000000000E+02    0.2713955366E-04    0.9796004534E-05    0.6410843981E+00    0.5519173648E-04    0.4183267710E-02
    0.5000000000E+02    0.3499581217E-04    0.1273664748E-04    0.6619741712E+00    0.8730723827E-04    0.4180359563E-02
    0.7000000000E+02    0.4320010484E-04    0.1580563133E-04    0.6713500339E+00    0.1186259710E-03    0.4176901051E-02
    0.9000000000E+02    0.5159059067E-04    0.1894155657E-04    0.6766747088E+00    0.1495670511E-03    0.4173281623E-02
    0.1100000000E+03    0.6010387630E-04    0.2212123923E-04    0.6801074362E+00    0.1803419152E-03    0.4169600324E-02
    0.1300000000E+03    0.6871414671E-04    0.2533552030E-04    0.6825044705E+00    0.2110781326E-03    0.4165889709E-02
    0.1500000000E+03    0.7741105014E-04    0.2858089167E-04    0.6842730972E+00    0.2418614660E-03    0.4162161311E-02
    0.1700000000E+03    0.8619121123E-04    0.3185634979E-04    0.6856317966E+00    0.2727540395E-03    0.4158418752E-02
    0.1900000000E+03    0.9505462509E-04    0.3516207889E-04    0.6867082870E+00    0.3038034300E-03    0.4154662367E-02
    0.2100000000E+03    0.1040029926E-03    0.3849885125E-04    0.6875822214E+00    0.3350477019E-03    0.4150891055E-02
    0.2300000000E+03    0.1130389023E-03    0.4186773641E-04    0.6883058546E+00    0.3665184114E-03    0.4147103092E-02
    0.2500000000E+03    0.1221654092E-03    0.4526995388E-04    0.6889148903E+00    0.3982425046E-03    0.4143296501E-02
    0.2700000000E+03    0.1313858122E-03    0.4870679651E-04    0.6894345534E+00    0.4302435747E-03    0.4139469231E-02
    0.2900000000E+03    0.1407035336E-03    0.5217959019E-04    0.6898831716E+00    0.4625427244E-03    0.4135619240E-02
    0.3100000000E+03    0.1501220545E-03    0.5568967307E-04    0.6902743818E+00    0.4951591793E-03    0.4131744537E-02
    0.3300000000E+03    0.1596448820E-03    0.5923838532E-04    0.6906185408E+00    0.5281107338E-03    0.4127843190E-02
    0.3500000000E+03    0.1692755324E-03    0.6282706484E-04    0.6909236553E+00    0.5614140843E-03    0.4123913336E-02
    0.3700000000E+03    0.1790175257E-03    0.6645704624E-04    0.6911960129E+00    0.5950850834E-03    0.4119953173E-02
    0.3900000000E+03    0.1888743850E-03    0.7012966168E-04    0.6914406199E+00    0.6291389371E-03    0.4115960956E-02
    0.4100000000E+03    0.1988496398E-03    0.7384624269E-04    0.6916615120E+00    0.6635903606E-03    0.4111934990E-02
    0.4300000000E+03    0.2089468305E-03    0.7760812254E-04    0.6918619783E+00    0.6984537040E-03    0.4107873625E-02
    0.4500000000E+03    0.2191695146E-03    0.8141663875E-04    0.6920447268E+00    0.7337430538E-03    0.4103775245E-02
    0.4700000000E+03    0.2295212722E-03    0.8527313580E-04    0.6922120068E+00    0.7694723181E-03    0.4099638265E-02
    0.4900000000E+03    0.2400057131E-03    0.8917896775E-04    0.6923657026E+00    0.8056552972E-03    0.4095461124E-02
    0.1000000000E+03    0.5583401628E-04    0.2052669168E-04    0.6785583979E+00    0.1649659923E-03    0.4171445915E-02
    0.3000000000E+03    0.1453999753E-03    0.5392988669E-04    0.6900852412E+00    0.4788101474E-03    0.4133685100E-02
    0.5000000000E+03    0.2452988273E-03    0.9115081070E-04    0.6924379632E+00    0.8239212280E-03    0.4093357009E-02
    0.7000000000E+03    0.3590511345E-03    0.1335235754E-03    0.6934511882E+00    0.1216472670E-02    0.4048791482E-02
    0.9000000000E+03    0.4907097715E-03    0.1825630139E-03    0.6940153510E+00    0.1671213370E-02    0.3998418108E-02
    0.1100000000E+04    0.6453302001E-03    0.2401544446E-03    0.6943748196E+00    0.2206015214E-02    0.3940458681E-02
    0.1300000000E+04    0.8295657426E-03    0.3087776719E-03    0.6946238812E+00    0.2844280904E-02    0.3872680911E-02
    0.1500000000E+04    0.1052447357E-02    0.3917981862E-03    0.6948066234E+00    0.3617774152E-02    0.3792140878E-02
    0.1700000000E+04    0.1326512924E-02    0.4938883004E-03    0.6949464182E+00    0.4570654478E-02    0.3694842772E-02
    0.1900000000E+04    0.1669486373E-02    0.6216532030E-03    0.6950568103E+00    0.5765478285E-02    0.3575260112E-02
    0.2100000000E+04    0.2106743298E-02    0.7845503329E-03    0.6951461908E+00    0.7292055765E-02    0.3425673142E-02
    0.2300000000E+04    0.2674699074E-02    0.9961531181E-03    0.6952200351E+00    0.9279746210E-02    0.3235344752E-02
    0.2500000000E+04    0.3424557848E-02    0.1275550467E-02    0.6952820687E+00    0.1191141875E-01    0.2989840950E-02
    0.2700000000E+04    0.4423222165E-02    0.1647690625E-02    0.6953349139E+00    0.1542816199E-01    0.2671712210E-02
    0.2900000000E+04    0.5740899023E-02    0.2138771100E-02    0.6953804703E+00    0.2008821544E-01    0.2265958192E-02
    0.3100000000E+04    0.7403970408E-02    0.2758685238E-02    0.6954201479E+00    0.2600372112E-01    0.1776199630E-02
    0.3300000000E+04    0.9307083387E-02    0.3468256408E-02    0.6954550148E+00    0.3282895359E-01    0.1249930790E-02
    0.3500000000E+04    0.1118027096E-01    0.4166940536E-02    0.6954858953E+00    0.3963061682E-01    0.7789136962E-03
    0.3700000000E+04    0.1275131053E-01    0.4753277132E-02    0.6955134357E+00    0.4544425709E-01    0.4392502870E-03
    0.3900000000E+04    0.1394138203E-01    0.5197821343E-02    0.6955381495E+00    0.4997006940E-01    0.2370515964E-03
    0.4100000000E+04    0.1483425189E-01    0.5531722841E-02    0.6955604502E+00    0.5348337536E-01    0.1315645714E-03
    0.4300000000E+04    0.1554338463E-01    0.5797229209E-02    0.6955806746E+00    0.5637361642E-01    0.8049923893E-04
    0.4500000000E+04    0.1614915303E-01    0.6024277816E-02    0.6955990994E+00    0.5892011698E-01    0.5668805478E-04
    0.4700000000E+04    0.1669689834E-01    0.6229760565E-02    0.6956159542E+00    0.6128146309E-01    0.4578297118E-04
    0.4900000000E+04    0.1720987218E-01    0.6422340319E-02    0.6956314313E+00    0.6353917335E-01    0.4083942625E-04
    0.1000000000E+04    0.5647792326E-03    0.2101516122E-03    0.6942130158E+00    0.1927302567E-02    0.3970512771E-02
    0.3000000000E+04    0.6531652273E-02    0.2433510280E-02    0.6954009705E+00    0.2289592287E-01    0.2029907933E-02
    0.5000000000E+04    0.1745718919E-01    0.6515233046E-02    0.6956387049E+00    0.6464269938E-01    0.3950938558E-04
    0.7000000000E+04    0.2168500046E-01    0.8107731556E-02    0.6957404701E+00    0.8505551025E-01    0.3732485199E-04
    0.9000000000E+04    0.2492315802E-01    0.9334690278E-02    0.6957969172E+00    0.1032815478E+00    0.3784988589E-04
    0.1100000000E+05    0.2742068380E-01    0.1028743371E-01    0.6958327746E+00    0.1197788628E+00    0.3827533532E-04
    0.1300000000E+05    0.2934784059E-01    0.1102843333E-01    0.6958575523E+00    0.1348563272E+00    0.3863301082E-04
    0.1500000000E+05    0.3082944960E-01    0.1160355338E-01    0.6958756870E+00    0.1487487332E+00    0.3894196849E-04
    0.1700000000E+05    0.3195877572E-01    0.1204711546E-01    0.6958895265E+00    0.1616380029E+00    0.3921416606E-04
    0.1900000000E+05    0.3280667120E-01    0.1238523556E-01    0.6959004297E+00    0.1736674743E+00    0.3945761042E-04
    0.2100000000E+05    0.3342775342E-01    0.1263808003E-01    0.6959092373E+00    0.1849517781E+00    0.3967793131E-04
    0.2300000000E+05    0.3386467268E-01    0.1282142515E-01    0.6959164974E+00    0.1955838175E+00    0.3987924084E-04
    0.2500000000E+05    0.3415111951E-01    0.1294775673E-01    0.6959225824E+00    0.2056397964E+00    0.4006463588E-04
    0.2700000000E+05    0.3431398163E-01    0.1302705949E-01    0.6959277544E+00    0.2151829062E+00    0.4023650805E-04
    0.2900000000E+05    0.3437491603E-01    0.1306739271E-01    0.6959322029E+00    0.2242660712E+00    0.4039674350E-04
    0.3100000000E+05    0.3435151147E-01    0.1307531633E-01    0.6959360685E+00    0.2329340227E+00    0.4054685652E-04
    0.3300000000E+05    0.3425815942E-01    0.1305621035E-01    0.6959394578E+00    0.2412248856E+00    0.4068808161E-04
    0.3500000000E+05    0.3410671458E-01    0.1301451736E-01    0.6959424526E+00    0.2491714072E+00    0.4082143867E-04
    0.3700000000E+05    0.3390700133E-01    0.1295392862E-01    0.6959451174E+00    0.2568019189E+00    0.4094778019E-04
    0.3900000000E+05    0.3366720601E-01    0.1287752829E-01    0.6959475032E+00    0.2641410964E+00    0.4106782615E-04
    0.4100000000E+05    0.3339418361E-01    0.1278790638E-01    0.6959496510E+00    0.2712105659E+00    0.4118219022E-04
    0.4300000000E+05    0.3309369970E-01    0.1268724784E-01    0.6959515943E+00    0.2780293924E+00    0.4129139979E-04
    0.4500000000E+05    0.3277062273E-01    0.1257740357E-01    0.6959533606E+00    0.2846144753E+00    0.4139591148E-04
    0.4700000000E+05    0.3242907815E-01    0.1245994724E-01    0.6959549726E+00    0.2909808715E+00    0.4149612332E-04
    0.4900000000E+05    0.3207257264E-01    0.1233622130E-01    0.6959564493E+00    0.2971420618E+00    0.4159238440E-04
    0.1000000000E+05    0.2625258718E-01    0.9840969999E-02    0.6958166469E+00    0.1117249432E+00    0.3807269750E-04
    0.3000000000E+05    0.3437279033E-01    0.1307504498E-01    0.6959342013E+00    0.2286494269E+00    0.4047298246E-04
    0.5000000000E+05    0.3188966143E-01    0.1227237283E-01    0.6959571420E+00    0.3001495414E+00    0.4163913105E-04
    0.7000000000E+05    0.2797393480E-01    0.1087076353E-01    0.6959667251E+00    0.3519244812E+00    0.4242541008E-04
    0.9000000000E+05    0.2422229355E-01    0.9492324477E-02    0.6959719076E+00    0.3919278372E+00    0.4302231419E-04
    0.1100000000E+06    0.2095682137E-01    0.8273716480E-02    0.6959751138E+00    0.4238916499E+00    0.4350493649E-04
    0.1300000000E+06    0.1819605003E-01    0.7231543306E-02    0.6959772690E+00    0.4499851950E+00    0.4391082519E-04
    0.1500000000E+06    0.1588156306E-01    0.6349676770E-02    0.6959788015E+00    0.4716257078E+00    0.4426151848E-04
    0.1700000000E+06    0.1394177366E-01    0.5604724800E-02    0.6959799364E+00    0.4898031189E+00    0.4457054361E-04
    0.1900000000E+06    0.1231063118E-01    0.4973977314E-02    0.6959808028E+00    0.5052378614E+00    0.4484696461E-04
    0.2100000000E+06    0.1093221390E-01    0.4437680927E-02    0.6959814800E+00    0.5184688510E+00    0.4509715782E-04
    0.2300000000E+06    0.9760748857E-02    0.3979376307E-02    0.6959820193E+00    0.5299074010E+00    0.4532578256E-04
    0.2500000000E+06    0.8759277738E-02    0.3585596984E-02    0.6959824554E+00    0.5398724439E+00    0.4553634893E-04
    0.2700000000E+06    0.7898088802E-02    0.3245402774E-02    0.6959828122E+00    0.5486145658E+00    0.4573156842E-04
    0.2900000000E+06    0.7153286722E-02    0.2949918252E-02    0.6959831073E+00    0.5563329220E+00    0.4591357993E-04
    0.3100000000E+06    0.6505597559E-02    0.2691930991E-02    0.6959833531E+00    0.5631874189E+00    0.4608410097E-04
    0.3300000000E+06    0.5939407698E-02    0.2465560080E-02    0.6959835594E+00    0.5693076451E+00    0.4624453193E-04
    0.3500000000E+06    0.5442004576E-02    0.2265989447E-02    0.6959837335E+00    0.5747995173E+00    0.4639602994E-04
    0.3700000000E+06    0.5002981398E-02    0.2089255878E-02    0.6959838809E+00    0.5797502894E+00    0.4653956232E-04
    0.3900000000E+06    0.4613771488E-02    0.1932081354E-02    0.6959840062E+00    0.5842323688E+00    0.4667594610E-04
    0.4100000000E+06    0.4267283691E-02    0.1791740557E-02    0.6959841129E+00    0.5883062551E+00    0.4680587773E-04
    0.4300000000E+06    0.3957616129E-02    0.1665956036E-02    0.6959842039E+00    0.5920228228E+00    0.4692995581E-04
    0.4500000000E+06    0.3679830592E-02    0.1552815006E-02    0.6959842815E+00    0.5954251101E+00    0.4704869865E-04
    0.4700000000E+06    0.3429773911E-02    0.1450703078E-02    0.6959843476E+00    0.5985497322E+00    0.4716255809E-04
    0.4900000000E+06    0.3203935849E-02    0.1358251244E-02    0.6959844039E+00    0.6014280054E+00    0.4727193041E-04
    0.1000000000E+06    0.2252449011E-01    0.8860712571E-02    0.6959736824E+00    0.4087557194E+00    0.4327504173E-04
    0.3000000000E+06    0.6818354876E-02    0.2816632810E-02    0.6959832357E+00    0.5598594302E+00    0.4600018278E-04
    0.5000000000E+06    0.3099149204E-02    0.1315276484E-02    0.6959844287E+00    0.6027833242E+00    0.4732504476E-04
    0.7000000000E+06    0.1746343946E-02    0.7550993735E-03    0.6959846367E+00    0.6218402206E+00    0.4821847646E-04
    0.9000000000E+06    0.1114951897E-02    0.4890067132E-03    0.6959845818E+00    0.6323808676E+00    0.4889677253E-04
    0.1100000000E+07    0.7717373068E-03    0.3423957172E-03    0.6959844369E+00    0.6390116405E+00    0.4944522480E-04
    0.1300000000E+07    0.5651356748E-03    0.2531670655E-03    0.6959842596E+00    0.6435473504E+00    0.4990648813E-04
    0.1500000000E+07    0.4313663112E-03    0.1948562066E-03    0.6959840726E+00    0.6468373082E+00    0.5030503242E-04
    0.1700000000E+07    0.3398903995E-03    0.1546606015E-03    0.6959838856E+00    0.6493290619E+00    0.5065622724E-04
    0.1900000000E+07    0.2746230673E-03    0.1257781693E-03    0.6959837030E+00    0.6512798236E+00    0.5097037154E-04
    0.2100000000E+07    0.2264478697E-03    0.1043244465E-03    0.6959835265E+00    0.6528475327E+00    0.5125471069E-04
    0.2300000000E+07    0.1898883760E-03    0.8795031453E-04    0.6959833570E+00    0.6541343622E+00    0.5151453914E-04
    0.2500000000E+07    0.1614954424E-03    0.7516736674E-04    0.6959831946E+00    0.6552092546E+00    0.5175384561E-04
    0.2700000000E+07    0.1390098397E-03    0.6499536546E-04    0.6959830390E+00    0.6561203743E+00    0.5197571132E-04
    0.2900000000E+07    0.1209020020E-03    0.5676734999E-04    0.6959828900E+00    0.6569023655E+00    0.5218256685E-04
    0.3100000000E+07    0.1061066932E-03    0.5001669279E-04    0.6959827472E+00    0.6575807729E+00    0.5237636400E-04
    0.3300000000E+07    0.9386370950E-04    0.4440896520E-04    0.6959826102E+00    0.6581748380E+00    0.5255869418E-04
    0.3500000000E+07    0.8361883952E-04    0.3969938849E-04    0.6959824786E+00    0.6586993263E+00    0.5273087236E-04
    0.3700000000E+07    0.7496038615E-04    0.3570545019E-04    0.6959823521E+00    0.6591657542E+00    0.5289399782E-04
    0.3900000000E+07    0.6757737835E-04    0.3228880772E-04    0.6959822303E+00    0.6595832349E+00    0.5304899908E-04
    0.4100000000E+07    0.6123140245E-04    0.2934304593E-04    0.6959821129E+00    0.6599590729E+00    0.5319666760E-04
    0.4300000000E+07    0.5573720850E-04    0.2678521964E-04    0.6959819996E+00    0.6602991905E+00    0.5333768367E-04
    0.4500000000E+07    0.5094910256E-04    0.2454990026E-04    0.6959818901E+00    0.6606084400E+00    0.5347263631E-04
    0.4700000000E+07    0.4675123370E-04    0.2258491350E-04    0.6959817843E+00    0.6608908341E+00    0.5360203902E-04
    0.4900000000E+07    0.4305055256E-04    0.2084824034E-04    0.6959816818E+00    0.6611497199E+00    0.5372634216E-04
    0.1000000000E+07    0.9199648956E-03    0.4059282196E-03    0.6959845157E+00    0.6360378199E+00    0.4918397024E-04
    0.3000000000E+07    0.1131435642E-03    0.5323076011E-04    0.6959828179E+00    0.6572531919E+00    0.5228099093E-04
    0.5000000000E+07    0.4136251118E-04    0.2005459228E-04    0.6959816318E+00    0.6612712444E+00    0.5378670738E-04
    0.7000000000E+07    0.2120950680E-04    0.1048834306E-04    0.6959807671E+00    0.6629621584E+00    0.5480210795E-04
    0.9000000000E+07    0.1285790396E-04    0.6451909976E-05    0.6959800866E+00    0.6638928893E+00    0.5557300555E-04
    0.1100000000E+08    0.8616769194E-05    0.4373871488E-05    0.6959795245E+00    0.6644818391E+00    0.5619633389E-04
    0.1300000000E+08    0.6173607792E-05    0.3163492595E-05    0.6959790450E+00    0.6648880250E+00    0.5672057045E-04
    0.1500000000E+08    0.4639533822E-05    0.2396418320E-05    0.6959786264E+00    0.6651850794E+00    0.5717352557E-04
    0.1700000000E+08    0.3613915117E-05    0.1879481969E-05    0.6959782546E+00    0.6654117697E+00    0.5757266697E-04
    0.1900000000E+08    0.2894684281E-05    0.1514431644E-05    0.6959779198E+00    0.6655904471E+00    0.5792969961E-04
    0.2100000000E+08    0.2370987347E-05    0.1246969595E-05    0.6959776153E+00    0.6657349037E+00    0.5825285799E-04
    0.2300000000E+08    0.1977902979E-05    0.1045089073E-05    0.6959773357E+00    0.6658541111E+00    0.5854815938E-04
    0.2500000000E+08    0.1675367139E-05    0.8889225023E-06    0.6959770773E+00    0.6659541570E+00    0.5882013702E-04
    0.2700000000E+08    0.1437571790E-05    0.7656037786E-06    0.6959768368E+00    0.6660393178E+00    0.5907229279E-04
