  Pressure (Pa) 22mC5-500 (mol/kg) 23mC5-500 (mol/kg) 24mC5-500 (mol/kg) 3mC6-500 (mol/kg) C7-500 (mol/kg)
    0.1000000000E+01    0.8464346522E-05    0.6072249627E-06    0.1513961181E+00    0.1441179446E-05    0.4226623160E-02
    0.3000000000E+01    0.1646808332E-04    0.1177521492E-05    0.3164570574E+00    0.3733834208E-05    0.4298208291E-02
    0.5000000000E+01    0.2007950469E-04    0.1432727009E-05    0.4047035251E+00    0.5851498340E-05    0.4336722385E-02
    0.7000000000E+01    0.2205715419E-04    0.1571725890E-05    0.4596347620E+00    0.7882856958E-05    0.4361229314E-02
    0.9000000000E+01    0.2330649777E-04    0.1659427428E-05    0.4971210662E+00    0.9858162420E-05    0.4378344152E-02
    0.1100000000E+02    0.2419517322E-04    0.1722022840E-05    0.5243338745E+00    0.1179265180E-04    0.4391054167E-02
    0.1300000000E+02    0.2489360350E-04    0.1771570364E-05    0.5449875332E+00    0.1369543836E-04    0.4400915464E-02
    0.1500000000E+02    0.2548823639E-04    0.1814139620E-05    0.5611984199E+00    0.1557255078E-04    0.4408821474E-02
    0.1700000000E+02    0.2602581694E-04    0.1852983730E-05    0.5742608329E+00    0.1742825370E-04    0.4415323184E-02
    0.1900000000E+02    0.2653281116E-04    0.1889925451E-05    0.5850108185E+00    0.1926571224E-04    0.4420779618E-02
    0.2100000000E+02    0.2702469788E-04    0.1926017452E-05    0.5940124873E+00    0.2108736207E-04    0.4425435187E-02
    0.2300000000E+02    0.2751072321E-04    0.1961878622E-05    0.6016602635E+00    0.2289513123E-04    0.4429462324E-02
    0.2500000000E+02    0.2799646762E-04    0.1997874762E-05    0.6082382253E+00    0.2469058100E-04    0.4432986340E-02
    0.2700000000E+02    0.2848529381E-04    0.2034219957E-05    0.6139561714E+00    0.2647499951E-04    0.4436100617E-02
    0.2900000000E+02    0.2897919313E-04    0.2071035490E-05    0.6189724087E+00    0.2824946625E-04    0.4438876254E-02
    0.3100000000E+02    0.2947929537E-04    0.2108385102E-05    0.6234086368E+00    0.3001489792E-04    0.4441368397E-02
    0.3300000000E+02    0.2998618347E-04    0.2146296591E-05    0.6273599510E+00    0.3177208194E-04    0.4443620524E-02
    0.3500000000E+02    0.3050009173E-04    0.2184775317E-05    0.6309017356E+00    0.3352170139E-04    0.4445667405E-02
    0.3700000000E+02    0.3102103282E-04    0.2223812765E-05    0.6340945190E+00    0.3526435403E-04    0.4447537205E-02
    0.3900000000E+02    0.3154888016E-04    0.2263392042E-05    0.6369874617E+00    0.3700056699E-04    0.4449253001E-02
    0.4100000000E+02    0.3208342188E-04    0.2303491428E-05    0.6396209052E+00    0.3873080831E-04    0.4450833894E-02
    0.4300000000E+02    0.3262439642E-04    0.2344086687E-05    0.6420282650E+00    0.4045549614E-04    0.4452295843E-02
    0.4500000000E+02    0.3317151606E-04    0.2385152556E-05    0.6442374554E+00    0.4217500610E-04    0.4453652294E-02
    0.4700000000E+02    0.3372448236E-04    0.2426663705E-05    0.6462719769E+00    0.4388967735E-04    0.4454914665E-02
    0.4900000000E+02    0.3428299637E-04    0.2468595344E-05    0.6481517558E+00    0.4559981751E-04    0.4456092716E-02
    0.1000000000E+02    0.2378249099E-04    0.1692911383E-05    0.5117282843E+00    0.1082984441E-04    0.4385131292E-02
    0.3000000000E+02    0.2922842239E-04    0.2089641145E-05    0.6212565497E+00    0.2913325955E-04    0.4440154811E-02
    0.5000000000E+02    0.3456424185E-04    0.2489711341E-05    0.6490390303E+00    0.4645327696E-04    0.4456652794E-02
    0.7000000000E+02    0.4041602815E-04    0.2928974140E-05    0.6617205034E+00    0.6334132298E-04    0.4464962878E-02
    0.9000000000E+02    0.4657206548E-04    0.3390643773E-05    0.6689816640E+00    0.7998828627E-04    0.4469972936E-02
    0.1100000000E+03    0.5291680126E-04    0.3866003578E-05    0.6736855327E+00    0.9649111005E-04    0.4473257787E-02
    0.1300000000E+03    0.5938964888E-04    0.4350574670E-05    0.6769806771E+00    0.1129082237E-03    0.4475499344E-02
    0.1500000000E+03    0.6595705879E-04    0.4841911322E-05    0.6794174269E+00    0.1292786191E-03    0.4477047943E-02
    0.1700000000E+03    0.7259949589E-04    0.5338606700E-05    0.6812924921E+00    0.1456301705E-03    0.4478105027E-02
    0.1900000000E+03    0.7930515705E-04    0.5839821171E-05    0.6827799689E+00    0.1619838318E-03    0.4478796094E-02
    0.2100000000E+03    0.8606674285E-04    0.6345042609E-05    0.6839887449E+00    0.1783559753E-03    0.4479204149E-02
    0.2300000000E+03    0.9287969778E-04    0.6853956860E-05    0.6849904152E+00    0.1947597964E-03    0.4479386710E-02
    0.2500000000E+03    0.9974120140E-04    0.7366374015E-05    0.6858339880E+00    0.2112062041E-03    0.4479385141E-02
    0.2700000000E+03    0.1066495646E-03    0.7882184573E-05    0.6865541405E+00    0.2277044137E-03    0.4479230099E-02
    0.2900000000E+03    0.1136038552E-03    0.8401332426E-05    0.6871761001E+00    0.2442623545E-03    0.4478944885E-02
    0.3100000000E+03    0.1206036587E-03    0.8923797676E-05    0.6877186581E+00    0.2608869598E-03    0.4478547590E-02
    0.3300000000E+03    0.1276489209E-03    0.9449585435E-05    0.6881960991E+00    0.2775843784E-03    0.4478052512E-02
    0.3500000000E+03    0.1347398427E-03    0.9978718341E-05    0.6886194752E+00    0.2943601324E-03    0.4477471130E-02
    0.3700000000E+03    0.1418768080E-03    0.1051123149E-04    0.6889974720E+00    0.3112192366E-03    0.4476812782E-02
    0.3900000000E+03    0.1490603335E-03    0.1104716891E-04    0.6893370091E+00    0.3281662917E-03    0.4476085157E-02
    0.4100000000E+03    0.1562910337E-03    0.1158658114E-04    0.6896436678E+00    0.3452055567E-03    0.4475294651E-02
    0.4300000000E+03    0.1635695955E-03    0.1212952345E-04    0.6899219993E+00    0.3623410070E-03    0.4474446634E-02
    0.4500000000E+03    0.1708967602E-03    0.1267605464E-04    0.6901757520E+00    0.3795763809E-03    0.4473545647E-02
    0.4700000000E+03    0.1782733103E-03    0.1322623615E-04    0.6904080411E+00    0.3969152178E-03    0.4472595564E-02
    0.4900000000E+03    0.1857000603E-03    0.1378013138E-04    0.6906214767E+00    0.4143608890E-03    0.4471599707E-02
    0.1000000000E+03    0.4972549253E-04    0.3626957415E-05    0.6715606859E+00    0.8825346451E-04    0.4471777104E-02
    0.3000000000E+03    0.1170980783E-03    0.8662150541E-05    0.6874563233E+00    0.2525659234E-03    0.4478759279E-02
    0.5000000000E+03    0.1894325216E-03    0.1405849189E-04    0.6907218267E+00    0.4231248017E-03    0.4471085523E-02
    0.7000000000E+03    0.2669318609E-03    0.1983712536E-04    0.6921288776E+00    0.6047468769E-03    0.4458921861E-02
    0.9000000000E+03    0.3505002740E-03    0.2606691238E-04    0.6929119173E+00    0.8002919449E-03    0.4443907705E-02
    0.1100000000E+04    0.4411454935E-03    0.3282352873E-04    0.6934103960E+00    0.1012372384E-02    0.4426492523E-02
    0.1300000000E+04    0.5399962674E-03    0.4019138317E-04    0.6937553919E+00    0.1243756088E-02    0.4406754118E-02
    0.1500000000E+04    0.6483496494E-03    0.4826731460E-04    0.6940082155E+00    0.1497564145E-02    0.4384596515E-02
    0.1700000000E+04    0.7677248436E-03    0.5716466914E-04    0.6942013718E+00    0.1777426865E-02    0.4359812026E-02
    0.1900000000E+04    0.8999264287E-03    0.6701804141E-04    0.6943536968E+00    0.2087645721E-02    0.4332099826E-02
    0.2100000000E+04    0.1047122197E-02    0.7798909224E-04    0.6944768580E+00    0.2433384582E-02    0.4301065853E-02
    0.2300000000E+04    0.1211941904E-02    0.9027391984E-04    0.6945784673E+00    0.2820908910E-02    0.4266211816E-02
    0.2500000000E+04    0.1397604842E-02    0.1041125782E-03    0.6946637019E+00    0.3257893466E-02    0.4226915488E-02
    0.2700000000E+04    0.1608086593E-02    0.1198015167E-03    0.6947362053E+00    0.3753824235E-02    0.4182402070E-02
    0.2900000000E+04    0.1848338708E-02    0.1377099666E-03    0.6947986161E+00    0.4320528379E-02    0.4131705101E-02
    0.3100000000E+04    0.2124579339E-02    0.1583016216E-03    0.6948528915E+00    0.4972876642E-02    0.4073614357E-02
    0.3300000000E+04    0.2444677898E-02    0.1821633339E-03    0.6949005142E+00    0.5729715300E-02    0.4006607454E-02
    0.3500000000E+04    0.2818661118E-02    0.2100428706E-03    0.6949426278E+00    0.6615096390E-02    0.3928761534E-02
    0.3700000000E+04    0.3259367969E-02    0.2428977828E-03    0.6949801284E+00    0.7659877268E-02    0.3837642467E-02
    0.3900000000E+04    0.3783267101E-02    0.2819564167E-03    0.6950137281E+00    0.8903731199E-02    0.3730173423E-02
    0.4100000000E+04    0.4411400537E-02    0.3287883736E-03    0.6950439998E+00    0.1039749699E-01    0.3602497180E-02
    0.4300000000E+04    0.5170282242E-02    0.3853716642E-03    0.6950714099E+00    0.1220548108E-01    0.3449876811E-02
    0.4500000000E+04    0.6092263790E-02    0.4541202128E-03    0.6950963415E+00    0.1440657830E-01    0.3266745159E-02
    0.4700000000E+04    0.7214229709E-02    0.5377869298E-03    0.6951191125E+00    0.1709152667E-01    0.3047139645E-02
    0.4900000000E+04    0.8572395559E-02    0.6390762910E-03    0.6951399888E+00    0.2035097327E-01    0.2785951653E-02
    0.1000000000E+04    0.3948710941E-03    0.2937433777E-04    0.6931860843E+00    0.9040985967E-03    0.4435490062E-02
    0.3000000000E+04    0.1981512588E-02    0.1476369946E-03    0.6948266688E+00    0.4634925060E-02    0.4103670855E-02
    0.5000000000E+04    0.9348330946E-02    0.6969484507E-03    0.6951497879E+00    0.2221773457E-01    0.2639014524E-02
    0.7000000000E+04    0.2422412924E-01    0.1807963427E-02    0.6952858427E+00    0.5960519083E-01    0.4600430327E-03
    0.9000000000E+04    0.2891800186E-01    0.2161011258E-02    0.6953600354E+00    0.7407758760E-01    0.4160891821E-03
    0.1100000000E+05    0.3258447241E-01    0.2437995180E-02    0.6954063441E+00    0.8678452515E-01    0.4205181856E-03
    0.1300000000E+05    0.3564071101E-01    0.2669857577E-02    0.6954377680E+00    0.9856898524E-01    0.4244476735E-03
    0.1500000000E+05    0.3819595919E-01    0.2864612209E-02    0.6954603404E+00    0.1095643420E+00    0.4278427543E-03
    0.1700000000E+05    0.4033517206E-01    0.3028495312E-02    0.6954772372E+00    0.1198752242E+00    0.4308335908E-03
    0.1900000000E+05    0.4212618888E-01    0.3166491556E-02    0.6954902867E+00    0.1295872956E+00    0.4335082843E-03
    0.2100000000E+05    0.4362375250E-01    0.3282627402E-02    0.6955006140E+00    0.1387714352E+00    0.4359287715E-03
    0.2300000000E+05    0.4487245429E-01    0.3380186109E-02    0.6955089484E+00    0.1474868382E+00    0.4381402831E-03
    0.2500000000E+05    0.4590892818E-01    0.3461867983E-02    0.6955157832E+00    0.1557833654E+00    0.4401768772E-03
    0.2700000000E+05    0.4676350628E-01    0.3529911360E-02    0.6955214630E+00    0.1637033441E+00    0.4420648522E-03
    0.2900000000E+05    0.4746148303E-01    0.3586185019E-02    0.6955262360E+00    0.1712829663E+00    0.4438249462E-03
    0.3100000000E+05    0.4802409070E-01    0.3632259537E-02    0.6955302853E+00    0.1785533848E+00    0.4454738067E-03
    0.3300000000E+05    0.4846925992E-01    0.3669462934E-02    0.6955337485E+00    0.1855415803E+00    0.4470250045E-03
    0.3500000000E+05    0.4881221778E-01    0.3698924469E-02    0.6955367312E+00    0.1922710554E+00    0.4484897502E-03
    0.3700000000E+05    0.4906596249E-01    0.3721609401E-02    0.6955393157E+00    0.1987623928E+00    0.4498774139E-03
    0.3900000000E+05    0.4924164287E-01    0.3738346810E-02    0.6955415668E+00    0.2050337087E+00    0.4511959087E-03
    0.4100000000E+05    0.4934886405E-01    0.3749852009E-02    0.6955435365E+00    0.2111010240E+00    0.4524519788E-03
    0.4300000000E+05    0.4939593554E-01    0.3756744746E-02    0.6955452668E+00    0.2169785690E+00    0.4536514201E-03
    0.4500000000E+05    0.4939007369E-01    0.3759564064E-02    0.6955467918E+00    0.2226790368E+00    0.4547992505E-03
    0.4700000000E+05    0.4933756801E-01    0.3758780525E-02    0.6955481400E+00    0.2282137942E+00    0.4558998438E-03
    0.4900000000E+05    0.4924391856E-01    0.3754806301E-02    0.6955493346E+00    0.2335930581E+00    0.4569570359E-03
    0.1000000000E+05    0.3083582315E-01    0.2305753008E-02    0.6953856175E+00    0.8055687163E-01    0.4183081761E-03
    0.3000000000E+05    0.4775851765E-01    0.3610409048E-02    0.6955283416E+00    0.1749550508E+00    0.4446623699E-03
    0.5000000000E+05    0.4918319632E-01    0.3751737616E-02    0.6955498807E+00    0.2362272956E+00    0.4574704294E-03
    0.7000000000E+05    0.4671119840E-01    0.3590842199E-02    0.6955561712E+00    0.2825750329E+00    0.4661053776E-03
    0.9000000000E+05    0.4317429081E-01    0.3341664276E-02    0.6955580197E+00    0.3200146640E+00    0.4726602452E-03
    0.1100000000E+06    0.3948381010E-01    0.3074783585E-02    0.6955581378E+00    0.3513043787E+00    0.4779599504E-03
    0.1300000000E+06    0.3596603464E-01    0.2816456172E-02    0.6955574801E+00    0.3779869955E+00    0.4824169295E-03
    0.1500000000E+06    0.3273381154E-01    0.2576453076E-02    0.6955564508E+00    0.4010468202E+00    0.4862677470E-03
    0.1700000000E+06    0.2981410436E-01    0.2357733985E-02    0.6955552424E+00    0.4211699679E+00    0.4896609726E-03
    0.1900000000E+06    0.2719809155E-01    0.2160306426E-02    0.6955539534E+00    0.4388641242E+00    0.4926961532E-03
    0.2100000000E+06    0.2486263093E-01    0.1982912518E-02    0.6955526372E+00    0.4545204807E+00    0.4954433161E-03
    0.2300000000E+06    0.2277992623E-01    0.1823809075E-02    0.6955513233E+00    0.4684490104E+00    0.4979536302E-03
    0.2500000000E+06    0.2092194305E-01    0.1681137763E-02    0.6955500283E+00    0.4809002464E+00    0.5002656435E-03
    0.2700000000E+06    0.1926236308E-01    0.1553099201E-02    0.6955487614E+00    0.4920796472E+00    0.5024091328E-03
    0.2900000000E+06    0.1777734845E-01    0.1438029821E-02    0.6955475276E+00    0.5021575895E+00    0.5044075866E-03
    0.3100000000E+06    0.1644572706E-01    0.1334429700E-02    0.6955463290E+00    0.5112766137E+00    0.5062798657E-03
    0.3300000000E+06    0.1524890253E-01    0.1240965792E-02    0.6955451663E+00    0.5195568475E+00    0.5080413486E-03
    0.3500000000E+06    0.1417064301E-01    0.1156463292E-02    0.6955440393E+00    0.5271001661E+00    0.5097047420E-03
    0.3700000000E+06    0.1319682729E-01    0.1079891811E-02    0.6955429472E+00    0.5339934432E+00    0.5112806680E-03
    0.3900000000E+06    0.1231518780E-01    0.1010349892E-02    0.6955418888E+00    0.5403111287E+00    0.5127780986E-03
    0.4100000000E+06    0.1151506912E-01    0.9470496752E-03    0.6955408627E+00    0.5461173170E+00    0.5142046817E-03
    0.4300000000E+06    0.1078720991E-01    0.8893025733E-03    0.6955398677E+00    0.5514674202E+00    0.5155669905E-03
    0.4500000000E+06    0.1012355059E-01    0.8365063392E-03    0.6955389022E+00    0.5564095353E+00    0.5168707164E-03
    0.4700000000E+06    0.9517065988E-02    0.7881336115E-03    0.6955379649E+00    0.5609855657E+00    0.5181208209E-03
    0.4900000000E+06    0.8961620938E-02    0.7437218969E-03    0.6955370543E+00    0.5652321486E+00    0.5193216558E-03
    0.1000000000E+06    0.4132040907E-01    0.3208225123E-02    0.6955582157E+00    0.3363140536E+00    0.4754354805E-03
    0.3000000000E+06    0.1709358411E-01    0.1384883266E-02    0.6955469238E+00    0.5068289870E+00    0.5053584660E-03
    0.5000000000E+06    0.8701333521E-02    0.7228724634E-03    0.6955366087E+00    0.5672420988E+00    0.5199048144E-03
    0.7000000000E+06    0.5177585603E-02    0.4378556164E-03    0.6955288192E+00    0.5961691300E+00    0.5297139367E-03
    0.9000000000E+06    0.3410138490E-02    0.2923847769E-03    0.6955226084E+00    0.6126339521E+00    0.5371608863E-03
    0.1100000000E+07    0.2407800058E-02    0.2087734933E-03    0.6955174464E+00    0.6231092023E+00    0.5431821912E-03
    0.1300000000E+07    0.1787538748E-02    0.1564659319E-03    0.6955130277E+00    0.6303035419E+00    0.5482462041E-03
    0.1500000000E+07    0.1378105109E-02    0.1216182762E-03    0.6955091628E+00    0.6355255557E+00    0.5526216013E-03
    0.1700000000E+07    0.1094113563E-02    0.9725375295E-04    0.6955057262E+00    0.6394771293E+00    0.5564771365E-03
    0.1900000000E+07    0.8892729793E-03    0.7955585810E-04    0.6955026307E+00    0.6425657384E+00    0.5599258886E-03
    0.2100000000E+07    0.7367741720E-03    0.6629709786E-04    0.6954998136E+00    0.6450430219E+00    0.5630474080E-03
    0.2300000000E+07    0.6202407662E-03    0.5610749174E-04    0.6954972278E+00    0.6470722672E+00    0.5658998250E-03
    0.2500000000E+07    0.5292204109E-03    0.4810728646E-04    0.6954948375E+00    0.6487638095E+00    0.5685269330E-03
    0.2700000000E+07    0.4567920595E-03    0.4171072588E-04    0.6954926145E+00    0.6501947595E+00    0.5709625617E-03
    0.2900000000E+07    0.3982276212E-03    0.3651562883E-04    0.6954905365E+00    0.6514205646E+00    0.5732333969E-03
    0.3100000000E+07    0.3502092667E-03    0.3223846009E-04    0.6954885852E+00    0.6524820781E+00    0.5753608678E-03
    0.3300000000E+07    0.3103538699E-03    0.2867468386E-04    0.6954867457E+00    0.6534100415E+00    0.5773624465E-03
    0.3500000000E+07    0.2769143335E-03    0.2567374992E-04    0.6954850056E+00    0.6542280163E+00    0.5792525703E-03
    0.3700000000E+07    0.2485864904E-03    0.2312285314E-04    0.6954833544E+00    0.6549543561E+00    0.5810433083E-03
    0.3900000000E+07    0.2243810274E-03    0.2093611923E-04    0.6954817833E+00    0.6556035642E+00    0.5827448543E-03
    0.4100000000E+07    0.2035365816E-03    0.1904723978E-04    0.6954802846E+00    0.6561872497E+00    0.5843658981E-03
    0.4300000000E+07    0.1854595620E-03    0.1740435451E-04    0.6954788519E+00    0.6567148121E+00    0.5859139082E-03
    0.4500000000E+07    0.1696817068E-03    0.1596643002E-04    0.6954774793E+00    0.6571939417E+00    0.5873953516E-03
    0.4700000000E+07    0.1558296490E-03    0.1470065499E-04    0.6954761620E+00    0.6576309900E+00    0.5888158656E-03
    0.4900000000E+07    0.1436027615E-03    0.1358053843E-04    0.6954748956E+00    0.6580312480E+00    0.5901803950E-03
    0.1000000000E+07    0.2844713824E-02    0.2453408533E-03    0.6955199189E+00    0.6184028971E+00    0.5403139613E-03
    0.3000000000E+07    0.3730668895E-03    0.3427659171E-04    0.6954895460E+00    0.6519697396E+00    0.5743138804E-03
    0.5000000000E+07    0.1380205862E-03    0.1306819777E-04    0.6954742801E+00    0.6582189973E+00    0.5908430486E-03
    0.7000000000E+07    0.7110998601E-04    0.6867885539E-05    0.6954638970E+00    0.6608216884E+00    0.6019893599E-03
    0.9000000000E+07    0.4321161593E-04    0.4235623129E-05    0.6954559818E+00    0.6622459361E+00    0.6104515067E-03
    0.1100000000E+08    0.2899541869E-04    0.2875766476E-05    0.6954495661E+00    0.6631438262E+00    0.6172936632E-03
    0.1300000000E+08    0.2078811946E-04    0.2081933094E-05    0.6954441615E+00    0.6637614899E+00    0.6230480241E-03
    0.1500000000E+08    0.1562706091E-04    0.1578066047E-05    0.6954394863E+00    0.6642123535E+00    0.6280198917E-03
    0.1700000000E+08    0.1217294768E-04    0.1238125049E-05    0.6954353628E+00    0.6645559247E+00    0.6324010248E-03
    0.1900000000E+08    0.9748830829E-05    0.9978621096E-06    0.6954316717E+00    0.6648264206E+00    0.6363199179E-03
    0.2100000000E+08    0.7982739056E-05    0.8217131706E-06    0.6954283288E+00    0.6650449095E+00    0.6398669667E-03
    0.2300000000E+08    0.6656555771E-05    0.6886875439E-06    0.6954252726E+00    0.6652250726E+00    0.6431082262E-03
    0.2500000000E+08    0.5635543347E-05    0.5857422804E-06    0.6954224567E+00    0.6653761796E+00    0.6460934603E-03
    0.2700000000E+08    0.4832837556E-05    0.5044237529E-06    0.6954198450E+00    0.6655047346E+00    0.6488611106E-03
