  Pressure (Pa) 22mC5-500 (mol/kg) 23mC5-500 (mol/kg) 24mC5-500 (mol/kg) 3mC6-500 (mol/kg) C7-500 (mol/kg)
    0.1000000000E+01    0.8224795854E-05    0.4131931167E-05    0.1741113807E+00    0.8975036409E-06    0.4168470499E-02
    0.3000000000E+01    0.1526271776E-04    0.7641865969E-05    0.3481359370E+00    0.2255895101E-05    0.4192819396E-02
    0.5000000000E+01    0.1826391162E-04    0.9127905652E-05    0.4351165805E+00    0.3494508620E-05    0.4202311834E-02
    0.7000000000E+01    0.1992470755E-04    0.9948976922E-05    0.4872952989E+00    0.4674994949E-05    0.4207742170E-02
    0.9000000000E+01    0.2103460811E-04    0.1050014410E-04    0.5220772887E+00    0.5818004425E-05    0.4211297233E-02
    0.1100000000E+02    0.2189044258E-04    0.1092877744E-04    0.5469198004E+00    0.6933837640E-05    0.4213809626E-02
    0.1300000000E+02    0.2262169017E-04    0.1129859338E-04    0.5655507773E+00    0.8028614307E-05    0.4215676503E-02
    0.1500000000E+02    0.2329059366E-04    0.1163990727E-04    0.5800410354E+00    0.9106362243E-05    0.4217113680E-02
    0.1700000000E+02    0.2392910892E-04    0.1196809140E-04    0.5916329484E+00    0.1016991904E-04    0.4218249271E-02
    0.1900000000E+02    0.2455437661E-04    0.1229126406E-04    0.6011170618E+00    0.1122138356E-04    0.4219164426E-02
    0.2100000000E+02    0.2517583202E-04    0.1261380347E-04    0.6090203769E+00    0.1226236620E-04    0.4219913190E-02
    0.2300000000E+02    0.2579871356E-04    0.1293807125E-04    0.6157077246E+00    0.1329413853E-04    0.4220533025E-02
    0.2500000000E+02    0.2642589357E-04    0.1326530577E-04    0.6214396890E+00    0.1431772790E-04    0.4221050762E-02
    0.2700000000E+02    0.2705887721E-04    0.1359610594E-04    0.6264073597E+00    0.1533398022E-04    0.4221486151E-02
    0.2900000000E+02    0.2769836726E-04    0.1393070244E-04    0.6307540503E+00    0.1634360311E-04    0.4221854067E-02
    0.3100000000E+02    0.2834459270E-04    0.1426911392E-04    0.6345893512E+00    0.1734719647E-04    0.4222165947E-02
    0.3300000000E+02    0.2899750422E-04    0.1461123895E-04    0.6379984982E+00    0.1834527481E-04    0.4222430728E-02
    0.3500000000E+02    0.2965689245E-04    0.1495691075E-04    0.6410487813E+00    0.1933828382E-04    0.4222655509E-02
    0.3700000000E+02    0.3032246035E-04    0.1530593023E-04    0.6437940323E+00    0.2032661303E-04    0.4222846001E-02
    0.3900000000E+02    0.3099386770E-04    0.1565808575E-04    0.6462778284E+00    0.2131060550E-04    0.4223006852E-02
    0.4100000000E+02    0.3167075846E-04    0.1601316498E-04    0.6485358237E+00    0.2229056549E-04    0.4223141892E-02
    0.4300000000E+02    0.3235277736E-04    0.1637096177E-04    0.6505974712E+00    0.2326676451E-04    0.4223254300E-02
    0.4500000000E+02    0.3303957984E-04    0.1673128000E-04    0.6524873148E+00    0.2423944622E-04    0.4223346744E-02
    0.4700000000E+02    0.3373083758E-04    0.1709393548E-04    0.6542259715E+00    0.2520883042E-04    0.4223421478E-02
    0.4900000000E+02    0.3442624144E-04    0.1745875674E-04    0.6558308860E+00    0.2617511624E-04    0.4223480420E-02
    0.1000000000E+02    0.2148392603E-04    0.1072466735E-04    0.5354542025E+00    0.6378870923E-05    0.4212652962E-02
    0.3000000000E+02    0.2802063628E-04    0.1409943561E-04    0.6327298129E+00    0.1684611954E-04    0.4222016403E-02
    0.5000000000E+02    0.3477540711E-04    0.1764192944E-04    0.6565879215E+00    0.2665715453E-04    0.4223504492E-02
    0.7000000000E+02    0.4191700030E-04    0.2138687059E-04    0.6673731308E+00    0.3617189176E-04    0.4223455160E-02
    0.9000000000E+02    0.4925449710E-04    0.2523106182E-04    0.6735196076E+00    0.4551341855E-04    0.4222816125E-02
    0.1100000000E+03    0.5670086563E-04    0.2912924383E-04    0.6774903801E+00    0.5474376896E-04    0.4221881538E-02
    0.1300000000E+03    0.6421513329E-04    0.3306056612E-04    0.6802669560E+00    0.6390008365E-04    0.4220774810E-02
    0.1500000000E+03    0.7177684487E-04    0.3701482352E-04    0.6823176398E+00    0.7300698380E-04    0.4219557443E-02
    0.1700000000E+03    0.7937544314E-04    0.4098687112E-04    0.6838941808E+00    0.8208194707E-04    0.4218263733E-02
    0.1900000000E+03    0.8700548655E-04    0.4497414587E-04    0.6851439778E+00    0.9113801138E-04    0.4216914382E-02
    0.2100000000E+03    0.9466432164E-04    0.4897547399E-04    0.6861590694E+00    0.1001852786E-03    0.4215522644E-02
    0.2300000000E+03    0.1023508752E-03    0.5299045815E-04    0.6869998934E+00    0.1092318150E-03    0.4214097395E-02
    0.2500000000E+03    0.1100649944E-03    0.5701914588E-04    0.6877077772E+00    0.1182842222E-03    0.4212644792E-02
    0.2700000000E+03    0.1178070708E-03    0.6106184259E-04    0.6883119378E+00    0.1273480160E-03    0.4211169232E-02
    0.2900000000E+03    0.1255778199E-03    0.6511900277E-04    0.6888336151E+00    0.1364278865E-03    0.4209673926E-02
    0.3100000000E+03    0.1333781475E-03    0.6919116515E-04    0.6892886204E+00    0.1455278835E-03    0.4208161260E-02
    0.3300000000E+03    0.1412090681E-03    0.7327891341E-04    0.6896889663E+00    0.1546515511E-03    0.4206633038E-02
    0.3500000000E+03    0.1490716536E-03    0.7738285212E-04    0.6900439434E+00    0.1638020279E-03    0.4205090639E-02
    0.3700000000E+03    0.1569670022E-03    0.8150359205E-04    0.6903608495E+00    0.1729821234E-03    0.4203535125E-02
    0.3900000000E+03    0.1648962178E-03    0.8564174127E-04    0.6906454969E+00    0.1821943768E-03    0.4201967321E-02
    0.4100000000E+03    0.1728603981E-03    0.8979789980E-04    0.6909025721E+00    0.1914411031E-03    0.4200387870E-02
    0.4300000000E+03    0.1808606273E-03    0.9397265675E-04    0.6911358957E+00    0.2007244296E-03    0.4198797273E-02
    0.4500000000E+03    0.1888979719E-03    0.9816658880E-04    0.6913486136E+00    0.2100463258E-03    0.4197195921E-02
    0.4700000000E+03    0.1969734787E-03    0.1023802596E-03    0.6915433396E+00    0.2194086271E-03    0.4195584117E-02
    0.4900000000E+03    0.2050881740E-03    0.1066142201E-03    0.6917222635E+00    0.2288130542E-03    0.4193962094E-02
    0.1000000000E+03    0.5296730516E-04    0.2717505790E-04    0.6756977455E+00    0.5013978311E-04    0.4222375939E-02
    0.3000000000E+03    0.1294742248E-03    0.6715317292E-04    0.6890686266E+00    0.1409751371E-03    0.4208919638E-02
    0.5000000000E+03    0.2091605326E-03    0.1087389777E-03    0.6918063887E+00    0.2335315755E-03    0.4193147306E-02
    0.7000000000E+03    0.2929011096E-03    0.1524250091E-03    0.6929861939E+00    0.3304704040E-03    0.4176336705E-02
    0.9000000000E+03    0.3816178196E-03    0.1987003732E-03    0.6936432444E+00    0.4331250208E-03    0.4158524582E-02
    0.1100000000E+04    0.4761607332E-03    0.2480115498E-03    0.6940619170E+00    0.5425668968E-03    0.4139617301E-02
    0.1300000000E+04    0.5773900969E-03    0.3008087247E-03    0.6943519882E+00    0.6598343537E-03    0.4119483418E-02
    0.1500000000E+04    0.6862278550E-03    0.3575736331E-03    0.6945648028E+00    0.7860232653E-03    0.4097968652E-02
    0.1700000000E+04    0.8036952809E-03    0.4188395380E-03    0.6947275844E+00    0.9223408326E-03    0.4074896887E-02
    0.1900000000E+04    0.9309466926E-03    0.4852089690E-03    0.6948561117E+00    0.1070148996E-02    0.4050067299E-02
    0.2100000000E+04    0.1069304369E-02    0.5573720126E-03    0.6949601603E+00    0.1231007338E-02    0.4023249754E-02
    0.2300000000E+04    0.1220297884E-02    0.6361268778E-03    0.6950461098E+00    0.1406720512E-02    0.3994178907E-02
    0.2500000000E+04    0.1385710489E-02    0.7224041212E-03    0.6951183004E+00    0.1599393781E-02    0.3962546947E-02
    0.2700000000E+04    0.1567635143E-02    0.8172959071E-03    0.6951797877E+00    0.1811499975E-02    0.3927994745E-02
    0.2900000000E+04    0.1768543161E-02    0.9220918421E-03    0.6952327848E+00    0.2045961527E-02    0.3890101033E-02
    0.3100000000E+04    0.1991368932E-02    0.1038323206E-02    0.6952789345E+00    0.2306251828E-02    0.3848369161E-02
    0.3300000000E+04    0.2239614897E-02    0.1167817753E-02    0.6953194813E+00    0.2596521006E-02    0.3802210905E-02
    0.3500000000E+04    0.2517481678E-02    0.1312767650E-02    0.6953553855E+00    0.2921752180E-02    0.3750926698E-02
    0.3700000000E+04    0.2830028887E-02    0.1475813433E-02    0.6953874000E+00    0.3287955042E-02    0.3693681705E-02
    0.3900000000E+04    0.3183372240E-02    0.1660146937E-02    0.6954161231E+00    0.3702403936E-02    0.3629477243E-02
    0.4100000000E+04    0.3584921431E-02    0.1869635516E-02    0.6954420366E+00    0.4173926432E-02    0.3557117502E-02
    0.4300000000E+04    0.4043659205E-02    0.2108967815E-02    0.6954655327E+00    0.4713243970E-02    0.3475172485E-02
    0.4500000000E+04    0.4570452317E-02    0.2383816238E-02    0.6954869337E+00    0.5333355106E-02    0.3381940154E-02
    0.4700000000E+04    0.5178364337E-02    0.2701000485E-02    0.6955065072E+00    0.6049927956E-02    0.3275414808E-02
    0.4900000000E+04    0.5882899632E-02    0.3068615298E-02    0.6955244771E+00    0.6881621063E-02    0.3153276082E-02
    0.1000000000E+04    0.4281081805E-03    0.2229488200E-03    0.6938734647E+00    0.4869332307E-03    0.4149215456E-02
    0.3000000000E+04    0.1877012128E-02    0.9786715347E-03    0.6952566300E+00    0.2172636228E-02    0.3869749272E-02
    0.5000000000E+04    0.6276929224E-02    0.3274220756E-02    0.6955329209E+00    0.7347315614E-02    0.3085547923E-02
    0.7000000000E+04    0.2143477538E-01    0.1118802369E-01    0.6956509416E+00    0.2558845667E-01    0.7818823377E-03
    0.9000000000E+04    0.3032270412E-01    0.1584203562E-01    0.6957162615E+00    0.3731046613E-01    0.1029866923E-03
    0.1100000000E+05    0.3466086141E-01    0.1812561989E-01    0.6957576616E+00    0.4395786459E-01    0.8882549393E-04
    0.1300000000E+05    0.3832296858E-01    0.2005903030E-01    0.6957862032E+00    0.5003733281E-01    0.8937364613E-04
    0.1500000000E+05    0.4150676954E-01    0.2174475895E-01    0.6958070434E+00    0.5573537791E-01    0.9008244420E-04
    0.1700000000E+05    0.4429029944E-01    0.2322296612E-01    0.6958229095E+00    0.6110498278E-01    0.9071206446E-04
    0.1900000000E+05    0.4673455256E-01    0.2452505152E-01    0.6958353790E+00    0.6618746803E-01    0.9127529172E-04
    0.2100000000E+05    0.4888899994E-01    0.2567650148E-01    0.6958454269E+00    0.7101703628E-01    0.9178501270E-04
    0.2300000000E+05    0.5079418937E-01    0.2669822108E-01    0.6958536887E+00    0.7562230895E-01    0.9225074113E-04
    0.2500000000E+05    0.5248365011E-01    0.2760751023E-01    0.6958605957E+00    0.8002744401E-01    0.9267964452E-04
    0.2700000000E+05    0.5398533194E-01    0.2841880128E-01    0.6958664512E+00    0.8425299189E-01    0.9307725790E-04
    0.2900000000E+05    0.5532270615E-01    0.2914422364E-01    0.6958714746E+00    0.8831655967E-01    0.9344794631E-04
    0.3100000000E+05    0.5651561742E-01    0.2979404079E-01    0.6958758282E+00    0.9223333227E-01    0.9379521403E-04
    0.3300000000E+05    0.5758094957E-01    0.3037699203E-01    0.6958796351E+00    0.9601648530E-01    0.9412191779E-04
    0.3500000000E+05    0.5853315089E-01    0.3090056214E-01    0.6958829900E+00    0.9967751538E-01    0.9443041763E-04
    0.3700000000E+05    0.5938465222E-01    0.3137119615E-01    0.6958859670E+00    0.1032265065E+00    0.9472268620E-04
    0.3900000000E+05    0.6014620232E-01    0.3179447173E-01    0.6958886250E+00    0.1066723464E+00    0.9500038943E-04
    0.4100000000E+05    0.6082713904E-01    0.3217523854E-01    0.6958910112E+00    0.1100229044E+00    0.9526494725E-04
    0.4300000000E+05    0.6143561003E-01    0.3251773182E-01    0.6958931641E+00    0.1132851772E+00    0.9551757996E-04
    0.4500000000E+05    0.6197875366E-01    0.3282566539E-01    0.6958951152E+00    0.1164654106E+00    0.9575934407E-04
    0.4700000000E+05    0.6246284805E-01    0.3310230847E-01    0.6958968908E+00    0.1195692005E+00    0.9599116052E-04
    0.4900000000E+05    0.6289343481E-01    0.3335054934E-01    0.6958985127E+00    0.1226015785E+00    0.9621383698E-04
    0.1000000000E+05    0.3261011222E-01    0.1704520463E-01    0.6957390526E+00    0.4074222529E-01    0.9013210374E-04
    0.3000000000E+05    0.5593610177E-01    0.2947800440E-01    0.6958737266E+00    0.9029242902E-01    0.9362431605E-04
    0.5000000000E+05    0.6309021890E-01    0.3346483063E-01    0.6958992719E+00    0.1240924240E+00    0.9632197363E-04
    0.7000000000E+05    0.6515364837E-01    0.3474900632E-01    0.6959096252E+00    0.1510585715E+00    0.9814080932E-04
    0.9000000000E+05    0.6511702046E-01    0.3489582251E-01    0.6959150416E+00    0.1741371576E+00    0.9952155500E-04
    0.1100000000E+06    0.6408905205E-01    0.3449190879E-01    0.6959182717E+00    0.1946426067E+00    0.1006379348E-03
    0.1300000000E+06    0.6256200555E-01    0.3380093480E-01    0.6959203561E+00    0.2132716466E+00    0.1015768113E-03
    0.1500000000E+06    0.6078141713E-01    0.3295627702E-01    0.6959217720E+00    0.2304383214E+00    0.1023880092E-03
    0.1700000000E+06    0.5887991513E-01    0.3203116792E-01    0.6959227679E+00    0.2464098511E+00    0.1031028206E-03
    0.1900000000E+06    0.5693323150E-01    0.3106824299E-01    0.6959234849E+00    0.2613699529E+00    0.1037422128E-03
    0.2100000000E+06    0.5498626792E-01    0.3009338334E-01    0.6959240090E+00    0.2754514915E+00    0.1043209358E-03
    0.2300000000E+06    0.5306625110E-01    0.2912275197E-01    0.6959243950E+00    0.2887546576E+00    0.1048497675E-03
    0.2500000000E+06    0.5118981206E-01    0.2816660952E-01    0.6959246796E+00    0.3013577160E+00    0.1053368276E-03
    0.2700000000E+06    0.4936699985E-01    0.2723149551E-01    0.6959248880E+00    0.3133236741E+00    0.1057883882E-03
    0.2900000000E+06    0.4760365757E-01    0.2632153125E-01    0.6959250384E+00    0.3247045857E+00    0.1062093969E-03
    0.3100000000E+06    0.4590288101E-01    0.2543922760E-01    0.6959251435E+00    0.3355444214E+00    0.1066038266E-03
    0.3300000000E+06    0.4426594238E-01    0.2458600178E-01    0.6959252132E+00    0.3458810373E+00    0.1069749167E-03
    0.3500000000E+06    0.4269289084E-01    0.2376251748E-01    0.6959252548E+00    0.3557475570E+00    0.1073253439E-03
    0.3700000000E+06    0.4118295209E-01    0.2296891391E-01    0.6959252737E+00    0.3651733629E+00    0.1076573455E-03
    0.3900000000E+06    0.3973479931E-01    0.2220496342E-01    0.6959252745E+00    0.3741848212E+00    0.1079728117E-03
    0.4100000000E+06    0.3834674011E-01    0.2147018189E-01    0.6959252604E+00    0.3828058201E+00    0.1082733532E-03
    0.4300000000E+06    0.3701684713E-01    0.2076390728E-01    0.6959252341E+00    0.3910581769E+00    0.1085603549E-03
    0.4500000000E+06    0.3574305040E-01    0.2008535622E-01    0.6959251980E+00    0.3989619503E+00    0.1088350156E-03
    0.4700000000E+06    0.3452320314E-01    0.1943366531E-01    0.6959251537E+00    0.4065356832E+00    0.1090983805E-03
    0.4900000000E+06    0.3335512880E-01    0.1880792139E-01    0.6959251026E+00    0.4137965949E+00    0.1093513662E-03
    0.1000000000E+06    0.6468789988E-01    0.3474186399E-01    0.6959168450E+00    0.1846589257E+00    0.1001061539E-03
    0.3000000000E+06    0.4674533457E-01    0.2587681229E-01    0.6959250959E+00    0.3301896472E+00    0.1064097167E-03
    0.5000000000E+06    0.3278982671E-01    0.1850448622E-01    0.6959250749E+00    0.4173148004E+00    0.1094742233E-03
    0.7000000000E+06    0.2369857582E-01    0.1357039773E-01    0.6959243638E+00    0.4746500990E+00    0.1115407865E-03
    0.9000000000E+06    0.1769289863E-01    0.1025171618E-01    0.6959235752E+00    0.5139351918E+00    0.1131097221E-03
    0.1100000000E+07    0.1360447978E-01    0.7961441903E-02    0.6959228204E+00    0.5418080701E+00    0.1143783187E-03
    0.1300000000E+07    0.1073194672E-01    0.6334441802E-02    0.6959221209E+00    0.5622245848E+00    0.1154452409E-03
    0.1500000000E+07    0.8653350109E-02    0.5146163242E-02    0.6959214771E+00    0.5776119638E+00    0.1163670897E-03
    0.1700000000E+07    0.7109040724E-02    0.4256231309E-02    0.6959208838E+00    0.5895034938E+00    0.1171794162E-03
    0.1900000000E+07    0.5934676573E-02    0.3574704222E-02    0.6959203353E+00    0.5988967156E+00    0.1179060426E-03
    0.2100000000E+07    0.5023211976E-02    0.3042410073E-02    0.6959198259E+00    0.6064593263E+00    0.1185637279E-03
    0.2300000000E+07    0.4302993495E-02    0.2619405553E-02    0.6959193508E+00    0.6126502602E+00    0.1191647187E-03
    0.2500000000E+07    0.3724834730E-02    0.2278070748E-02    0.6959189059E+00    0.6177927256E+00    0.1197182411E-03
    0.2700000000E+07    0.3254187734E-02    0.1998880378E-02    0.6959184877E+00    0.6221194288E+00    0.1202314220E-03
    0.2900000000E+07    0.2866276411E-02    0.1767750864E-02    0.6959180932E+00    0.6258012969E+00    0.1207098838E-03
    0.3100000000E+07    0.2542995032E-02    0.1574336376E-02    0.6959177198E+00    0.6289661666E+00    0.1211581408E-03
    0.3300000000E+07    0.2270885103E-02    0.1410909735E-02    0.6959173655E+00    0.6317112217E+00    0.1215798743E-03
    0.3500000000E+07    0.2039786835E-02    0.1271611969E-02    0.6959170284E+00    0.6341114444E+00    0.1219781257E-03
    0.3700000000E+07    0.1841922202E-02    0.1151939267E-02    0.6959167069E+00    0.6362254698E+00    0.1223554378E-03
    0.3900000000E+07    0.1671259903E-02    0.1048385914E-02    0.6959163996E+00    0.6380997147E+00    0.1227139582E-03
    0.4100000000E+07    0.1523068087E-02    0.9581916683E-03    0.6959161053E+00    0.6397713364E+00    0.1230555178E-03
    0.4300000000E+07    0.1393594374E-02    0.8791602723E-03    0.6959158228E+00    0.6412703861E+00    0.1233816900E-03
    0.4500000000E+07    0.1279833641E-02    0.8095272432E-03    0.6959155514E+00    0.6426213974E+00    0.1236938372E-03
    0.4700000000E+07    0.1179357247E-02    0.7478622870E-03    0.6959152901E+00    0.6438445733E+00    0.1239931473E-03
    0.4900000000E+07    0.1090185897E-02    0.6929964024E-03    0.6959150382E+00    0.6449566845E+00    0.1242806618E-03
    0.1000000000E+07    0.1546124894E-01    0.9004999146E-02    0.6959231914E+00    0.5290049556E+00    0.1137740246E-03
    0.3000000000E+07    0.2697488676E-02    0.1666863359E-02    0.6959179040E+00    0.6274416786E+00    0.1209375409E-03
    0.5000000000E+07    0.1049319892E-02    0.6678054105E-03    0.6959149155E+00    0.6454755654E+00    0.1244202872E-03
    0.7000000000E+07    0.5511985798E-03    0.3577798407E-03    0.6959128264E+00    0.6524618271E+00    0.1267689152E-03
    0.9000000000E+07    0.3382988248E-03    0.2228685573E-03    0.6959112135E+00    0.6560943385E+00    0.1285520011E-03
    0.1100000000E+08    0.2283446196E-03    0.1522297643E-03    0.6959098964E+00    0.6583024554E+00    0.1299937561E-03
    0.1300000000E+08    0.1643317242E-03    0.1106457024E-03    0.6959087815E+00    0.6597809001E+00    0.1312063102E-03
    0.1500000000E+08    0.1238480425E-03    0.8409951190E-04    0.6959078137E+00    0.6608378578E+00    0.1322539893E-03
    0.1700000000E+08    0.9664235997E-04    0.6611532656E-04    0.6959069579E+00    0.6616301101E+00    0.1331771968E-03
    0.1900000000E+08    0.7749038660E-04    0.5336463810E-04    0.6959061902E+00    0.6622455567E+00    0.1340030064E-03
    0.2100000000E+08    0.6350395086E-04    0.4399362783E-04    0.6959054938E+00    0.6627371929E+00    0.1347504647E-03
    0.2300000000E+08    0.5298154275E-04    0.3690294772E-04    0.6959048563E+00    0.6631388248E+00    0.1354334898E-03
    0.2500000000E+08    0.4486818031E-04    0.3140693147E-04    0.6959042682E+00    0.6634730129E+00    0.1360625670E-03
    0.2700000000E+08    0.3848167692E-04    0.2705981708E-04    0.6959037223E+00    0.6637553784E+00    0.1366457963E-03
