  Pressure (Pa) 22mC5-500 (mol/kg) 23mC5-500 (mol/kg) 24mC5-500 (mol/kg) 3mC6-500 (mol/kg) C7-500 (mol/kg)
    0.1000000000E+01    0.8749924603E-05    0.1885314525E-05    0.1514073446E+00    0.7147248006E-05    0.4146011587E-02
    0.3000000000E+01    0.1709040700E-04    0.3671240004E-05    0.3165066219E+00    0.1764562727E-04    0.4171696249E-02
    0.5000000000E+01    0.2098890859E-04    0.4500827186E-05    0.4047852823E+00    0.2717097948E-04    0.4178805786E-02
    0.7000000000E+01    0.2323194069E-04    0.4976963215E-05    0.4597409889E+00    0.3623974876E-04    0.4182177336E-02
    0.9000000000E+01    0.2473393348E-04    0.5296373094E-05    0.4972461169E+00    0.4502244062E-04    0.4183997910E-02
    0.1100000000E+02    0.2586686541E-04    0.5538597200E-05    0.5244737757E+00    0.5360338391E-04    0.4185002218E-02
    0.1300000000E+02    0.2680366958E-04    0.5740369171E-05    0.5451394404E+00    0.6203236095E-04    0.4185519278E-02
    0.1500000000E+02    0.2763240546E-04    0.5920256703E-05    0.5613602425E+00    0.7034196828E-04    0.4185721144E-02
    0.1700000000E+02    0.2840092839E-04    0.6088266346E-05    0.5744309943E+00    0.7855507088E-04    0.4185707237E-02
    0.1900000000E+02    0.2913650926E-04    0.6250045570E-05    0.5851881018E+00    0.8668851854E-04    0.4185539218E-02
    0.2100000000E+02    0.2985523352E-04    0.6408887428E-05    0.5941959339E+00    0.9475519879E-04    0.4185257418E-02
    0.2300000000E+02    0.3056681868E-04    0.6566753534E-05    0.6018491047E+00    0.1027652596E-03    0.4184889342E-02
    0.2500000000E+02    0.3127722072E-04    0.6724824900E-05    0.6084318351E+00    0.1107268812E-03    0.4184454390E-02
    0.2700000000E+02    0.3199010771E-04    0.6883811769E-05    0.6141540326E+00    0.1186467856E-03    0.4183966629E-02
    0.2900000000E+02    0.3270772367E-04    0.7044134252E-05    0.6191740893E+00    0.1265305868E-03    0.4183436504E-02
    0.3100000000E+02    0.3343141058E-04    0.7206030817E-05    0.6236137717E+00    0.1343830382E-03    0.4182871923E-02
    0.3300000000E+02    0.3416193189E-04    0.7369625059E-05    0.6275682289E+00    0.1422082126E-03    0.4182278978E-02
    0.3500000000E+02    0.3489967722E-04    0.7534967642E-05    0.6311128885E+00    0.1500096358E-03    0.4181662435E-02
    0.3700000000E+02    0.3564479420E-04    0.7702063078E-05    0.6343083145E+00    0.1577903880E-03    0.4181026069E-02
    0.3900000000E+02    0.3639727459E-04    0.7870887043E-05    0.6372036970E+00    0.1655531819E-03    0.4180372904E-02
    0.4100000000E+02    0.3715701115E-04    0.8041397683E-05    0.6398394021E+00    0.1733004241E-03    0.4179705392E-02
    0.4300000000E+02    0.3792383546E-04    0.8213543032E-05    0.6422488657E+00    0.1810342631E-03    0.4179025536E-02
    0.4500000000E+02    0.3869754328E-04    0.8387265902E-05    0.6444600199E+00    0.1887566289E-03    0.4178334986E-02
    0.4700000000E+02    0.3947791151E-04    0.8562507079E-05    0.6464963800E+00    0.1964692639E-03    0.4177635114E-02
    0.4900000000E+02    0.4026470948E-04    0.8739207404E-05    0.6483778851E+00    0.2041737495E-03    0.4176927065E-02
    0.1000000000E+02    0.2533291916E-04    0.5424236153E-05    0.5118611756E+00    0.4933448716E-04    0.4184576257E-02
    0.3000000000E+02    0.3306874982E-04    0.7124875941E-05    0.6214599995E+00    0.1304604625E-03    0.4183158103E-02
    0.5000000000E+02    0.4066044738E-04    0.8828086614E-05    0.6492659842E+00    0.2080233917E-03    0.4176570282E-02
    0.7000000000E+02    0.4886109292E-04    0.1066970824E-04    0.6619600924E+00    0.2848812677E-03    0.4169173829E-02
    0.9000000000E+02    0.5750253879E-04    0.1260909203E-04    0.6692295027E+00    0.3620266003E-03    0.4161493101E-02
    0.1100000000E+03    0.6649377644E-04    0.1462556053E-04    0.6739393565E+00    0.4399844674E-03    0.4153650568E-02
    0.1300000000E+03    0.7579183941E-04    0.1670960800E-04    0.6772391378E+00    0.5190948458E-03    0.4145678371E-02
    0.1500000000E+03    0.8537778640E-04    0.1885715774E-04    0.6796796440E+00    0.5996080383E-03    0.4137581138E-02
    0.1700000000E+03    0.9524531178E-04    0.2106694303E-04    0.6815578516E+00    0.6817257834E-03    0.4129353652E-02
    0.1900000000E+03    0.1053952653E-03    0.2333927078E-04    0.6830480210E+00    0.7656218447E-03    0.4120986840E-02
    0.2100000000E+03    0.1158328683E-03    0.2567540146E-04    0.6842591480E+00    0.8514534832E-03    0.4112470038E-02
    0.2300000000E+03    0.1265662271E-03    0.2807722134E-04    0.6852629018E+00    0.9393683960E-03    0.4103791894E-02
    0.2500000000E+03    0.1376055072E-03    0.3054706217E-04    0.6861083433E+00    0.1029509210E-02    0.4094940723E-02
    0.2700000000E+03    0.1489624643E-03    0.3308759962E-04    0.6868301889E+00    0.1122016571E-02    0.4085904630E-02
    0.2900000000E+03    0.1606501759E-03    0.3570179604E-04    0.6874536954E+00    0.1217031388E-02    0.4076671531E-02
    0.3100000000E+03    0.1726828933E-03    0.3839286911E-04    0.6879976769E+00    0.1314696558E-02    0.4067229122E-02
    0.3300000000E+03    0.1850759665E-03    0.4116427669E-04    0.6884764358E+00    0.1415158345E-02    0.4057564834E-02
    0.3500000000E+03    0.1978458164E-03    0.4401971171E-04    0.6889010387E+00    0.1518567556E-02    0.4047665768E-02
    0.3700000000E+03    0.2110099406E-03    0.4696310419E-04    0.6892801827E+00    0.1625080577E-02    0.4037518643E-02
    0.3900000000E+03    0.2245869402E-03    0.4999862809E-04    0.6896207973E+00    0.1734860322E-02    0.4027109719E-02
    0.4100000000E+03    0.2385965654E-03    0.5313071186E-04    0.6899284714E+00    0.1848077138E-02    0.4016424744E-02
    0.4300000000E+03    0.2530597743E-03    0.5636405209E-04    0.6902077631E+00    0.1964909695E-02    0.4005448879E-02
    0.4500000000E+03    0.2679988034E-03    0.5970362959E-04    0.6904624265E+00    0.2085545869E-02    0.3994166636E-02
    0.4700000000E+03    0.2834372494E-03    0.6315472785E-04    0.6906955815E+00    0.2210183649E-02    0.3982561807E-02
    0.4900000000E+03    0.2994001602E-03    0.6672295376E-04    0.6909098426E+00    0.2339032074E-02    0.3970617393E-02
    0.1000000000E+03    0.6195787960E-04    0.1360845794E-04    0.6718117276E+00    0.4008799037E-03    0.4157589045E-02
    0.3000000000E+03    0.1666224748E-03    0.3703751241E-04    0.6877346445E+00    0.1265523631E-02    0.4071977269E-02
    0.5000000000E+03    0.3075865392E-03    0.6855283573E-04    0.6910105914E+00    0.2405103866E-02    0.3964512296E-02
    0.7000000000E+03    0.5065008716E-03    0.1130115656E-03    0.6924241628E+00    0.4010800045E-02    0.3819553776E-02
    0.9000000000E+03    0.8043997789E-03    0.1795910084E-03    0.6932119625E+00    0.6420404809E-02    0.3610867530E-02
    0.1100000000E+04    0.1282300945E-02    0.2864064627E-03    0.6937141990E+00    0.1029987955E-01    0.3289490106E-02
    0.1300000000E+04    0.2101071205E-02    0.4694338197E-03    0.6940623046E+00    0.1698109388E-01    0.2765143715E-02
    0.1500000000E+04    0.3502749553E-02    0.7828386158E-03    0.6943177840E+00    0.2851206002E-01    0.1927455381E-02
    0.1700000000E+04    0.5395420845E-02    0.1206219867E-02    0.6945132600E+00    0.4431633041E-01    0.9248537917E-03
    0.1900000000E+04    0.6919764542E-02    0.1547550512E-02    0.6946676457E+00    0.5745685918E-01    0.3047991993E-03
    0.2100000000E+04    0.7824584053E-02    0.1750549143E-02    0.6947926618E+00    0.6573171841E-01    0.1067618385E-03
    0.2300000000E+04    0.8457177128E-02    0.1892776627E-02    0.6948959583E+00    0.7189060070E-01    0.6075483024E-04
    0.2500000000E+04    0.8998168498E-02    0.2014598478E-02    0.6949827410E+00    0.7739630779E-01    0.5106928315E-04
    0.2700000000E+04    0.9497866174E-02    0.2127257413E-02    0.6950566750E+00    0.8265705215E-01    0.4918199112E-04
    0.2900000000E+04    0.9969074112E-02    0.2233611225E-02    0.6951204158E+00    0.8777314620E-01    0.4893182441E-04
    0.3100000000E+04    0.1041566537E-01    0.2334520551E-02    0.6951759343E+00    0.9277097519E-01    0.4901948358E-04
    0.3300000000E+04    0.1083943105E-01    0.2430380596E-02    0.6952247241E+00    0.9765978946E-01    0.4917117081E-04
    0.3500000000E+04    0.1124163985E-01    0.2521470034E-02    0.6952679376E+00    0.1024447715E+00    0.4932938258E-04
    0.3700000000E+04    0.1162339234E-01    0.2608030260E-02    0.6953064786E+00    0.1071300184E+00    0.4948249830E-04
    0.3900000000E+04    0.1198570400E-01    0.2690283963E-02    0.6953410654E+00    0.1117192299E+00    0.4962864534E-04
    0.4100000000E+04    0.1232952720E-01    0.2768440020E-02    0.6953722762E+00    0.1162158757E+00    0.4976797502E-04
    0.4300000000E+04    0.1265575907E-01    0.2842695242E-02    0.6954005819E+00    0.1206232416E+00    0.4990100560E-04
    0.4500000000E+04    0.1296524609E-01    0.2913235366E-02    0.6954263697E+00    0.1249444494E+00    0.5002827268E-04
    0.4700000000E+04    0.1325878752E-01    0.2980235828E-02    0.6954499609E+00    0.1291824679E+00    0.5015026243E-04
    0.4900000000E+04    0.1353713859E-01    0.3043862436E-02    0.6954716243E+00    0.1333401230E+00    0.5026740537E-04
    0.1000000000E+04    0.1013253362E-02    0.2262705562E-03    0.6934881062E+00    0.8113809817E-02    0.3468716969E-02
    0.3000000000E+04    0.1019531452E-01    0.2284717201E-02    0.6951491002E+00    0.9028610197E-01    0.4895961629E-04
    0.5000000000E+04    0.1367084242E-01    0.3074459883E-02    0.6954818054E+00    0.1353896604E+00    0.5032427990E-04
    0.7000000000E+04    0.1570154767E-01    0.3543150203E-02    0.6956242634E+00    0.1727520746E+00    0.5127982535E-04
    0.9000000000E+04    0.1682483930E-01    0.3808980577E-02    0.6957032949E+00    0.2044755929E+00    0.5200414398E-04
    0.1100000000E+05    0.1736302839E-01    0.3943076549E-02    0.6957535051E+00    0.2319261427E+00    0.5258928571E-04
    0.1300000000E+05    0.1751748100E-01    0.3990048582E-02    0.6957882042E+00    0.2560338994E+00    0.5308112285E-04
    0.1500000000E+05    0.1741811177E-01    0.3978806661E-02    0.6958136024E+00    0.2774573298E+00    0.5350591392E-04
    0.1700000000E+05    0.1715089959E-01    0.3928580687E-02    0.6958329868E+00    0.2966781327E+00    0.5388012758E-04
    0.1900000000E+05    0.1677389641E-01    0.3852428826E-02    0.6958482596E+00    0.3140587632E+00    0.5421478752E-04
    0.2100000000E+05    0.1632690513E-01    0.3759362430E-02    0.6958605978E+00    0.3298786717E+00    0.5451764267E-04
    0.2300000000E+05    0.1583752427E-01    0.3655676090E-02    0.6958707689E+00    0.3443579168E+00    0.5479435189E-04
    0.2500000000E+05    0.1532503047E-01    0.3545803998E-02    0.6958792944E+00    0.3576730142E+00    0.5504917626E-04
    0.2700000000E+05    0.1480293302E-01    0.3432884950E-02    0.6958865411E+00    0.3699678552E+00    0.5528540603E-04
    0.2900000000E+05    0.1428069019E-01    0.3319143103E-02    0.6958927745E+00    0.3813614076E+00    0.5550563579E-04
    0.3100000000E+05    0.1376488349E-01    0.3206149322E-02    0.6958981916E+00    0.3919532633E+00    0.5571194837E-04
    0.3300000000E+05    0.1326003372E-01    0.3095003494E-02    0.6959029413E+00    0.4018277119E+00    0.5590604166E-04
    0.3500000000E+05    0.1276917598E-01    0.2986463478E-02    0.6959071385E+00    0.4110567848E+00    0.5608931828E-04
    0.3700000000E+05    0.1229426959E-01    0.2881037439E-02    0.6959108735E+00    0.4197025668E+00    0.5626295054E-04
    0.3900000000E+05    0.1183649327E-01    0.2779050662E-02    0.6959142175E+00    0.4278189777E+00    0.5642792850E-04
    0.4100000000E+05    0.1139645961E-01    0.2680694329E-02    0.6959172283E+00    0.4354531637E+00    0.5658509596E-04
    0.4300000000E+05    0.1097437193E-01    0.2586061414E-02    0.6959199525E+00    0.4426465985E+00    0.5673517806E-04
    0.4500000000E+05    0.1057013975E-01    0.2495173255E-02    0.6959224286E+00    0.4494359635E+00    0.5687880265E-04
    0.4700000000E+05    0.1018346410E-01    0.2407999340E-02    0.6959246886E+00    0.4558538608E+00    0.5701651694E-04
    0.4900000000E+05    0.9813900818E-02    0.2324472081E-02    0.6959267590E+00    0.4619293947E+00    0.5714880088E-04
    0.1000000000E+05    0.1715237561E-01    0.3889243893E-02    0.6957309212E+00    0.2186690093E+00    0.5231060464E-04
    0.3000000000E+05    0.1402165917E-01    0.3262474646E-02    0.6958955748E+00    0.3867519607E+00    0.5561041778E-04
    0.5000000000E+05    0.9635369630E-02    0.2284047473E-02    0.6959277304E+00    0.4648470337E+00    0.5721304070E-04
    0.7000000000E+05    0.6811750981E-02    0.1638204336E-02    0.6959411708E+00    0.5103316963E+00    0.5829352414E-04
    0.9000000000E+05    0.5012683249E-02    0.1219779465E-02    0.6959484435E+00    0.5398390923E+00    0.5911374279E-04
    0.1100000000E+06    0.3821989172E-02    0.9392704455E-03    0.6959529455E+00    0.5603715770E+00    0.5977691016E-04
    0.1300000000E+06    0.3001266187E-02    0.7438794104E-03    0.6959559735E+00    0.5754020744E+00    0.6033463083E-04
    0.1500000000E+06    0.2414745710E-02    0.6029962883E-03    0.6959581279E+00    0.5868383435E+00    0.6081650439E-04
    0.1700000000E+06    0.1982433712E-02    0.4983476405E-03    0.6959597243E+00    0.5958087282E+00    0.6124112042E-04
    0.1900000000E+06    0.1655295475E-02    0.4186142823E-03    0.6959609438E+00    0.6030198759E+00    0.6162093469E-04
    0.2100000000E+06    0.1402124895E-02    0.3565291821E-03    0.6959618977E+00    0.6089351644E+00    0.6196470941E-04
    0.2300000000E+06    0.1202381013E-02    0.3072726406E-03    0.6959626580E+00    0.6138701814E+00    0.6227884717E-04
    0.2500000000E+06    0.1042133522E-02    0.2675542486E-03    0.6959632731E+00    0.6180468013E+00    0.6256817134E-04
    0.2700000000E+06    0.9116833529E-03    0.2350693609E-03    0.6959637770E+00    0.6216252896E+00    0.6283640783E-04
    0.2900000000E+06    0.8041186150E-03    0.2081667352E-03    0.6959641938E+00    0.6247241371E+00    0.6308649571E-04
    0.3100000000E+06    0.7144110448E-03    0.1856391948E-03    0.6959645416E+00    0.6274327412E+00    0.6332079502E-04
    0.3300000000E+06    0.6388348657E-03    0.1665881947E-03    0.6959648337E+00    0.6298197590E+00    0.6354123004E-04
    0.3500000000E+06    0.5745836304E-03    0.1503340507E-03    0.6959650804E+00    0.6319387536E+00    0.6374939074E-04
    0.3700000000E+06    0.5195118799E-03    0.1363551189E-03    0.6959652896E+00    0.6338321015E+00    0.6394660631E-04
    0.3900000000E+06    0.4719573988E-03    0.1242457624E-03    0.6959654676E+00    0.6355337511E+00    0.6413399939E-04
    0.4100000000E+06    0.4306166563E-03    0.1136867734E-03    0.6959656195E+00    0.6370712079E+00    0.6431252698E-04
    0.4300000000E+06    0.3944560487E-03    0.1044242160E-03    0.6959657492E+00    0.6384669858E+00    0.6448301157E-04
    0.4500000000E+06    0.3626476790E-03    0.9625406203E-04    0.6959658600E+00    0.6397396849E+00    0.6464616536E-04
    0.4700000000E+06    0.3345222375E-03    0.8901088050E-04    0.6959659547E+00    0.6409048025E+00    0.6480260919E-04
    0.4900000000E+06    0.3095339809E-03    0.8255940374E-04    0.6959660354E+00    0.6419753518E+00    0.6495288759E-04
    0.1000000000E+06    0.4359354620E-02    0.1066261716E-02    0.6959509353E+00    0.5509593103E+00    0.5946101500E-04
    0.3000000000E+06    0.7572908334E-03    0.1964182467E-03    0.6959643754E+00    0.6261225189E+00    0.6320548981E-04
    0.5000000000E+06    0.2980729208E-03    0.7959493281E-04    0.6959660712E+00    0.6424786701E+00    0.6502586708E-04
    0.7000000000E+06    0.1577741292E-03    0.4295710262E-04    0.6959663772E+00    0.6495315442E+00    0.6625344562E-04
    0.9000000000E+06    0.9733727090E-04    0.2689027454E-04    0.6959663102E+00    0.6534500296E+00    0.6718542404E-04
    0.1100000000E+07    0.6595144432E-04    0.1843208916E-04    0.6959661146E+00    0.6559413831E+00    0.6793899565E-04
    0.1300000000E+07    0.4760518753E-04    0.1343310616E-04    0.6959658719E+00    0.6576644704E+00    0.6857276908E-04
    0.1500000000E+07    0.3596641092E-04    0.1023223158E-04    0.6959656143E+00    0.6589269382E+00    0.6912036631E-04
    0.1700000000E+07    0.2812566785E-04    0.8058569556E-05    0.6959653559E+00    0.6598916055E+00    0.6960290527E-04
    0.1900000000E+07    0.2259487958E-04    0.6514472262E-05    0.6959651029E+00    0.6606526773E+00    0.7003453682E-04
    0.2100000000E+07    0.1854897613E-04    0.5377826408E-05    0.6959648581E+00    0.6612684301E+00    0.7042521612E-04
    0.2300000000E+07    0.1550070573E-04    0.4516598746E-05    0.6959646227E+00    0.6617768437E+00    0.7078221778E-04
    0.2500000000E+07    0.1314734240E-04    0.3848273619E-05    0.6959643968E+00    0.6622037275E+00    0.7111102229E-04
    0.2700000000E+07    0.1129279166E-04    0.3319113991E-05    0.6959641802E+00    0.6625672323E+00    0.7141586326E-04
    0.2900000000E+07    0.9805514946E-05    0.2892896587E-05    0.6959639726E+00    0.6628804947E+00    0.7170008032E-04
    0.3100000000E+07    0.8594618143E-05    0.2544477554E-05    0.6959637735E+00    0.6631532559E+00    0.7196635522E-04
    0.3300000000E+07    0.7595667069E-05    0.2255957728E-05    0.6959635824E+00    0.6633928923E+00    0.7221687456E-04
    0.3500000000E+07    0.6761958041E-05    0.2014312471E-05    0.6959633987E+00    0.6636050919E+00    0.7245344513E-04
    0.3700000000E+07    0.6058971721E-05    0.1809879758E-05    0.6959632220E+00    0.6637943110E+00    0.7267757733E-04
    0.3900000000E+07    0.5460749788E-05    0.1635368718E-05    0.6959630517E+00    0.6639640906E+00    0.7289054691E-04
    0.4100000000E+07    0.4947468785E-05    0.1485193429E-05    0.6959628876E+00    0.6641172798E+00    0.7309344138E-04
    0.4300000000E+07    0.4503779624E-05    0.1355015426E-05    0.6959627291E+00    0.6642561968E+00    0.7328719542E-04
    0.4500000000E+07    0.4117648591E-05    0.1241423382E-05    0.6959625760E+00    0.6643827474E+00    0.7347261836E-04
    0.4700000000E+07    0.3779533983E-05    0.1141704866E-05    0.6959624278E+00    0.6644985124E+00    0.7365041573E-04
    0.4900000000E+07    0.3481791725E-05    0.1053681112E-05    0.6959622843E+00    0.6646048142E+00    0.7382120636E-04
    0.1000000000E+07    0.7937239124E-04    0.2206128777E-04    0.6959662216E+00    0.6548205808E+00    0.6758003289E-04
    0.3000000000E+07    0.9170044396E-05    0.2710217704E-05    0.6959638721E+00    0.6630214307E+00    0.7183531381E-04
    0.5000000000E+07    0.3346080742E-05    0.1013489286E-05    0.6959622142E+00    0.6646547718E+00    0.7390414723E-04
    0.7000000000E+07    0.1730706368E-05    0.5308105665E-06    0.6959610008E+00    0.6653538901E+00    0.7529929077E-04
    0.9000000000E+07    0.1063379021E-05    0.3281425786E-06    0.6959600431E+00    0.6657420624E+00    0.7635848986E-04
    0.1100000000E+08    0.7243902905E-06    0.2239885662E-06    0.6959592503E+00    0.6659890044E+00    0.7721493059E-04
    0.1300000000E+08    0.5286906641E-06    0.1633341547E-06    0.6959585727E+00    0.6661599351E+00    0.7793522057E-04
    0.1500000000E+08    0.4053993333E-06    0.1248655943E-06    0.6959579801E+00    0.6662852732E+00    0.7855757087E-04
    0.1700000000E+08    0.3226260254E-06    0.9890543429E-07    0.6959574529E+00    0.6663811166E+00    0.7910598193E-04
    0.1900000000E+08    0.2642979273E-06    0.8053902072E-07    0.6959569776E+00    0.6664567828E+00    0.7959653624E-04
    0.2100000000E+08    0.2215977968E-06    0.6705283491E-07    0.6959565446E+00    0.6665180383E+00    0.8004054787E-04
    0.2300000000E+08    0.1893594184E-06    0.5684811633E-07    0.6959561467E+00    0.6665686434E+00    0.8044628447E-04
    0.2500000000E+08    0.1643919251E-06    0.4893262126E-07    0.6959557784E+00    0.6666111547E+00    0.8081997467E-04
    0.2700000000E+08    0.1446374891E-06    0.4266372131E-07    0.6959554353E+00    0.6666473711E+00    0.8116642998E-04
