  Pressure (Pa) 22mC5-500 (mol/kg) 23mC5-500 (mol/kg) 24mC5-500 (mol/kg) 3mC6-500 (mol/kg) C7-500 (mol/kg)
    0.1000000000E+01    0.8225483463E-05    0.5903269107E-06    0.1741123924E+00    0.6287439646E-05    0.4167594000E-02
    0.3000000000E+01    0.1526721012E-04    0.1092028922E-05    0.3481396387E+00    0.1582487062E-04    0.4190937349E-02
    0.5000000000E+01    0.1827478205E-04    0.1304794703E-05    0.4351219491E+00    0.2454457883E-04    0.4199583541E-02
    0.7000000000E+01    0.1994429670E-04    0.1422739315E-05    0.4873016149E+00    0.3287614559E-04    0.4204239352E-02
    0.9000000000E+01    0.2106513514E-04    0.1502291451E-05    0.5220841422E+00    0.4096305785E-04    0.4207064100E-02
    0.1100000000E+02    0.2193404351E-04    0.1564497798E-05    0.5469269537E+00    0.4887671872E-04    0.4208877145E-02
    0.1300000000E+02    0.2268043880E-04    0.1618456067E-05    0.5655580874E+00    0.5665946016E-04    0.4210067977E-02
    0.1500000000E+02    0.2336651520E-04    0.1668493403E-05    0.5800484137E+00    0.6433909123E-04    0.4210847470E-02
    0.1700000000E+02    0.2402418958E-04    0.1716802940E-05    0.5916403384E+00    0.7193517043E-04    0.4211340312E-02
    0.1900000000E+02    0.2467057059E-04    0.1764542053E-05    0.6011244271E+00    0.7946214295E-04    0.4211625157E-02
    0.2100000000E+02    0.2531506690E-04    0.1812334221E-05    0.6090276937E+00    0.8693107816E-04    0.4211754159E-02
    0.2300000000E+02    0.2596289452E-04    0.1860515151E-05    0.6157149773E+00    0.9435070682E-04    0.4211763302E-02
    0.2500000000E+02    0.2661690675E-04    0.1909260339E-05    0.6214468679E+00    0.1017280769E-03    0.4211678236E-02
    0.2700000000E+02    0.2727859247E-04    0.1958654132E-05    0.6264144586E+00    0.1090689877E-03    0.4211517746E-02
    0.2900000000E+02    0.2794864048E-04    0.2008728445E-05    0.6307610655E+00    0.1163782881E-03    0.4211295909E-02
    0.3100000000E+02    0.2862726771E-04    0.2059485046E-05    0.6345962811E+00    0.1236600880E-03    0.4211023487E-02
    0.3300000000E+02    0.2931441442E-04    0.2110908670E-05    0.6380053421E+00    0.1309179121E-03    0.4210708845E-02
    0.3500000000E+02    0.3000986224E-04    0.2162974824E-05    0.6410555397E+00    0.1381548142E-03    0.4210358587E-02
    0.3700000000E+02    0.3071330634E-04    0.2215654486E-05    0.6438007060E+00    0.1453734645E-03    0.4209977997E-02
    0.3900000000E+02    0.3142439979E-04    0.2268916925E-05    0.6462844189E+00    0.1525762160E-03    0.4209571347E-02
    0.4100000000E+02    0.3214278078E-04    0.2322731380E-05    0.6485423326E+00    0.1597651575E-03    0.4209142135E-02
    0.4300000000E+02    0.3286808915E-04    0.2377068037E-05    0.6506039003E+00    0.1669421549E-03    0.4208693246E-02
    0.4500000000E+02    0.3359997615E-04    0.2431898568E-05    0.6524936661E+00    0.1741088852E-03    0.4208227085E-02
    0.4700000000E+02    0.3433810998E-04    0.2487196403E-05    0.6542322468E+00    0.1812668630E-03    0.4207745668E-02
    0.4900000000E+02    0.3508217862E-04    0.2542936832E-05    0.6558370876E+00    0.1884174635E-03    0.4207250703E-02
    0.1000000000E+02    0.2152072728E-04    0.1534833146E-05    0.5354612284E+00    0.4493844979E-04    0.4208066847E-02
    0.3000000000E+02    0.2828688061E-04    0.2034022125E-05    0.6327367856E+00    0.1200223931E-03    0.4211165451E-02
    0.5000000000E+02    0.3545634668E-04    0.2570965808E-05    0.6565940869E+00    0.1919903934E-03    0.4206998601E-02
    0.7000000000E+02    0.4319159160E-04    0.3150156922E-05    0.6673786708E+00    0.2633165787E-03    0.4201504572E-02
    0.9000000000E+02    0.5130155989E-04    0.3756843720E-05    0.6735246714E+00    0.3348646649E-03    0.4195500519E-02
    0.1100000000E+03    0.5970171598E-04    0.4384747168E-05    0.6774950698E+00    0.4070913002E-03    0.4189215343E-02
    0.1300000000E+03    0.6835513288E-04    0.5031190475E-05    0.6802713433E+00    0.4802909145E-03    0.4182732756E-02
    0.1500000000E+03    0.7724648901E-04    0.5695098580E-05    0.6823217762E+00    0.5546788195E-03    0.4176086946E-02
    0.1700000000E+03    0.8637121972E-04    0.6376183249E-05    0.6838981051E+00    0.6304271002E-03    0.4169291686E-02
    0.1900000000E+03    0.9573061257E-04    0.7074579924E-05    0.6851477197E+00    0.7076826149E-03    0.4162351192E-02
    0.2100000000E+03    0.1053294129E-03    0.7790672379E-05    0.6861626522E+00    0.7865770235E-03    0.4155264752E-02
    0.2300000000E+03    0.1151745817E-03    0.8525002626E-05    0.6870033360E+00    0.8672328410E-03    0.4148028899E-02
    0.2500000000E+03    0.1252746212E-03    0.9278222488E-05    0.6877110949E+00    0.9497673402E-03    0.4140638509E-02
    0.2700000000E+03    0.1356391990E-03    0.1005106687E-04    0.6883151435E+00    0.1034295216E-02    0.4133087369E-02
    0.2900000000E+03    0.1462789366E-03    0.1084433891E-04    0.6888367195E+00    0.1120930500E-02    0.4125368497E-02
    0.3100000000E+03    0.1572052934E-03    0.1165890205E-04    0.6892916325E+00    0.1209788006E-02    0.4117474315E-02
    0.3300000000E+03    0.1684305084E-03    0.1249567610E-04    0.6896918940E+00    0.1300984475E-02    0.4109396734E-02
    0.3500000000E+03    0.1799675780E-03    0.1335563604E-04    0.6900467935E+00    0.1394639521E-02    0.4101127208E-02
    0.3700000000E+03    0.1918302585E-03    0.1423981240E-04    0.6903636278E+00    0.1490876448E-02    0.4092656745E-02
    0.3900000000E+03    0.2040330845E-03    0.1514929288E-04    0.6906482087E+00    0.1589822982E-02    0.4083975911E-02
    0.4100000000E+03    0.2165913997E-03    0.1608522481E-04    0.6909052219E+00    0.1691611958E-02    0.4075074811E-02
    0.4300000000E+03    0.2295213981E-03    0.1704881828E-04    0.6911384877E+00    0.1796381967E-02    0.4065943076E-02
    0.4500000000E+03    0.2428401716E-03    0.1804134991E-04    0.6913511514E+00    0.1904278004E-02    0.4056569829E-02
    0.4700000000E+03    0.2565657661E-03    0.1906416697E-04    0.6915458266E+00    0.2015452108E-02    0.4046943654E-02
    0.4900000000E+03    0.2707172431E-03    0.2011869212E-04    0.6917247026E+00    0.2130064020E-02    0.4037052562E-02
    0.1000000000E+03    0.5546837365E-04    0.4068362950E-05    0.6757026117E+00    0.3708722857E-03    0.4192386103E-02
    0.3000000000E+03    0.1517055405E-03    0.1124890290E-04    0.6890716838E+00    0.1165074236E-02    0.4121443814E-02
    0.5000000000E+03    0.2779589386E-03    0.2065831168E-04    0.6918088049E+00    0.2188711344E-02    0.4032003759E-02
    0.7000000000E+03    0.4508727842E-03    0.3354208711E-04    0.6929882555E+00    0.3589590281E-02    0.3913584356E-02
    0.9000000000E+03    0.7004675758E-03    0.5213865246E-04    0.6936450730E+00    0.5615815997E-02    0.3747971246E-02
    0.1100000000E+04    0.1083672992E-02    0.8069153233E-04    0.6940635774E+00    0.8736687986E-02    0.3501949823E-02
    0.1300000000E+04    0.1713402673E-02    0.1276181161E-03    0.6943535198E+00    0.1388750249E-01    0.3112807079E-02
    0.1500000000E+04    0.2798670913E-02    0.2085051216E-03    0.6945662316E+00    0.2281926049E-01    0.2475032187E-02
    0.1700000000E+04    0.4531342077E-02    0.3376840674E-03    0.6947289287E+00    0.3722467630E-01    0.1533573525E-02
    0.1900000000E+04    0.6437596904E-02    0.4798932718E-03    0.6948573848E+00    0.5339428383E-01    0.6433493761E-03
    0.2100000000E+04    0.7703741930E-02    0.5744793728E-03    0.6949613725E+00    0.6460626405E-01    0.2288916235E-03
    0.2300000000E+04    0.8466152436E-02    0.6315617287E-03    0.6950472690E+00    0.7182463322E-01    0.1145248317E-03
    0.2500000000E+04    0.9045328816E-02    0.6750124862E-03    0.6951194131E+00    0.7763437249E-01    0.8877470781E-04
    0.2700000000E+04    0.9559283232E-02    0.7136249804E-03    0.6951808589E+00    0.8299984182E-01    0.8343733973E-04
    0.2900000000E+04    0.1003908286E-01    0.7497134838E-03    0.6952338189E+00    0.8817347048E-01    0.8253094054E-04
    0.3100000000E+04    0.1049294686E-01    0.7838890509E-03    0.6952799349E+00    0.9321834994E-01    0.8256892416E-04
    0.3300000000E+04    0.1092365885E-01    0.8163574883E-03    0.6953204512E+00    0.9815227249E-01    0.8279903426E-04
    0.3500000000E+04    0.1133269995E-01    0.8472275565E-03    0.6953563274E+00    0.1029823225E+00    0.8305922665E-04
    0.3700000000E+04    0.1172120441E-01    0.8765822475E-03    0.6953883162E+00    0.1077129496E+00    0.8331523352E-04
    0.3900000000E+04    0.1209018200E-01    0.9044953715E-03    0.6954170156E+00    0.1123478508E+00    0.8356055495E-04
    0.4100000000E+04    0.1244057205E-01    0.9310355851E-03    0.6954429072E+00    0.1168904170E+00    0.8379467268E-04
    0.4300000000E+04    0.1277325866E-01    0.9562675190E-03    0.6954663827E+00    0.1213438450E+00    0.8401827588E-04
    0.4500000000E+04    0.1308907673E-01    0.9802522228E-03    0.6954877646E+00    0.1257111717E+00    0.8423221983E-04
    0.4700000000E+04    0.1338881571E-01    0.1003047436E-02    0.6955073202E+00    0.1299952883E+00    0.8443730919E-04
    0.4900000000E+04    0.1367322260E-01    0.1024707809E-02    0.6955252733E+00    0.1341989506E+00    0.8463426306E-04
    0.1000000000E+04    0.8701102413E-03    0.6477856467E-04    0.6938752031E+00    0.6995997994E-02    0.3638012986E-02
    0.3000000000E+04    0.1026903047E-01    0.7670236179E-03    0.6952576469E+00    0.9071045680E-01    0.8250354093E-04
    0.5000000000E+04    0.1380989900E-01    0.1035128712E-02    0.6955337090E+00    0.1362714375E+00    0.8472989117E-04
    0.7000000000E+04    0.1589159186E-01    0.1195178667E-02    0.6956516064E+00    0.1740758475E+00    0.8633688482E-04
    0.9000000000E+04    0.1704972737E-01    0.1286427245E-02    0.6957168460E+00    0.2061909239E+00    0.8755536370E-04
    0.1100000000E+05    0.1760892208E-01    0.1332744053E-02    0.6957581883E+00    0.2339731261E+00    0.8853987672E-04
    0.1300000000E+05    0.1777367142E-01    0.1349224501E-02    0.6957866858E+00    0.2583541388E+00    0.8936749152E-04
    0.1500000000E+05    0.1767674152E-01    0.1345712628E-02    0.6958074907E+00    0.2799979897E+00    0.9008234121E-04
    0.1700000000E+05    0.1740641591E-01    0.1328787211E-02    0.6958233278E+00    0.2993930666E+00    0.9071211241E-04
    0.1900000000E+05    0.1702251258E-01    0.1302931146E-02    0.6958357728E+00    0.3169084172E+00    0.9127534148E-04
    0.2100000000E+05    0.1656614928E-01    0.1271245742E-02    0.6958457997E+00    0.3328295109E+00    0.9178506023E-04
    0.2300000000E+05    0.1606588537E-01    0.1235900928E-02    0.6958540431E+00    0.3473817050E+00    0.9225078658E-04
    0.2500000000E+05    0.1554168934E-01    0.1198426793E-02    0.6958609340E+00    0.3607460910E+00    0.9267968812E-04
    0.2700000000E+05    0.1500756158E-01    0.1159906835E-02    0.6958667751E+00    0.3730704705E+00    0.9307729984E-04
    0.2900000000E+05    0.1447330319E-01    0.1121108684E-02    0.6958717855E+00    0.3844771327E+00    0.9344798675E-04
    0.3100000000E+05    0.1394572985E-01    0.1082574108E-02    0.6958761274E+00    0.3950684816E+00    0.9379525310E-04
    0.3300000000E+05    0.1342951734E-01    0.1044681947E-02    0.6958799236E+00    0.4049311826E+00    0.9412195560E-04
    0.3500000000E+05    0.1292779845E-01    0.1007692700E-02    0.6958832686E+00    0.4141392728E+00    0.9443045429E-04
    0.3700000000E+05    0.1244258897E-01    0.9717805035E-03    0.6958862365E+00    0.4227565286E+00    0.9472272178E-04
    0.3900000000E+05    0.1197509478E-01    0.9370562811E-03    0.6958888860E+00    0.4308382965E+00    0.9500042402E-04
    0.4100000000E+05    0.1152593498E-01    0.9035846546E-03    0.6958912644E+00    0.4384329253E+00    0.9526498091E-04
    0.4300000000E+05    0.1109530517E-01    0.8713963896E-03    0.6958934100E+00    0.4455829020E+00    0.9551761275E-04
    0.4500000000E+05    0.1068309754E-01    0.8404976059E-03    0.6958953543E+00    0.4523257615E+00    0.9575937604E-04
    0.4700000000E+05    0.1028898959E-01    0.8108766295E-03    0.6958971235E+00    0.4586948244E+00    0.9599119171E-04
    0.4900000000E+05    0.9912509855E-02    0.7825091071E-03    0.6958987393E+00    0.4647197985E+00    0.9621386744E-04
    0.1000000000E+05    0.1738930083E-01    0.1314104301E-02    0.6957396061E+00    0.2205577083E+00    0.8807097427E-04
    0.3000000000E+05    0.1420834648E-01    0.1101781549E-02    0.6958740315E+00    0.3898689765E+00    0.9362435578E-04
    0.5000000000E+05    0.9730704773E-02    0.7687852763E-03    0.6958994955E+00    0.4676116726E+00    0.9632200375E-04
    0.7000000000E+05    0.6861669132E-02    0.5500200762E-03    0.6959098035E+00    0.5125761711E+00    0.9814083390E-04
    0.9000000000E+05    0.5040562876E-02    0.4088277453E-03    0.6959151894E+00    0.5416417206E+00    0.9952157577E-04
    0.1100000000E+06    0.3838551820E-02    0.3144318801E-03    0.6959183969E+00    0.5618317682E+00    0.1006379527E-03
    0.1300000000E+06    0.3011639094E-02    0.2488081496E-03    0.6959204634E+00    0.5766009535E+00    0.1015768269E-03
    0.1500000000E+06    0.2421534703E-02    0.2015589037E-03    0.6959218647E+00    0.5878366123E+00    0.1023880229E-03
    0.1700000000E+06    0.1987043041E-02    0.1664993763E-03    0.6959228481E+00    0.5966510142E+00    0.1031028326E-03
    0.1900000000E+06    0.1658522316E-02    0.1398087694E-03    0.6959235544E+00    0.6037391167E+00    0.1037422234E-03
    0.2100000000E+06    0.1404442777E-02    0.1190390884E-03    0.6959240690E+00    0.6095559489E+00    0.1043209451E-03
    0.2300000000E+06    0.1204082497E-02    0.1025693241E-03    0.6959244466E+00    0.6144111229E+00    0.1048497757E-03
    0.2500000000E+06    0.1043405647E-02    0.8929419994E-04    0.6959247236E+00    0.6185221922E+00    0.1053368347E-03
    0.2700000000E+06    0.9126493257E-03    0.7844034609E-04    0.6959249251E+00    0.6220462564E+00    0.1057883943E-03
    0.2900000000E+06    0.8048617573E-03    0.6945411099E-04    0.6959250691E+00    0.6250994549E+00    0.1062094021E-03
    0.3100000000E+06    0.7149890307E-03    0.6193101077E-04    0.6959251683E+00    0.6277694145E+00    0.1066038310E-03
    0.3300000000E+06    0.6392884515E-03    0.5557014454E-04    0.6959252325E+00    0.6301234412E+00    0.1069749204E-03
    0.3500000000E+06    0.5749421554E-03    0.5014401188E-04    0.6959252689E+00    0.6322140544E+00    0.1073253468E-03
    0.3700000000E+06    0.5197968193E-03    0.4547808213E-04    0.6959252831E+00    0.6340828150E+00    0.1076573478E-03
    0.3900000000E+06    0.4721847097E-03    0.4143668566E-04    0.6959252792E+00    0.6357630275E+00    0.1079728132E-03
    0.4100000000E+06    0.4307983586E-03    0.3791309248E-04    0.6959252608E+00    0.6372816833E+00    0.1082733542E-03
    0.4300000000E+06    0.3946013096E-03    0.3482241922E-04    0.6959252305E+00    0.6386608826E+00    0.1085603553E-03
    0.4500000000E+06    0.3627635699E-03    0.3209648110E-04    0.6959251904E+00    0.6399188894E+00    0.1088350154E-03
    0.4700000000E+06    0.3346142703E-03    0.2968000348E-04    0.6959251424E+00    0.6410709261E+00    0.1090983797E-03
    0.4900000000E+06    0.3096064934E-03    0.2752779828E-04    0.6959250877E+00    0.6421297788E+00    0.1093513649E-03
    0.1000000000E+06    0.4380689423E-02    0.3571400081E-03    0.6959169807E+00    0.5525792123E+00    0.1001061731E-03
    0.3000000000E+06    0.7579454043E-03    0.6553049097E-04    0.6959251236E+00    0.6264777317E+00    0.1064097216E-03
    0.5000000000E+06    0.2981370117E-03    0.2653889957E-04    0.6959250583E+00    0.6426277078E+00    0.1094742217E-03
    0.7000000000E+06    0.1577630137E-03    0.1431951700E-04    0.6959243182E+00    0.6496131430E+00    0.1115407807E-03
    0.9000000000E+06    0.9731067395E-04    0.8962384737E-05    0.6959235076E+00    0.6535014975E+00    0.1131097129E-03
    0.1100000000E+07    0.6592149175E-04    0.6142575992E-05    0.6959227348E+00    0.6559768200E+00    0.1143783066E-03
    0.1300000000E+07    0.4757509908E-04    0.4476147526E-05    0.6959220198E+00    0.6576903675E+00    0.1154452263E-03
    0.1500000000E+07    0.3593713591E-04    0.3409191412E-05    0.6959213624E+00    0.6589466973E+00    0.1163670730E-03
    0.1700000000E+07    0.2809746274E-04    0.2684675221E-05    0.6959207569E+00    0.6599071815E+00    0.1171793974E-03
    0.1900000000E+07    0.2256776812E-04    0.2170025423E-05    0.6959201972E+00    0.6606652735E+00    0.1179060220E-03
    0.2100000000E+07    0.1852290286E-04    0.1791194861E-05    0.6959196775E+00    0.6612788279E+00    0.1185637056E-03
    0.2300000000E+07    0.1547559154E-04    0.1504168752E-05    0.6959191928E+00    0.6617855727E+00    0.1191646948E-03
    0.2500000000E+07    0.1312310545E-04    0.1281440503E-05    0.6959187389E+00    0.6622111594E+00    0.1197182156E-03
    0.2700000000E+07    0.1126935508E-04    0.1105097386E-05    0.6959183121E+00    0.6625736358E+00    0.1202313951E-03
    0.2900000000E+07    0.9782809195E-05    0.9630650153E-06    0.6959179095E+00    0.6628860687E+00    0.1207098555E-03
    0.3100000000E+07    0.8572581364E-05    0.8469623185E-06    0.6959175285E+00    0.6631581512E+00    0.1211581112E-03
    0.3300000000E+07    0.7574244565E-05    0.7508231773E-06    0.6959171668E+00    0.6633972251E+00    0.1215798434E-03
    0.3500000000E+07    0.6741101506E-05    0.6703063223E-06    0.6959168227E+00    0.6636089530E+00    0.1219780936E-03
    0.3700000000E+07    0.6038638436E-05    0.6021913400E-06    0.6959164944E+00    0.6637977728E+00    0.1223554045E-03
    0.3900000000E+07    0.5440901872E-05    0.5440481790E-06    0.6959161805E+00    0.6639672112E+00    0.1227139238E-03
    0.4100000000E+07    0.4928072534E-05    0.4940150778E-06    0.6959158798E+00    0.6641201065E+00    0.1230554822E-03
    0.4300000000E+07    0.4484804938E-05    0.4506460695E-06    0.6959155913E+00    0.6642587686E+00    0.1233816533E-03
    0.4500000000E+07    0.4099068490E-05    0.4128042109E-06    0.6959153139E+00    0.6643850965E+00    0.1236937995E-03
    0.4700000000E+07    0.3761324189E-05    0.3795855041E-06    0.6959150468E+00    0.6645006659E+00    0.1239931085E-03
    0.4900000000E+07    0.3463930315E-05    0.3502638215E-06    0.6959147893E+00    0.6646067949E+00    0.1242806221E-03
    0.1000000000E+07    0.7934343430E-04    0.7352451126E-05    0.6959231144E+00    0.6548629122E+00    0.1137740139E-03
    0.3000000000E+07    0.9147680399E-05    0.9021909180E-06    0.6959177165E+00    0.6630266490E+00    0.1209375119E-03
    0.5000000000E+07    0.3328385954E-05    0.3368759051E-06    0.6959146639E+00    0.6646566736E+00    0.1244202470E-03
    0.7000000000E+07    0.1715576132E-05    0.1761268551E-06    0.6959125259E+00    0.6653548401E+00    0.1267688662E-03
    0.9000000000E+07    0.1049922815E-05    0.1086643645E-06    0.6959108723E+00    0.6657426087E+00    0.1285519446E-03
    0.1100000000E+08    0.7121376518E-06    0.7401329850E-07    0.6959095198E+00    0.6659893403E+00    0.1299936930E-03
    0.1300000000E+08    0.5173577064E-06    0.5384611725E-07    0.6959083732E+00    0.6661601463E+00    0.1312062410E-03
    0.1500000000E+08    0.3947991916E-06    0.4106373249E-07    0.6959073764E+00    0.6662854035E+00    0.1322539147E-03
    0.1700000000E+08    0.3126279286E-06    0.3244349669E-07    0.6959064939E+00    0.6663811910E+00    0.1331771170E-03
    0.1900000000E+08    0.2548060994E-06    0.2634916423E-07    0.6959057013E+00    0.6664568163E+00    0.1340029218E-03
    0.2100000000E+08    0.2125395824E-06    0.2187752894E-07    0.6959049815E+00    0.6665180408E+00    0.1347503756E-03
    0.2300000000E+08    0.1806781369E-06    0.1849656696E-07    0.6959043219E+00    0.6665686215E+00    0.1354333963E-03
    0.2500000000E+08    0.1560423381E-06    0.1587617107E-07    0.6959037127E+00    0.6666111130E+00    0.1360624693E-03
    0.2700000000E+08    0.1365827992E-06    0.1380260359E-07    0.6959031466E+00    0.6666473131E+00    0.1366456946E-03
