  Pressure (Pa) 22mC5-500 (mol/kg) 23mC5-500 (mol/kg) 24mC5-500 (mol/kg) 3mC6-500 (mol/kg) C7-500 (mol/kg)
    0.1000000000E+01    0.8576547971E-05    0.6155591216E-06    0.1514043572E+00    0.5869049115E-05    0.4180890033E-02
    0.3000000000E+01    0.1672037493E-04    0.1196259495E-05    0.3164933514E+00    0.1491815857E-04    0.4211977142E-02
    0.5000000000E+01    0.2045360767E-04    0.1460511775E-05    0.4047632869E+00    0.2322442712E-04    0.4226524441E-02
    0.7000000000E+01    0.2254537358E-04    0.1607986860E-05    0.4597122989E+00    0.3117607520E-04    0.4235281776E-02
    0.9000000000E+01    0.2390462146E-04    0.1703852614E-05    0.4972122332E+00    0.3890355616E-04    0.4241110942E-02
    0.1100000000E+02    0.2490069060E-04    0.1774426500E-05    0.5244357638E+00    0.4647199626E-04    0.4245229778E-02
    0.1300000000E+02    0.2570498889E-04    0.1831839805E-05    0.5450980683E+00    0.5392009273E-04    0.4248256502E-02
    0.1500000000E+02    0.2640459494E-04    0.1882208927E-05    0.5613160783E+00    0.6127331059E-04    0.4250540804E-02
    0.1700000000E+02    0.2704668665E-04    0.1928819081E-05    0.5743844690E+00    0.6854958472E-04    0.4252296148E-02
    0.1900000000E+02    0.2765804249E-04    0.1973516194E-05    0.5851395497E+00    0.7576217666E-04    0.4253660554E-02
    0.2100000000E+02    0.2825437577E-04    0.2017370318E-05    0.5941456197E+00    0.8292125899E-04    0.4254727376E-02
    0.2300000000E+02    0.2884511410E-04    0.2061013799E-05    0.6017972417E+00    0.9003486218E-04    0.4255562108E-02
    0.2500000000E+02    0.2943598205E-04    0.2104823123E-05    0.6083785976E+00    0.9710947395E-04    0.4256212106E-02
    0.2700000000E+02    0.3003045914E-04    0.2149021040E-05    0.6140995652E+00    0.1041504363E-03    0.4256712494E-02
    0.2900000000E+02    0.3063063319E-04    0.2193735985E-05    0.6191185133E+00    0.1111622186E-03    0.4257089891E-02
    0.3100000000E+02    0.3123771486E-04    0.2239037698E-05    0.6235571901E+00    0.1181486112E-03    0.4257364858E-02
    0.3300000000E+02    0.3185235583E-04    0.2284959077E-05    0.6275107295E+00    0.1251128665E-03    0.4257553532E-02
    0.3500000000E+02    0.3247484953E-04    0.2331509866E-05    0.6310545474E+00    0.1320578039E-03    0.4257668767E-02
    0.3700000000E+02    0.3310526003E-04    0.2378685365E-05    0.6342491978E+00    0.1389858892E-03    0.4257720932E-02
    0.3900000000E+02    0.3374350587E-04    0.2426472028E-05    0.6371438625E+00    0.1458992968E-03    0.4257718484E-02
    0.4100000000E+02    0.3438941516E-04    0.2474851102E-05    0.6397789008E+00    0.1527999571E-03    0.4257668397E-02
    0.4300000000E+02    0.3504276200E-04    0.2523800997E-05    0.6421877428E+00    0.1596895957E-03    0.4257576474E-02
    0.4500000000E+02    0.3570329073E-04    0.2573298831E-05    0.6443983156E+00    0.1665697634E-03    0.4257447581E-02
    0.4700000000E+02    0.3637073198E-04    0.2623321430E-05    0.6464341305E+00    0.1734418616E-03    0.4257285835E-02
    0.4900000000E+02    0.3704481324E-04    0.2673845966E-05    0.6483151228E+00    0.1803071629E-03    0.4257094739E-02
    0.1000000000E+02    0.2443455277E-04    0.1741343641E-05    0.5118251160E+00    0.4270482879E-04    0.4243336841E-02
    0.3000000000E+02    0.3093325953E-04    0.2216310767E-05    0.6214039088E+00    0.1146583741E-03    0.4257239082E-02
    0.5000000000E+02    0.3738425961E-04    0.2699289523E-05    0.6492029766E+00    0.1837376314E-03    0.4256989140E-02
    0.7000000000E+02    0.4446242449E-04    0.3229751983E-05    0.6618933022E+00    0.2522262132E-03    0.4253880482E-02
    0.9000000000E+02    0.5197359118E-04    0.3792216153E-05    0.6691602191E+00    0.3209241082E-03    0.4249637779E-02
    0.1100000000E+03    0.5981310213E-04    0.4378775462E-05    0.6738682536E+00    0.3902546559E-03    0.4244788158E-02
    0.1300000000E+03    0.6792905539E-04    0.4985597248E-05    0.6771666205E+00    0.4604906683E-03    0.4239546505E-02
    0.1500000000E+03    0.7629577118E-04    0.5610821667E-05    0.6796059787E+00    0.5318313404E-03    0.4234015470E-02
    0.1700000000E+03    0.8490133771E-04    0.6253609598E-05    0.6814832246E+00    0.6044355151E-03    0.4228248895E-02
    0.1900000000E+03    0.9374160335E-04    0.6913691336E-05    0.6829725696E+00    0.6784383828E-03    0.4222276480E-02
    0.2100000000E+03    0.1028171001E-03    0.7591138162E-05    0.6841829767E+00    0.7539607871E-03    0.4216114791E-02
    0.2300000000E+03    0.1121313784E-03    0.8286239831E-05    0.6851860925E+00    0.8311148414E-03    0.4209772700E-02
    0.2500000000E+03    0.1216900639E-03    0.8999435732E-05    0.6860309620E+00    0.9100075462E-03    0.4203254281E-02
    0.2700000000E+03    0.1315003053E-03    0.9731274856E-05    0.6867522895E+00    0.9907432532E-03    0.4196560443E-02
    0.2900000000E+03    0.1415704425E-03    0.1048239198E-04    0.6873753230E+00    0.1073425430E-02    0.4189689905E-02
    0.3100000000E+03    0.1519098070E-03    0.1125349345E-04    0.6879188694E+00    0.1158157988E-02    0.4182639788E-02
    0.3300000000E+03    0.1625286027E-03    0.1204534872E-04    0.6883972258E+00    0.1245046323E-02    0.4175405993E-02
    0.3500000000E+03    0.1734378378E-03    0.1285878580E-04    0.6888214543E+00    0.1334198176E-02    0.4167983444E-02
    0.3700000000E+03    0.1846492921E-03    0.1369468896E-04    0.6892002485E+00    0.1425724364E-02    0.4160366242E-02
    0.3900000000E+03    0.1961755067E-03    0.1455399827E-04    0.6895405346E+00    0.1519739438E-02    0.4152547771E-02
    0.4100000000E+03    0.2080297912E-03    0.1543771031E-04    0.6898478995E+00    0.1616362280E-02    0.4144520756E-02
    0.4300000000E+03    0.2202262440E-03    0.1634687979E-04    0.6901268989E+00    0.1715716678E-02    0.4136277306E-02
    0.4500000000E+03    0.2327797815E-03    0.1728262185E-04    0.6903812854E+00    0.1817931886E-02    0.4127808933E-02
    0.4700000000E+03    0.2457061767E-03    0.1824611503E-04    0.6906141772E+00    0.1923143178E-02    0.4119106552E-02
    0.4900000000E+03    0.2590221050E-03    0.1923860475E-04    0.6908281876E+00    0.2031492411E-02    0.4110160482E-02
    0.1000000000E+03    0.5585637813E-04    0.4082786376E-05    0.6717414713E+00    0.3554909481E-03    0.4247271538E-02
    0.3000000000E+03    0.1467058530E-03    0.1086539799E-04    0.6876560502E+00    0.1115528870E-02    0.4186187525E-02
    0.5000000000E+03    0.2658316142E-03    0.1974613173E-04    0.6909288153E+00    0.2086890028E-02    0.4105592872E-02
    0.7000000000E+03    0.4274715595E-03    0.3179201817E-04    0.6923404134E+00    0.3401431908E-02    0.3998512474E-02
    0.9000000000E+03    0.6577060239E-03    0.4894825367E-04    0.6931267803E+00    0.5276121650E-02    0.3849705205E-02
    0.1100000000E+04    0.1005329724E-02    0.7485238811E-04    0.6936278903E+00    0.8114337749E-02    0.3631188958E-02
    0.1300000000E+04    0.1566461778E-02    0.1166702079E-03    0.6939750670E+00    0.1271347053E-01    0.3289951119E-02
    0.1500000000E+04    0.2526262719E-02    0.1882092392E-03    0.6942297552E+00    0.2062336243E-01    0.2731042958E-02
    0.1700000000E+04    0.4122619068E-02    0.3072252068E-03    0.6944245418E+00    0.3389447012E-01    0.1860452314E-02
    0.1900000000E+04    0.6112761446E-02    0.4556758388E-03    0.6945783163E+00    0.5071524831E-01    0.8984436298E-03
    0.2100000000E+04    0.7581557435E-02    0.5653625900E-03    0.6947027831E+00    0.6358329375E-01    0.3589400239E-03
    0.2300000000E+04    0.8434628205E-02    0.6292037134E-03    0.6948055808E+00    0.7155367392E-01    0.1942387949E-03
    0.2500000000E+04    0.9038343793E-02    0.6744847013E-03    0.6948919064E+00    0.7756960946E-01    0.1560827505E-03
    0.2700000000E+04    0.9558117774E-02    0.7135315226E-03    0.6949654186E+00    0.8298468968E-01    0.1481951270E-03
    0.2900000000E+04    0.1003924949E-01    0.7497195932E-03    0.6950287676E+00    0.8816992954E-01    0.1469304435E-03
    0.3100000000E+04    0.1049340798E-01    0.7839172854E-03    0.6950839202E+00    0.9321751982E-01    0.1470754495E-03
    0.3300000000E+04    0.1092417641E-01    0.8163900683E-03    0.6951323668E+00    0.9815207799E-01    0.1475032688E-03
    0.3500000000E+04    0.1133321987E-01    0.8472604331E-03    0.6951752573E+00    0.1029822781E+00    0.1479714981E-03
    0.3700000000E+04    0.1172171495E-01    0.8766145351E-03    0.6952134928E+00    0.1077129410E+00    0.1484292594E-03
    0.3900000000E+04    0.1209068114E-01    0.9045269120E-03    0.6952477900E+00    0.1123478508E+00    0.1488672419E-03
    0.4100000000E+04    0.1244105996E-01    0.9310663845E-03    0.6952787255E+00    0.1168904191E+00    0.1492850411E-03
    0.4300000000E+04    0.1277373595E-01    0.9562976174E-03    0.6953067688E+00    0.1213438477E+00    0.1496840103E-03
    0.4500000000E+04    0.1308954407E-01    0.9802816640E-03    0.6953323058E+00    0.1257111745E+00    0.1500657082E-03
    0.4700000000E+04    0.1338927371E-01    0.1003076261E-02    0.6953556570E+00    0.1299952913E+00    0.1504315816E-03
    0.4900000000E+04    0.1367367182E-01    0.1024736056E-02    0.6953770901E+00    0.1341989537E+00    0.1507829191E-03
    0.1000000000E+04    0.8123680717E-03    0.6047315305E-04    0.6934023309E+00    0.6537749975E-02    0.3751684582E-02
    0.3000000000E+04    0.1026939880E-01    0.7670448558E-03    0.6950572660E+00    0.9070874299E-01    0.1469340834E-03
    0.5000000000E+04    0.1381034402E-01    0.1035156683E-02    0.6953871595E+00    0.1362714406E+00    0.1509534983E-03
    0.7000000000E+04    0.1589197243E-01    0.1195202409E-02    0.6955277485E+00    0.1740758510E+00    0.1538193837E-03
    0.9000000000E+04    0.1705006592E-01    0.1286448248E-02    0.6956053716E+00    0.2061909279E+00    0.1559917617E-03
    0.1100000000E+05    0.1760923040E-01    0.1332763097E-02    0.6956544483E+00    0.2339731303E+00    0.1577467144E-03
    0.1300000000E+05    0.1777395664E-01    0.1349242053E-02    0.6956881973E+00    0.2583541434E+00    0.1592218249E-03
    0.1500000000E+05    0.1767700833E-01    0.1345728996E-02    0.6957127767E+00    0.2799979946E+00    0.1604958490E-03
    0.1700000000E+05    0.1740666759E-01    0.1328802607E-02    0.6957314408E+00    0.2993930717E+00    0.1616181803E-03
    0.1900000000E+05    0.1702275154E-01    0.1302945728E-02    0.6957460703E+00    0.3169084226E+00    0.1626218814E-03
    0.2100000000E+05    0.1656637733E-01    0.1271259628E-02    0.6957578271E+00    0.3328295165E+00    0.1635301932E-03
    0.2300000000E+05    0.1606610395E-01    0.1235914210E-02    0.6957674674E+00    0.3473817108E+00    0.1643600879E-03
    0.2500000000E+05    0.1554189958E-01    0.1198439545E-02    0.6957755045E+00    0.3607460971E+00    0.1651243455E-03
    0.2700000000E+05    0.1500776439E-01    0.1159919116E-02    0.6957822988E+00    0.3730704768E+00    0.1658328342E-03
    0.2900000000E+05    0.1447349936E-01    0.1121120543E-02    0.6957881106E+00    0.3844771392E+00    0.1664933356E-03
    0.3100000000E+05    0.1394592000E-01    0.1082585587E-02    0.6957931330E+00    0.3950684883E+00    0.1671120968E-03
    0.3300000000E+05    0.1342970202E-01    0.1044693080E-02    0.6957975115E+00    0.4049311895E+00    0.1676942100E-03
    0.3500000000E+05    0.1292797813E-01    0.1007703517E-02    0.6958013585E+00    0.4141392798E+00    0.1682438819E-03
    0.3700000000E+05    0.1244276405E-01    0.9717910309E-03    0.6958047617E+00    0.4227565358E+00    0.1687646287E-03
    0.3900000000E+05    0.1197526561E-01    0.9370665408E-03    0.6958077907E+00    0.4308383039E+00    0.1692594195E-03
    0.4100000000E+05    0.1152610186E-01    0.9035946665E-03    0.6958105013E+00    0.4384329329E+00    0.1697307853E-03
    0.4300000000E+05    0.1109546838E-01    0.8714061710E-03    0.6958129391E+00    0.4455829097E+00    0.1701809008E-03
    0.4500000000E+05    0.1068325732E-01    0.8405071722E-03    0.6958151412E+00    0.4523257694E+00    0.1706116491E-03
    0.4700000000E+05    0.1028914616E-01    0.8108859944E-03    0.6958171385E+00    0.4586948324E+00    0.1710246714E-03
    0.4900000000E+05    0.9912663406E-02    0.7825182831E-03    0.6958189567E+00    0.4647198067E+00    0.1714214071E-03
    0.1000000000E+05    0.1738962316E-01    0.1314124252E-02    0.6956324038E+00    0.2205577124E+00    0.1569108968E-03
    0.3000000000E+05    0.1420853957E-01    0.1101793213E-02    0.6957907105E+00    0.3898689831E+00    0.1668075920E-03
    0.5000000000E+05    0.9730856882E-02    0.7687943621E-03    0.6958198055E+00    0.4676116808E+00    0.1716140701E-03
    0.7000000000E+05    0.6861799121E-02    0.5500277831E-03    0.6958311877E+00    0.5125761806E+00    0.1748545613E-03
    0.9000000000E+05    0.5040678467E-02    0.4088345606E-03    0.6958369002E+00    0.5416417313E+00    0.1773144774E-03
    0.1100000000E+06    0.3838657067E-02    0.3144380580E-03    0.6958401419E+00    0.5618317798E+00    0.1793033740E-03
    0.1300000000E+06    0.3011736440E-02    0.2488138427E-03    0.6958421106E+00    0.5766009660E+00    0.1809760217E-03
    0.1500000000E+06    0.2421625754E-02    0.2015642119E-03    0.6958433503E+00    0.5878366257E+00    0.1824211943E-03
    0.1700000000E+06    0.1987128920E-02    0.1665043691E-03    0.6958441410E+00    0.5966510283E+00    0.1836946445E-03
    0.1900000000E+06    0.1658603846E-02    0.1398134977E-03    0.6958446400E+00    0.6037391315E+00    0.1848337292E-03
    0.2100000000E+06    0.1404520583E-02    0.1190435907E-03    0.6958449420E+00    0.6095559644E+00    0.1858647274E-03
    0.2300000000E+06    0.1204157065E-02    0.1025736304E-03    0.6958451067E+00    0.6144111390E+00    0.1868068411E-03
    0.2500000000E+06    0.1043477366E-02    0.8929833406E-04    0.6958451734E+00    0.6185222088E+00    0.1876745365E-03
    0.2700000000E+06    0.9127185111E-03    0.7844432741E-04    0.6958451689E+00    0.6220462736E+00    0.1884789879E-03
    0.2900000000E+06    0.8049286708E-03    0.6945795550E-04    0.6958451119E+00    0.6250994727E+00    0.1892290100E-03
    0.3100000000E+06    0.7150538912E-03    0.6193473182E-04    0.6958450157E+00    0.6277694329E+00    0.1899316807E-03
    0.3300000000E+06    0.6393514447E-03    0.5557375347E-04    0.6958448902E+00    0.6301234600E+00    0.1905927712E-03
    0.3500000000E+06    0.5750034403E-03    0.5014751838E-04    0.6958447426E+00    0.6322140737E+00    0.1912170501E-03
    0.3700000000E+06    0.5198565334E-03    0.4548149456E-04    0.6958445783E+00    0.6340828348E+00    0.1918085036E-03
    0.3900000000E+06    0.4722429729E-03    0.4144001131E-04    0.6958444015E+00    0.6357630478E+00    0.1923704988E-03
    0.4100000000E+06    0.4308552761E-03    0.3791633772E-04    0.6958442153E+00    0.6372817040E+00    0.1929059057E-03
    0.4300000000E+06    0.3946569744E-03    0.3482558969E-04    0.6958440222E+00    0.6386609038E+00    0.1934171910E-03
    0.4500000000E+06    0.3628180647E-03    0.3209958181E-04    0.6958438241E+00    0.6399189110E+00    0.1939064908E-03
    0.4700000000E+06    0.3346676690E-03    0.2968303891E-04    0.6958436226E+00    0.6410709481E+00    0.1943756670E-03
    0.4900000000E+06    0.3096588623E-03    0.2753077243E-04    0.6958434188E+00    0.6421298012E+00    0.1948263527E-03
    0.1000000000E+06    0.4380799462E-02    0.3571464810E-03    0.6958387319E+00    0.5525792235E+00    0.1783559778E-03
    0.3000000000E+06    0.7580112662E-03    0.6553427222E-04    0.6958450680E+00    0.6264777498E+00    0.1895858770E-03
    0.5000000000E+06    0.2981888886E-03    0.2654184446E-04    0.6958433164E+00    0.6426277304E+00    0.1950452184E-03
    0.7000000000E+06    0.1578073433E-03    0.1432201480E-04    0.6958412992E+00    0.6496131692E+00    0.1987267183E-03
    0.9000000000E+06    0.9735009177E-04    0.8964593471E-05    0.6958394692E+00    0.6535015268E+00    0.2015217001E-03
    0.1100000000E+07    0.6595738139E-04    0.6144578125E-05    0.6958378483E+00    0.6559768521E+00    0.2037816343E-03
    0.1300000000E+07    0.4760829368E-04    0.4477992485E-05    0.6958364072E+00    0.6576904019E+00    0.2056822914E-03
    0.1500000000E+07    0.3596818341E-04    0.3410911584E-05    0.6958351143E+00    0.6589467340E+00    0.2073245052E-03
    0.1700000000E+07    0.2812674644E-04    0.2686293186E-05    0.6958339436E+00    0.6599072203E+00    0.2087716090E-03
    0.1900000000E+07    0.2259556869E-04    0.2171557670E-05    0.6958328747E+00    0.6606653142E+00    0.2100660417E-03
    0.2100000000E+07    0.1854943319E-04    0.1792653866E-05    0.6958318915E+00    0.6612788704E+00    0.2112376590E-03
    0.2300000000E+07    0.1550101769E-04    0.1505564224E-05    0.6958309813E+00    0.6617856170E+00    0.2123082776E-03
    0.2500000000E+07    0.1314755997E-04    0.1282780176E-05    0.6958301339E+00    0.6622112053E+00    0.2132943336E-03
    0.2700000000E+07    0.1129294576E-04    0.1106387538E-05    0.6958293413E+00    0.6625736833E+00    0.2142085236E-03
    0.2900000000E+07    0.9805625137E-05    0.9643108280E-06    0.6958285966E+00    0.6628861178E+00    0.2150608630E-03
    0.3100000000E+07    0.8594697226E-05    0.8481681254E-06    0.6958278943E+00    0.6631582018E+00    0.2158593946E-03
    0.3300000000E+07    0.7595723651E-05    0.7519926479E-06    0.6958272298E+00    0.6633972770E+00    0.2166106758E-03
    0.3500000000E+07    0.6761998051E-05    0.6714425960E-06    0.6958265991E+00    0.6636090064E+00    0.2173201252E-03
    0.3700000000E+07    0.6058999336E-05    0.6032971277E-06    0.6958259989E+00    0.6637978274E+00    0.2179922726E-03
    0.3900000000E+07    0.5460768001E-05    0.5451258409E-06    0.6958254262E+00    0.6639672671E+00    0.2186309438E-03
    0.4100000000E+07    0.4947479781E-05    0.4950666835E-06    0.6958248787E+00    0.6641201637E+00    0.2192394002E-03
    0.4300000000E+07    0.4503785021E-05    0.4516734462E-06    0.6958243542E+00    0.6642588270E+00    0.2198204450E-03
    0.4500000000E+07    0.4117649606E-05    0.4138089813E-06    0.6958238507E+00    0.6643851561E+00    0.2203765053E-03
    0.4700000000E+07    0.3779531540E-05    0.3805691169E-06    0.6958233667E+00    0.6645007266E+00    0.2209096970E-03
    0.4900000000E+07    0.3481786534E-05    0.3512275768E-06    0.6958229005E+00    0.6646068568E+00    0.2214218759E-03
    0.1000000000E+07    0.7938095848E-04    0.7354548858E-05    0.6958386342E+00    0.6548629429E+00    0.2027051190E-03
    0.3000000000E+07    0.9170137740E-05    0.9034162312E-06    0.6958282405E+00    0.6630266988E+00    0.2154664147E-03
    0.5000000000E+07    0.3346074392E-05    0.3378301782E-06    0.6958226737E+00    0.6646567360E+00    0.2216706046E-03
    0.7000000000E+07    0.1730690993E-05    0.1769362420E-06    0.6958188248E+00    0.6653549125E+00    0.2258544402E-03
    0.9000000000E+07    0.1063362868E-05    0.1093800786E-06    0.6958158665E+00    0.6657426896E+00    0.2290308067E-03
    0.1100000000E+08    0.7243746707E-06    0.7466206308E-07    0.6958134561E+00    0.6659894288E+00    0.2315991212E-03
    0.1300000000E+08    0.5286757815E-06    0.5444395015E-07    0.6958114182E+00    0.6661602415E+00    0.2337591350E-03
    0.1500000000E+08    0.4053851625E-06    0.4162112831E-07    0.6958096503E+00    0.6662855049E+00    0.2356254397E-03
    0.1700000000E+08    0.3226124943E-06    0.3296777299E-07    0.6958080874E+00    0.6663812982E+00    0.2372700105E-03
    0.1900000000E+08    0.2642849618E-06    0.2684566409E-07    0.6958066858E+00    0.6664569289E+00    0.2387410770E-03
    0.2100000000E+08    0.2215853309E-06    0.2235029501E-07    0.6958054144E+00    0.6665181585E+00    0.2400725689E-03
    0.2300000000E+08    0.1893473958E-06    0.1894874571E-07    0.6958042503E+00    0.6665687440E+00    0.2412892798E-03
    0.2500000000E+08    0.1643802986E-06    0.1631026856E-07    0.6958031763E+00    0.6666112401E+00    0.2424098888E-03
    0.2700000000E+08    0.1446262188E-06    0.1422065442E-07    0.6958021792E+00    0.6666474446E+00    0.2434488248E-03
