  Pressure (Pa) 22mC5-500 (mol/kg) 23mC5-500 (mol/kg) 24mC5-500 (mol/kg) 3mC6-500 (mol/kg) C7-500 (mol/kg)
    0.1000000000E+01    0.1000704625E-04    0.2156435558E-05    0.6965048555E-01    0.4638095584E-05    0.4206215091E-02
    0.3000000000E+01    0.2400038109E-04    0.5162301794E-05    0.1740827463E+00    0.1191863037E-04    0.4276621639E-02
    0.5000000000E+01    0.3322524948E-04    0.7136181008E-05    0.2486455583E+00    0.1862953067E-04    0.4325405003E-02
    0.7000000000E+01    0.3964613465E-04    0.8505028874E-05    0.3045505572E+00    0.2506566761E-04    0.4362038016E-02
    0.9000000000E+01    0.4430476992E-04    0.9494788413E-05    0.3480222118E+00    0.3132685868E-04    0.4390666567E-02
    0.1100000000E+02    0.4780121569E-04    0.1023534585E-04    0.3827933122E+00    0.3746314167E-04    0.4413695507E-02
    0.1300000000E+02    0.5050233696E-04    0.1080594604E-04    0.4112383364E+00    0.4350433570E-04    0.4432641678E-02
    0.1500000000E+02    0.5264306979E-04    0.1125722683E-04    0.4349397725E+00    0.4947010795E-04    0.4448514179E-02
    0.1700000000E+02    0.5437958061E-04    0.1162277252E-04    0.4549929085E+00    0.5537433526E-04    0.4462011960E-02
    0.1900000000E+02    0.5581890950E-04    0.1192554875E-04    0.4721799262E+00    0.6122729405E-04    0.4473635118E-02
    0.2100000000E+02    0.5703633083E-04    0.1218166644E-04    0.4870743224E+00    0.6703687707E-04    0.4483751250E-02
    0.2300000000E+02    0.5808594402E-04    0.1240267508E-04    0.5001061538E+00    0.7280932172E-04    0.4492636800E-02
    0.2500000000E+02    0.5900736117E-04    0.1259700889E-04    0.5116042436E+00    0.7854967163E-04    0.4500503788E-02
    0.2700000000E+02    0.5983005721E-04    0.1277092626E-04    0.5218243137E+00    0.8426208291E-04    0.4507517629E-02
    0.2900000000E+02    0.6057627330E-04    0.1292913591E-04    0.5309682294E+00    0.8995003489E-04    0.4513809331E-02
    0.3100000000E+02    0.6126299884E-04    0.1307522367E-04    0.5391974685E+00    0.9561647983E-04    0.4519484040E-02
    0.3300000000E+02    0.6190335169E-04    0.1321194927E-04    0.5466427407E+00    0.1012639519E-03    0.4524627156E-02
    0.3500000000E+02    0.6250755658E-04    0.1334145644E-04    0.5534109826E+00    0.1068946487E-03    0.4529308785E-02
    0.3700000000E+02    0.6308364977E-04    0.1346542391E-04    0.5595905278E+00    0.1125104925E-03    0.4533587035E-02
    0.3900000000E+02    0.6363799383E-04    0.1358517562E-04    0.5652549830E+00    0.1181131784E-03    0.4537510492E-02
    0.4100000000E+02    0.6417565858E-04    0.1370176211E-04    0.5704661748E+00    0.1237042117E-03    0.4541120106E-02
    0.4300000000E+02    0.6470070648E-04    0.1381602141E-04    0.5752764154E+00    0.1292849376E-03    0.4544450645E-02
    0.4500000000E+02    0.6521640849E-04    0.1392862498E-04    0.5797302654E+00    0.1348565647E-03    0.4547531825E-02
    0.4700000000E+02    0.6572540915E-04    0.1404011281E-04    0.5838659177E+00    0.1404201854E-03    0.4550389203E-02
    0.4900000000E+02    0.6622985387E-04    0.1415092044E-04    0.5877162962E+00    0.1459767909E-03    0.4553044887E-02
    0.1000000000E+02    0.4617138283E-04    0.9890406559E-05    0.3663234755E+00    0.3440843655E-04    0.4402771085E-02
    0.3000000000E+02    0.6092617484E-04    0.1300350598E-04    0.5351883855E+00    0.9278577862E-04    0.4516718068E-02
    0.5000000000E+02    0.6648092653E-04    0.1420618198E-04    0.5895435756E+00    0.1487527486E-03    0.4554303200E-02
    0.7000000000E+02    0.7154681778E-04    0.1533212517E-04    0.6163731198E+00    0.2040871787E-03    0.4572447700E-02
    0.9000000000E+02    0.7697155249E-04    0.1654891282E-04    0.6323611789E+00    0.2594098118E-03    0.4582503423E-02
    0.1100000000E+03    0.8283307810E-04    0.1786727826E-04    0.6429745171E+00    0.3150450804E-03    0.4588323145E-02
    0.1300000000E+03    0.8909668852E-04    0.1927693970E-04    0.6505333119E+00    0.3711980011E-03    0.4591595910E-02
    0.1500000000E+03    0.9571778668E-04    0.2076686103E-04    0.6561902840E+00    0.4280145455E-03    0.4593186430E-02
    0.1700000000E+03    0.1026596381E-03    0.2232835376E-04    0.6605829465E+00    0.4856078002E-03    0.4593586321E-02
    0.1900000000E+03    0.1098948484E-03    0.2395508028E-04    0.6640925149E+00    0.5440711021E-03    0.4593097021E-02
    0.2100000000E+03    0.1174037918E-03    0.2564256435E-04    0.6669609435E+00    0.6034853439E-03    0.4591914150E-02
    0.2300000000E+03    0.1251728233E-03    0.2738772812E-04    0.6693491951E+00    0.6639233611E-03    0.4590170342E-02
    0.2500000000E+03    0.1331928298E-03    0.2918853738E-04    0.6713685129E+00    0.7254527316E-03    0.4587958672E-02
    0.2700000000E+03    0.1414581496E-03    0.3104374446E-04    0.6730982416E+00    0.7881376550E-03    0.4585346242E-02
    0.2900000000E+03    0.1499657872E-03    0.3295270454E-04    0.6745964961E+00    0.8520402706E-03    0.4582382468E-02
    0.3100000000E+03    0.1587148454E-03    0.3491524433E-04    0.6759068166E+00    0.9172216189E-03    0.4579104336E-02
    0.3300000000E+03    0.1677061131E-03    0.3693156765E-04    0.6770624681E+00    0.9837423697E-03    0.4575539849E-02
    0.3500000000E+03    0.1769417649E-03    0.3900218719E-04    0.6780893025E+00    0.1051663393E-02    0.4571710363E-02
    0.3700000000E+03    0.1864251418E-03    0.4112787473E-04    0.6790077147E+00    0.1121046221E-02    0.4567632206E-02
    0.3900000000E+03    0.1961605888E-03    0.4330962484E-04    0.6798340105E+00    0.1191953438E-02    0.4563317822E-02
    0.4100000000E+03    0.2061533373E-03    0.4554862837E-04    0.6805813819E+00    0.1264449014E-02    0.4558776602E-02
    0.4300000000E+03    0.2164094184E-03    0.4784625319E-04    0.6812606172E+00    0.1338598605E-02    0.4554015489E-02
    0.4500000000E+03    0.2269356006E-03    0.5020403042E-04    0.6818806241E+00    0.1414469825E-02    0.4549039436E-02
    0.4700000000E+03    0.2377393470E-03    0.5262364484E-04    0.6824488226E+00    0.1492132505E-02    0.4543851747E-02
    0.4900000000E+03    0.2488287857E-03    0.5510692863E-04    0.6829714430E+00    0.1571658936E-02    0.4538454333E-02
    0.1000000000E+03    0.7984919766E-04    0.1719593826E-04    0.6381547620E+00    0.2871737163E-03    0.4585809289E-02
    0.3000000000E+03    0.1543101250E-03    0.3392727217E-04    0.6752728672E+00    0.8844673100E-03    0.4580780768E-02
    0.5000000000E+03    0.2544833574E-03    0.5637305843E-04    0.6832173406E+00    0.1612144383E-02    0.4535677247E-02
    0.7000000000E+03    0.3851148009E-03    0.8560919098E-04    0.6866776117E+00    0.2540089342E-02    0.4468775495E-02
    0.9000000000E+03    0.5592591396E-03    0.1245635863E-03    0.6886138969E+00    0.3768391127E-02    0.4376449605E-02
    0.1100000000E+04    0.7997036805E-03    0.1783360234E-03    0.6898508977E+00    0.5461268673E-02    0.4248178759E-02
    0.1300000000E+04    0.1146673586E-02    0.2559247200E-03    0.6907092500E+00    0.7905849485E-02    0.4064499827E-02
    0.1500000000E+04    0.1673673836E-02    0.3737720643E-03    0.6913395795E+00    0.1162746062E-01    0.3790406411E-02
    0.1700000000E+04    0.2514404607E-02    0.5617907971E-03    0.6918219883E+00    0.1758770982E-01    0.3365267317E-02
    0.1900000000E+04    0.3870256173E-02    0.8650609394E-03    0.6922030019E+00    0.2725908329E-01    0.2708849102E-02
    0.2100000000E+04    0.5799198096E-02    0.1296654121E-02    0.6925114916E+00    0.4116406597E-01    0.1840981349E-02
    0.2300000000E+04    0.7714415562E-02    0.1725451461E-02    0.6927663221E+00    0.5525615775E-01    0.1094181470E-02
    0.2500000000E+04    0.8983947184E-02    0.2010064996E-02    0.6929803400E+00    0.6499142143E-01    0.7341913978E-03
    0.2700000000E+04    0.9766302047E-02    0.2185828738E-02    0.6931625965E+00    0.7137876901E-01    0.6197521200E-03
    0.2900000000E+04    0.1035056876E-01    0.2317354831E-02    0.6933196520E+00    0.7643144999E-01    0.5901024329E-03
    0.3100000000E+04    0.1086016807E-01    0.2432239058E-02    0.6934563778E+00    0.8102053458E-01    0.5839383617E-03
    0.3300000000E+04    0.1133353737E-01    0.2539075496E-02    0.6935764666E+00    0.8541755053E-01    0.5838416452E-03
    0.3500000000E+04    0.1178212736E-01    0.2640422038E-02    0.6936827686E+00    0.8970139167E-01    0.5852368427E-03
    0.3700000000E+04    0.1220974072E-01    0.2737125557E-02    0.6937775186E+00    0.9389593200E-01    0.5869459208E-03
    0.3900000000E+04    0.1261804901E-01    0.2829556179E-02    0.6938624936E+00    0.9800971430E-01    0.5886702220E-03
    0.4100000000E+04    0.1300810943E-01    0.2917946732E-02    0.6939391245E+00    0.1020469663E+00    0.5903380854E-03
    0.4300000000E+04    0.1338078015E-01    0.3002485709E-02    0.6940085760E+00    0.1060106383E+00    0.5919362093E-03
    0.4500000000E+04    0.1373683550E-01    0.3083343044E-02    0.6940718060E+00    0.1099032453E+00    0.5934659074E-03
    0.4700000000E+04    0.1407699926E-01    0.3160677566E-02    0.6941296095E+00    0.1137271042E+00    0.5949317538E-03
    0.4900000000E+04    0.1440195551E-01    0.3234639406E-02    0.6941826518E+00    0.1174844048E+00    0.5963386775E-03
    0.1000000000E+04    0.6692229558E-03    0.1491566251E-03    0.6892938088E+00    0.4542674616E-02    0.4317758939E-02
    0.3000000000E+04    0.1061126121E-01    0.2376107832E-02    0.6933903023E+00    0.7875958157E-01    0.5856779926E-03
    0.5000000000E+04    0.1455893489E-01    0.3270400364E-02    0.6942075663E+00    0.1193387513E+00    0.5970214953E-03
    0.7000000000E+04    0.1704149863E-01    0.3839601766E-02    0.6945549464E+00    0.1533920050E+00    0.6084698142E-03
    0.9000000000E+04    0.1857105380E-01    0.4196313951E-02    0.6947461068E+00    0.1826744194E+00    0.6171238106E-03
    0.1100000000E+05    0.1945850596E-01    0.4409047948E-02    0.6948665222E+00    0.2082871127E+00    0.6241037188E-03
    0.1300000000E+05    0.1990527073E-01    0.4522325230E-02    0.6949490046E+00    0.2309953523E+00    0.6299644881E-03
    0.1500000000E+05    0.2004579100E-01    0.4565967401E-02    0.6950088297E+00    0.2513494480E+00    0.6350226043E-03
    0.1700000000E+05    0.1997202796E-01    0.4560452720E-02    0.6950540632E+00    0.2697568693E+00    0.6394760513E-03
    0.1900000000E+05    0.1974815696E-01    0.4520134154E-02    0.6950893616E+00    0.2865270631E+00    0.6434571069E-03
    0.2100000000E+05    0.1941969953E-01    0.4455241888E-02    0.6951175990E+00    0.3019002985E+00    0.6470586208E-03
    0.2300000000E+05    0.1901937200E-01    0.4373167852E-02    0.6951406439E+00    0.3160668049E+00    0.6503483230E-03
    0.2500000000E+05    0.1857093062E-01    0.4279311735E-02    0.6951597631E+00    0.3291798125E+00    0.6533771672E-03
    0.2700000000E+05    0.1809175823E-01    0.4177651221E-02    0.6951758452E+00    0.3413646523E+00    0.6561844686E-03
    0.2900000000E+05    0.1759463962E-01    0.4071134240E-02    0.6951895313E+00    0.3527252407E+00    0.6588012105E-03
    0.3100000000E+05    0.1708900200E-01    0.3961953671E-02    0.6952012958E+00    0.3633487909E+00    0.6612522519E-03
    0.3300000000E+05    0.1658179538E-01    0.3851742824E-02    0.6952114967E+00    0.3733092946E+00    0.6635578478E-03
    0.3500000000E+05    0.1607812618E-01    0.3741716523E-02    0.6952204093E+00    0.3826701383E+00    0.6657347243E-03
    0.3700000000E+05    0.1558171890E-01    0.3632774208E-02    0.6952282486E+00    0.3914860954E+00    0.6677968564E-03
    0.3900000000E+05    0.1509525618E-01    0.3525576144E-02    0.6952351850E+00    0.3998048666E+00    0.6697560426E-03
    0.4100000000E+05    0.1462063178E-01    0.3420600304E-02    0.6952413550E+00    0.4076682836E+00    0.6716223356E-03
    0.4300000000E+05    0.1415914032E-01    0.3318185200E-02    0.6952468695E+00    0.4151132623E+00    0.6734043727E-03
    0.4500000000E+05    0.1371162071E-01    0.3218562394E-02    0.6952518191E+00    0.4221725654E+00    0.6751096300E-03
    0.4700000000E+05    0.1327856525E-01    0.3121881337E-02    0.6952562789E+00    0.4288754180E+00    0.6767446229E-03
    0.4900000000E+05    0.1286020310E-01    0.3028228467E-02    0.6952603116E+00    0.4352480108E+00    0.6783150643E-03
    0.1000000000E+05    0.1908050267E-01    0.4317467614E-02    0.6948124901E+00    0.1958855084E+00    0.6207805416E-03
    0.3000000000E+05    0.1734240167E-01    0.4016763579E-02    0.6951956291E+00    0.3581242454E+00    0.6600460842E-03
    0.5000000000E+05    0.1265654779E-01    0.2982551085E-02    0.6952621845E+00    0.4383179178E+00    0.6790776758E-03
    0.7000000000E+05    0.9302754374E-02    0.2222325080E-02    0.6952864312E+00    0.4870319850E+00    0.6919021129E-03
    0.9000000000E+05    0.7032093209E-02    0.1698850227E-02    0.6952974968E+00    0.5195549235E+00    0.7016350506E-03
    0.1100000000E+06    0.5466846155E-02    0.1333335325E-02    0.6953029892E+00    0.5426347816E+00    0.7095032395E-03
    0.1300000000E+06    0.4355965056E-02    0.1071193334E-02    0.6953057069E+00    0.5597622141E+00    0.7161197120E-03
    0.1500000000E+06    0.3544500470E-02    0.8780011882E-03    0.6953068968E+00    0.5729203840E+00    0.7218359809E-03
    0.1700000000E+06    0.2936146738E-02    0.7320455757E-03    0.6953071873E+00    0.5833133236E+00    0.7268727607E-03
    0.1900000000E+06    0.2469539005E-02    0.6193323521E-03    0.6953069240E+00    0.5917105206E+00    0.7313779150E-03
    0.2100000000E+06    0.2104453829E-02    0.5306024294E-03    0.6953063094E+00    0.5986245969E+00    0.7354554480E-03
    0.2300000000E+06    0.1813790989E-02    0.4595677057E-03    0.6953054679E+00    0.6044090486E+00    0.7391813488E-03
    0.2500000000E+06    0.1578822543E-02    0.4018524114E-03    0.6953044791E+00    0.6093148710E+00    0.7426128592E-03
    0.2700000000E+06    0.1386304963E-02    0.3543430438E-03    0.6953033955E+00    0.6135248087E+00    0.7457941936E-03
    0.2900000000E+06    0.1226676812E-02    0.3147792105E-03    0.6953022524E+00    0.6171748430E+00    0.7487602274E-03
    0.3100000000E+06    0.1092904985E-02    0.2814897970E-03    0.6953010738E+00    0.6203681072E+00    0.7515389638E-03
    0.3300000000E+06    0.9797284229E-03    0.2532189131E-03    0.6952998768E+00    0.6231841489E+00    0.7541532346E-03
    0.3500000000E+06    0.8831513920E-03    0.2290086107E-03    0.6952986731E+00    0.6256852494E+00    0.7566219043E-03
    0.3700000000E+06    0.8000971043E-03    0.2081182949E-03    0.6952974711E+00    0.6279208285E+00    0.7589607426E-03
    0.3900000000E+06    0.7281665395E-03    0.1899683478E-03    0.6952962768E+00    0.6299305753E+00    0.7611830687E-03
    0.4100000000E+06    0.6654676640E-03    0.1741000330E-03    0.6952950943E+00    0.6317467133E+00    0.7633002359E-03
    0.4300000000E+06    0.6104926137E-03    0.1601465452E-03    0.6952939266E+00    0.6333956640E+00    0.7653220019E-03
    0.4500000000E+06    0.5620281030E-03    0.1478118116E-03    0.6952927757E+00    0.6348992880E+00    0.7672568155E-03
    0.4700000000E+06    0.5190892089E-03    0.1368547695E-03    0.6952916428E+00    0.6362758221E+00    0.7691120417E-03
    0.4900000000E+06    0.4808698349E-03    0.1270775650E-03    0.6952905290E+00    0.6375405955E+00    0.7708941401E-03
    0.1000000000E+06    0.6179765554E-02    0.1500332137E-02    0.6953007096E+00    0.5320088538E+00    0.7057553944E-03
    0.3000000000E+06    0.1156922314E-02    0.2974368339E-03    0.6953016663E+00    0.6188231322E+00    0.7501714756E-03
    0.5000000000E+06    0.4633175458E-03    0.1225791379E-03    0.6952899793E+00    0.6381352063E+00    0.7717595733E-03
    0.7000000000E+06    0.2471791165E-03    0.6665462513E-04    0.6952799909E+00    0.6464632961E+00    0.7863164807E-03
    0.9000000000E+06    0.1532213303E-03    0.4190822681E-04    0.6952716540E+00    0.6510839779E+00    0.7973675948E-03
    0.1100000000E+07    0.1041673082E-03    0.2881249150E-04    0.6952645569E+00    0.6540179707E+00    0.8063029304E-03
    0.1300000000E+07    0.7539148944E-04    0.2104583930E-04    0.6952583910E+00    0.6560450099E+00    0.8138175956E-03
    0.1500000000E+07    0.5708925127E-04    0.1606048492E-04    0.6952529431E+00    0.6575288691E+00    0.8203103370E-03
    0.1700000000E+07    0.4473503709E-04    0.1266863532E-04    0.6952480633E+00    0.6586618853E+00    0.8260315990E-03
    0.1900000000E+07    0.3600652167E-04    0.1025557474E-04    0.6952436434E+00    0.6595552395E+00    0.8311491976E-03
    0.2100000000E+07    0.2961283183E-04    0.8477081219E-05    0.6952396032E+00    0.6602776524E+00    0.8357811893E-03
    0.2300000000E+07    0.2479010639E-04    0.7128130093E-05    0.6952358817E+00    0.6608738773E+00    0.8400138409E-03
    0.2500000000E+07    0.2106298933E-04    0.6080382982E-05    0.6952324314E+00    0.6613743062E+00    0.8439121427E-03
    0.2700000000E+07    0.1812314311E-04    0.5250149968E-05    0.6952292148E+00    0.6618003006E+00    0.8475262979E-03
    0.2900000000E+07    0.1576349724E-04    0.4580953275E-05    0.6952262016E+00    0.6621673125E+00    0.8508959087E-03
    0.3100000000E+07    0.1384082062E-04    0.4033551592E-05    0.6952233671E+00    0.6624867951E+00    0.8540527751E-03
    0.3300000000E+07    0.1225348803E-04    0.3579986530E-05    0.6952206908E+00    0.6627674173E+00    0.8570228259E-03
    0.3500000000E+07    0.1092778081E-04    0.3199898478E-05    0.6952181555E+00    0.6630158612E+00    0.8598274856E-03
    0.3700000000E+07    0.9809173975E-05    0.2878174066E-05    0.6952157468E+00    0.6632373604E+00    0.8624846641E-03
    0.3900000000E+07    0.8856638766E-05    0.2603402062E-05    0.6952134524E+00    0.6634360719E+00    0.8650094890E-03
    0.4100000000E+07    0.8038824538E-05    0.2366834961E-05    0.6952112616E+00    0.6636153399E+00    0.8674148553E-03
    0.4300000000E+07    0.7331443644E-05    0.2161675391E-05    0.6952091653E+00    0.6637778847E+00    0.8697118460E-03
    0.4500000000E+07    0.6715444914E-05    0.1982576147E-05    0.6952071555E+00    0.6639259417E+00    0.8719100579E-03
    0.4700000000E+07    0.6175715256E-05    0.1825283737E-05    0.6952052250E+00    0.6640613651E+00    0.8740178565E-03
    0.4900000000E+07    0.5700141844E-05    0.1686380187E-05    0.6952033677E+00    0.6641857056E+00    0.8760425793E-03
    0.1000000000E+07    0.1251682004E-03    0.3443803873E-04    0.6952679724E+00    0.6526984633E+00    0.8020466267E-03
    0.3000000000E+07    0.1475467318E-04    0.4293988522E-05    0.6952247634E+00    0.6623323988E+00    0.8524991950E-03
    0.5000000000E+07    0.5483275851E-05    0.1622936828E-05    0.6952024648E+00    0.6642441365E+00    0.8770258397E-03
    0.7000000000E+07    0.2895021157E-05    0.8596997601E-06    0.6951871927E+00    0.6650615448E+00    0.8935648511E-03
    0.9000000000E+07    0.1819056080E-05    0.5379970881E-06    0.6951755102E+00    0.6655151626E+00    0.9061208979E-03
    0.1100000000E+08    0.1268862637E-05    0.3720363600E-06    0.6951660206E+00    0.6658036527E+00    0.9162731117E-03
    0.1300000000E+08    0.9489921851E-06    0.2750067692E-06    0.6951580146E+00    0.6660033043E+00    0.9248112084E-03
    0.1500000000E+08    0.7459666996E-06    0.2132151138E-06    0.6951510812E+00    0.6661496838E+00    0.9321882175E-03
    0.1700000000E+08    0.6085917408E-06    0.1713371100E-06    0.6951449604E+00    0.6662616071E+00    0.9386886823E-03
    0.1900000000E+08    0.5109935005E-06    0.1415774341E-06    0.6951394775E+00    0.6663499624E+00    0.9445032698E-03
    0.2100000000E+08    0.4389375412E-06    0.1196249019E-06    0.6951345087E+00    0.6664214872E+00    0.9497661128E-03
    0.2300000000E+08    0.3840589851E-06    0.1029351543E-06    0.6951299636E+00    0.6664805743E+00    0.9545752264E-03
    0.2500000000E+08    0.3411755905E-06    0.8992637075E-07    0.6951257737E+00    0.6665302100E+00    0.9590044515E-03
    0.2700000000E+08    0.3069347532E-06    0.7957229059E-07    0.6951218862E+00    0.6665724955E+00    0.9631108288E-03
