  Pressure (Pa) 22mC5-500 (mol/kg) 23mC5-500 (mol/kg) 24mC5-500 (mol/kg) 3mC6-500 (mol/kg) C7-500 (mol/kg)
    0.1000000000E+01    0.7852501551E-05    0.3380419081E-05    0.1950003294E+00    0.8974930237E-06    0.4167899675E-02
    0.3000000000E+01    0.1395436106E-04    0.5986092951E-05    0.3749065412E+00    0.2255828808E-05    0.4190583863E-02
    0.5000000000E+01    0.1640223730E-04    0.7024353120E-05    0.4597375000E+00    0.3494353079E-05    0.4198855777E-02
    0.7000000000E+01    0.1775784882E-04    0.7600117906E-05    0.5091081313E+00    0.4674720139E-05    0.4203428247E-02
    0.9000000000E+01    0.1869891958E-04    0.8003157125E-05    0.5414091272E+00    0.5817581900E-05    0.4206356055E-02
    0.1100000000E+02    0.1946317536E-04    0.8334120881E-05    0.5641883723E+00    0.6933240010E-05    0.4208391092E-02
    0.1300000000E+02    0.2014849195E-04    0.8633975022E-05    0.5811153344E+00    0.8027814981E-05    0.4209882419E-02
    0.1500000000E+02    0.2079939479E-04    0.8921094958E-05    0.5941886035E+00    0.9105335279E-05    0.4211016085E-02
    0.1700000000E+02    0.2143743855E-04    0.9204215438E-05    0.6045897312E+00    0.1016863904E-04    0.4211900951E-02
    0.1900000000E+02    0.2207341241E-04    0.9487599362E-05    0.6130620319E+00    0.1121982557E-04    0.4212605218E-02
    0.2100000000E+02    0.2271274497E-04    0.9773310235E-05    0.6200965202E+00    0.1226050568E-04    0.4213173909E-02
    0.2300000000E+02    0.2335807940E-04    0.1006228611E-04    0.6260305843E+00    0.1329195126E-04    0.4213638015E-02
    0.2500000000E+02    0.2401057102E-04    0.1035487572E-04    0.6311037100E+00    0.1431518999E-04    0.4214019605E-02
    0.2700000000E+02    0.2467057013E-04    0.1065111755E-04    0.6354905905E+00    0.1533106805E-04    0.4214334845E-02
    0.2900000000E+02    0.2533799311E-04    0.1095088953E-04    0.6393216498E+00    0.1634029329E-04    0.4214595864E-02
    0.3100000000E+02    0.2601252916E-04    0.1125399101E-04    0.6426962308E+00    0.1734346584E-04    0.4214811952E-02
    0.3300000000E+02    0.2669375700E-04    0.1156018819E-04    0.6456913328E+00    0.1834110040E-04    0.4214990350E-02
    0.3500000000E+02    0.2738121124E-04    0.1186923917E-04    0.6483675591E+00    0.1933364285E-04    0.4215136795E-02
    0.3700000000E+02    0.2807441988E-04    0.1218090749E-04    0.6507732606E+00    0.2032148288E-04    0.4215255889E-02
    0.3900000000E+02    0.2877292495E-04    0.1249496921E-04    0.6529474832E+00    0.2130496370E-04    0.4215351374E-02
    0.4100000000E+02    0.2947629336E-04    0.1281121614E-04    0.6549221035E+00    0.2228438972E-04    0.4215426325E-02
    0.4300000000E+02    0.3018412195E-04    0.1312945696E-04    0.6567234020E+00    0.2326003257E-04    0.4215483293E-02
    0.4500000000E+02    0.3089603911E-04    0.1344951712E-04    0.6583732394E+00    0.2423213604E-04    0.4215524414E-02
    0.4700000000E+02    0.3161170450E-04    0.1377123804E-04    0.6598899486E+00    0.2520092003E-04    0.4215551491E-02
    0.4900000000E+02    0.3233080766E-04    0.1409447613E-04    0.6612890183E+00    0.2616658378E-04    0.4215566056E-02
    0.1000000000E+02    0.1909520457E-04    0.8174311970E-05    0.5537048872E+00    0.6378364215E-05    0.4207457931E-02
    0.3000000000E+02    0.2567439670E-04    0.1110203828E-04    0.6410607444E+00    0.1684260220E-04    0.4214709031E-02
    0.5000000000E+02    0.3269155909E-04    0.1425662301E-04    0.6619486342E+00    0.2664830286E-04    0.4215569065E-02
    0.7000000000E+02    0.4003119641E-04    0.1755375096E-04    0.6713235059E+00    0.3615552836E-04    0.4215210104E-02
    0.9000000000E+02    0.4751579427E-04    0.2091275714E-04    0.6766475347E+00    0.4548743419E-04    0.4214387368E-02
    0.1100000000E+03    0.5507405388E-04    0.2430229655E-04    0.6800797909E+00    0.5470608991E-04    0.4213333649E-02
    0.1300000000E+03    0.6267516838E-04    0.2770915232E-04    0.6824764570E+00    0.6384865383E-04    0.4212146177E-02
    0.1500000000E+03    0.7030514405E-04    0.3112749003E-04    0.6842447827E+00    0.7293975354E-04    0.4210873201E-02
    0.1700000000E+03    0.7795766788E-04    0.3455479447E-04    0.6856032280E+00    0.8199686545E-04    0.4209541506E-02
    0.1900000000E+03    0.8563019116E-04    0.3799015115E-04    0.6866794986E+00    0.9103302055E-04    0.4208167175E-02
    0.2100000000E+03    0.9332209911E-04    0.4143345281E-04    0.6875532396E+00    0.1000583095E-03    0.4206760446E-02
    0.2300000000E+03    0.1010337969E-03    0.4488500777E-04    0.6882767000E+00    0.1090807838E-03    0.4205328126E-02
    0.2500000000E+03    0.1087662300E-03    0.4834533701E-04    0.6888855795E+00    0.1181070277E-03    0.4203874904E-02
    0.2700000000E+03    0.1165206228E-03    0.5181506522E-04    0.6894051001E+00    0.1271425367E-03    0.4202404097E-02
    0.2900000000E+03    0.1242983334E-03    0.5529486105E-04    0.6898535873E+00    0.1361919792E-03    0.4200918102E-02
    0.3100000000E+03    0.1321007702E-03    0.5878540403E-04    0.6902446762E+00    0.1452593809E-03    0.4199418683E-02
    0.3300000000E+03    0.1399293458E-03    0.6228736645E-04    0.6905887222E+00    0.1543482602E-03    0.4197907154E-02
    0.3500000000E+03    0.1477854508E-03    0.6580140367E-04    0.6908937310E+00    0.1634617289E-03    0.4196384503E-02
    0.3700000000E+03    0.1556704400E-03    0.6932814948E-04    0.6911659892E+00    0.1726025677E-03    0.4194851479E-02
    0.3900000000E+03    0.1635856253E-03    0.7286821420E-04    0.6914105025E+00    0.1817732861E-03    0.4193308650E-02
    0.4100000000E+03    0.1715322742E-03    0.7642218450E-04    0.6916313058E+00    0.1909761680E-03    0.4191756447E-02
    0.4300000000E+03    0.1795116090E-03    0.7999062418E-04    0.6918316879E+00    0.2002133085E-03    0.4190195196E-02
    0.4500000000E+03    0.1875248092E-03    0.8357407534E-04    0.6920143561E+00    0.2094866435E-03    0.4188625140E-02
    0.4700000000E+03    0.1955730136E-03    0.8717305996E-04    0.6921815596E+00    0.2187979738E-03    0.4187046458E-02
    0.4900000000E+03    0.2036573230E-03    0.9078808142E-04    0.6923351821E+00    0.2281489849E-03    0.4185459276E-02
    0.1000000000E+03    0.5128820416E-04    0.2260478465E-04    0.6785309721E+00    0.5010820920E-04    0.4213881623E-02
    0.3000000000E+03    0.1281963724E-03    0.5703874681E-04    0.6900555951E+00    0.1407232046E-03    0.4200169980E-02
    0.5000000000E+03    0.2077133516E-03    0.9260175860E-04    0.6924074072E+00    0.2328398698E-03    0.4184662525E-02
    0.7000000000E+03    0.2909742143E-03    0.1298285174E-03    0.6934200438E+00    0.3290879926E-03    0.4168286893E-02
    0.9000000000E+03    0.3789185210E-03    0.1691450034E-03    0.6939837679E+00    0.4307581514E-03    0.4151030875E-02
    0.1100000000E+04    0.4723695304E-03    0.2109214482E-03    0.6943428849E+00    0.5388682930E-03    0.4132792127E-02
    0.1300000000E+04    0.5721400869E-03    0.2555222911E-03    0.6945916525E+00    0.6543910642E-03    0.4113443521E-02
    0.1500000000E+04    0.6790884201E-03    0.3033318215E-03    0.6947741414E+00    0.7783421342E-03    0.4092841887E-02
    0.1700000000E+04    0.7941552202E-03    0.3547710027E-03    0.6949137136E+00    0.9118307591E-03    0.4070827305E-02
    0.1900000000E+04    0.9183947413E-03    0.4103114842E-03    0.6950239069E+00    0.1056099037E-02    0.4047219973E-02
    0.2100000000E+04    0.1053005654E-02    0.4704894509E-03    0.6951131075E+00    0.1212559482E-02    0.4021816006E-02
    0.2300000000E+04    0.1199364872E-02    0.5359207787E-03    0.6951867876E+00    0.1382835637E-02    0.3994382378E-02
    0.2500000000E+04    0.1359066730E-02    0.6073185745E-03    0.6952486700E+00    0.1568808882E-02    0.3964650878E-02
    0.2700000000E+04    0.1533969716E-02    0.6855140919E-03    0.6953013750E+00    0.1772674203E-02    0.3932310871E-02
    0.2900000000E+04    0.1726253150E-02    0.7714820913E-03    0.6953468009E+00    0.1997007855E-02    0.3897000558E-02
    0.3100000000E+04    0.1938486553E-02    0.8663718827E-03    0.6953863561E+00    0.2244850289E-02    0.3858296373E-02
    0.3300000000E+04    0.2173715007E-02    0.9715455182E-03    0.6954211079E+00    0.2519808335E-02    0.3815700104E-02
    0.3500000000E+04    0.2435564382E-02    0.1088624879E-02    0.6954518798E+00    0.2826181417E-02    0.3768623235E-02
    0.3700000000E+04    0.2728370910E-02    0.1219549663E-02    0.6954793171E+00    0.3169117339E-02    0.3716368018E-02
    0.3900000000E+04    0.3057339974E-02    0.1366648444E-02    0.6955039331E+00    0.3554803724E-02    0.3658104781E-02
    0.4100000000E+04    0.3428738654E-02    0.1532724858E-02    0.6955261406E+00    0.3990701017E-02    0.3592845196E-02
    0.4300000000E+04    0.3850124880E-02    0.1721160182E-02    0.6955462759E+00    0.4485821108E-02    0.3519411702E-02
    0.4500000000E+04    0.4330611130E-02    0.1936031409E-02    0.6955646155E+00    0.5051050235E-02    0.3436404377E-02
    0.4700000000E+04    0.4881149863E-02    0.2182239093E-02    0.6955813886E+00    0.5699502450E-02    0.3342168669E-02
    0.4900000000E+04    0.5514805935E-02    0.2465629465E-02    0.6955967872E+00    0.6446864593E-02    0.3234771432E-02
    0.1000000000E+04    0.4249054339E-03    0.1897031839E-03    0.6941812483E+00    0.4839476995E-03    0.4142041889E-02
    0.3000000000E+04    0.1829698059E-02    0.8177321246E-03    0.6953672390E+00    0.2117779671E-02    0.3878101920E-02
    0.5000000000E+04    0.5867512417E-02    0.2623375723E-02    0.6956040227E+00    0.6863308239E-02    0.3175455844E-02
    0.7000000000E+04    0.2023597798E-01    0.9052707362E-02    0.6957051461E+00    0.2409640876E-01    0.1006016564E-02
    0.9000000000E+04    0.3056664300E-01    0.1368654152E-01    0.6957611054E+00    0.3746953657E-01    0.1017585630E-03
    0.1100000000E+05    0.3507811470E-01    0.1572113172E-01    0.6957965680E+00    0.4429259031E-01    0.7707149044E-04
    0.1300000000E+05    0.3883893206E-01    0.1742225050E-01    0.6958210134E+00    0.5046183711E-01    0.7727442378E-04
    0.1500000000E+05    0.4211604426E-01    0.1890872486E-01    0.6958388607E+00    0.5624788105E-01    0.7788038911E-04
    0.1700000000E+05    0.4498830642E-01    0.2021534430E-01    0.6958524469E+00    0.6170489145E-01    0.7842440899E-04
    0.1900000000E+05    0.4751625779E-01    0.2136881541E-01    0.6958631233E+00    0.6687354427E-01    0.7891123915E-04
    0.2100000000E+05    0.4974917960E-01    0.2239089348E-01    0.6958717257E+00    0.7178758616E-01    0.7935183639E-04
    0.2300000000E+05    0.5172762602E-01    0.2329949437E-01    0.6958787981E+00    0.7647535298E-01    0.7975441483E-04
    0.2500000000E+05    0.5348525483E-01    0.2410949834E-01    0.6958847102E+00    0.8096083595E-01    0.8012516733E-04
    0.2700000000E+05    0.5505021714E-01    0.2483336055E-01    0.6958897218E+00    0.8526450080E-01    0.8046887665E-04
    0.2900000000E+05    0.5644622616E-01    0.2548158071E-01    0.6958940208E+00    0.8940392654E-01    0.8078931477E-04
    0.3100000000E+05    0.5769338789E-01    0.2606306825E-01    0.6958977463E+00    0.9339430869E-01    0.8108950998E-04
    0.3300000000E+05    0.5880885331E-01    0.2658542914E-01    0.6959010037E+00    0.9724885970E-01    0.8137193105E-04
    0.3500000000E+05    0.5980733487E-01    0.2705519316E-01    0.6959038740E+00    0.1009791303E+00    0.8163861757E-04
    0.3700000000E+05    0.6070151918E-01    0.2747799554E-01    0.6959064207E+00    0.1045952696E+00    0.8189127439E-04
    0.3900000000E+05    0.6150239917E-01    0.2785872318E-01    0.6959086944E+00    0.1081062372E+00    0.8213134132E-04
    0.4100000000E+05    0.6221954349E-01    0.2820163336E-01    0.6959107353E+00    0.1115199773E+00    0.8236004558E-04
    0.4300000000E+05    0.6286131648E-01    0.2851045069E-01    0.6959125766E+00    0.1148435632E+00    0.8257844184E-04
    0.4500000000E+05    0.6343505889E-01    0.2878844676E-01    0.6959142451E+00    0.1180833163E+00    0.8278744327E-04
    0.4700000000E+05    0.6394723730E-01    0.2903850604E-01    0.6959157634E+00    0.1212449074E+00    0.8298784585E-04
    0.4900000000E+05    0.6440356830E-01    0.2926318072E-01    0.6959171501E+00    0.1243334405E+00    0.8318034769E-04
    0.1000000000E+05    0.3296785860E-01    0.1476858735E-01    0.6957806284E+00    0.4102131788E-01    0.7978310788E-04
    0.3000000000E+05    0.5708727837E-01    0.2578016305E-01    0.6958959480E+00    0.9141687991E-01    0.8094177707E-04
    0.5000000000E+05    0.6461239828E-01    0.2936671696E-01    0.6959177991E+00    0.1258517681E+00    0.8327383109E-04
    0.7000000000E+05    0.6682727027E-01    0.3053909259E-01    0.6959266466E+00    0.1532964746E+00    0.8484622119E-04
    0.9000000000E+05    0.6683223209E-01    0.3068714427E-01    0.6959312703E+00    0.1767499402E+00    0.8603989975E-04
    0.1100000000E+06    0.6578820646E-01    0.3033681213E-01    0.6959340245E+00    0.1975576761E+00    0.8700503816E-04
    0.1300000000E+06    0.6421390271E-01    0.2972590546E-01    0.6959357994E+00    0.2164349177E+00    0.8781672532E-04
    0.1500000000E+06    0.6236919097E-01    0.2897520480E-01    0.6959370034E+00    0.2338074121E+00    0.8851803325E-04
    0.1700000000E+06    0.6039489718E-01    0.2815121292E-01    0.6959378486E+00    0.2499502560E+00    0.8913601369E-04
    0.1900000000E+06    0.5837162915E-01    0.2729272173E-01    0.6959384560E+00    0.2650527764E+00    0.8968879281E-04
    0.2100000000E+06    0.5634726491E-01    0.2642330725E-01    0.6959388987E+00    0.2792520376E+00    0.9018912198E-04
    0.2300000000E+06    0.5435087144E-01    0.2555770034E-01    0.6959392238E+00    0.2926515097E+00    0.9064631885E-04
    0.2500000000E+06    0.5240021576E-01    0.2470525044E-01    0.6959394624E+00    0.3053321112E+00    0.9106740293E-04
    0.2700000000E+06    0.5050603362E-01    0.2387190976E-01    0.6959396363E+00    0.3173590595E+00    0.9145779659E-04
    0.2900000000E+06    0.4867456186E-01    0.2306142088E-01    0.6959397608E+00    0.3287862916E+00    0.9182177717E-04
    0.3100000000E+06    0.4690909606E-01    0.2227605402E-01    0.6959398468E+00    0.3396594120E+00    0.9216277933E-04
    0.3300000000E+06    0.4521097854E-01    0.2151707964E-01    0.6959399028E+00    0.3500177130E+00    0.9248360358E-04
    0.3500000000E+06    0.4358024182E-01    0.2078507969E-01    0.6959399348E+00    0.3598955939E+00    0.9278656390E-04
    0.3700000000E+06    0.4201603715E-01    0.2008015751E-01    0.6959399477E+00    0.3693235784E+00    0.9307359473E-04
    0.3900000000E+06    0.4051692547E-01    0.1940208230E-01    0.6959399452E+00    0.3783290589E+00    0.9334632994E-04
    0.4100000000E+06    0.3908107828E-01    0.1875039045E-01    0.6959399301E+00    0.3869368500E+00    0.9360616231E-04
    0.4300000000E+06    0.3770641804E-01    0.1812445752E-01    0.6959399049E+00    0.3951696065E+00    0.9385428888E-04
    0.4500000000E+06    0.3639071741E-01    0.1752355020E-01    0.6959398712E+00    0.4030481457E+00    0.9409174618E-04
    0.4700000000E+06    0.3513166989E-01    0.1694686405E-01    0.6959398306E+00    0.4105916980E+00    0.9431943777E-04
    0.4900000000E+06    0.3392694037E-01    0.1639355128E-01    0.6959397844E+00    0.4178181057E+00    0.9453815614E-04
    0.1000000000E+06    0.6640024670E-01    0.3055550146E-01    0.6959328084E+00    0.1874305600E+00    0.8654529936E-04
    0.3000000000E+06    0.4778345737E-01    0.2266549861E-01    0.6959398080E+00    0.3342895311E+00    0.9199496263E-04
    0.5000000000E+06    0.3334421642E-01    0.1612538827E-01    0.6959397595E+00    0.4213176163E+00    0.9464437206E-04
    0.7000000000E+06    0.2400384230E-01    0.1177956392E-01    0.6959391306E+00    0.4781624515E+00    0.9643101836E-04
    0.9000000000E+06    0.1786940221E-01    0.8873683284E-02    0.6959384405E+00    0.5169069789E+00    0.9778744302E-04
    0.1100000000E+07    0.1371168820E-01    0.6877169747E-02    0.6959377823E+00    0.5442985359E+00    0.9888421044E-04
    0.1300000000E+07    0.1080005842E-01    0.5463539231E-02    0.6959371734E+00    0.5643153217E+00    0.9980662063E-04
    0.1500000000E+07    0.8698369125E-02    0.4433655189E-02    0.6959366137E+00    0.5793785635E+00    0.1006036077E-03
    0.1700000000E+07    0.7139837855E-02    0.3663805380E-02    0.6959360983E+00    0.5910086321E+00    0.1013059073E-03
    0.1900000000E+07    0.5956382798E-02    0.3075100817E-02    0.6959356220E+00    0.6001903132E+00    0.1019341148E-03
    0.2100000000E+07    0.5038912881E-02    0.2615831955E-02    0.6959351799E+00    0.6075806171E+00    0.1025027193E-03
    0.2300000000E+07    0.4314610688E-02    0.2251193651E-02    0.6959347677E+00    0.6136300342E+00    0.1030223084E-03
    0.2500000000E+07    0.3733602915E-02    0.1957174279E-02    0.6959343818E+00    0.6186552482E+00    0.1035008586E-03
    0.2700000000E+07    0.3260922691E-02    0.1716830898E-02    0.6959340192E+00    0.6228839563E+00    0.1039445316E-03
    0.2900000000E+07    0.2871530735E-02    0.1517961139E-02    0.6959336771E+00    0.6264832351E+00    0.1043581880E-03
    0.3100000000E+07    0.2547151499E-02    0.1351612384E-02    0.6959333535E+00    0.6295779463E+00    0.1047457308E-03
    0.3300000000E+07    0.2274214238E-02    0.1211105057E-02    0.6959330464E+00    0.6322629590E+00    0.1051103426E-03
    0.3500000000E+07    0.2042483327E-02    0.1091378999E-02    0.6959327542E+00    0.6346114400E+00    0.1054546530E-03
    0.3700000000E+07    0.1844128483E-02    0.9885473921E-03    0.6959324756E+00    0.6366805893E+00    0.1057808602E-03
    0.3900000000E+07    0.1673081743E-02    0.8995867407E-03    0.6959322093E+00    0.6385156793E+00    0.1060908211E-03
    0.4100000000E+07    0.1524585109E-02    0.8221178128E-03    0.6959319543E+00    0.6401529475E+00    0.1063861184E-03
    0.4300000000E+07    0.1394867269E-02    0.7542484360E-03    0.6959317096E+00    0.6416217002E+00    0.1066681124E-03
    0.4500000000E+07    0.1280909202E-02    0.6944590782E-03    0.6959314744E+00    0.6429458632E+00    0.1069379811E-03
    0.4700000000E+07    0.1180271936E-02    0.6415184655E-03    0.6959312481E+00    0.6441451401E+00    0.1071967514E-03
    0.4900000000E+07    0.1090968403E-02    0.5944205932E-03    0.6959310299E+00    0.6452358883E+00    0.1074453239E-03
    0.1000000000E+07    0.1559799420E-01    0.7785940444E-02    0.6959381056E+00    0.5317261942E+00    0.9836176682E-04
    0.3000000000E+07    0.2702154290E-02    0.1431183489E-02    0.6959335131E+00    0.6280871416E+00    0.1045550100E-03
    0.5000000000E+07    0.1050045160E-02    0.5727979569E-03    0.6959309237E+00    0.6457449289E+00    0.1075660379E-03
    0.7000000000E+07    0.5513968165E-03    0.3067796759E-03    0.6959291145E+00    0.6526083598E+00    0.1095965597E-03
    0.9000000000E+07    0.3383697163E-03    0.1910718637E-03    0.6959277181E+00    0.6561863279E+00    0.1111381395E-03
    0.1100000000E+08    0.2283733584E-03    0.1305008801E-03    0.6959265780E+00    0.6583655794E+00    0.1123846200E-03
    0.1300000000E+08    0.1643435242E-03    0.9484780335E-04    0.6959256130E+00    0.6598269197E+00    0.1134329435E-03
    0.1500000000E+08    0.1238520981E-03    0.7208944813E-04    0.6959247754E+00    0.6608729099E+00    0.1143387234E-03
    0.1700000000E+08    0.9664254504E-04    0.5667213796E-04    0.6959240347E+00    0.6616577084E+00    0.1151368906E-03
    0.1900000000E+08    0.7748851485E-04    0.4574171789E-04    0.6959233704E+00    0.6622678575E+00    0.1158508518E-03
    0.2100000000E+08    0.6350094194E-04    0.3770869739E-04    0.6959227678E+00    0.6627555930E+00    0.1164970739E-03
    0.2300000000E+08    0.5297789253E-04    0.3163053735E-04    0.6959222161E+00    0.6631542690E+00    0.1170875897E-03
    0.2500000000E+08    0.4486416934E-04    0.2691940018E-04    0.6959217072E+00    0.6634861630E+00    0.1176314645E-03
    0.2700000000E+08    0.3847746994E-04    0.2319313697E-04    0.6959212348E+00    0.6637667122E+00    0.1181357012E-03
