  Pressure (Pa) 22mC5-500 (mol/kg) 23mC5-500 (mol/kg) 24mC5-500 (mol/kg) 3mC6-500 (mol/kg) C7-500 (mol/kg)
    0.1000000000E+01    0.7511921013E-05    0.5388298312E-06    0.2142823463E+00    0.4489752232E-05    0.4166788961E-02
    0.3000000000E+01    0.1285635382E-04    0.9188658731E-06    0.3978540316E+00    0.1129480868E-04    0.4187413366E-02
    0.5000000000E+01    0.1490778971E-04    0.1063914057E-05    0.4801157817E+00    0.1751048395E-04    0.4194176679E-02
    0.7000000000E+01    0.1606740920E-04    0.1146315618E-05    0.5267971611E+00    0.2344411523E-04    0.4197595407E-02
    0.9000000000E+01    0.1691470994E-04    0.1207229894E-05    0.5568778602E+00    0.2919845278E-04    0.4199582098E-02
    0.1100000000E+02    0.1764040908E-04    0.1260040150E-05    0.5778763164E+00    0.3482466712E-04    0.4200811523E-02
    0.1300000000E+02    0.1831874840E-04    0.1309879641E-05    0.5933663336E+00    0.4035311510E-04    0.4201589024E-02
    0.1500000000E+02    0.1898159709E-04    0.1358909505E-05    0.6052641045E+00    0.4580375012E-04    0.4202074237E-02
    0.1700000000E+02    0.1964335569E-04    0.1408079541E-05    0.6146893989E+00    0.5119061213E-04    0.4202359136E-02
    0.1900000000E+02    0.2031058937E-04    0.1457803760E-05    0.6223403877E+00    0.5652407425E-04    0.4202500592E-02
    0.2100000000E+02    0.2098614550E-04    0.1508246455E-05    0.6286749911E+00    0.6181208752E-04    0.4202535728E-02
    0.2300000000E+02    0.2167104727E-04    0.1559452342E-05    0.6340060347E+00    0.6706092417E-04    0.4202489834E-02
    0.2500000000E+02    0.2236541286E-04    0.1611408898E-05    0.6385544994E+00    0.7227564777E-04    0.4202380749E-02
    0.2700000000E+02    0.2306891938E-04    0.1664077318E-05    0.6424809229E+00    0.7746042461E-04    0.4202221424E-02
    0.2900000000E+02    0.2378104293E-04    0.1717408193E-05    0.6459047432E+00    0.8261873764E-04    0.4202021494E-02
    0.3100000000E+02    0.2450118450E-04    0.1771349491E-05    0.6489166597E+00    0.8775353822E-04    0.4201788277E-02
    0.3300000000E+02    0.2522873559E-04    0.1825850537E-05    0.6515867867E+00    0.9286735652E-04    0.4201527432E-02
    0.3500000000E+02    0.2596311150E-04    0.1880863890E-05    0.6539701794E+00    0.9796238372E-04    0.4201243404E-02
    0.3700000000E+02    0.2670376704E-04    0.1936346096E-05    0.6561106715E+00    0.1030405344E-03    0.4200939734E-02
    0.3900000000E+02    0.2745020263E-04    0.1992257863E-05    0.6580435951E+00    0.1081034947E-03    0.4200619275E-02
    0.4100000000E+02    0.2820196521E-04    0.2048563920E-05    0.6597977466E+00    0.1131527600E-03    0.4200284356E-02
    0.4300000000E+02    0.2895864647E-04    0.2105232747E-05    0.6613968314E+00    0.1181896651E-03    0.4199936890E-02
    0.4500000000E+02    0.2971987983E-04    0.2162236238E-05    0.6628605408E+00    0.1232154079E-03    0.4199578470E-02
    0.4700000000E+02    0.3048533676E-04    0.2219549357E-05    0.6642053677E+00    0.1282310696E-03    0.4199210426E-02
    0.4900000000E+02    0.3125472315E-04    0.2277149809E-05    0.6654452304E+00    0.1332376302E-03    0.4198833882E-02
    0.1000000000E+02    0.1728664570E-04    0.1234223439E-05    0.5682342957E+00    0.3202535636E-04    0.4200267500E-02
    0.3000000000E+02    0.2414014977E-04    0.1744305767E-05    0.6474573997E+00    0.8518891006E-04    0.4201908660E-02
    0.5000000000E+02    0.3164080651E-04    0.2306051490E-05    0.6660295669E+00    0.1357377796E-03    0.4198642725E-02
    0.7000000000E+02    0.3951804470E-04    0.2895371074E-05    0.6743194108E+00    0.1854436897E-03    0.4194543206E-02
    0.9000000000E+02    0.4761239301E-04    0.3500351736E-05    0.6790146918E+00    0.2349158646E-03    0.4190145360E-02
    0.1100000000E+03    0.5586688677E-04    0.4116875382E-05    0.6820367905E+00    0.2844672509E-03    0.4185596978E-02
    0.1300000000E+03    0.6426024724E-04    0.4743456871E-05    0.6841448094E+00    0.3342914080E-03    0.4180951816E-02
    0.1500000000E+03    0.7278539458E-04    0.5379639001E-05    0.6856989779E+00    0.3845226810E-03    0.4176231990E-02
    0.1700000000E+03    0.8144156861E-04    0.6025414385E-05    0.6868922200E+00    0.4352622100E-03    0.4171446789E-02
    0.1900000000E+03    0.9023106751E-04    0.6680989496E-05    0.6878371788E+00    0.4865909573E-03    0.4166599632E-02
    0.2100000000E+03    0.9915777054E-04    0.7346679210E-05    0.6886040411E+00    0.5385769298E-03    0.4161691020E-02
    0.2300000000E+03    0.1082264240E-03    0.8022856559E-05    0.6892388170E+00    0.5912794984E-03    0.4156719907E-02
    0.2500000000E+03    0.1174422808E-03    0.8709927778E-05    0.6897729250E+00    0.6447521373E-03    0.4151684387E-02
    0.2700000000E+03    0.1268109134E-03    0.9408319679E-05    0.6902285510E+00    0.6990442480E-03    0.4146582056E-02
    0.2900000000E+03    0.1363381179E-03    0.1011847331E-04    0.6906218079E+00    0.7542024220E-03    0.4141410205E-02
    0.3100000000E+03    0.1460298652E-03    0.1084084099E-04    0.6909646806E+00    0.8102713488E-03    0.4136165932E-02
    0.3300000000E+03    0.1558922799E-03    0.1157588510E-04    0.6912662680E+00    0.8672944874E-03    0.4130846206E-02
    0.3500000000E+03    0.1659316343E-03    0.1232407796E-04    0.6915336024E+00    0.9253145795E-03    0.4125447894E-02
    0.3700000000E+03    0.1761543501E-03    0.1308590223E-04    0.6917722052E+00    0.9843740515E-03    0.4119967783E-02
    0.3900000000E+03    0.1865670072E-03    0.1386185168E-04    0.6919864712E+00    0.1044515339E-02    0.4114402589E-02
    0.4100000000E+03    0.1971763537E-03    0.1465243208E-04    0.6921799428E+00    0.1105781152E-02    0.4108748957E-02
    0.4300000000E+03    0.2079893192E-03    0.1545816232E-04    0.6923555064E+00    0.1168214707E-02    0.4103003458E-02
    0.4500000000E+03    0.2190130286E-03    0.1627957547E-04    0.6925155381E+00    0.1231859917E-02    0.4097162589E-02
    0.4700000000E+03    0.2302548166E-03    0.1711721997E-04    0.6926620113E+00    0.1296761570E-02    0.4091222765E-02
    0.4900000000E+03    0.2417222439E-03    0.1797166084E-04    0.6927965787E+00    0.1362965489E-02    0.4085180312E-02
    0.1000000000E+03    0.5172143204E-04    0.3807298499E-05    0.6806735250E+00    0.2596677203E-03    0.4187885512E-02
    0.3000000000E+03    0.1411630443E-03    0.1047810173E-04    0.6907989172E+00    0.7821203030E-03    0.4138797308E-02
    0.5000000000E+03    0.2475430005E-03    0.1840536131E-04    0.6928598422E+00    0.1396570436E-02    0.4082119428E-02
    0.7000000000E+03    0.3778880751E-03    0.2811673598E-04    0.6937466356E+00    0.2149476206E-02    0.4014521555E-02
    0.9000000000E+03    0.5420717584E-03    0.4034886420E-04    0.6942401379E+00    0.3099420583E-02    0.3931387207E-02
    0.1100000000E+04    0.7549165425E-03    0.5620671690E-04    0.6945544537E+00    0.4333580426E-02    0.3826029233E-02
    0.1300000000E+04    0.1039797034E-02    0.7743259125E-04    0.6947721534E+00    0.5989508889E-02    0.3688185111E-02
    0.1500000000E+04    0.1434978924E-02    0.1068788615E-03    0.6949318332E+00    0.8293008573E-02    0.3501517457E-02
    0.1700000000E+04    0.2004498541E-02    0.1493194520E-03    0.6950539488E+00    0.1162358642E-01    0.3239654168E-02
    0.1900000000E+04    0.2853146327E-02    0.2125682016E-03    0.6951503522E+00    0.1660669384E-01    0.2861844053E-02
    0.2100000000E+04    0.4125664659E-02    0.3074232165E-03    0.6952283847E+00    0.2411963805E-01    0.2318693880E-02
    0.2300000000E+04    0.5898462585E-02    0.4396029572E-03    0.6952928360E+00    0.3467232195E-01    0.1607030732E-02
    0.2500000000E+04    0.7882860692E-02    0.5876232505E-03    0.6953469642E+00    0.4664895105E-01    0.8876527809E-03
    0.2700000000E+04    0.9497805102E-02    0.7081811102E-03    0.6953930628E+00    0.5664426283E-01    0.4045548357E-03
    0.2900000000E+04    0.1057204895E-01    0.7884847303E-03    0.6954327928E+00    0.6357949977E-01    0.1835167562E-03
    0.3100000000E+04    0.1131549507E-01    0.8441573352E-03    0.6954673867E+00    0.6863533691E-01    0.1028020948E-03
    0.3300000000E+04    0.1191052435E-01    0.8887857562E-03    0.6954977785E+00    0.7286849236E-01    0.7601394983E-04
    0.3500000000E+04    0.1243985290E-01    0.9285338230E-03    0.6955246887E+00    0.7676287102E-01    0.6747119670E-04
    0.3700000000E+04    0.1293443906E-01    0.9657084538E-03    0.6955486819E+00    0.8049975549E-01    0.6484987641E-04
    0.3900000000E+04    0.1340543450E-01    0.1001140154E-02    0.6955702071E+00    0.8414344328E-01    0.6412737521E-04
    0.4100000000E+04    0.1385706341E-01    0.1035142936E-02    0.6955896257E+00    0.8771701366E-01    0.6401052242E-04
    0.4300000000E+04    0.1429118226E-01    0.1067854270E-02    0.6956072317E+00    0.9122941075E-01    0.6408435149E-04
    0.4500000000E+04    0.1470883209E-01    0.1099350847E-02    0.6956232670E+00    0.9468474258E-01    0.6421548550E-04
    0.4700000000E+04    0.1511076147E-01    0.1129687586E-02    0.6956379323E+00    0.9808543687E-01    0.6436106379E-04
    0.4900000000E+04    0.1549760288E-01    0.1158910789E-02    0.6956513954E+00    0.1014333106E+00    0.6450744308E-04
    0.1000000000E+04    0.6412078419E-03    0.4773485531E-04    0.6944129886E+00    0.3673896279E-02    0.3882020712E-02
    0.3000000000E+04    0.1097094405E-01    0.8183438384E-03    0.6954506676E+00    0.6626051806E-01    0.1325465166E-03
    0.5000000000E+04    0.1568554725E-01    0.1173118103E-02    0.6956577213E+00    0.1030879359E+00    0.6457947229E-04
    0.7000000000E+04    0.1877741949E-01    0.1407955522E-02    0.6957461216E+00    0.1337440517E+00    0.6580164496E-04
    0.9000000000E+04    0.2086880622E-01    0.1568642026E-02    0.6957950286E+00    0.1604986986E+00    0.6672945145E-04
    0.1100000000E+05    0.2225144526E-01    0.1676571312E-02    0.6958260157E+00    0.1841822031E+00    0.6747925846E-04
    0.1300000000E+05    0.2312343966E-01    0.1746304985E-02    0.6958473719E+00    0.2053910294E+00    0.6810965469E-04
    0.1500000000E+05    0.2362274947E-01    0.1788010500E-02    0.6958629611E+00    0.2245656789E+00    0.6865420760E-04
    0.1700000000E+05    0.2384751250E-01    0.1808941466E-02    0.6958748262E+00    0.2420393874E+00    0.6913398254E-04
    0.1900000000E+05    0.2386880278E-01    0.1814367873E-02    0.6958841486E+00    0.2580696258E+00    0.6956308632E-04
    0.2100000000E+05    0.2373888179E-01    0.1808178288E-02    0.6958916588E+00    0.2728590806E+00    0.6995143839E-04
    0.2300000000E+05    0.2349667433E-01    0.1793279955E-02    0.6958978323E+00    0.2865699943E+00    0.7030628459E-04
    0.2500000000E+05    0.2317148648E-01    0.1771870781E-02    0.6959029922E+00    0.2993341912E+00    0.7063308211E-04
    0.2700000000E+05    0.2278558137E-01    0.1745628030E-02    0.6959073654E+00    0.3112602315E+00    0.7093604555E-04
    0.2900000000E+05    0.2235599611E-01    0.1715841617E-02    0.6959111163E+00    0.3224386094E+00    0.7121849885E-04
    0.3100000000E+05    0.2189584412E-01    0.1683509818E-02    0.6959143662E+00    0.3329455940E+00    0.7148311073E-04
    0.3300000000E+05    0.2141526233E-01    0.1649408989E-02    0.6959172074E+00    0.3428461094E+00    0.7173205683E-04
    0.3500000000E+05    0.2092210894E-01    0.1614145041E-02    0.6959197105E+00    0.3521959251E+00    0.7196713465E-04
    0.3700000000E+05    0.2042248367E-01    0.1578191881E-02    0.6959219312E+00    0.3610433428E+00    0.7218984669E-04
    0.3900000000E+05    0.1992111965E-01    0.1541920445E-02    0.6959239134E+00    0.3694305108E+00    0.7240146187E-04
    0.4100000000E+05    0.1942168154E-01    0.1505620830E-02    0.6959256925E+00    0.3773944598E+00    0.7260306180E-04
    0.4300000000E+05    0.1892699429E-01    0.1469519321E-02    0.6959272973E+00    0.3849679268E+00    0.7279557602E-04
    0.4500000000E+05    0.1843922006E-01    0.1433791596E-02    0.6959287513E+00    0.3921800178E+00    0.7297980935E-04
    0.4700000000E+05    0.1795999594E-01    0.1398573036E-02    0.6959300742E+00    0.3990567443E+00    0.7315646335E-04
    0.4900000000E+05    0.1749054205E-01    0.1363966834E-02    0.6959312822E+00    0.4056214632E+00    0.7332615330E-04
    0.1000000000E+05    0.2163461878E-01    0.1628165705E-02    0.6958120885E+00    0.1726826788E+00    0.6712212665E-04
    0.3000000000E+05    0.2212904683E-01    0.1699940845E-02    0.6959127975E+00    0.3277717307E+00    0.7135288897E-04
    0.5000000000E+05    0.1725976752E-01    0.1346918420E-02    0.6959318476E+00    0.4087934830E+00    0.7340855887E-04
    0.7000000000E+05    0.1325983813E-01    0.1047985263E-02    0.6959395486E+00    0.4600343043E+00    0.7479463214E-04
    0.9000000000E+05    0.1034345947E-01    0.8261985516E-03    0.6959435663E+00    0.4953082425E+00    0.7584688075E-04
    0.1100000000E+06    0.8230836644E-02    0.6634447628E-03    0.6959459550E+00    0.5209218144E+00    0.7669767289E-04
    0.1300000000E+06    0.6676468398E-02    0.5424391829E-03    0.6959474910E+00    0.5402600072E+00    0.7741319724E-04
    0.1500000000E+06    0.5509531343E-02    0.4507886419E-03    0.6959485303E+00    0.5553119540E+00    0.7803142117E-04
    0.1700000000E+06    0.4615690357E-02    0.3800467772E-03    0.6959492579E+00    0.5673204499E+00    0.7857619063E-04
    0.1900000000E+06    0.3918182636E-02    0.3244680371E-03    0.6959497787E+00    0.5770988457E+00    0.7906348389E-04
    0.2100000000E+06    0.3364666775E-02    0.2800939253E-03    0.6959501568E+00    0.5851996711E+00    0.7950454137E-04
    0.2300000000E+06    0.2918767028E-02    0.2441495523E-03    0.6959504328E+00    0.5920101189E+00    0.7990757667E-04
    0.2500000000E+06    0.2554706755E-02    0.2146539251E-03    0.6959506340E+00    0.5978087934E+00    0.8027877760E-04
    0.2700000000E+06    0.2253876151E-02    0.1901674781E-03    0.6959507792E+00    0.6028008003E+00    0.8062292408E-04
    0.2900000000E+06    0.2002603504E-02    0.1696264498E-03    0.6959508817E+00    0.6071401844E+00    0.8094378667E-04
    0.3100000000E+06    0.1790682101E-02    0.1522324820E-03    0.6959509510E+00    0.6109446979E+00    0.8124439308E-04
    0.3300000000E+06    0.1610378745E-02    0.1373777694E-03    0.6959509944E+00    0.6143057711E+00    0.8152721203E-04
    0.3500000000E+06    0.1455754511E-02    0.1245934536E-03    0.6959510173E+00    0.6172953971E+00    0.8179428336E-04
    0.3700000000E+06    0.1322191510E-02    0.1135134627E-03    0.6959510237E+00    0.6199709818E+00    0.8204731232E-04
    0.3900000000E+06    0.1206057927E-02    0.1038487853E-03    0.6959510168E+00    0.6223788232E+00    0.8228773922E-04
    0.4100000000E+06    0.1104467395E-02    0.9536890290E-04    0.6959509992E+00    0.6245566486E+00    0.8251679182E-04
    0.4300000000E+06    0.1015103750E-02    0.8788820781E-04    0.6959509730E+00    0.6265354913E+00    0.8273552536E-04
    0.4500000000E+06    0.9360917520E-03    0.8125594437E-04    0.6959509395E+00    0.6283410997E+00    0.8294485357E-04
    0.4700000000E+06    0.8659005667E-03    0.7534867089E-04    0.6959509002E+00    0.6299950070E+00    0.8314557294E-04
    0.4900000000E+06    0.8032709135E-03    0.7006454969E-04    0.6959508562E+00    0.6315153524E+00    0.8333838211E-04
    0.1000000000E+06    0.9203884695E-02    0.7386381466E-03    0.6959449009E+00    0.5090669491E+00    0.7629240181E-04
    0.3000000000E+06    0.1892256021E-02    0.1605778417E-03    0.6959509200E+00    0.6091030613E+00    0.8109645623E-04
    0.5000000000E+06    0.7744584358E-03    0.6762915732E-04    0.6959508326E+00    0.6322303400E+00    0.8343201579E-04
    0.7000000000E+06    0.4168480898E-03    0.3711113319E-04    0.6959502529E+00    0.6422563080E+00    0.8500701892E-04
    0.9000000000E+06    0.2595168468E-03    0.2344374186E-04    0.6959496269E+00    0.6478247371E+00    0.8620276508E-04
    0.1100000000E+07    0.1768179946E-03    0.1616125115E-04    0.6959490330E+00    0.6513607189E+00    0.8716961299E-04
    0.1300000000E+07    0.1280973202E-03    0.1182324823E-04    0.6959484851E+00    0.6538031463E+00    0.8798275786E-04
    0.1500000000E+07    0.9701986811E-04    0.9030308845E-05    0.6959479821E+00    0.6555905875E+00    0.8868533706E-04
    0.1700000000E+07    0.7599966104E-04    0.7125971268E-05    0.6959475194E+00    0.6569550255E+00    0.8930444519E-04
    0.1900000000E+07    0.6112685197E-04    0.5768989406E-05    0.6959470920E+00    0.6580305691E+00    0.8985823804E-04
    0.2100000000E+07    0.5022101679E-04    0.4767638015E-05    0.6959466954E+00    0.6589001040E+00    0.9035948828E-04
    0.2300000000E+07    0.4198864103E-04    0.4007425674E-05    0.6959463257E+00    0.6596175997E+00    0.9081752935E-04
    0.2500000000E+07    0.3562314401E-04    0.3416536214E-05    0.6959459797E+00    0.6602197002E+00    0.9123939286E-04
    0.2700000000E+07    0.3060049131E-04    0.2948059044E-05    0.6959456545E+00    0.6607321560E+00    0.9163051058E-04
    0.2900000000E+07    0.2656828844E-04    0.2570292572E-05    0.6959453478E+00    0.6611735903E+00    0.9199516737E-04
    0.3100000000E+07    0.2328251461E-04    0.2261184461E-05    0.6959450577E+00    0.6615578042E+00    0.9233680394E-04
    0.3300000000E+07    0.2056987287E-04    0.2005007449E-05    0.6959447823E+00    0.6618952418E+00    0.9265822578E-04
    0.3500000000E+07    0.1830455672E-04    0.1790299080E-05    0.6959445204E+00    0.6621939521E+00    0.9296175101E-04
    0.3700000000E+07    0.1639345430E-04    0.1608544346E-05    0.6959442705E+00    0.6624602385E+00    0.9324931752E-04
    0.3900000000E+07    0.1476646239E-04    0.1453310014E-05    0.6959440317E+00    0.6626991068E+00    0.9352256213E-04
    0.4100000000E+07    0.1336998908E-04    0.1319661872E-05    0.6959438030E+00    0.6629145833E+00    0.9378288014E-04
    0.4300000000E+07    0.1216249979E-04    0.1203763895E-05    0.6959435835E+00    0.6631099430E+00    0.9403147076E-04
    0.4500000000E+07    0.1111140406E-04    0.1102597193E-05    0.6959433726E+00    0.6632878767E+00    0.9426937239E-04
    0.4700000000E+07    0.1019084102E-04    0.1013759485E-05    0.6959431695E+00    0.6634506161E+00    0.9449749025E-04
    0.4900000000E+07    0.9380078944E-05    0.9353197587E-06    0.6959429738E+00    0.6636000275E+00    0.9471661827E-04
    0.1000000000E+07    0.2122747305E-03    0.1929425639E-04    0.6959493245E+00    0.6497705405E+00    0.8670905628E-04
    0.3000000000E+07    0.2484426225E-04    0.2408258702E-05    0.6959452008E+00    0.6613721315E+00    0.9216867493E-04
    0.5000000000E+07    0.9010501710E-05    0.8994976664E-06    0.6959428785E+00    0.6636702364E+00    0.9482303319E-04
    0.7000000000E+07    0.4611223295E-05    0.4690272181E-06    0.6959412542E+00    0.6646521816E+00    0.9661303165E-04
    0.9000000000E+07    0.2796026408E-05    0.2882216201E-06    0.6959399990E+00    0.6651969040E+00    0.9797200568E-04
    0.1100000000E+08    0.1876243899E-05    0.1953692672E-06    0.6959389730E+00    0.6655432449E+00    0.9907083619E-04
    0.1300000000E+08    0.1346996800E-05    0.1413659406E-06    0.6959381037E+00    0.6657828839E+00    0.9999498228E-04
    0.1500000000E+08    0.1014859602E-05    0.1071726444E-06    0.6959373484E+00    0.6659585506E+00    0.1007934696E-03
    0.1700000000E+08    0.7928402408E-06    0.8414241744E-07    0.6959366798E+00    0.6660928463E+00    0.1014970914E-03
    0.1900000000E+08    0.6371271829E-06    0.6788411855E-07    0.6959360797E+00    0.6661988473E+00    0.1021264817E-03
    0.2100000000E+08    0.5237106291E-06    0.5597389278E-07    0.6959355348E+00    0.6662846444E+00    0.1026961568E-03
    0.2300000000E+08    0.4385398880E-06    0.4698423060E-07    0.6959350356E+00    0.6663555121E+00    0.1032167243E-03
    0.2500000000E+08    0.3729487327E-06    0.4002964203E-07    0.6959345747E+00    0.6664150359E+00    0.1036961756E-03
    0.2700000000E+08    0.3213567728E-06    0.3453699725E-07    0.6959341466E+00    0.6664657382E+00    0.1041406839E-03
