  Pressure (Pa) 22mC5-500 (mol/kg) 23mC5-500 (mol/kg) 24mC5-500 (mol/kg) 3mC6-500 (mol/kg) C7-500 (mol/kg)
    0.1000000000E+01    0.1058258460E-04    0.3801825924E-05    0.3665839799E-01    0.2204390500E-05    0.4229308003E-02
    0.3000000000E+01    0.2796848909E-04    0.1003624523E-04    0.9947407426E-01    0.5698678361E-05    0.4344726646E-02
    0.5000000000E+01    0.4170821656E-04    0.1495292796E-04    0.1513394044E+00    0.8924589612E-05    0.4438898657E-02
    0.7000000000E+01    0.5277450927E-04    0.1890492266E-04    0.1948882940E+00    0.1201898432E-04    0.4518195585E-02
    0.9000000000E+01    0.6182431125E-04    0.2213033923E-04    0.2319726225E+00    0.1502844721E-04    0.4586026021E-02
    0.1100000000E+02    0.6932152103E-04    0.2479714647E-04    0.2639324259E+00    0.1797641091E-04    0.4644771909E-02
    0.1300000000E+02    0.7560292866E-04    0.2702717126E-04    0.2917613049E+00    0.2087687641E-04    0.4696184047E-02
    0.1500000000E+02    0.8091848875E-04    0.2891074186E-04    0.3162115822E+00    0.2373909797E-04    0.4741584955E-02
    0.1700000000E+02    0.8545718599E-04    0.3051608608E-04    0.3378633490E+00    0.2656961709E-04    0.4781994233E-02
    0.1900000000E+02    0.8936421826E-04    0.3189557107E-04    0.3571710840E+00    0.2937328553E-04    0.4818211334E-02
    0.2100000000E+02    0.9275272204E-04    0.3308995888E-04    0.3744959076E+00    0.3215383458E-04    0.4850872292E-02
    0.2300000000E+02    0.9571195679E-04    0.3413137518E-04    0.3901283830E+00    0.3491421624E-04    0.4880489642E-02
    0.2500000000E+02    0.9831313130E-04    0.3504542158E-04    0.4043049464E+00    0.3765681974E-04    0.4907481137E-02
    0.2700000000E+02    0.1006136241E-03    0.3585270476E-04    0.4172199493E+00    0.4038361541E-04    0.4932190774E-02
    0.2900000000E+02    0.1026600885E-03    0.3656996088E-04    0.4290346242E+00    0.4309625368E-04    0.4954904443E-02
    0.3100000000E+02    0.1044907691E-03    0.3721089398E-04    0.4398838502E+00    0.4579613560E-04    0.4975861750E-02
    0.3300000000E+02    0.1061372521E-03    0.3778680906E-04    0.4498813266E+00    0.4848446417E-04    0.4995265055E-02
    0.3500000000E+02    0.1076258032E-03    0.3830709571E-04    0.4591235731E+00    0.5116228267E-04    0.5013286464E-02
    0.3700000000E+02    0.1089784010E-03    0.3877960143E-04    0.4676930562E+00    0.5383050382E-04    0.5030073307E-02
    0.3900000000E+02    0.1102135435E-03    0.3921092269E-04    0.4756606574E+00    0.5648993228E-04    0.5045752458E-02
    0.4100000000E+02    0.1113468818E-03    0.3960663380E-04    0.4830876383E+00    0.5914128237E-04    0.5060433782E-02
    0.4300000000E+02    0.1123917242E-03    0.3997146846E-04    0.4900272193E+00    0.6178519214E-04    0.5074212909E-02
    0.4500000000E+02    0.1133594386E-03    0.4030946481E-04    0.4965258570E+00    0.6442223471E-04    0.5087173473E-02
    0.4700000000E+02    0.1142597767E-03    0.4062408219E-04    0.5026242852E+00    0.6705292747E-04    0.5099388948E-02
    0.4900000000E+02    0.1151011370E-03    0.4091829578E-04    0.5083583708E+00    0.6967773967E-04    0.5110924154E-02
    0.1000000000E+02    0.6574352298E-04    0.2352507752E-04    0.2485243230E+00    0.1650909497E-04    0.4616413201E-02
    0.3000000000E+02    0.1036002890E-03    0.3689921130E-04    0.4345723674E+00    0.4444770985E-04    0.4965589212E-02
    0.5000000000E+02    0.1155020085E-03    0.4105856778E-04    0.5110988386E+00    0.7098807560E-04    0.5116454856E-02
    0.7000000000E+02    0.1217466724E-03    0.4325969150E-04    0.5528217812E+00    0.9697262376E-04    0.5202335874E-02
    0.9000000000E+02    0.1264518473E-03    0.4495248452E-04    0.5790852495E+00    0.1226927231E-03    0.5258484572E-02
    0.1100000000E+03    0.1308004065E-03    0.4654539235E-04    0.5971384677E+00    0.1482968265E-03    0.5298381613E-02
    0.1300000000E+03    0.1351906065E-03    0.4817201482E-04    0.6103108846E+00    0.1738750403E-03    0.5328340584E-02
    0.1500000000E+03    0.1397632233E-03    0.4987721576E-04    0.6203460661E+00    0.1994881496E-03    0.5351731266E-02
    0.1700000000E+03    0.1445639939E-03    0.5167382407E-04    0.6282454647E+00    0.2251802472E-03    0.5370525457E-02
    0.1900000000E+03    0.1496014458E-03    0.5356254094E-04    0.6346252829E+00    0.2509850910E-03    0.5385958679E-02
    0.2100000000E+03    0.1548695247E-03    0.5553959152E-04    0.6398854747E+00    0.2769296414E-03    0.5398847262E-02
    0.2300000000E+03    0.1603569848E-03    0.5759982306E-04    0.6442969574E+00    0.3030361802E-03    0.5409753884E-02
    0.2500000000E+03    0.1660513906E-03    0.5973797715E-04    0.6480497667E+00    0.3293236545E-03    0.5419080021E-02
    0.2700000000E+03    0.1719408017E-03    0.6194919187E-04    0.6512811444E+00    0.3558085684E-03    0.5427120490E-02
    0.2900000000E+03    0.1780144266E-03    0.6422917024E-04    0.6540926811E+00    0.3825055976E-03    0.5434097106E-02
    0.3100000000E+03    0.1842628119E-03    0.6657420437E-04    0.6565611868E+00    0.4094280256E-03    0.5440180266E-02
    0.3300000000E+03    0.1906778263E-03    0.6898113985E-04    0.6587458123E+00    0.4365880623E-03    0.5445503236E-02
    0.3500000000E+03    0.1972525595E-03    0.7144731896E-04    0.6606928486E+00    0.4639970824E-03    0.5450171891E-02
    0.3700000000E+03    0.2039811933E-03    0.7397051973E-04    0.6624390413E+00    0.4916658057E-03    0.5454271513E-02
    0.3900000000E+03    0.2108588704E-03    0.7654889842E-04    0.6640139303E+00    0.5196044391E-03    0.5457871636E-02
    0.4100000000E+03    0.2178815727E-03    0.7918093814E-04    0.6654415336E+00    0.5478227864E-03    0.5461029573E-02
    0.4300000000E+03    0.2250460126E-03    0.8186540421E-04    0.6667415802E+00    0.5763303380E-03    0.5463793024E-02
    0.4500000000E+03    0.2323495386E-03    0.8460130609E-04    0.6679304260E+00    0.6051363431E-03    0.5466202036E-02
    0.4700000000E+03    0.2397900545E-03    0.8738786501E-04    0.6690217457E+00    0.6342498686E-03    0.5468290493E-02
    0.4900000000E+03    0.2473659496E-03    0.9022448676E-04    0.6700270601E+00    0.6636798491E-03    0.5470087268E-02
    0.1000000000E+03    0.1286365385E-03    0.4574985810E-04    0.5888771241E+00    0.1355027371E-03    0.5279972234E-02
    0.3000000000E+03    0.1811173124E-03    0.6539376484E-04    0.6553657671E+00    0.3959378516E-03    0.5437241300E-02
    0.5000000000E+03    0.2512042794E-03    0.9166143022E-04    0.6705005791E+00    0.6785162764E-03    0.5470884154E-02
    0.7000000000E+03    0.3349783759E-03    0.1229939177E-03    0.6771985932E+00    0.9940197090E-03    0.5475996215E-02
    0.9000000000E+03    0.4327360917E-03    0.1595110336E-03    0.6809748674E+00    0.1351594901E-02    0.5466723006E-02
    0.1100000000E+04    0.5465336037E-03    0.2019874429E-03    0.6833978402E+00    0.1761747912E-02    0.5447076291E-02
    0.1300000000E+04    0.6796330533E-03    0.2516443729E-03    0.6850838354E+00    0.2237611525E-02    0.5418128378E-02
    0.1500000000E+04    0.8365894061E-03    0.3101831137E-03    0.6863243142E+00    0.2796230047E-02    0.5379605222E-02
    0.1700000000E+04    0.1023625425E-02    0.3799255902E-03    0.6872749846E+00    0.3460268760E-02    0.5330312024E-02
    0.1900000000E+04    0.1249273035E-02    0.4640539508E-03    0.6880265886E+00    0.4260479051E-02    0.5268171499E-02
    0.2100000000E+04    0.1525367021E-02    0.5669813778E-03    0.6886355805E+00    0.5239358815E-02    0.5190056203E-02
    0.2300000000E+04    0.1868550490E-02    0.6949137007E-03    0.6891389215E+00    0.6456641105E-02    0.5091445061E-02
    0.2500000000E+04    0.2302511966E-02    0.8566839485E-03    0.6895618235E+00    0.7997453753E-02    0.4965886670E-02
    0.2700000000E+04    0.2861149225E-02    0.1064932862E-02    0.6899220729E+00    0.9983936669E-02    0.4804265837E-02
    0.2900000000E+04    0.3592443860E-02    0.1337555384E-02    0.6902325762E+00    0.1258971513E-01    0.4594022525E-02
    0.3100000000E+04    0.4561083809E-02    0.1698682391E-02    0.6905029256E+00    0.1605052480E-01    0.4319032079E-02
    0.3300000000E+04    0.5842510250E-02    0.2176468683E-02    0.6907403988E+00    0.2064522066E-01    0.3962404611E-02
    0.3500000000E+04    0.7490110670E-02    0.2790872309E-02    0.6909506165E+00    0.2658164079E-01    0.3517205753E-02
    0.3700000000E+04    0.9455394002E-02    0.3523897293E-02    0.6911379888E+00    0.3371197887E-01    0.3009011780E-02
    0.3900000000E+04    0.1150870238E-01    0.4290003126E-02    0.6913060243E+00    0.4123975818E-01    0.2512893641E-02
    0.4100000000E+04    0.1332452189E-01    0.4967847848E-02    0.6914575492E+00    0.4800567914E-01    0.2119634651E-02
    0.4300000000E+04    0.1472210596E-01    0.5489981970E-02    0.6915948651E+00    0.5334369782E-01    0.1866951228E-02
    0.4500000000E+04    0.1574044711E-01    0.5870860653E-02    0.6917198656E+00    0.5736814962E-01    0.1729254590E-02
    0.4700000000E+04    0.1650669478E-01    0.6157835501E-02    0.6918341228E+00    0.6051793397E-01    0.1662139888E-02
    0.4900000000E+04    0.1712826375E-01    0.6390930471E-02    0.6919389525E+00    0.6317054830E-01    0.1632071031E-02
    0.1000000000E+04    0.4874535913E-03    0.1799382333E-03    0.6823056421E+00    0.1549353680E-02    0.5458088361E-02
    0.3000000000E+04    0.4042442476E-02    0.1505319686E-02    0.6903722700E+00    0.1419617881E-01    0.4465729094E-02
    0.5000000000E+04    0.1740652956E-01    0.6495373964E-02    0.6919881858E+00    0.6438741752E-01    0.1624531284E-02
    0.7000000000E+04    0.2170104364E-01    0.8112860274E-02    0.6926739587E+00    0.8505536203E-01    0.1635852534E-02
    0.9000000000E+04    0.2493748323E-01    0.9339246622E-02    0.6930503172E+00    0.1032815762E+00    0.1659399293E-02
    0.1100000000E+05    0.2743373838E-01    0.1029156757E-01    0.6932866294E+00    0.1197788939E+00    0.1678345605E-02
    0.1300000000E+05    0.2935992224E-01    0.1103224502E-01    0.6934479233E+00    0.1348563606E+00    0.1694224596E-02
    0.1500000000E+05    0.3084075482E-01    0.1160710886E-01    0.6935644642E+00    0.1487487687E+00    0.1707910923E-02
    0.1700000000E+05    0.3196944232E-01    0.1205046083E-01    0.6936522238E+00    0.1616380404E+00    0.1719949369E-02
    0.1900000000E+05    0.3281680027E-01    0.1238840455E-01    0.6937204167E+00    0.1736675135E+00    0.1730702748E-02
    0.2100000000E+05    0.3343742175E-01    0.1264109820E-01    0.6937747253E+00    0.1849518190E+00    0.1740425101E-02
    0.2300000000E+05    0.3387394026E-01    0.1282431240E-01    0.6938188415E+00    0.1955838601E+00    0.1749301380E-02
    0.2500000000E+05    0.3416003425E-01    0.1295052894E-01    0.6938552650E+00    0.2056398405E+00    0.1757470502E-02
    0.2700000000E+05    0.3432258253E-01    0.1302972956E-01    0.6938857480E+00    0.2151829518E+00    0.1765039516E-02
    0.2900000000E+05    0.3438323536E-01    0.1306997130E-01    0.6939115535E+00    0.2242661183E+00    0.1772092688E-02
    0.3100000000E+05    0.3435957628E-01    0.1307781234E-01    0.6939336147E+00    0.2329340711E+00    0.1778697567E-02
    0.3300000000E+05    0.3426599264E-01    0.1305863134E-01    0.6939526353E+00    0.2412249353E+00    0.1784909143E-02
    0.3500000000E+05    0.3411433590E-01    0.1301686980E-01    0.6939691556E+00    0.2491714582E+00    0.1790772798E-02
    0.3700000000E+05    0.3391442776E-01    0.1295621809E-01    0.6939835973E+00    0.2568019712E+00    0.1796326422E-02
    0.3900000000E+05    0.3367445238E-01    0.1287975966E-01    0.6939962940E+00    0.2641411499E+00    0.1801601987E-02
    0.4100000000E+05    0.3340126295E-01    0.1279008390E-01    0.6940075128E+00    0.2712106206E+00    0.1806626724E-02
    0.4300000000E+05    0.3310062353E-01    0.1268937529E-01    0.6940174702E+00    0.2780294482E+00    0.1811424014E-02
    0.4500000000E+05    0.3277740130E-01    0.1257948429E-01    0.6940263434E+00    0.2846145321E+00    0.1816014093E-02
    0.4700000000E+05    0.3243572061E-01    0.1246198423E-01    0.6940342784E+00    0.2909809295E+00    0.1820414584E-02
    0.4900000000E+05    0.3207908723E-01    0.1233821723E-01    0.6940413972E+00    0.2971421208E+00    0.1824640939E-02
    0.1000000000E+05    0.2626623087E-01    0.9845299504E-02    0.6931806923E+00    0.1117249730E+00    0.1669330380E-02
    0.3000000000E+05    0.3438097929E-01    0.1307758126E-01    0.6939230037E+00    0.2286494747E+00    0.1775447472E-02
    0.5000000000E+05    0.3189611490E-01    0.1227434915E-01    0.6940446830E+00    0.3001496010E+00    0.1826693134E-02
    0.7000000000E+05    0.2797945050E-01    0.1087244015E-01    0.6940854126E+00    0.3519245501E+00    0.1861192208E-02
    0.9000000000E+05    0.2422719860E-01    0.9493807217E-02    0.6941016134E+00    0.3919279141E+00    0.1887362926E-02
    0.1100000000E+06    0.2096128764E-01    0.8275060605E-02    0.6941077798E+00    0.4238917338E+00    0.1908513825E-02
    0.1300000000E+06    0.1820018107E-01    0.7232781957E-02    0.6941091478E+00    0.4499852853E+00    0.1926296684E-02
    0.1500000000E+06    0.1588542698E-01    0.6350831668E-02    0.6941080024E+00    0.4716258039E+00    0.1941658076E-02
    0.1700000000E+06    0.1394541812E-01    0.5605811093E-02    0.6941054694E+00    0.4898032204E+00    0.1955192109E-02
    0.1900000000E+06    0.1231409110E-01    0.4975006065E-02    0.6941021513E+00    0.5052379680E+00    0.1967296677E-02
    0.2100000000E+06    0.1093551574E-01    0.4438660508E-02    0.6940983908E+00    0.5184689623E+00    0.1978251586E-02
    0.2300000000E+06    0.9763913287E-02    0.3980313235E-02    0.6940943913E+00    0.5299075169E+00    0.1988261237E-02
    0.2500000000E+06    0.8762321246E-02    0.3586496449E-02    0.6940902773E+00    0.5398725641E+00    0.1997479578E-02
    0.2700000000E+06    0.7901024800E-02    0.3246268991E-02    0.6940861268E+00    0.5486146901E+00    0.2006025506E-02
    0.2900000000E+06    0.7156126297E-02    0.2950754698E-02    0.6940819894E+00    0.5563330503E+00    0.2013992797E-02
    0.3100000000E+06    0.6508349999E-02    0.2692740575E-02    0.6940778965E+00    0.5631875510E+00    0.2021456740E-02
    0.3300000000E+06    0.5942080882E-02    0.2466345266E-02    0.6940738679E+00    0.5693077808E+00    0.2028478716E-02
    0.3500000000E+06    0.5444605253E-02    0.2266752342E-02    0.6940699157E+00    0.5747996566E+00    0.2035109436E-02
    0.3700000000E+06    0.5005515404E-02    0.2089998303E-02    0.6940660471E+00    0.5797504321E+00    0.2041391291E-02
    0.3900000000E+06    0.4616243909E-02    0.1932804892E-02    0.6940622659E+00    0.5842325149E+00    0.2047360081E-02
    0.4100000000E+06    0.4269698994E-02    0.1792446599E-02    0.6940585734E+00    0.5883064044E+00    0.2053046321E-02
    0.4300000000E+06    0.3959978262E-02    0.1666645808E-02    0.6940549695E+00    0.5920229753E+00    0.2058476237E-02
    0.4500000000E+06    0.3682143063E-02    0.1553489598E-02    0.6940514530E+00    0.5954252657E+00    0.2063672535E-02
    0.4700000000E+06    0.3432039858E-02    0.1451363462E-02    0.6940480222E+00    0.5985498907E+00    0.2068655009E-02
    0.4900000000E+06    0.3206158089E-02    0.1358898294E-02    0.6940446747E+00    0.6014281669E+00    0.2073441017E-02
    0.1000000000E+06    0.2252915968E-01    0.8862120841E-02    0.6941055183E+00    0.4087558000E+00    0.1898439608E-02
    0.3000000000E+06    0.6821149818E-02    0.2817455491E-02    0.6940799360E+00    0.5598595604E+00    0.2017783568E-02
    0.5000000000E+06    0.3101350559E-02    0.1315917166E-02    0.6940430314E+00    0.6027834871E+00    0.2075765203E-02
    0.7000000000E+06    0.1748224947E-02    0.7556427619E-03    0.6940138885E+00    0.6218404096E+00    0.2114856633E-02
    0.9000000000E+06    0.1116624417E-02    0.4894871975E-03    0.6939902388E+00    0.6323810786E+00    0.2144530962E-02
    0.1100000000E+07    0.7732600736E-03    0.3428312429E-03    0.6939703949E+00    0.6390118710E+00    0.2168522562E-02
    0.1300000000E+07    0.5665440522E-03    0.2535683894E-03    0.6939533067E+00    0.6435475985E+00    0.2188698677E-02
    0.1500000000E+07    0.4326835577E-03    0.1952303762E-03    0.6939382979E+00    0.6468375725E+00    0.2206130363E-02
    0.1700000000E+07    0.3411327850E-03    0.1550125311E-03    0.6939249118E+00    0.6493293411E+00    0.2221490288E-02
    0.1900000000E+07    0.2758025052E-03    0.1261114470E-03    0.6939128267E+00    0.6512801168E+00    0.2235229169E-02
    0.2100000000E+07    0.2275733960E-03    0.1046417871E-03    0.6939018079E+00    0.6528478391E+00    0.2247664067E-02
    0.2300000000E+07    0.1909670397E-03    0.8825383091E-04    0.6938916791E+00    0.6541346812E+00    0.2259026658E-02
    0.2500000000E+07    0.1625328687E-03    0.7545874191E-04    0.6938823044E+00    0.6552095855E+00    0.2269491476E-02
    0.2700000000E+07    0.1400106044E-03    0.6527596572E-04    0.6938735769E+00    0.6561207166E+00    0.2279193338E-02
    0.2900000000E+07    0.1218698868E-03    0.5703830267E-04    0.6938654112E+00    0.6569027188E+00    0.2288238592E-02
    0.3100000000E+07    0.1070448670E-03    0.5027894099E-04    0.6938577376E+00    0.6575811367E+00    0.2296712631E-02
    0.3300000000E+07    0.9477485908E-04    0.4466330740E-04    0.6938504988E+00    0.6581752120E+00    0.2304685082E-02
    0.3500000000E+07    0.8450526688E-04    0.3994650784E-04    0.6938436471E+00    0.6586997101E+00    0.2312213474E-02
    0.3700000000E+07    0.7582408159E-04    0.3594593658E-04    0.6938371422E+00    0.6591661476E+00    0.2319345900E-02
    0.3900000000E+07    0.6842007676E-04    0.3252317470E-04    0.6938309498E+00    0.6595836375E+00    0.2326122979E-02
    0.4100000000E+07    0.6205462704E-04    0.2957174388E-04    0.6938250405E+00    0.6599594845E+00    0.2332579336E-02
    0.4300000000E+07    0.5654230544E-04    0.2700864612E-04    0.6938193889E+00    0.6602996109E+00    0.2338744730E-02
    0.4500000000E+07    0.5173726855E-04    0.2476840835E-04    0.6938139730E+00    0.6606088689E+00    0.2344644929E-02
    0.4700000000E+07    0.4752353835E-04    0.2279881844E-04    0.6938087733E+00    0.6608912713E+00    0.2350302395E-02
    0.4900000000E+07    0.4380795651E-04    0.2105782500E-04    0.6938037727E+00    0.6611501652E+00    0.2355736828E-02
    0.1000000000E+07    0.9215570399E-03    0.4063845487E-03    0.6939799180E+00    0.6360380409E+00    0.2157094437E-02
    0.3000000000E+07    0.1140962301E-03    0.5349725248E-04    0.6938615167E+00    0.6572535505E+00    0.2292542341E-02
    0.5000000000E+07    0.4211279515E-04    0.2026211400E-04    0.6938013424E+00    0.6612716937E+00    0.2358375919E-02
    0.7000000000E+07    0.2185058163E-04    0.1066434396E-04    0.6937602947E+00    0.6629626795E+00    0.2402765193E-02
    0.9000000000E+07    0.1342791251E-04    0.6607532963E-05    0.6937289592E+00    0.6638934715E+00    0.2436462336E-02
    0.1100000000E+08    0.9135732174E-05    0.4514930673E-05    0.6937035390E+00    0.6644824753E+00    0.2463706847E-02
    0.1300000000E+08    0.6653580733E-05    0.3293472805E-05    0.6936821128E+00    0.6648887098E+00    0.2486618764E-02
    0.1500000000E+08    0.5088445118E-05    0.2517602678E-05    0.6936635707E+00    0.6651858090E+00    0.2506414218E-02
    0.1700000000E+08    0.4037310739E-05    0.1993462384E-05    0.6936472118E+00    0.6654125406E+00    0.2523857025E-02
    0.1900000000E+08    0.3296625054E-05    0.1622370456E-05    0.6936325648E+00    0.6655912569E+00    0.2539458986E-02
    0.2100000000E+08    0.2754553332E-05    0.1349746226E-05    0.6936192973E+00    0.6657357500E+00    0.2553580140E-02
    0.2300000000E+08    0.2345496767E-05    0.1143387980E-05    0.6936071656E+00    0.6658549921E+00    0.2566483573E-02
    0.2500000000E+08    0.2028906172E-05    0.9832888249E-06    0.6935959861E+00    0.6659550710E+00    0.2578367481E-02
    0.2700000000E+08    0.1778615648E-05    0.8564800912E-06    0.6935856164E+00    0.6660402634E+00    0.2589384962E-02
