  Pressure (Pa) 22mC5-500 (mol/kg) 23mC5-500 (mol/kg) 24mC5-500 (mol/kg) 3mC6-500 (mol/kg) C7-500 (mol/kg)
    0.1000000000E+01    0.8106221272E-05    0.1162935703E-05    0.1741067708E+00    0.2318101708E-05    0.4199321284E-02
    0.3000000000E+01    0.1500436273E-04    0.2145009117E-05    0.3481170162E+00    0.5952757339E-05    0.4240939133E-02
    0.5000000000E+01    0.1788824256E-04    0.2552164259E-05    0.4350864170E+00    0.9298519655E-05    0.4261119069E-02
    0.7000000000E+01    0.1944239553E-04    0.2770913325E-05    0.4872568386E+00    0.1250320611E-04    0.4273367316E-02
    0.9000000000E+01    0.2045250847E-04    0.2913565094E-05    0.5220325288E+00    0.1561692287E-04    0.4281657795E-02
    0.1100000000E+02    0.2121354942E-04    0.3021948958E-05    0.5468700952E+00    0.1866481614E-04    0.4287667479E-02
    0.1300000000E+02    0.2185391200E-04    0.3114108421E-05    0.5654970767E+00    0.2166188652E-04    0.4292234967E-02
    0.1500000000E+02    0.2243513551E-04    0.3198600566E-05    0.5799840292E+00    0.2461803676E-04    0.4295828510E-02
    0.1700000000E+02    0.2298868674E-04    0.3279744849E-05    0.5915731535E+00    0.2754025978E-04    0.4298731073E-02
    0.1900000000E+02    0.2353134859E-04    0.3359807672E-05    0.6010548757E+00    0.3043373785E-04    0.4301124203E-02
    0.2100000000E+02    0.2407228453E-04    0.3439999591E-05    0.6089561124E+00    0.3330245363E-04    0.4303129992E-02
    0.2300000000E+02    0.2461652011E-04    0.3520963747E-05    0.6156416324E+00    0.3614955607E-04    0.4304833734E-02
    0.2500000000E+02    0.2516675694E-04    0.3603028611E-05    0.6213719738E+00    0.3897759247E-04    0.4306296913E-02
    0.2700000000E+02    0.2572436052E-04    0.3686344563E-05    0.6263381907E+00    0.4178866242E-04    0.4307565041E-02
    0.2900000000E+02    0.2628991749E-04    0.3770960261E-05    0.6306835692E+00    0.4458452395E-04    0.4308672569E-02
    0.3100000000E+02    0.2686355888E-04    0.3856866493E-05    0.6345176781E+00    0.4736666881E-04    0.4309646090E-02
    0.3300000000E+02    0.2744515178E-04    0.3944021858E-05    0.6379257357E+00    0.5013637742E-04    0.4310506479E-02
    0.3500000000E+02    0.2803441472E-04    0.4032368002E-05    0.6409750182E+00    0.5289475984E-04    0.4311270369E-02
    0.3700000000E+02    0.2863098790E-04    0.4121838720E-05    0.6437193456E+00    0.5564278687E-04    0.4311951189E-02
    0.3900000000E+02    0.2923447606E-04    0.4212365369E-05    0.6462022858E+00    0.5838131416E-04    0.4312559910E-02
    0.4100000000E+02    0.2984447451E-04    0.4303880060E-05    0.6484594846E+00    0.6111110105E-04    0.4313105589E-02
    0.4300000000E+02    0.3046058474E-04    0.4396317469E-05    0.6505203885E+00    0.6383282564E-04    0.4313595776E-02
    0.4500000000E+02    0.3108242351E-04    0.4489615816E-05    0.6524095356E+00    0.6654709685E-04    0.4314036817E-02
    0.4700000000E+02    0.3170962774E-04    0.4583717314E-05    0.6541475379E+00    0.6925446425E-04    0.4314434091E-02
    0.4900000000E+02    0.3234185687E-04    0.4678568305E-05    0.6557518361E+00    0.7195542616E-04    0.4314792190E-02
    0.1000000000E+02    0.2085388510E-04    0.2970592311E-05    0.5354068303E+00    0.1714800255E-04    0.4284883299E-02
    0.3000000000E+02    0.2657573138E-04    0.3813754110E-05    0.6326587219E+00    0.4597722652E-04    0.4309174662E-02
    0.5000000000E+02    0.3265975571E-04    0.4726259210E-05    0.6565085765E+00    0.7330364845E-04    0.4314957803E-02
    0.7000000000E+02    0.3921643204E-04    0.5709371984E-05    0.6672892044E+00    0.1000236631E-03    0.4316932221E-02
    0.9000000000E+02    0.4603576985E-04    0.6730774820E-05    0.6734326255E+00    0.1264463454E-03    0.4317385791E-02
    0.1100000000E+03    0.5302152532E-04    0.7776168275E-05    0.6774011485E+00    0.1527288053E-03    0.4317046714E-02
    0.1300000000E+03    0.6012751788E-04    0.8838821660E-05    0.6801759634E+00    0.1789661766E-03    0.4316227529E-02
    0.1500000000E+03    0.6733010723E-04    0.9915346340E-05    0.6822252098E+00    0.2052224640E-03    0.4315087445E-02
    0.1700000000E+03    0.7461671735E-04    0.1100397275E-04    0.6838005417E+00    0.2315439553E-03    0.4313717195E-02
    0.1900000000E+03    0.8198062434E-04    0.1210377845E-04    0.6850492983E+00    0.2579659682E-03    0.4312172744E-02
    0.2100000000E+03    0.8941838990E-04    0.1321431183E-04    0.6860634786E+00    0.2845166023E-03    0.4310490704E-02
    0.2300000000E+03    0.9692851027E-04    0.1433539580E-04    0.6869034932E+00    0.3112189865E-03    0.4308696129E-02
    0.2500000000E+03    0.1045106656E-03    0.1546701956E-04    0.6876106497E+00    0.3380927025E-03    0.4306806780E-02
    0.2700000000E+03    0.1121652839E-03    0.1660927620E-04    0.6882141506E+00    0.3651547306E-03    0.4304835615E-02
    0.2900000000E+03    0.1198932792E-03    0.1776232551E-04    0.6887352245E+00    0.3924200993E-03    0.4302792299E-02
    0.3100000000E+03    0.1276958885E-03    0.1892637109E-04    0.6891896742E+00    0.4199023481E-03    0.4300684182E-02
    0.3300000000E+03    0.1355745690E-03    0.2010164597E-04    0.6895895055E+00    0.4476138640E-03    0.4298516931E-02
    0.3500000000E+03    0.1435309318E-03    0.2128840344E-04    0.6899440034E+00    0.4755661329E-03    0.4296294968E-02
    0.3700000000E+03    0.1515666977E-03    0.2248691107E-04    0.6902604612E+00    0.5037699318E-03    0.4294021778E-02
    0.3900000000E+03    0.1596836690E-03    0.2369744685E-04    0.6905446878E+00    0.5322354763E-03    0.4291700118E-02
    0.4100000000E+03    0.1678837102E-03    0.2492029669E-04    0.6908013663E+00    0.5609725383E-03    0.4289332183E-02
    0.4300000000E+03    0.1761687355E-03    0.2615575277E-04    0.6910343148E+00    0.5899905392E-03    0.4286919717E-02
    0.4500000000E+03    0.1845407005E-03    0.2740411251E-04    0.6912466771E+00    0.6192986260E-03    0.4284464105E-02
    0.4700000000E+03    0.1930015970E-03    0.2866567799E-04    0.6914410651E+00    0.6489057332E-03    0.4281966438E-02
    0.4900000000E+03    0.2015534502E-03    0.2994075560E-04    0.6916196668E+00    0.6788206351E-03    0.4279427567E-02
    0.1000000000E+03    0.4951146588E-04    0.7251002852E-05    0.6756095629E+00    0.1395981958E-03    0.4317290570E-02
    0.3000000000E+03    0.1237851702E-03    0.1834295976E-04    0.6889699527E+00    0.4061333158E-03    0.4301745953E-02
    0.5000000000E+03    0.2058641271E-03    0.3058345833E-04    0.6917036365E+00    0.6938962179E-03    0.4278142890E-02
    0.7000000000E+03    0.2973759708E-03    0.4422562135E-04    0.6928809026E+00    0.1013668108E-02    0.4250365224E-02
    0.9000000000E+03    0.4005905512E-03    0.5961021743E-04    0.6935361077E+00    0.1374272055E-02    0.4218493914E-02
    0.1100000000E+04    0.5182472817E-03    0.7714651988E-04    0.6939533294E+00    0.1785646314E-02    0.4181990566E-02
    0.1300000000E+04    0.6537756329E-03    0.9734622033E-04    0.6942422045E+00    0.2260039677E-02    0.4139983135E-02
    0.1500000000E+04    0.8115868787E-03    0.1208672142E-03    0.6944540007E+00    0.2813147601E-02    0.4091271694E-02
    0.1700000000E+04    0.9974741236E-03    0.1485733568E-03    0.6946158954E+00    0.3465573754E-02    0.4034250135E-02
    0.1900000000E+04    0.1219183786E-02    0.1816197369E-03    0.6947436366E+00    0.4244891400E-02    0.3966767135E-02
    0.2100000000E+04    0.1487249512E-02    0.2215770767E-03    0.6948469793E+00    0.5188647542E-02    0.3885915401E-02
    0.2300000000E+04    0.1816219040E-02    0.2706147510E-03    0.6949322879E+00    0.6348792496E-02    0.3787723780E-02
    0.2500000000E+04    0.2226447102E-02    0.3317682741E-03    0.6950038916E+00    0.7798180825E-02    0.3666719924E-02
    0.2700000000E+04    0.2746626466E-02    0.4093169918E-03    0.6950648372E+00    0.9639813867E-02    0.3515344841E-02
    0.2900000000E+04    0.3417013992E-02    0.5092656949E-03    0.6951173316E+00    0.1201878281E-01    0.3323286786E-02
    0.3100000000E+04    0.4292348550E-02    0.6397808420E-03    0.6951630120E+00    0.1513354629E-01    0.3077110895E-02
    0.3300000000E+04    0.5440404201E-02    0.8109769140E-03    0.6952031187E+00    0.1923239567E-01    0.2761439514E-02
    0.3500000000E+04    0.6924962243E-02    0.1032380570E-02    0.6952386087E+00    0.2455525281E-01    0.2364777376E-02
    0.3700000000E+04    0.8754373645E-02    0.1305263301E-02    0.6952702317E+00    0.3115231579E-01    0.1894357793E-02
    0.3900000000E+04    0.1080003137E-01    0.1610480094E-02    0.6952985838E+00    0.3858986808E-01    0.1396208875E-02
    0.4100000000E+04    0.1278281786E-01    0.1906430438E-02    0.6953241447E+00    0.4588792770E-01    0.9514825319E-03
    0.4300000000E+04    0.1443669962E-01    0.2153435262E-02    0.6953473046E+00    0.5209035371E-01    0.6257395978E-03
    0.4500000000E+04    0.1568557466E-01    0.2340116852E-02    0.6953683846E+00    0.5690290206E-01    0.4257387439E-03
    0.4700000000E+04    0.1661274724E-01    0.2478870318E-02    0.6953876509E+00    0.6060226135E-01    0.3173394714E-03
    0.4900000000E+04    0.1733551905E-01    0.2587172486E-02    0.6954053262E+00    0.6359578502E-01    0.2628054949E-03
    0.1000000000E+04    0.4574184946E-03    0.6808027943E-04    0.6937655640E+00    0.1572913884E-02    0.4200868547E-02
    0.3000000000E+04    0.3825050437E-02    0.5701037573E-03    0.6951409383E+00    0.1346957292E-01    0.3207913840E-02
    0.5000000000E+04    0.1764893372E-01    0.2634178798E-02    0.6954136270E+00    0.6492866370E-01    0.2472259045E-03
    0.7000000000E+04    0.2219840338E-01    0.3318989694E-02    0.6955292585E+00    0.8633913546E-01    0.2158296644E-03
    0.9000000000E+04    0.2561476547E-01    0.3836268444E-02    0.6955927805E+00    0.1050942304E+00    0.2188516866E-03
    0.1100000000E+05    0.2827273452E-01    0.4241301201E-02    0.6956327351E+00    0.1221161730E+00    0.2213121221E-03
    0.1300000000E+05    0.3033973523E-01    0.4558642614E-02    0.6956600660E+00    0.1377003710E+00    0.2233804577E-03
    0.1500000000E+05    0.3194039614E-01    0.4806595546E-02    0.6956798633E+00    0.1520743082E+00    0.2251669706E-03
    0.1700000000E+05    0.3316912787E-01    0.4999045312E-02    0.6956948127E+00    0.1654164438E+00    0.2267408558E-03
    0.1900000000E+05    0.3409851571E-01    0.5146683850E-02    0.6957064637E+00    0.1778689080E+00    0.2281484398E-03
    0.2100000000E+05    0.3478510081E-01    0.5257853470E-02    0.6957157720E+00    0.1895464395E+00    0.2294222916E-03
    0.2300000000E+05    0.3527344291E-01    0.5339140141E-02    0.6957233588E+00    0.2005428009E+00    0.2305861987E-03
    0.2500000000E+05    0.3559902694E-01    0.5395798201E-02    0.6957296450E+00    0.2109354658E+00    0.2316580741E-03
    0.2700000000E+05    0.3579037617E-01    0.5432059349E-02    0.6957349254E+00    0.2207890984E+00    0.2326517510E-03
    0.2900000000E+05    0.3587061122E-01    0.5451360757E-02    0.6957394131E+00    0.2301581728E+00    0.2335781383E-03
    0.3100000000E+05    0.3585861556E-01    0.5456515732E-02    0.6957432654E+00    0.2390889713E+00    0.2344459939E-03
    0.3300000000E+05    0.3576991754E-01    0.5449842961E-02    0.6957466008E+00    0.2476211273E+00    0.2352624571E-03
    0.3500000000E+05    0.3561736528E-01    0.5433265497E-02    0.6957495108E+00    0.2557888294E+00    0.2360334262E-03
    0.3700000000E+05    0.3541164846E-01    0.5408387338E-02    0.6957520666E+00    0.2636217701E+00    0.2367638310E-03
    0.3900000000E+05    0.3516170557E-01    0.5376553254E-02    0.6957543245E+00    0.2711459016E+00    0.2374578351E-03
    0.4100000000E+05    0.3487504447E-01    0.5338895929E-02    0.6957563298E+00    0.2783840413E+00    0.2381189870E-03
    0.4300000000E+05    0.3455799694E-01    0.5296373416E-02    0.6957581190E+00    0.2853563628E+00    0.2387503365E-03
    0.4500000000E+05    0.3421592217E-01    0.5249799117E-02    0.6957597224E+00    0.2920807951E+00    0.2393545239E-03
    0.4700000000E+05    0.3385337068E-01    0.5199865963E-02    0.6957611646E+00    0.2985733510E+00    0.2399338509E-03
    0.4900000000E+05    0.3347421726E-01    0.5147166031E-02    0.6957624663E+00    0.3048483977E+00    0.2404903358E-03
    0.1000000000E+05    0.2702689474E-01    0.4051107062E-02    0.6956148138E+00    0.1138015055E+00    0.2201402611E-03
    0.3000000000E+05    0.3587510184E-01    0.5455551324E-02    0.6957414105E+00    0.2346757391E+00    0.2340189034E-03
    0.5000000000E+05    0.3327946802E-01    0.5119939974E-02    0.6957630700E+00    0.3079084513E+00    0.2407605772E-03
    0.7000000000E+05    0.2909803612E-01    0.4520612980E-02    0.6957708125E+00    0.3602594695E+00    0.2453059634E-03
    0.9000000000E+05    0.2509708443E-01    0.3932159914E-02    0.6957742507E+00    0.4002530377E+00    0.2487565145E-03
    0.1100000000E+06    0.2163102620E-01    0.3414493865E-02    0.6957758833E+00    0.4319107750E+00    0.2515463893E-03
    0.1300000000E+06    0.1871645626E-01    0.2974218183E-02    0.6957766254E+00    0.4575574484E+00    0.2538926680E-03
    0.1500000000E+06    0.1628583233E-01    0.2603648977E-02    0.6957768824E+00    0.4786958584E+00    0.2559198674E-03
    0.1700000000E+06    0.1425851477E-01    0.2292138753E-02    0.6957768575E+00    0.4963628975E+00    0.2577061899E-03
    0.1900000000E+06    0.1256112878E-01    0.2029534727E-02    0.6957766619E+00    0.5113040519E+00    0.2593040350E-03
    0.2100000000E+06    0.1113221829E-01    0.1807116028E-02    0.6957763603E+00    0.5240707331E+00    0.2607502641E-03
    0.2300000000E+06    0.9921937205E-02    0.1617689188E-02    0.6957759919E+00    0.5350795714E+00    0.2620718121E-03
    0.2500000000E+06    0.8890355852E-02    0.1455418916E-02    0.6957755820E+00    0.5446507713E+00    0.2632889706E-03
    0.2700000000E+06    0.8005595766E-02    0.1315599527E-02    0.6957751466E+00    0.5530339825E+00    0.2644174141E-03
    0.2900000000E+06    0.7242175339E-02    0.1194437988E-02    0.6957746968E+00    0.5604262922E+00    0.2654695073E-03
    0.3100000000E+06    0.6579651926E-02    0.1088869380E-02    0.6957742398E+00    0.5669850319E+00    0.2664551786E-03
    0.3300000000E+06    0.6001544338E-02    0.9964070689E-03    0.6957737808E+00    0.5728370662E+00    0.2673825233E-03
    0.3500000000E+06    0.5494490707E-02    0.9150236689E-03    0.6957733230E+00    0.5780856375E+00    0.2682582306E-03
    0.3700000000E+06    0.5047594214E-02    0.8430573744E-03    0.6957728690E+00    0.5828154787E+00    0.2690878921E-03
    0.3900000000E+06    0.4651915258E-02    0.7791385119E-03    0.6957724204E+00    0.5870966777E+00    0.2698762308E-03
    0.4100000000E+06    0.4300076545E-02    0.7221319281E-03    0.6957719782E+00    0.5909876321E+00    0.2706272728E-03
    0.4300000000E+06    0.3985954888E-02    0.6710916958E-03    0.6957715432E+00    0.5945373299E+00    0.2713444782E-03
    0.4500000000E+06    0.3704439586E-02    0.6252253743E-03    0.6957711160E+00    0.5977871264E+00    0.2720308433E-03
    0.4700000000E+06    0.3451242033E-02    0.5838656850E-03    0.6957706966E+00    0.6007721412E+00    0.2726889799E-03
    0.4900000000E+06    0.3222744890E-02    0.5464479554E-03    0.6957702853E+00    0.6035223645E+00    0.2733211789E-03
    0.1000000000E+06    0.2329269078E-01    0.3663496784E-02    0.6957752174E+00    0.4169530401E+00    0.2502174504E-03
    0.3000000000E+06    0.6899413529E-02    0.1139872003E-02    0.6957744689E+00    0.5638013054E+00    0.2659701024E-03
    0.5000000000E+06    0.3116782020E-02    0.5290644031E-03    0.6957700827E+00    0.6048176199E+00    0.2736281926E-03
    0.7000000000E+06    0.1752124463E-02    0.3030253884E-03    0.6957664300E+00    0.6230584752E+00    0.2787924086E-03
    0.9000000000E+06    0.1117369264E-02    0.1960199477E-03    0.6957634089E+00    0.6331879970E+00    0.2827130560E-03
    0.1100000000E+07    0.7729240720E-03    0.1371647984E-03    0.6957608493E+00    0.6395848170E+00    0.2858831625E-03
    0.1300000000E+07    0.5657888592E-03    0.1013809910E-03    0.6957586321E+00    0.6439752276E+00    0.2885492914E-03
    0.1500000000E+07    0.4317583137E-03    0.7801105675E-04    0.6957566770E+00    0.6471689090E+00    0.2908528880E-03
    0.1700000000E+07    0.3401423686E-03    0.6190819988E-04    0.6957549283E+00    0.6495936267E+00    0.2928827938E-03
    0.1900000000E+07    0.2747944307E-03    0.5034097776E-04    0.6957533462E+00    0.6514958528E+00    0.2946985401E-03
    0.2100000000E+07    0.2265701091E-03    0.4175076563E-04    0.6957519013E+00    0.6530272949E+00    0.2963420072E-03
    0.2300000000E+07    0.1899792365E-03    0.3519552191E-04    0.6957505714E+00    0.6542863119E+00    0.2978437985E-03
    0.2500000000E+07    0.1615654508E-03    0.3007861887E-04    0.6957493392E+00    0.6553394064E+00    0.2992269699E-03
    0.2700000000E+07    0.1390655152E-03    0.2600725539E-04    0.6957481910E+00    0.6562331238E+00    0.3005093314E-03
    0.2900000000E+07    0.1209475322E-03    0.2271423462E-04    0.6957471158E+00    0.6570009995E+00    0.3017049324E-03
    0.3100000000E+07    0.1061448548E-03    0.2001265483E-04    0.6957461049E+00    0.6576677983E+00    0.3028250547E-03
    0.3300000000E+07    0.9389639507E-04    0.1776858692E-04    0.6957451506E+00    0.6582522004E+00    0.3038788970E-03
    0.3500000000E+07    0.8364737091E-04    0.1588401731E-04    0.6957442469E+00    0.6587685587E+00    0.3048740600E-03
    0.3700000000E+07    0.7498570688E-04    0.1428587311E-04    0.6957433886E+00    0.6592280812E+00    0.3058168978E-03
    0.3900000000E+07    0.6760017515E-04    0.1291877113E-04    0.6957425712E+00    0.6596396462E+00    0.3067127773E-03
    0.4100000000E+07    0.6125218402E-04    0.1174011322E-04    0.6957417909E+00    0.6600103774E+00    0.3075662733E-03
    0.4300000000E+07    0.5575635776E-04    0.1071669859E-04    0.6957410444E+00    0.6603460558E+00    0.3083813179E-03
    0.4500000000E+07    0.5096691201E-04    0.9822339457E-05    0.6957403288E+00    0.6606514218E+00    0.3091613158E-03
    0.4700000000E+07    0.4676792980E-04    0.9036154144E-05    0.6957396416E+00    0.6609303990E+00    0.3099092350E-03
    0.4900000000E+07    0.4306631282E-04    0.8341326176E-05    0.6957389806E+00    0.6611862623E+00    0.3106276788E-03
    0.1000000000E+07    0.9216307869E-03    0.1626601409E-03    0.6957620800E+00    0.6367130757E+00    0.2843730890E-03
    0.3000000000E+07    0.1131851275E-03    0.2129888950E-04    0.6957466028E+00    0.6573457474E+00    0.3022738112E-03
    0.5000000000E+07    0.4137785824E-04    0.8023797415E-05    0.6957386593E+00    0.6613064047E+00    0.3109765755E-03
    0.7000000000E+07    0.2122045607E-04    0.4196593458E-05    0.6957332273E+00    0.6629806161E+00    0.3168453133E-03
    0.9000000000E+07    0.1286712849E-04    0.2581776866E-05    0.6957290756E+00    0.6639042720E+00    0.3213008419E-03
    0.1100000000E+08    0.8624999425E-05    0.1750433962E-05    0.6957257051E+00    0.6644895722E+00    0.3249034391E-03
    0.1300000000E+08    0.6181151659E-05    0.1266199472E-05    0.6957228625E+00    0.6648936300E+00    0.3279333028E-03
    0.1500000000E+08    0.4646557841E-05    0.9593091636E-06    0.6957204016E+00    0.6651893352E+00    0.3305511745E-03
    0.1700000000E+08    0.3620523601E-05    0.7524872493E-06    0.6957182297E+00    0.6654151161E+00    0.3328580157E-03
    0.1900000000E+08    0.2900948826E-05    0.6064284705E-06    0.6957162845E+00    0.6655931514E+00    0.3349214794E-03
    0.2100000000E+08    0.2376960152E-05    0.4994111909E-06    0.6957145220E+00    0.6657371379E+00    0.3367891596E-03
    0.2300000000E+08    0.1983623748E-05    0.4186311387E-06    0.6957129100E+00    0.6658559906E+00    0.3384958351E-03
    0.2500000000E+08    0.1680867036E-05    0.3561402400E-06    0.6957114243E+00    0.6659557624E+00    0.3400677070E-03
    0.2700000000E+08    0.1442875878E-05    0.3067913238E-06    0.6957100459E+00    0.6660407069E+00    0.3415250154E-03
