  Pressure (Pa) 22mC5-500 (mol/kg) 23mC5-500 (mol/kg) 24mC5-500 (mol/kg) 3mC6-500 (mol/kg) C7-500 (mol/kg)
    0.1000000000E+01    0.8926731078E-05    0.1023961802E-05    0.2321314445E+00    0.8377830577E-06    0.4178301487E-02
    0.3000000000E+01    0.1474182470E-04    0.1684621391E-05    0.4177287957E+00    0.2126682226E-05    0.4200869391E-02
    0.5000000000E+01    0.1686225746E-04    0.1924281506E-05    0.4972419581E+00    0.3306682117E-05    0.4209349057E-02
    0.7000000000E+01    0.1807159690E-04    0.2062065613E-05    0.5414088392E+00    0.4433499933E-05    0.4214008683E-02
    0.9000000000E+01    0.1898666045E-04    0.2167816275E-05    0.5695125123E+00    0.5525909950E-05    0.4216984425E-02
    0.1100000000E+02    0.1979828286E-04    0.2262822994E-05    0.5889678030E+00    0.6593307024E-05    0.4219055369E-02
    0.1300000000E+02    0.2057649208E-04    0.2354748178E-05    0.6032344709E+00    0.7641285317E-05    0.4220579394E-02
    0.1500000000E+02    0.2134935756E-04    0.2446578540E-05    0.6141439783E+00    0.8673533147E-05    0.4221745432E-02
    0.1700000000E+02    0.2212841966E-04    0.2539486281E-05    0.6227565731E+00    0.9692652617E-05    0.4222663203E-02
    0.1900000000E+02    0.2291816713E-04    0.2633884536E-05    0.6297285659E+00    0.1070057069E-04    0.4223401052E-02
    0.2100000000E+02    0.2371994132E-04    0.2729856896E-05    0.6354879683E+00    0.1169876742E-04    0.4224003909E-02
    0.2300000000E+02    0.2453366213E-04    0.2827344442E-05    0.6403258193E+00    0.1268841250E-04    0.4224502605E-02
    0.2500000000E+02    0.2535862866E-04    0.2926230827E-05    0.6444469189E+00    0.1367045174E-04    0.4224919049E-02
    0.2700000000E+02    0.2619390132E-04    0.3026381820E-05    0.6479995674E+00    0.1464566450E-04    0.4225269267E-02
    0.2900000000E+02    0.2703848579E-04    0.3127663582E-05    0.6510937925E+00    0.1561470313E-04    0.4225565274E-02
    0.3100000000E+02    0.2789141962E-04    0.3229950730E-05    0.6538129469E+00    0.1657812103E-04    0.4225816269E-02
    0.3300000000E+02    0.2875181040E-04    0.3333129406E-05    0.6562213308E+00    0.1753639308E-04    0.4226029424E-02
    0.3500000000E+02    0.2961884931E-04    0.3437097938E-05    0.6583693410E+00    0.1848993090E-04    0.4226210421E-02
    0.3700000000E+02    0.3049181261E-04    0.3541766359E-05    0.6602970361E+00    0.1943909435E-04    0.4226363824E-02
    0.3900000000E+02    0.3137005724E-04    0.3647055441E-05    0.6620366582E+00    0.2038420056E-04    0.4226493344E-02
    0.4100000000E+02    0.3225301403E-04    0.3752895567E-05    0.6636144508E+00    0.2132553088E-04    0.4226602036E-02
    0.4300000000E+02    0.3314018001E-04    0.3859225603E-05    0.6650519915E+00    0.2226333651E-04    0.4226692436E-02
    0.4500000000E+02    0.3403111095E-04    0.3965991843E-05    0.6663671853E+00    0.2319784293E-04    0.4226766672E-02
    0.4700000000E+02    0.3492541433E-04    0.4073147058E-05    0.6675750136E+00    0.2412925363E-04    0.4226826540E-02
    0.4900000000E+02    0.3582274296E-04    0.4180649660E-05    0.6686881079E+00    0.2505775304E-04    0.4226873572E-02
    0.1000000000E+02    0.1939954322E-04    0.2216017850E-05    0.5800509034E+00    0.6062326605E-05    0.4218104989E-02
    0.3000000000E+02    0.2746396669E-04    0.3178688885E-05    0.6524958580E+00    0.1609708335E-04    0.4225695909E-02
    0.5000000000E+02    0.3627244427E-04    0.4234519593E-05    0.6692125458E+00    0.2552096406E-04    0.4226892692E-02
    0.7000000000E+02    0.4536703163E-04    0.5323249875E-05    0.6766420164E+00    0.3466630226E-04    0.4226839750E-02
    0.9000000000E+02    0.5456514486E-04    0.6423292389E-05    0.6808412041E+00    0.4364724263E-04    0.4226296485E-02
    0.1100000000E+03    0.6380521430E-04    0.7527600960E-05    0.6835406277E+00    0.5252144278E-04    0.4225501836E-02
    0.1300000000E+03    0.7306459040E-04    0.8633680200E-05    0.6854220020E+00    0.6132347136E-04    0.4224557721E-02
    0.1500000000E+03    0.8233521419E-04    0.9740706034E-05    0.6868082436E+00    0.7007626337E-04    0.4223515777E-02
    0.1700000000E+03    0.9161508629E-04    0.1084853331E-04    0.6878720751E+00    0.7879610541E-04    0.4222405258E-02
    0.1900000000E+03    0.1009048648E-03    0.1195730601E-04    0.6887142508E+00    0.8749514649E-04    0.4221244090E-02
    0.2100000000E+03    0.1102063812E-03    0.1306728992E-04    0.6893975049E+00    0.9618279600E-04    0.4220043915E-02
    0.2300000000E+03    0.1195219522E-03    0.1417879648E-04    0.6899629386E+00    0.1048665617E-03    0.4218812642E-02
    0.2500000000E+03    0.1288540501E-03    0.1529214721E-04    0.6904386051E+00    0.1135525817E-03    0.4217555832E-02
    0.2700000000E+03    0.1382051421E-03    0.1640765702E-04    0.6908443069E+00    0.1222459769E-03    0.4216277511E-02
    0.2900000000E+03    0.1475776146E-03    0.1752562678E-04    0.6911944207E+00    0.1309510949E-03    0.4214980659E-02
    0.3100000000E+03    0.1569737403E-03    0.1864634055E-04    0.6914996370E+00    0.1396716821E-03    0.4213667525E-02
    0.3300000000E+03    0.1663956671E-03    0.1977006503E-04    0.6917680703E+00    0.1484110095E-03    0.4212339832E-02
    0.3500000000E+03    0.1758454189E-03    0.2089705023E-04    0.6920059908E+00    0.1571719669E-03    0.4210998919E-02
    0.3700000000E+03    0.1853249012E-03    0.2202753058E-04    0.6922183201E+00    0.1659571338E-03    0.4209645834E-02
    0.3900000000E+03    0.1948359101E-03    0.2316172627E-04    0.6924089757E+00    0.1747688347E-03    0.4208281409E-02
    0.4100000000E+03    0.2043801416E-03    0.2429984459E-04    0.6925811141E+00    0.1836091821E-03    0.4206906303E-02
    0.4300000000E+03    0.2139592007E-03    0.2544208128E-04    0.6927373074E+00    0.1924801107E-03    0.4205521044E-02
    0.4500000000E+03    0.2235746110E-03    0.2658862172E-04    0.6928796723E+00    0.2013834056E-03    0.4204126056E-02
    0.4700000000E+03    0.2332278227E-03    0.2773964200E-04    0.6930099670E+00    0.2103207240E-03    0.4202721679E-02
    0.4900000000E+03    0.2429202201E-03    0.2889530998E-04    0.6931296635E+00    0.2192936140E-03    0.4201308182E-02
    0.1000000000E+03    0.5918185500E-04    0.6975127559E-05    0.6823232476E+00    0.4809516586E-04    0.4225922496E-02
    0.3000000000E+03    0.1522725836E-03    0.1808562359E-04    0.6913520835E+00    0.1353092405E-03    0.4214326009E-02
    0.5000000000E+03    0.2477815298E-03    0.2947493728E-04    0.6931859334E+00    0.2237938562E-03    0.4200598084E-02
    0.7000000000E+03    0.3473632334E-03    0.4134750265E-04    0.6939745084E+00    0.3159831268E-03    0.4185949521E-02
    0.9000000000E+03    0.4521429363E-03    0.5383893477E-04    0.6944131747E+00    0.4130483412E-03    0.4170458551E-02
    0.1100000000E+04    0.5630543739E-03    0.6706107860E-04    0.6946924760E+00    0.5158945207E-03    0.4154073143E-02
    0.1300000000E+04    0.6809930969E-03    0.8112095184E-04    0.6948858704E+00    0.6253718438E-03    0.4136704109E-02
    0.1500000000E+04    0.8068870764E-03    0.9612933437E-04    0.6950276861E+00    0.7423560958E-03    0.4118242737E-02
    0.1700000000E+04    0.9417394336E-03    0.1122059225E-03    0.6951361134E+00    0.8677929243E-03    0.4098564084E-02
    0.1900000000E+04    0.1086661642E-02    0.1294833133E-03    0.6952216904E+00    0.1002730565E-02    0.4077526237E-02
    0.2100000000E+04    0.1242904665E-02    0.1481107295E-03    0.6952909433E+00    0.1148349857E-02    0.4054967977E-02
    0.2300000000E+04    0.1411891832E-02    0.1682579479E-03    0.6953481300E+00    0.1305995691E-02    0.4030705475E-02
    0.2500000000E+04    0.1595255980E-02    0.1901197324E-03    0.6953961462E+00    0.1477212459E-02    0.4004528133E-02
    0.2700000000E+04    0.1794882989E-02    0.2139210305E-03    0.6954370301E+00    0.1663785622E-02    0.3976193526E-02
    0.2900000000E+04    0.2012963878E-02    0.2399231898E-03    0.6954722578E+00    0.1867791512E-02    0.3945421259E-02
    0.3100000000E+04    0.2252057931E-02    0.2684314903E-03    0.6955029246E+00    0.2091657746E-02    0.3911885511E-02
    0.3300000000E+04    0.2515169722E-02    0.2998043357E-03    0.6955298602E+00    0.2338237074E-02    0.3875206000E-02
    0.3500000000E+04    0.2805843528E-02    0.3344645197E-03    0.6955537046E+00    0.2610898031E-02    0.3834937000E-02
    0.3700000000E+04    0.3128279256E-02    0.3729130603E-03    0.6955749596E+00    0.2913636480E-02    0.3790554019E-02
    0.3900000000E+04    0.3487474698E-02    0.4157461763E-03    0.6955940240E+00    0.3251212767E-02    0.3741437705E-02
    0.4100000000E+04    0.3889399412E-02    0.4636760413E-03    0.6956112186E+00    0.3629319838E-02    0.3686854545E-02
    0.4300000000E+04    0.4341205535E-02    0.5175559465E-03    0.6956268047E+00    0.4054787712E-02    0.3625934033E-02
    0.4500000000E+04    0.4851479494E-02    0.5784103500E-03    0.6956409970E+00    0.4535828689E-02    0.3557642306E-02
    0.4700000000E+04    0.5430534737E-02    0.6474698300E-03    0.6956539738E+00    0.5082324219E-02    0.3480752929E-02
    0.4900000000E+04    0.6090736546E-02    0.7262098792E-03    0.6956658841E+00    0.5706146127E-02    0.3393816920E-02
    0.1000000000E+04    0.5067763562E-03    0.6035199225E-04    0.6945667801E+00    0.4636956093E-03    0.4162382679E-02
    0.3000000000E+04    0.2129707922E-02    0.2538430381E-03    0.6954881043E+00    0.1977074724E-02    0.3929021193E-02
    0.5000000000E+04    0.6455774448E-02    0.7697479563E-03    0.6956714794E+00    0.6051390731E-02    0.3346061166E-02
    0.7000000000E+04    0.2224809944E-01    0.2654035508E-02    0.6957495847E+00    0.2117841119E-01    0.1449470171E-02
    0.9000000000E+04    0.3820151831E-01    0.4561033323E-02    0.6957926922E+00    0.3737238596E-01    0.1440837214E-03
    0.1100000000E+05    0.4416926170E-01    0.5278345272E-02    0.6958199377E+00    0.4448922786E-01    0.9173500328E-04
    0.1300000000E+05    0.4895514368E-01    0.5855445397E-02    0.6958386681E+00    0.5071890157E-01    0.9143607193E-04
    0.1500000000E+05    0.5312803385E-01    0.6360013180E-02    0.6958523054E+00    0.5655981924E-01    0.9213889034E-04
    0.1700000000E+05    0.5679177880E-01    0.6804275838E-02    0.6958626579E+00    0.6207161088E-01    0.9278188546E-04
    0.1900000000E+05    0.6002172364E-01    0.7197095880E-02    0.6958707702E+00    0.6729466868E-01    0.9335765770E-04
    0.2100000000E+05    0.6287922844E-01    0.7545695452E-02    0.6958772876E+00    0.7226243616E-01    0.9387877795E-04
    0.2300000000E+05    0.6541490467E-01    0.7856035841E-02    0.6958826302E+00    0.7700304599E-01    0.9435494316E-04
    0.2500000000E+05    0.6767084980E-01    0.8133079110E-02    0.6958870831E+00    0.8154035988E-01    0.9479347377E-04
    0.2700000000E+05    0.6968234535E-01    0.8380986995E-02    0.6958908462E+00    0.8589476607E-01    0.9520002416E-04
    0.2900000000E+05    0.7147916660E-01    0.8603274356E-02    0.6958940643E+00    0.9008380263E-01    0.9557905397E-04
    0.3100000000E+05    0.7308660346E-01    0.8802928833E-02    0.6958968445E+00    0.9412264994E-01    0.9593414379E-04
    0.3300000000E+05    0.7452626376E-01    0.8982505051E-02    0.6958992675E+00    0.9802452325E-01    0.9626821272E-04
    0.3500000000E+05    0.7581671119E-01    0.9144199446E-02    0.6959013957E+00    0.1018009885E+00    0.9658367253E-04
    0.3700000000E+05    0.7697397592E-01    0.9289910187E-02    0.6959032777E+00    0.1054622185E+00    0.9688253921E-04
    0.3900000000E+05    0.7801196650E-01    0.9421285540E-02    0.6959049524E+00    0.1090172020E+00    0.9716651537E-04
    0.4100000000E+05    0.7894280463E-01    0.9539763179E-02    0.6959064505E+00    0.1124739161E+00    0.9743705231E-04
    0.4300000000E+05    0.7977709885E-01    0.9646602347E-02    0.6959077974E+00    0.1158394684E+00    0.9769539727E-04
    0.4500000000E+05    0.8052416989E-01    0.9742910348E-02    0.6959090137E+00    0.1191202161E+00    0.9794263019E-04
    0.4700000000E+05    0.8119223725E-01    0.9829664476E-02    0.6959101164E+00    0.1223218656E+00    0.9817969242E-04
    0.4900000000E+05    0.8178857444E-01    0.9907730294E-02    0.6959111200E+00    0.1254495561E+00    0.9840740958E-04
    0.1000000000E+05    0.4145713469E-01    0.4951999279E-02    0.6958077004E+00    0.4115743246E-01    0.9800485825E-04
    0.3000000000E+05    0.7230512947E-01    0.8705761851E-02    0.6958955036E+00    0.9212113197E-01    0.9575939549E-04
    0.5000000000E+05    0.8206189096E-01    0.9943748839E-02    0.6959115883E+00    0.1269871353E+00    0.9851799471E-04
    0.7000000000E+05    0.8500020045E-01    0.1035567328E-01    0.6959178581E+00    0.1547772811E+00    0.1003780627E-03
    0.9000000000E+05    0.8507862904E-01    0.1041451475E-01    0.6959209912E+00    0.1785171465E+00    0.1017901584E-03
    0.1100000000E+06    0.8379047931E-01    0.1030053786E-01    0.6959227594E+00    0.1995685181E+00    0.1029319081E-03
    0.1300000000E+06    0.8180668221E-01    0.1009567962E-01    0.6959238258E+00    0.2186563647E+00    0.1038921327E-03
    0.1500000000E+06    0.7946496842E-01    0.9841737357E-02    0.6959244910E+00    0.2362125704E+00    0.1047217826E-03
    0.1700000000E+06    0.7694917034E-01    0.9561816562E-02    0.6959249097E+00    0.2525163524E+00    0.1054528581E-03
    0.1900000000E+06    0.7436497868E-01    0.9269446476E-02    0.6959251686E+00    0.2677599807E+00    0.1061068015E-03
    0.2100000000E+06    0.7177546285E-01    0.8972881133E-02    0.6959253198E+00    0.2820827459E+00    0.1066986971E-03
    0.2300000000E+06    0.6921911197E-01    0.8677298593E-02    0.6959253963E+00    0.2955898907E+00    0.1072395675E-03
    0.2500000000E+06    0.6671959841E-01    0.8385999759E-02    0.6959254195E+00    0.3083638064E+00    0.1077377164E-03
    0.2700000000E+06    0.6429134217E-01    0.8101096936E-02    0.6959254043E+00    0.3204709779E+00    0.1081995586E-03
    0.2900000000E+06    0.6194282131E-01    0.7823926917E-02    0.6959253607E+00    0.3319664617E+00    0.1086301540E-03
    0.3100000000E+06    0.5967861400E-01    0.7555308157E-02    0.6959252963E+00    0.3428968707E+00    0.1090335658E-03
    0.3300000000E+06    0.5750069765E-01    0.7295706002E-02    0.6959252162E+00    0.3533024175E+00    0.1094131069E-03
    0.3500000000E+06    0.5540929761E-01    0.7045341818E-02    0.6959251244E+00    0.3632183495E+00    0.1097715149E-03
    0.3700000000E+06    0.5340345422E-01    0.6804266783E-02    0.6959250239E+00    0.3726759760E+00    0.1101110781E-03
    0.3900000000E+06    0.5148140913E-01    0.6572412827E-02    0.6959249170E+00    0.3817034196E+00    0.1104337293E-03
    0.4100000000E+06    0.4964087291E-01    0.6349628434E-02    0.6959248052E+00    0.3903261743E+00    0.1107411164E-03
    0.4300000000E+06    0.4787921277E-01    0.6135704177E-02    0.6959246900E+00    0.3985675283E+00    0.1110346553E-03
    0.4500000000E+06    0.4619358576E-01    0.5930391175E-02    0.6959245725E+00    0.4064488881E+00    0.1113155723E-03
    0.4700000000E+06    0.4458103402E-01    0.5733414562E-02    0.6959244533E+00    0.4139900321E+00    0.1115849363E-03
    0.4900000000E+06    0.4303855305E-01    0.5544483399E-02    0.6959243332E+00    0.4212093117E+00    0.1118436849E-03
    0.1000000000E+06    0.8455229232E-01    0.1037266799E-01    0.6959219916E+00    0.1893242111E+00    0.1023880403E-03
    0.3000000000E+06    0.6080000555E-01    0.7688512760E-02    0.6959253308E+00    0.3374996564E+00    0.1088350355E-03
    0.5000000000E+06    0.4229264985E-01    0.5452941393E-02    0.6959242730E+00    0.4247036372E+00    0.1119693406E-03
    0.7000000000E+06    0.3035807396E-01    0.3972096233E-02    0.6959230967E+00    0.4812935178E+00    0.1140829830E-03
    0.9000000000E+06    0.2254834432E-01    0.2985527608E-02    0.6959220386E+00    0.5196621420E+00    0.1156876644E-03
    0.1100000000E+07    0.1727183368E-01    0.2309835808E-02    0.6959211054E+00    0.5466806245E+00    0.1169851653E-03
    0.1300000000E+07    0.1358609742E-01    0.1832630584E-02    0.6959202776E+00    0.5663673896E+00    0.1180763976E-03
    0.1500000000E+07    0.1093099183E-01    0.1485669634E-02    0.6959195362E+00    0.5811510230E+00    0.1190192514E-03
    0.1700000000E+07    0.8965210055E-02    0.1226727256E-02    0.6959188657E+00    0.5925478719E+00    0.1198500875E-03
    0.1900000000E+07    0.7474416243E-02    0.1028966875E-02    0.6959182542E+00    0.6015356902E+00    0.1205932710E-03
    0.2100000000E+07    0.6319872044E-02    0.8748462282E-03    0.6959176921E+00    0.6087644644E+00    0.1212659426E-03
    0.2300000000E+07    0.5409175397E-02    0.7525845007E-03    0.6959171721E+00    0.6146786001E+00    0.1218806279E-03
    0.2500000000E+07    0.4679154991E-02    0.6540694311E-03    0.6959166883E+00    0.6195897919E+00    0.1224467631E-03
    0.2700000000E+07    0.4085587966E-02    0.5735857847E-03    0.6959162360E+00    0.6237217382E+00    0.1229716378E-03
    0.2900000000E+07    0.3596847417E-02    0.5070227891E-03    0.6959158113E+00    0.6272383378E+00    0.1234610021E-03
    0.3100000000E+07    0.3189874598E-02    0.4513677784E-03    0.6959154109E+00    0.6302619303E+00    0.1239194735E-03
    0.3300000000E+07    0.2847562707E-02    0.4043751014E-03    0.6959150322E+00    0.6328853773E+00    0.1243508169E-03
    0.3500000000E+07    0.2557019290E-02    0.3643449205E-03    0.6959146728E+00    0.6351802401E+00    0.1247581432E-03
    0.3700000000E+07    0.2308388321E-02    0.3299724599E-03    0.6959143310E+00    0.6372024273E+00    0.1251440531E-03
    0.3900000000E+07    0.2094036565E-02    0.3002433709E-03    0.6959140050E+00    0.6389961660E+00    0.1255107431E-03
    0.4100000000E+07    0.1907981782E-02    0.2743598699E-03    0.6959136934E+00    0.6405968419E+00    0.1258600858E-03
    0.4300000000E+07    0.1745484471E-02    0.2516877859E-03    0.6959133949E+00    0.6420330629E+00    0.1261936904E-03
    0.4500000000E+07    0.1602752093E-02    0.2317180504E-03    0.6959131085E+00    0.6433281780E+00    0.1265129506E-03
    0.4700000000E+07    0.1476721878E-02    0.2140383173E-03    0.6959128332E+00    0.6445014120E+00    0.1268190810E-03
    0.4900000000E+07    0.1364899347E-02    0.1983117919E-03    0.6959125681E+00    0.6455687225E+00    0.1271131471E-03
    0.1000000000E+07    0.1966388119E-01    0.2617159477E-02    0.6959215575E+00    0.5342907844E+00    0.1163671026E-03
    0.3000000000E+07    0.3384325009E-02    0.4779871037E-03    0.6959156082E+00    0.6288053761E+00    0.1236938468E-03
    0.5000000000E+07    0.1313661305E-02    0.1910923788E-03    0.6959124392E+00    0.6460669140E+00    0.1272559541E-03
    0.7000000000E+07    0.6895620059E-03    0.1023071206E-03    0.6959102534E+00    0.6527914835E+00    0.1296581003E-03
    0.9000000000E+07    0.4230794992E-03    0.6370893866E-04    0.6959085762E+00    0.6563049972E+00    0.1314818173E-03
    0.1100000000E+08    0.2855162706E-03    0.4350856859E-04    0.6959072115E+00    0.6584490285E+00    0.1329564255E-03
    0.1300000000E+08    0.2054510568E-03    0.3161999974E-04    0.6959060590E+00    0.6598889720E+00    0.1341966099E-03
    0.1500000000E+08    0.1548237258E-03    0.2403187579E-04    0.6959050602E+00    0.6609209612E+00    0.1352681624E-03
    0.1700000000E+08    0.1208051247E-03    0.1889172543E-04    0.6959041781E+00    0.6616960805E+00    0.1362124069E-03
    0.1900000000E+08    0.9685896969E-04    0.1524766729E-04    0.6959033876E+00    0.6622992490E+00    0.1370570341E-03
    0.2100000000E+08    0.7937245318E-04    0.1256965021E-04    0.6959026711E+00    0.6627817780E+00    0.1378215245E-03
    0.2300000000E+08    0.6621744876E-04    0.1054338724E-04    0.6959020156E+00    0.6631764633E+00    0.1385201135E-03
    0.2500000000E+08    0.5607459468E-04    0.8972876750E-05    0.6959014113E+00    0.6635052284E+00    0.1391635253E-03
    0.2700000000E+08    0.4809081416E-04    0.7730705135E-05    0.6959008505E+00    0.6637832771E+00    0.1397600445E-03
