  Pressure (Pa) 22mC5-500 (mol/kg) 23mC5-500 (mol/kg) 24mC5-500 (mol/kg) 3mC6-500 (mol/kg) C7-500 (mol/kg)
    0.1000000000E+01    0.1197104906E-04    0.2751788142E-05    0.9950054027E-01    0.5388849404E-05    0.4169755258E-02
    0.3000000000E+01    0.2647802685E-04    0.6071955983E-05    0.2321162508E+00    0.1356144125E-04    0.4200869927E-02
    0.5000000000E+01    0.3477658608E-04    0.7961404209E-05    0.3164779882E+00    0.2103127881E-04    0.4216561647E-02
    0.7000000000E+01    0.4002017383E-04    0.9150083418E-05    0.3748690072E+00    0.2816672002E-04    0.4226865037E-02
    0.9000000000E+01    0.4358815392E-04    0.9956283892E-05    0.4176824465E+00    0.3509084401E-04    0.4234200848E-02
    0.1100000000E+02    0.4616754067E-04    0.1053802462E-04    0.4504184989E+00    0.4186491461E-04    0.4239673591E-02
    0.1300000000E+02    0.4813242987E-04    0.1098105895E-04    0.4762606246E+00    0.4852526005E-04    0.4243887813E-02
    0.1500000000E+02    0.4970040947E-04    0.1133508550E-04    0.4971791339E+00    0.5509574909E-04    0.4247207982E-02
    0.1700000000E+02    0.5100462595E-04    0.1163040035E-04    0.5144588061E+00    0.6159317092E-04    0.4249868507E-02
    0.1900000000E+02    0.5212989283E-04    0.1188622390E-04    0.5289731801E+00    0.6802992633E-04    0.4252027563E-02
    0.2100000000E+02    0.5313201491E-04    0.1211514787E-04    0.5413369043E+00    0.7441551851E-04    0.4253795996E-02
    0.2300000000E+02    0.5404869592E-04    0.1232563999E-04    0.5519950307E+00    0.8075744294E-04    0.4255253903E-02
    0.2500000000E+02    0.5490597269E-04    0.1252351822E-04    0.5612777353E+00    0.8706175024E-04    0.4256460667E-02
    0.2700000000E+02    0.5572215349E-04    0.1271285088E-04    0.5694351364E+00    0.9333341871E-04    0.4257461283E-02
    0.2900000000E+02    0.5651030594E-04    0.1289652405E-04    0.5766601721E+00    0.9957661039E-04    0.4258290486E-02
    0.3100000000E+02    0.5727987194E-04    0.1307660880E-04    0.5831040576E+00    0.1057948525E-03    0.4258975534E-02
    0.3300000000E+02    0.5803774097E-04    0.1325460475E-04    0.5888869847E+00    0.1119911696E-03    0.4259538125E-02
    0.3500000000E+02    0.5878897835E-04    0.1343160477E-04    0.5941056902E+00    0.1181681815E-03    0.4259995753E-02
    0.3700000000E+02    0.5953732846E-04    0.1360840854E-04    0.5988389106E+00    0.1243281784E-03    0.4260362686E-02
    0.3900000000E+02    0.6028556820E-04    0.1378560201E-04    0.6031513834E+00    0.1304731780E-03    0.4260650675E-02
    0.4100000000E+02    0.6103575878E-04    0.1396361388E-04    0.6070968257E+00    0.1366049705E-03    0.4260869494E-02
    0.4300000000E+02    0.6178942747E-04    0.1414275622E-04    0.6107201833E+00    0.1427251550E-03    0.4261027337E-02
    0.4500000000E+02    0.6254770028E-04    0.1432325396E-04    0.6140593514E+00    0.1488351675E-03    0.4261131128E-02
    0.4700000000E+02    0.6331139986E-04    0.1450526667E-04    0.6171465043E+00    0.1549363050E-03    0.4261186757E-02
    0.4900000000E+02    0.6408111836E-04    0.1468890462E-04    0.6200091361E+00    0.1610297441E-03    0.4261199270E-02
    0.1000000000E+02    0.4497313776E-04    0.1026872159E-04    0.4350738572E+00    0.3849398015E-04    0.4237124770E-02
    0.3000000000E+02    0.5689693169E-04    0.1298691009E-04    0.5799716205E+00    0.1026886506E-03    0.4258649561E-02
    0.5000000000E+02    0.6446837049E-04    0.1478135708E-04    0.6213637745E+00    0.1640739156E-03    0.4261190740E-02
    0.7000000000E+02    0.7257545958E-04    0.1672206082E-04    0.6409704909E+00    0.2247708889E-03    0.4259550526E-02
    0.9000000000E+02    0.8133383457E-04    0.1882216492E-04    0.6524079914E+00    0.2855159205E-03    0.4256246103E-02
    0.1100000000E+03    0.9063546110E-04    0.2105230123E-04    0.6599017262E+00    0.3466944268E-03    0.4252073213E-02
    0.1300000000E+03    0.1003932846E-03    0.2339064567E-04    0.6651915595E+00    0.4085514443E-03    0.4247362876E-02
    0.1500000000E+03    0.1105506635E-03    0.2582338999E-04    0.6691251194E+00    0.4712631237E-03    0.4242276355E-02
    0.1700000000E+03    0.1210724088E-03    0.2834210016E-04    0.6721647532E+00    0.5349676067E-03    0.4236900479E-02
    0.1900000000E+03    0.1319374159E-03    0.3094179064E-04    0.6745840988E+00    0.5997804946E-03    0.4231285105E-02
    0.2100000000E+03    0.1431339016E-03    0.3361972686E-04    0.6765554494E+00    0.6658034465E-03    0.4225459964E-02
    0.2300000000E+03    0.1546564283E-03    0.3637469173E-04    0.6781926956E+00    0.7331293459E-03    0.4219443021E-02
    0.2500000000E+03    0.1665040287E-03    0.3920652974E-04    0.6795741384E+00    0.8018456082E-03    0.4213244956E-02
    0.2700000000E+03    0.1786790049E-03    0.4211585741E-04    0.6807553839E+00    0.8720364130E-03    0.4206871704E-02
    0.2900000000E+03    0.1911861427E-03    0.4510387560E-04    0.6817770099E+00    0.9437842839E-03    0.4200325971E-02
    0.3100000000E+03    0.2040321908E-03    0.4817224572E-04    0.6826693221E+00    0.1017171257E-02    0.4193608178E-02
    0.3300000000E+03    0.2172255113E-03    0.5132300717E-04    0.6834554106E+00    0.1092279779E-02    0.4186717060E-02
    0.3500000000E+03    0.2307758439E-03    0.5455852201E-04    0.6841531771E+00    0.1169193432E-02    0.4179650060E-02
    0.3700000000E+03    0.2446941481E-03    0.5788143820E-04    0.6847767147E+00    0.1247997530E-02    0.4172403594E-02
    0.3900000000E+03    0.2589925002E-03    0.6129466556E-04    0.6853372695E+00    0.1328779641E-02    0.4164973231E-02
    0.4100000000E+03    0.2736840280E-03    0.6480136113E-04    0.6858439248E+00    0.1411630050E-02    0.4157353809E-02
    0.4300000000E+03    0.2887828755E-03    0.6840492102E-04    0.6863040977E+00    0.1496642190E-02    0.4149539522E-02
    0.4500000000E+03    0.3043041883E-03    0.7210897753E-04    0.6867239037E+00    0.1583913043E-02    0.4141523973E-02
    0.4700000000E+03    0.3202641164E-03    0.7591740011E-04    0.6871084309E+00    0.1673543535E-02    0.4133300207E-02
    0.4900000000E+03    0.3366798298E-03    0.7983429947E-04    0.6874619466E+00    0.1765638929E-02    0.4124860732E-02
    0.1000000000E+03    0.8592298641E-04    0.1992256303E-04    0.6565083120E+00    0.3160335248E-03    0.4254241705E-02
    0.3000000000E+03    0.1975663149E-03    0.4662789731E-04    0.6822377456E+00    0.9802677485E-03    0.4196988627E-02
    0.5000000000E+03    0.3450642571E-03    0.8183478015E-04    0.6876282243E+00    0.1812645140E-02    0.4120557618E-02
    0.7000000000E+03    0.5418496649E-03    0.1287746856E-03    0.6899645167E+00    0.2912636759E-02    0.4020874426E-02
    0.9000000000E+03    0.8145248158E-03    0.1938007537E-03    0.6912691989E+00    0.4434404385E-02    0.3886154061E-02
    0.1100000000E+04    0.1210855777E-02    0.2883087747E-03    0.6921019055E+00    0.6648930682E-02    0.3695554732E-02
    0.1300000000E+04    0.1819850490E-02    0.4335315075E-03    0.6926794722E+00    0.1006116586E-01    0.3411572299E-02
    0.1500000000E+04    0.2807729807E-02    0.6691271757E-03    0.6931035524E+00    0.1561998288E-01    0.2968145972E-02
    0.1700000000E+04    0.4431802026E-02    0.1056517610E-02    0.6934281311E+00    0.2481872786E-01    0.2276675475E-02
    0.1900000000E+04    0.6758279321E-02    0.1611641710E-02    0.6936845345E+00    0.3814453589E-01    0.1367390610E-02
    0.2100000000E+04    0.9014097097E-02    0.2150277884E-02    0.6938921887E+00    0.5135442342E-01    0.6215867801E-03
    0.2300000000E+04    0.1047627078E-01    0.2499907167E-02    0.6940637803E+00    0.6030332066E-01    0.2894562771E-03
    0.2500000000E+04    0.1140059568E-01    0.2721391443E-02    0.6942079457E+00    0.6632474813E-01    0.1907583745E-03
    0.2700000000E+04    0.1211820026E-01    0.2893660423E-02    0.6943307678E+00    0.7125429699E-01    0.1658525566E-03
    0.2900000000E+04    0.1275656058E-01    0.3047110031E-02    0.6944366549E+00    0.7580671604E-01    0.1601400748E-03
    0.3100000000E+04    0.1335319368E-01    0.3190684315E-02    0.6945288795E+00    0.8019154883E-01    0.1591663073E-03
    0.3300000000E+04    0.1391907041E-01    0.3326994943E-02    0.6946099224E+00    0.8446758354E-01    0.1593373920E-03
    0.3500000000E+04    0.1445800874E-01    0.3456947046E-02    0.6946816981E+00    0.8865273623E-01    0.1597700396E-03
    0.3700000000E+04    0.1497190275E-01    0.3580986910E-02    0.6947457077E+00    0.9275400323E-01    0.1602478529E-03
    0.3900000000E+04    0.1546209429E-01    0.3699429346E-02    0.6948031449E+00    0.9677538942E-01    0.1607188241E-03
    0.4100000000E+04    0.1592973346E-01    0.3812543734E-02    0.6948549708E+00    0.1007200015E+00    0.1611715958E-03
    0.4300000000E+04    0.1637587579E-01    0.3920577217E-02    0.6949019676E+00    0.1045906067E+00    0.1616047908E-03
    0.4500000000E+04    0.1680151066E-01    0.4023761458E-02    0.6949447791E+00    0.1083897870E+00    0.1620193672E-03
    0.4700000000E+04    0.1720757144E-01    0.4122315040E-02    0.6949839391E+00    0.1121199859E+00    0.1624167154E-03
    0.4900000000E+04    0.1759494065E-01    0.4216444686E-02    0.6950198948E+00    0.1157835265E+00    0.1627981985E-03
    0.1000000000E+04    0.9929773758E-03    0.2363542885E-03    0.6917269556E+00    0.5430964271E-02    0.3799667084E-02
    0.3000000000E+04    0.1305912546E-01    0.3119901104E-02    0.6944843045E+00    0.7801479642E-01    0.1593946993E-03
    0.5000000000E+04    0.1778187870E-01    0.4261912102E-02    0.6950367910E+00    0.1175909955E+00    0.1629833829E-03
    0.7000000000E+04    0.2072016576E-01    0.4981394961E-02    0.6952730527E+00    0.1507266561E+00    0.1660918561E-03
    0.9000000000E+04    0.2250982179E-01    0.5427516600E-02    0.6954039115E+00    0.1791696338E+00    0.1684452898E-03
    0.1100000000E+05    0.2353610775E-01    0.5690902885E-02    0.6954869005E+00    0.2040464085E+00    0.1703451900E-03
    0.1300000000E+05    0.2404379341E-01    0.5829314684E-02    0.6955441440E+00    0.2261250021E+00    0.1719414160E-03
    0.1500000000E+05    0.2419379893E-01    0.5880861777E-02    0.6955859618E+00    0.2459492390E+00    0.1733196111E-03
    0.1700000000E+05    0.2409490007E-01    0.5871407654E-02    0.6956178132E+00    0.2639167622E+00    0.1745334283E-03
    0.1900000000E+05    0.2382231075E-01    0.5818915135E-02    0.6956428565E+00    0.2803264782E+00    0.1756187521E-03
    0.2100000000E+05    0.2342900705E-01    0.5736098393E-02    0.6956630451E+00    0.2954085438E+00    0.1766007913E-03
    0.2300000000E+05    0.2295286185E-01    0.5632096586E-02    0.6956796517E+00    0.3093439572E+00    0.1774979464E-03
    0.2500000000E+05    0.2242127126E-01    0.5513561079E-02    0.6956935408E+00    0.3222777324E+00    0.1783240673E-03
    0.2700000000E+05    0.2185423079E-01    0.5385379802E-02    0.6957053201E+00    0.3343279850E+00    0.1790898448E-03
    0.2900000000E+05    0.2126642620E-01    0.5251170650E-02    0.6957154294E+00    0.3455923424E+00    0.1798037073E-03
    0.3100000000E+05    0.2066868228E-01    0.5113624193E-02    0.6957241944E+00    0.3561525575E+00    0.1804724190E-03
    0.3300000000E+05    0.2006898408E-01    0.4974745878E-02    0.6957318616E+00    0.3660778914E+00    0.1811014929E-03
    0.3500000000E+05    0.1947320774E-01    0.4836029832E-02    0.6957386210E+00    0.3754276351E+00    0.1816954825E-03
    0.3700000000E+05    0.1888565055E-01    0.4698585309E-02    0.6957446213E+00    0.3842530180E+00    0.1822581932E-03
    0.3900000000E+05    0.1830941995E-01    0.4563229793E-02    0.6957499807E+00    0.3925986727E+00    0.1827928381E-03
    0.4100000000E+05    0.1774672213E-01    0.4430558312E-02    0.6957547940E+00    0.4005037746E+00    0.1833021555E-03
    0.4300000000E+05    0.1719907806E-01    0.4300995517E-02    0.6957591383E+00    0.4080029389E+00    0.1837884983E-03
    0.4500000000E+05    0.1666748657E-01    0.4174835171E-02    0.6957630771E+00    0.4151269346E+00    0.1842539035E-03
    0.4700000000E+05    0.1615254839E-01    0.4052270291E-02    0.6957666628E+00    0.4219032592E+00    0.1847001465E-03
    0.4900000000E+05    0.1565456093E-01    0.3933416332E-02    0.6957699394E+00    0.4283566057E+00    0.1851287842E-03
    0.1000000000E+05    0.2310062197E-01    0.5577864158E-02    0.6954495919E+00    0.1919993304E+00    0.1694404672E-03
    0.3000000000E+05    0.2096824076E-01    0.5182675497E-02    0.6957199630E+00    0.3509558792E+00    0.1801433370E-03
    0.5000000000E+05    0.1541195206E-01    0.3875400312E-02    0.6957714735E+00    0.4314692073E+00    0.1853369364E-03
    0.7000000000E+05    0.1139630217E-01    0.2904778039E-02    0.6957924345E+00    0.4811853049E+00    0.1888376968E-03
    0.9000000000E+05    0.8652735683E-02    0.2230249464E-02    0.6958034466E+00    0.5146943061E+00    0.1914949373E-03
    0.1100000000E+06    0.6748281744E-02    0.1755939395E-02    0.6958100441E+00    0.5386008260E+00    0.1936432595E-03
    0.1300000000E+06    0.5389612332E-02    0.1413983840E-02    0.6958143234E+00    0.5563918619E+00    0.1954499204E-03
    0.1500000000E+06    0.4393260122E-02    0.1160977711E-02    0.6958172475E+00    0.5700778087E+00    0.1970108432E-03
    0.1700000000E+06    0.3644067414E-02    0.9692589827E-03    0.6958193182E+00    0.5808918419E+00    0.1983862655E-03
    0.1900000000E+06    0.3068107264E-02    0.8208610519E-03    0.6958208210E+00    0.5896277318E+00    0.1996165463E-03
    0.2100000000E+06    0.2616641390E-02    0.7038254231E-03    0.6958219300E+00    0.5968169078E+00    0.2007300751E-03
    0.2300000000E+06    0.2256683190E-02    0.6099926756E-03    0.6958227565E+00    0.6028270907E+00    0.2017475958E-03
    0.2500000000E+06    0.1965353892E-02    0.5336635968E-03    0.6958233750E+00    0.6079199826E+00    0.2026847351E-03
    0.2700000000E+06    0.1726426976E-02    0.4707707426E-03    0.6958238370E+00    0.6122864148E+00    0.2035535636E-03
    0.2900000000E+06    0.1528159012E-02    0.4183538376E-03    0.6958241789E+00    0.6160685215E+00    0.2043636030E-03
    0.3100000000E+06    0.1361894529E-02    0.3742198390E-03    0.6958244275E+00    0.6193741590E+00    0.2051224987E-03
    0.3300000000E+06    0.1221147951E-02    0.3367177705E-03    0.6958246024E+00    0.6222865362E+00    0.2058364845E-03
    0.3500000000E+06    0.1100986512E-02    0.3045864887E-03    0.6958247186E+00    0.6248707995E+00    0.2065107110E-03
    0.3700000000E+06    0.9976072605E-03    0.2768497833E-03    0.6958247875E+00    0.6271786324E+00    0.2071494841E-03
    0.3900000000E+06    0.9080418724E-03    0.2527428163E-03    0.6958248182E+00    0.6292515285E+00    0.2077564404E-03
    0.4100000000E+06    0.8299471967E-03    0.2316596990E-03    0.6958248175E+00    0.6311231624E+00    0.2083346799E-03
    0.4300000000E+06    0.7614543729E-03    0.2131155715E-03    0.6958247912E+00    0.6328211322E+00    0.2088868671E-03
    0.4500000000E+06    0.7010586016E-03    0.1967187943E-03    0.6958247436E+00    0.6343682594E+00    0.2094153089E-03
    0.4700000000E+06    0.6475375684E-03    0.1821502953E-03    0.6958246785E+00    0.6357835717E+00    0.2099220164E-03
    0.4900000000E+06    0.5998903458E-03    0.1691480493E-03    0.6958245988E+00    0.6370830535E+00    0.2104087536E-03
    0.1000000000E+06    0.7617101544E-02    0.1972995125E-02    0.6958071262E+00    0.5275830814E+00    0.1926199332E-03
    0.3000000000E+06    0.1441474155E-02    0.3953653010E-03    0.6958243135E+00    0.6177752095E+00    0.2047490255E-03
    0.5000000000E+06    0.5780055360E-03    0.1631650254E-03    0.6958245543E+00    0.6376936668E+00    0.2106451266E-03
    0.7000000000E+06    0.3083771063E-03    0.8874393905E-04    0.6958233085E+00    0.6462223844E+00    0.2146210929E-03
    0.9000000000E+06    0.1910924078E-03    0.5579050044E-04    0.6958218589E+00    0.6509327183E+00    0.2176396107E-03
    0.1100000000E+07    0.1298468276E-03    0.3834701514E-04    0.6958204484E+00    0.6539142820E+00    0.2200802788E-03
    0.1300000000E+07    0.9391798943E-04    0.2800086942E-04    0.6958191303E+00    0.6559695302E+00    0.2221329316E-03
    0.1500000000E+07    0.7106748369E-04    0.2135968239E-04    0.6958179107E+00    0.6574714710E+00    0.2239064697E-03
    0.1700000000E+07    0.5564482080E-04    0.1684143108E-04    0.6958167830E+00    0.6586167641E+00    0.2254692930E-03
    0.1900000000E+07    0.4474996617E-04    0.1362723100E-04    0.6958157374E+00    0.6595188319E+00    0.2268672350E-03
    0.2100000000E+07    0.3677079440E-04    0.1125848387E-04    0.6958147644E+00    0.6602476507E+00    0.2281325395E-03
    0.2300000000E+07    0.3075331202E-04    0.9462023734E-05    0.6958138554E+00    0.6608487217E+00    0.2292887681E-03
    0.2500000000E+07    0.2610383861E-04    0.8066852553E-05    0.6958130030E+00    0.6613529047E+00    0.2303536714E-03
    0.2700000000E+07    0.2243729173E-04    0.6961460486E-05    0.6958122007E+00    0.6617818660E+00    0.2313409615E-03
    0.2900000000E+07    0.1949506909E-04    0.6070595731E-05    0.6958114431E+00    0.6621512630E+00    0.2322614550E-03
    0.3100000000E+07    0.1709830251E-04    0.5341973258E-05    0.6958107256E+00    0.6624726915E+00    0.2331238376E-03
    0.3300000000E+07    0.1512008820E-04    0.4738342151E-05    0.6958100441E+00    0.6627549218E+00    0.2339351914E-03
    0.3500000000E+07    0.1346837598E-04    0.4232576617E-05    0.6958093952E+00    0.6630047099E+00    0.2347013683E-03
    0.3700000000E+07    0.1207508675E-04    0.3804541269E-05    0.6958087758E+00    0.6632273438E+00    0.2354272601E-03
    0.3900000000E+07    0.1088899627E-04    0.3439033610E-05    0.6958081835E+00    0.6634270221E+00    0.2361169988E-03
    0.4100000000E+07    0.9870966433E-05    0.3124400339E-05    0.6958076159E+00    0.6636071203E+00    0.2367741067E-03
    0.4300000000E+07    0.8990679042E-05    0.2851586499E-05    0.6958070710E+00    0.6637703831E+00    0.2374016109E-03
    0.4500000000E+07    0.8224354608E-05    0.2613469276E-05    0.6958065470E+00    0.6639190654E+00    0.2380021328E-03
    0.4700000000E+07    0.7553130808E-05    0.2404383032E-05    0.6958060423E+00    0.6640550366E+00    0.2385779574E-03
    0.4900000000E+07    0.6961891289E-05    0.2219775271E-05    0.6958055556E+00    0.6641798597E+00    0.2391310890E-03
    0.1000000000E+07    0.1560678402E-03    0.4584054959E-04    0.6958211436E+00    0.6525743351E+00    0.2189176722E-03
    0.3000000000E+07    0.1823741425E-04    0.5688616295E-05    0.6958110796E+00    0.6623173701E+00    0.2326994349E-03
    0.5000000000E+07    0.6692350012E-05    0.2135468918E-05    0.6958053186E+00    0.6642385105E+00    0.2393997055E-03
    0.7000000000E+07    0.3480623199E-05    0.1122156089E-05    0.6958012744E+00    0.6650585347E+00    0.2439180666E-03
    0.9000000000E+07    0.2150991073E-05    0.6960141199E-06    0.6957981440E+00    0.6655132244E+00    0.2473484002E-03
    0.1100000000E+08    0.1474250686E-05    0.4767288183E-06    0.6957955830E+00    0.6658022501E+00    0.2501220623E-03
    0.1300000000E+08    0.1082814211E-05    0.3488736440E-06    0.6957934117E+00    0.6660022034E+00    0.2524547766E-03
    0.1500000000E+08    0.8357249859E-06    0.2676894501E-06    0.6957915244E+00    0.6661487667E+00    0.2544702977E-03
    0.1700000000E+08    0.6695037642E-06    0.2128386878E-06    0.6957898536E+00    0.6662608083E+00    0.2562463556E-03
    0.1900000000E+08    0.5521284367E-06    0.1739864815E-06    0.6957883534E+00    0.6663492426E+00    0.2578350364E-03
    0.2100000000E+08    0.4660173296E-06    0.1454233537E-06    0.6957869912E+00    0.6664208216E+00    0.2592729829E-03
    0.2300000000E+08    0.4008603321E-06    0.1237835352E-06    0.6957857431E+00    0.6664799464E+00    0.2605869711E-03
    0.2500000000E+08    0.3502841776E-06    0.1069770148E-06    0.6957845909E+00    0.6665296085E+00    0.2617971734E-03
    0.2700000000E+08    0.3101752158E-06    0.9364949242E-07    0.6957835205E+00    0.6665719124E+00    0.2629191726E-03
