  Pressure (Pa) 22mC5-500 (mol/kg) 23mC5-500 (mol/kg) 24mC5-500 (mol/kg) 3mC6-500 (mol/kg) C7-500 (mol/kg)
    0.1000000000E+01    0.1342241021E-04    0.6175231199E-05    0.3666050198E-01    0.3591722847E-05    0.4171768542E-02
    0.3000000000E+01    0.3539239143E-04    0.1626320183E-04    0.9948964031E-01    0.9035178060E-05    0.4212524494E-02
    0.5000000000E+01    0.5277346703E-04    0.2422792935E-04    0.1513755960E+00    0.1400649751E-04    0.4240447595E-02
    0.7000000000E+01    0.6679874164E-04    0.3064247644E-04    0.1949485660E+00    0.1875156076E-04    0.4263196778E-02
    0.9000000000E+01    0.7829448927E-04    0.3589025164E-04    0.2320583585E+00    0.2335259058E-04    0.4282380154E-02
    0.1100000000E+02    0.8784299865E-04    0.4024115987E-04    0.2640438390E+00    0.2785054382E-04    0.4298846021E-02
    0.1300000000E+02    0.9586668694E-04    0.4389080768E-04    0.2918979485E+00    0.3226972277E-04    0.4313156761E-02
    0.1500000000E+02    0.1026789606E-03    0.4698418050E-04    0.3163726475E+00    0.3662610375E-04    0.4325718013E-02
    0.1700000000E+02    0.1085167540E-03    0.4963077868E-04    0.3380478405E+00    0.4093092980E-04    0.4336835085E-02
    0.1900000000E+02    0.1135621060E-03    0.5191464782E-04    0.3573779239E+00    0.4519250850E-04    0.4346744048E-02
    0.2100000000E+02    0.1179568688E-03    0.5390121277E-04    0.3747239988E+00    0.4941720815E-04    0.4355631075E-02
    0.2300000000E+02    0.1218129694E-03    0.5564204250E-04    0.3903766454E+00    0.5361005274E-04    0.4363645306E-02
    0.2500000000E+02    0.1252197125E-03    0.5717823915E-04    0.4045723380E+00    0.5777509833E-04    0.4370907789E-02
    0.2700000000E+02    0.1282490691E-03    0.5854289116E-04    0.4175054778E+00    0.6191568228E-04    0.4377517893E-02
    0.2900000000E+02    0.1309595675E-03    0.5976287687E-04    0.4293373520E+00    0.6603459459E-04    0.4383558005E-02
    0.3100000000E+02    0.1333991959E-03    0.6086020931E-04    0.4402028962E+00    0.7013419942E-04    0.4389097044E-02
    0.3300000000E+02    0.1356075957E-03    0.6185305165E-04    0.4502158656E+00    0.7421652346E-04    0.4394193123E-02
    0.3500000000E+02    0.1376177376E-03    0.6275649295E-04    0.4594728335E+00    0.7828332181E-04    0.4398895606E-02
    0.3700000000E+02    0.1394572172E-03    0.6358314709E-04    0.4680563177E+00    0.8233612788E-04    0.4403246704E-02
    0.3900000000E+02    0.1411492649E-03    0.6434361961E-04    0.4760372477E+00    0.8637629206E-04    0.4407282732E-02
    0.4100000000E+02    0.1427135410E-03    0.6504687496E-04    0.4834769300E+00    0.9040501186E-04    0.4411035109E-02
    0.4300000000E+02    0.1441667669E-03    0.6570052777E-04    0.4904286266E+00    0.9442335597E-04    0.4414531163E-02
    0.4500000000E+02    0.1455232297E-03    0.6631107561E-04    0.4969388328E+00    0.9843228357E-04    0.4417794777E-02
    0.4700000000E+02    0.1467951887E-03    0.6688408639E-04    0.5030483183E+00    0.1024326600E-03    0.4420846920E-02
    0.4900000000E+02    0.1479932049E-03    0.6742435019E-04    0.5087929825E+00    0.1064252696E-03    0.4423706078E-02
    0.1000000000E+02    0.8328271078E-04    0.3816417802E-04    0.2486229210E+00    0.2561267544E-04    0.4290913006E-02
    0.3000000000E+02    0.1322105890E-03    0.6032565941E-04    0.4348833610E+00    0.6808667673E-04    0.4386386300E-02
    0.5000000000E+02    0.1485673878E-03    0.6768351712E-04    0.5115385699E+00    0.1084188876E-03    0.4425068477E-02
    0.7000000000E+02    0.1578350293E-03    0.7190009172E-04    0.5533450178E+00    0.1480280475E-03    0.4445311851E-02
    0.9000000000E+02    0.1651988784E-03    0.7531337306E-04    0.5796673048E+00    0.1874011237E-03    0.4457149888E-02
    0.1100000000E+03    0.1721564727E-03    0.7858582075E-04    0.5977645279E+00    0.2267873453E-03    0.4464400765E-02
    0.1300000000E+03    0.1792170849E-03    0.8193660560E-04    0.6109713516E+00    0.2663400179E-03    0.4468844606E-02
    0.1500000000E+03    0.1865646797E-03    0.8544129152E-04    0.6210343456E+00    0.3061647842E-03    0.4471426969E-02
    0.1700000000E+03    0.1942626358E-03    0.8912334501E-04    0.6289568148E+00    0.3463404893E-03    0.4472698208E-02
    0.1900000000E+03    0.2023268271E-03    0.9298636116E-04    0.6353561685E+00    0.3869296314E-03    0.4473001111E-02
    0.2100000000E+03    0.2107543268E-03    0.9702650372E-04    0.6406331819E+00    0.4279841560E-03    0.4472560621E-02
    0.2300000000E+03    0.2195353839E-03    0.1012375749E-03    0.6450593520E+00    0.4695489178E-03    0.4471530561E-02
    0.2500000000E+03    0.2286585727E-03    0.1056131200E-03    0.6488251360E+00    0.5116638753E-03    0.4470019678E-02
    0.2700000000E+03    0.2381129928E-03    0.1101472755E-03    0.6520680899E+00    0.5543655477E-03    0.4468106968E-02
    0.2900000000E+03    0.2478891513E-03    0.1148350689E-03    0.6548900439E+00    0.5976880229E-03    0.4465851111E-02
    0.3100000000E+03    0.2579792452E-03    0.1196724789E-03    0.6573679942E+00    0.6416636774E-03    0.4463296505E-02
    0.3300000000E+03    0.2683771755E-03    0.1246563951E-03    0.6595612387E+00    0.6863237072E-03    0.4460477250E-02
    0.3500000000E+03    0.2790784479E-03    0.1297845395E-03    0.6615161859E+00    0.7316985304E-03    0.4457419859E-02
    0.3700000000E+03    0.2900800331E-03    0.1350553791E-03    0.6632696770E+00    0.7778180996E-03    0.4454145139E-02
    0.3900000000E+03    0.3013802215E-03    0.1404680427E-03    0.6648513304E+00    0.8247121505E-03    0.4450669532E-02
    0.4100000000E+03    0.3129784866E-03    0.1460222466E-03    0.6662852292E+00    0.8724104051E-03    0.4447006089E-02
    0.4300000000E+03    0.3248753640E-03    0.1517182295E-03    0.6675911567E+00    0.9209427403E-03    0.4443165181E-02
    0.4500000000E+03    0.3370723471E-03    0.1575566985E-03    0.6687855149E+00    0.9703393324E-03    0.4439155035E-02
    0.4700000000E+03    0.3495717984E-03    0.1635387832E-03    0.6698820176E+00    0.1020630783E-02    0.4434982142E-02
    0.4900000000E+03    0.3623768756E-03    0.1696659981E-03    0.6708922190E+00    0.1071848228E-02    0.4430651566E-02
    0.1000000000E+03    0.1686849243E-03    0.7694830520E-04    0.5894826370E+00    0.2070815310E-03    0.4461209732E-02
    0.3000000000E+03    0.2528953766E-03    0.1172352867E-03    0.6561679638E+00    0.6195922306E-03    0.4464608816E-02
    0.5000000000E+03    0.3688952128E-03    0.1727846003E-03    0.6713680797E+00    0.1097814101E-02    0.4428428401E-02
    0.7000000000E+03    0.5166389693E-03    0.2434150095E-03    0.6781026911E+00    0.1674053712E-02    0.4376160576E-02
    0.9000000000E+03    0.7035312556E-03    0.3326724276E-03    0.6819037534E+00    0.2386753544E-02    0.4308225729E-02
    0.1100000000E+04    0.9430496720E-03    0.4469983147E-03    0.6843452522E+00    0.3290762955E-02    0.4220909963E-02
    0.1300000000E+04    0.1256702585E-02    0.5966605978E-03    0.6860459497E+00    0.4469061763E-02    0.4107378397E-02
    0.1500000000E+04    0.1678736276E-02    0.7980015905E-03    0.6872985747E+00    0.6051985016E-02    0.3956597992E-02
    0.1700000000E+04    0.2264483229E-02    0.1077423708E-02    0.6882595721E+00    0.8249726891E-02    0.3751058080E-02
    0.1900000000E+04    0.3103221992E-02    0.1477530604E-02    0.6890201469E+00    0.1140255208E-01    0.3463556953E-02
    0.2100000000E+04    0.4329789925E-02    0.2062682843E-02    0.6896370619E+00    0.1602870112E-01    0.3055897719E-02
    0.2300000000E+04    0.6096289484E-02    0.2905536056E-02    0.6901474940E+00    0.2272674237E-01    0.2493413883E-02
    0.2500000000E+04    0.8395119450E-02    0.4002658968E-02    0.6905768109E+00    0.3151806377E-01    0.1807300414E-02
    0.2700000000E+04    0.1078100549E-01    0.5141847316E-02    0.6909429155E+00    0.4077693073E-01    0.1168585633E-02
    0.2900000000E+04    0.1265814361E-01    0.6038862972E-02    0.6912588034E+00    0.4825228748E-01    0.7574212187E-03
    0.3100000000E+04    0.1393137071E-01    0.6648106640E-02    0.6915341363E+00    0.5353384125E-01    0.5651586522E-03
    0.3300000000E+04    0.1483704257E-01    0.7082186419E-02    0.6917762472E+00    0.5747704603E-01    0.4907773819E-03
    0.3500000000E+04    0.1556852338E-01    0.7433296399E-02    0.6919908016E+00    0.6079930462E-01    0.4647325896E-03
    0.3700000000E+04    0.1621864566E-01    0.7745709864E-02    0.6921822462E+00    0.6384814481E-01    0.4564358018E-03
    0.3900000000E+04    0.1682503665E-01    0.8037372196E-02    0.6923541201E+00    0.6676465252E-01    0.4543913451E-03
    0.4100000000E+04    0.1740236181E-01    0.8315274919E-02    0.6925092746E+00    0.6960321837E-01    0.4545033878E-03
    0.4300000000E+04    0.1795653224E-01    0.8582232433E-02    0.6926500333E+00    0.7238494633E-01    0.4553362680E-03
    0.4500000000E+04    0.1849020184E-01    0.8839504839E-02    0.6927783080E+00    0.7511850794E-01    0.4563893194E-03
    0.4700000000E+04    0.1900480836E-01    0.9087771997E-02    0.6928956865E+00    0.7780794725E-01    0.4574890299E-03
    0.4900000000E+04    0.1950132246E-01    0.9327491062E-02    0.6930034983E+00    0.8045556517E-01    0.4585764816E-03
    0.1000000000E+04    0.8155968760E-03    0.3861692062E-03    0.6832443819E+00    0.2810493742E-02    0.4267337924E-02
    0.3000000000E+04    0.1335705718E-01    0.6373176510E-02    0.6914010354E+00    0.5112053026E-01    0.6402832691E-03
    0.5000000000E+04    0.1974304226E-01    0.9444261318E-02    0.6930541743E+00    0.8176421153E-01    0.4591090540E-03
    0.7000000000E+04    0.2378546293E-01    0.1140498150E-01    0.6937637337E+00    0.1060487994E+00    0.4680760475E-03
    0.9000000000E+04    0.2664323279E-01    0.1280401421E-01    0.6941576418E+00    0.1273515433E+00    0.4748274097E-03
    0.1100000000E+05    0.2866041608E-01    0.1380303475E-01    0.6944078891E+00    0.1463468880E+00    0.4802575479E-03
    0.1300000000E+05    0.3006690516E-01    0.1451028045E-01    0.6945807551E+00    0.1635076718E+00    0.4848086940E-03
    0.1500000000E+05    0.3102118220E-01    0.1500052668E-01    0.6947072007E+00    0.1791761010E+00    0.4887314827E-03
    0.1700000000E+05    0.3163541168E-01    0.1532681716E-01    0.6948036244E+00    0.1936065863E+00    0.4921820246E-03
    0.1900000000E+05    0.3199077306E-01    0.1552763772E-01    0.6948795215E+00    0.2069927023E+00    0.4952642877E-03
    0.2100000000E+05    0.3214715804E-01    0.1563145759E-01    0.6949407697E+00    0.2194847466E+00    0.4980510718E-03
    0.2300000000E+05    0.3214949015E-01    0.1565969181E-01    0.6949912012E+00    0.2312015164E+00    0.5005953779E-03
    0.2500000000E+05    0.3203195240E-01    0.1562868509E-01    0.6950334210E+00    0.2422384152E+00    0.5029370163E-03
    0.2700000000E+05    0.3182088165E-01    0.1555107158E-01    0.6950692614E+00    0.2526731597E+00    0.5051066643E-03
    0.2900000000E+05    0.3153679111E-01    0.1543672606E-01    0.6951000488E+00    0.2625698794E+00    0.5071284711E-03
    0.3100000000E+05    0.3119580978E-01    0.1529344185E-01    0.6951267663E+00    0.2719821151E+00    0.5090217947E-03
    0.3300000000E+05    0.3081072396E-01    0.1512742185E-01    0.6951501584E+00    0.2809550475E+00    0.5108023950E-03
    0.3500000000E+05    0.3039174204E-01    0.1494363970E-01    0.6951707992E+00    0.2895271775E+00    0.5124832773E-03
    0.3700000000E+05    0.2994706370E-01    0.1474610891E-01    0.6951891380E+00    0.2977316110E+00    0.5140753008E-03
    0.3900000000E+05    0.2948330891E-01    0.1453808602E-01    0.6952055320E+00    0.3055970521E+00    0.5155876285E-03
    0.4100000000E+05    0.2900584471E-01    0.1432222557E-01    0.6952202681E+00    0.3131485805E+00    0.5170280642E-03
    0.4300000000E+05    0.2851903686E-01    0.1410069969E-01    0.6952335801E+00    0.3204082645E+00    0.5184033095E-03
    0.4500000000E+05    0.2802644539E-01    0.1387529112E-01    0.6952456596E+00    0.3273956518E+00    0.5197191632E-03
    0.4700000000E+05    0.2753097786E-01    0.1364746635E-01    0.6952566658E+00    0.3341281626E+00    0.5209806769E-03
    0.4900000000E+05    0.2703501059E-01    0.1341843346E-01    0.6952667316E+00    0.3406214095E+00    0.5221922786E-03
    0.1000000000E+05    0.2774046804E-01    0.1334579570E-01    0.6942953396E+00    0.1371043741E+00    0.4776737057E-03
    0.3000000000E+05    0.3137254438E-01    0.1536828109E-01    0.6951138650E+00    0.2673335600E+00    0.5080901353E-03
    0.5000000000E+05    0.2678746103E-01    0.1330378240E-01    0.6952714475E+00    0.3437827590E+00    0.5227806004E-03
    0.7000000000E+05    0.2212289325E-01    0.1111104658E-01    0.6953361392E+00    0.3972473710E+00    0.5326710715E-03
    0.9000000000E+05    0.1826696082E-01    0.9262011291E-02    0.6953704303E+00    0.4370833487E+00    0.5401742877E-03
    0.1100000000E+06    0.1520364742E-01    0.7772651222E-02    0.6953911710E+00    0.4678176618E+00    0.5462385531E-03
    0.1300000000E+06    0.1278252988E-01    0.6582690607E-02    0.6954047647E+00    0.4921150637E+00    0.5513373238E-03
    0.1500000000E+06    0.1085839729E-01    0.5628420426E-02    0.6954141620E+00    0.5116981619E+00    0.5557419278E-03
    0.1700000000E+06    0.9315091836E-02    0.4857051634E-02    0.6954209046E+00    0.5277400679E+00    0.5596226663E-03
    0.1900000000E+06    0.8064382012E-02    0.4227638922E-02    0.6954258731E+00    0.5410673344E+00    0.5630935986E-03
    0.2100000000E+06    0.7040196697E-02    0.3709063830E-02    0.6954296050E+00    0.5522772847E+00    0.5662349343E-03
    0.2300000000E+06    0.6193068957E-02    0.3277759568E-02    0.6954324458E+00    0.5618105786E+00    0.5691052683E-03
    0.2500000000E+06    0.5485747663E-02    0.2915811879E-02    0.6954346270E+00    0.5699980998E+00    0.5717487332E-03
    0.2700000000E+06    0.4889942645E-02    0.2609507226E-02    0.6954363090E+00    0.5770922129E+00    0.5741994144E-03
    0.2900000000E+06    0.4383963150E-02    0.2348258142E-02    0.6954376061E+00    0.5832881171E+00    0.5764841951E-03
    0.3100000000E+06    0.3951013853E-02    0.2123816304E-02    0.6954386019E+00    0.5887387301E+00    0.5786246597E-03
    0.3300000000E+06    0.3577962697E-02    0.1929696872E-02    0.6954393585E+00    0.5935652495E+00    0.5806384052E-03
    0.3500000000E+06    0.3254444591E-02    0.1760755744E-02    0.6954399232E+00    0.5978647635E+00    0.5825399703E-03
    0.3700000000E+06    0.2972204292E-02    0.1612877113E-02    0.6954403323E+00    0.6017158161E+00    0.5843415078E-03
    0.3900000000E+06    0.2724610423E-02    0.1482740770E-02    0.6954406141E+00    0.6051825284E+00    0.5860532817E-03
    0.4100000000E+06    0.2506292782E-02    0.1367647366E-02    0.6954407911E+00    0.6083176893E+00    0.5876840407E-03
    0.4300000000E+06    0.2312869190E-02    0.1265386086E-02    0.6954408813E+00    0.6111650981E+00    0.5892413037E-03
    0.4500000000E+06    0.2140737933E-02    0.1174133590E-02    0.6954408990E+00    0.6137613606E+00    0.5907315807E-03
    0.4700000000E+06    0.1986918685E-02    0.1092376203E-02    0.6954408561E+00    0.6161372771E+00    0.5921605465E-03
    0.4900000000E+06    0.1848929551E-02    0.1018849524E-02    0.6954407622E+00    0.6183189276E+00    0.5935331783E-03
    0.1000000000E+06    0.1664510133E-01    0.8475698071E-02    0.6953819725E+00    0.4533928295E+00    0.5433501036E-03
    0.3000000000E+06    0.4159254466E-02    0.2231877370E-02    0.6954381374E+00    0.5860983677E+00    0.5775712860E-03
    0.5000000000E+06    0.1785207957E-02    0.9848338949E-03    0.6954406986E+00    0.6193439762E+00    0.5941997611E-03
    0.7000000000E+06    0.9806303512E-03    0.5512027595E-03    0.6954381025E+00    0.6336204618E+00    0.6054117033E-03
    0.9000000000E+06    0.6175189281E-03    0.3520180867E-03    0.6954345779E+00    0.6414285876E+00    0.6139232163E-03
    0.1100000000E+07    0.4239161903E-03    0.2443753054E-03    0.6954309908E+00    0.6463200825E+00    0.6208050768E-03
    0.1300000000E+07    0.3088148040E-03    0.1796761636E-03    0.6954275651E+00    0.6496614109E+00    0.6265927149E-03
    0.1500000000E+07    0.2349269378E-03    0.1377603828E-03    0.6954243545E+00    0.6520845410E+00    0.6315932655E-03
    0.1700000000E+07    0.1847139777E-03    0.1090489069E-03    0.6954213602E+00    0.6539203903E+00    0.6359996289E-03
    0.1900000000E+07    0.1490549158E-03    0.8851719323E-04    0.6954185670E+00    0.6553584804E+00    0.6399410598E-03
    0.2100000000E+07    0.1228291324E-03    0.7332331356E-04    0.6954159559E+00    0.6565149650E+00    0.6435084859E-03
    0.2300000000E+07    0.1029831463E-03    0.6176138575E-04    0.6954135078E+00    0.6574649122E+00    0.6467683497E-03
    0.2500000000E+07    0.8760507428E-04    0.5275696780E-04    0.6954112054E+00    0.6582589544E+00    0.6497707062E-03
    0.2700000000E+07    0.7544857350E-04    0.4560587373E-04    0.6954090334E+00    0.6589324620E+00    0.6525542213E-03
    0.2900000000E+07    0.6567315912E-04    0.3983089394E-04    0.6954069785E+00    0.6595108809E+00    0.6551493958E-03
    0.3100000000E+07    0.5769543039E-04    0.3509928593E-04    0.6954050289E+00    0.6600129786E+00    0.6575807214E-03
    0.3300000000E+07    0.5110021590E-04    0.3117326307E-04    0.6954031746E+00    0.6604528973E+00    0.6598681679E-03
    0.3500000000E+07    0.4558557412E-04    0.2787921420E-04    0.6954014068E+00    0.6608414940E+00    0.6620282358E-03
    0.3700000000E+07    0.4092767577E-04    0.2508797040E-04    0.6953997178E+00    0.6611872406E+00    0.6640747190E-03
    0.3900000000E+07    0.3695776166E-04    0.2270180811E-04    0.6953981009E+00    0.6614968441E+00    0.6660192680E-03
    0.4100000000E+07    0.3354665487E-04    0.2064568220E-04    0.6953965501E+00    0.6617756830E+00    0.6678718143E-03
    0.4300000000E+07    0.3059412472E-04    0.1886118530E-04    0.6953950602E+00    0.6620281203E+00    0.6696408938E-03
    0.4500000000E+07    0.2802144071E-04    0.1730230536E-04    0.6953936266E+00    0.6622577319E+00    0.6713338974E-03
    0.4700000000E+07    0.2576606813E-04    0.1593239457E-04    0.6953922451E+00    0.6624674766E+00    0.6729572680E-03
    0.4900000000E+07    0.2377782973E-04    0.1472196958E-04    0.6953909120E+00    0.6626598235E+00    0.6745166568E-03
    0.1000000000E+07    0.5071787383E-03    0.2908255149E-03    0.6954327717E+00    0.6441276739E+00    0.6175269442E-03
    0.3000000000E+07    0.6148870815E-04    0.3735132702E-04    0.6954059912E+00    0.6597704959E+00    0.6563841996E-03
    0.5000000000E+07    0.2287087517E-04    0.1416890226E-04    0.6953902625E+00    0.6627501349E+00    0.6752739387E-03
    0.7000000000E+07    0.1203242762E-04    0.7504320396E-05    0.6953791599E+00    0.6640082374E+00    0.6880118956E-03
    0.9000000000E+07    0.7520699118E-05    0.4688841703E-05    0.6953705459E+00    0.6647020353E+00    0.6976823187E-03
    0.1100000000E+08    0.5214004616E-05    0.3235085730E-05    0.6953634902E+00    0.6651415901E+00    0.7055013934E-03
    0.1300000000E+08    0.3874213431E-05    0.2384956260E-05    0.6953575042E+00    0.6654450015E+00    0.7120773279E-03
    0.1500000000E+08    0.3025050768E-05    0.1843662238E-05    0.6953522993E+00    0.6656670381E+00    0.7177590285E-03
    0.1700000000E+08    0.2451487524E-05    0.1476971896E-05    0.6953476906E+00    0.6658365674E+00    0.7227656399E-03
    0.1900000000E+08    0.2044815000E-05    0.1216552877E-05    0.6953435522E+00    0.6659702471E+00    0.7272440070E-03
    0.2100000000E+08    0.1745227622E-05    0.1024596977E-05    0.6953397946E+00    0.6660783632E+00    0.7312974345E-03
    0.2300000000E+08    0.1517588433E-05    0.8787848154E-06    0.6953363518E+00    0.6661676101E+00    0.7350014101E-03
    0.2500000000E+08    0.1340137640E-05    0.7652387788E-06    0.6953331738E+00    0.6662425324E+00    0.7384128041E-03
    0.2700000000E+08    0.1198805159E-05    0.6749551182E-06    0.6953302216E+00    0.6663063238E+00    0.7415755472E-03
