  Pressure (Pa) 22mC5-500 (mol/kg) 23mC5-500 (mol/kg) 24mC5-500 (mol/kg) 3mC6-500 (mol/kg) C7-500 (mol/kg)
    0.1000000000E+01    0.1128058446E-04    0.3887486621E-05    0.1266314674E+00    0.1675874290E-05    0.4182532129E-02
    0.3000000000E+01    0.2330866652E-04    0.8009780067E-05    0.2785188747E+00    0.4255429615E-05    0.4218092143E-02
    0.5000000000E+01    0.2938996126E-04    0.1008030267E-04    0.3664194562E+00    0.6618402467E-05    0.4236567273E-02
    0.7000000000E+01    0.3294979719E-04    0.1128644227E-04    0.4237328926E+00    0.8876107947E-05    0.4248483418E-02
    0.9000000000E+01    0.3527090073E-04    0.1207092544E-04    0.4640586596E+00    0.1106603309E-04    0.4256878895E-02
    0.1100000000E+02    0.3692450583E-04    0.1263000432E-04    0.4939747662E+00    0.1320692663E-04    0.4263132696E-02
    0.1300000000E+02    0.3819553233E-04    0.1306108216E-04    0.5170512399E+00    0.1530994657E-04    0.4267977905E-02
    0.1500000000E+02    0.3923797524E-04    0.1341652253E-04    0.5353930981E+00    0.1738244577E-04    0.4271843650E-02
    0.1700000000E+02    0.4014017082E-04    0.1372618725E-04    0.5503219134E+00    0.1942960910E-04    0.4274998926E-02
    0.1900000000E+02    0.4095514186E-04    0.1400788461E-04    0.5627092670E+00    0.2145527436E-04    0.4277621369E-02
    0.2100000000E+02    0.4171584954E-04    0.1427260464E-04    0.5731532513E+00    0.2346238796E-04    0.4279833226E-02
    0.2300000000E+02    0.4244334692E-04    0.1452730886E-04    0.5820779385E+00    0.2545327746E-04    0.4281721516E-02
    0.2500000000E+02    0.4315136165E-04    0.1477649293E-04    0.5897923800E+00    0.2742982418E-04    0.4283349937E-02
    0.2700000000E+02    0.4384898055E-04    0.1502309880E-04    0.5965271272E+00    0.2939357775E-04    0.4284766245E-02
    0.2900000000E+02    0.4454227784E-04    0.1526906581E-04    0.6024576669E+00    0.3134583481E-04    0.4286006976E-02
    0.3100000000E+02    0.4523533222E-04    0.1551567358E-04    0.6077199349E+00    0.3328769496E-04    0.4287100584E-02
    0.3300000000E+02    0.4593087835E-04    0.1576376070E-04    0.6124208644E+00    0.3522010151E-04    0.4288069577E-02
    0.3500000000E+02    0.4663073334E-04    0.1601386721E-04    0.6166457288E+00    0.3714387182E-04    0.4288932003E-02
    0.3700000000E+02    0.4733608123E-04    0.1626632912E-04    0.6204633618E+00    0.3905972037E-04    0.4289702513E-02
    0.3900000000E+02    0.4804766575E-04    0.1652134224E-04    0.6239299370E+00    0.4096827656E-04    0.4290393132E-02
    0.4100000000E+02    0.4876592288E-04    0.1677900562E-04    0.6270917504E+00    0.4287009874E-04    0.4291013826E-02
    0.4300000000E+02    0.4949107301E-04    0.1703935173E-04    0.6299873003E+00    0.4476568526E-04    0.4291572930E-02
    0.4500000000E+02    0.5022318573E-04    0.1730236740E-04    0.6326488627E+00    0.4665548345E-04    0.4292077472E-02
    0.4700000000E+02    0.5096222574E-04    0.1756800858E-04    0.6351036993E+00    0.4853989689E-04    0.4292533423E-02
    0.4900000000E+02    0.5170808557E-04    0.1783621072E-04    0.6373749953E+00    0.5041929135E-04    0.4292945887E-02
    0.1000000000E+02    0.3615910490E-04    0.1237109615E-04    0.4800486132E+00    0.1214179389E-04    0.4260218029E-02
    0.3000000000E+02    0.4488863883E-04    0.1539222881E-04    0.6051650703E+00    0.3231800228E-04    0.4286570644E-02
    0.5000000000E+02    0.5208352553E-04    0.1797124827E-04    0.6384481303E+00    0.5135721167E-04    0.4293137209E-02
    0.7000000000E+02    0.5990203512E-04    0.2078543977E-04    0.6538609612E+00    0.6991946145E-04    0.4295483123E-02
    0.9000000000E+02    0.6817460482E-04    0.2376274995E-04    0.6627499141E+00    0.8823114791E-04    0.4296158864E-02
    0.1100000000E+03    0.7675603004E-04    0.2684907486E-04    0.6685336081E+00    0.1064068222E-03    0.4295978493E-02
    0.1300000000E+03    0.8556064294E-04    0.3001344307E-04    0.6725972711E+00    0.1245154762E-03    0.4295289172E-02
    0.1500000000E+03    0.9453795530E-04    0.3323790513E-04    0.6756088634E+00    0.1426032270E-03    0.4294266175E-02
    0.1700000000E+03    0.1036572938E-03    0.3651169361E-04    0.6779301200E+00    0.1607031684E-03    0.4293008439E-02
    0.1900000000E+03    0.1128994970E-03    0.3982815880E-04    0.6797739925E+00    0.1788403236E-03    0.4291576429E-02
    0.2100000000E+03    0.1222523676E-03    0.4318311791E-04    0.6812740112E+00    0.1970343970E-03    0.4290009357E-02
    0.2300000000E+03    0.1317080866E-03    0.4657392622E-04    0.6825181537E+00    0.2153014220E-03    0.4288333848E-02
    0.2500000000E+03    0.1412616811E-03    0.4999893190E-04    0.6835667427E+00    0.2336548043E-03    0.4286568648E-02
    0.2700000000E+03    0.1509100844E-03    0.5345714364E-04    0.6844625212E+00    0.2521060141E-03    0.4284727349E-02
    0.2900000000E+03    0.1606515396E-03    0.5694802110E-04    0.6852366214E+00    0.2706650617E-03    0.4282820044E-02
    0.3100000000E+03    0.1704852104E-03    0.6047133917E-04    0.6859122566E+00    0.2893408358E-03    0.4280854378E-02
    0.3300000000E+03    0.1804109218E-03    0.6402709755E-04    0.6865070884E+00    0.3081413490E-03    0.4278836235E-02
    0.3500000000E+03    0.1904289818E-03    0.6761545948E-04    0.6870347927E+00    0.3270739217E-03    0.4276770204E-02
    0.3700000000E+03    0.2005400590E-03    0.7123670931E-04    0.6875061243E+00    0.3461453214E-03    0.4274659903E-02
    0.3900000000E+03    0.2107450945E-03    0.7489122263E-04    0.6879296569E+00    0.3653618699E-03    0.4272508207E-02
    0.4100000000E+03    0.2210452400E-03    0.7857944506E-04    0.6883123095E+00    0.3847295289E-03    0.4270317419E-02
    0.4300000000E+03    0.2314418125E-03    0.8230187690E-04    0.6886597273E+00    0.4042539667E-03    0.4268089387E-02
    0.4500000000E+03    0.2419362608E-03    0.8605906197E-04    0.6889765618E+00    0.4239406130E-03    0.4265825598E-02
    0.4700000000E+03    0.2525301414E-03    0.8985157949E-04    0.6892666802E+00    0.4437947033E-03    0.4263527248E-02
    0.4900000000E+03    0.2632251001E-03    0.9368003799E-04    0.6895333242E+00    0.4638213158E-03    0.4261195297E-02
    0.1000000000E+03    0.7243313705E-04    0.2529462259E-04    0.6659184871E+00    0.9733096802E-04    0.4296148122E-02
    0.3000000000E+03    0.1655568721E-03    0.5870562952E-04    0.6855855346E+00    0.2799878390E-03    0.4281844104E-02
    0.5000000000E+03    0.2686110191E-03    0.9560794219E-04    0.6896587158E+00    0.4739008693E-03    0.4260016966E-02
    0.7000000000E+03    0.3820915730E-03    0.1362192580E-03    0.6914187672E+00    0.6857208572E-03    0.4234797175E-02
    0.9000000000E+03    0.5080055565E-03    0.1812683875E-03    0.6924001453E+00    0.9202229942E-03    0.4206423654E-02
    0.1100000000E+04    0.6488257295E-03    0.2316441949E-03    0.6930258835E+00    0.1182386261E-02    0.4174597744E-02
    0.1300000000E+04    0.8075590329E-03    0.2884245006E-03    0.6934595797E+00    0.1478013582E-02    0.4138791001E-02
    0.1500000000E+04    0.9879221139E-03    0.3529401624E-03    0.6937778364E+00    0.1814183045E-02    0.4098286716E-02
    0.1700000000E+04    0.1194581903E-02    0.4268616404E-03    0.6940213007E+00    0.2199744373E-02    0.4052158637E-02
    0.1900000000E+04    0.1433481169E-02    0.5123157156E-03    0.6942135436E+00    0.2645954864E-02    0.3999219117E-02
    0.2100000000E+04    0.1712285218E-02    0.6120454737E-03    0.6943691748E+00    0.3167339596E-02    0.3937939964E-02
    0.2300000000E+04    0.2041000875E-02    0.7296319165E-03    0.6944977313E+00    0.3782880105E-02    0.3866340744E-02
    0.2500000000E+04    0.2432836339E-02    0.8698018057E-03    0.6946057033E+00    0.4517667850E-02    0.3781835284E-02
    0.2700000000E+04    0.2905386094E-02    0.1038851910E-02    0.6946976604E+00    0.5405190786E-02    0.3681025902E-02
    0.2900000000E+04    0.3482220055E-02    0.1245218087E-02    0.6947769136E+00    0.6490418178E-02    0.3559440177E-02
    0.3100000000E+04    0.4194875449E-02    0.1500188806E-02    0.6948459200E+00    0.7833707476E-02    0.3411228952E-02
    0.3300000000E+04    0.5084946892E-02    0.1818654427E-02    0.6949065421E+00    0.9515002108E-02    0.3228916804E-02
    0.3500000000E+04    0.6205102005E-02    0.2219473021E-02    0.6949602166E+00    0.1163616878E-01    0.3003482770E-02
    0.3700000000E+04    0.7615787951E-02    0.2724295726E-02    0.6950080702E+00    0.1431542189E-01    0.2725454572E-02
    0.3900000000E+04    0.9370706313E-02    0.3352374374E-02    0.6950509983E+00    0.1766068635E-01    0.2388338547E-02
    0.4100000000E+04    0.1148159956E-01    0.4107964636E-02    0.6950897220E+00    0.2170349968E-01    0.1995875048E-02
    0.4300000000E+04    0.1386443907E-01    0.4961064501E-02    0.6951248281E+00    0.2629602778E-01    0.1571709044E-02
    0.4500000000E+04    0.1631082028E-01    0.5837153898E-02    0.6951567992E+00    0.3105263292E-01    0.1161846631E-02
    0.4700000000E+04    0.1855625944E-01    0.6641600104E-02    0.6951860357E+00    0.3547357996E-01    0.8173015403E-03
    0.4900000000E+04    0.2042179054E-01    0.7310319024E-02    0.6952128727E+00    0.3921223094E-01    0.5660024990E-03
    0.1000000000E+04    0.5763787130E-03    0.2057281714E-03    0.6927441907E+00    0.1047508966E-02    0.4190970841E-02
    0.3000000000E+04    0.3819228104E-02    0.1365789535E-02    0.6948125696E+00    0.7125313084E-02    0.3489090100E-02
    0.5000000000E+04    0.2119969483E-01    0.7589324498E-02    0.6952254815E+00    0.4079869815E-01    0.4748294644E-03
    0.7000000000E+04    0.2858626684E-01    0.1024874257E-01    0.6954015775E+00    0.5766779499E-01    0.1905020658E-03
    0.9000000000E+04    0.3330790628E-01    0.1195857873E-01    0.6954988598E+00    0.7030454574E-01    0.1925684267E-03
    0.1100000000E+05    0.3712582496E-01    0.1334762705E-01    0.6955603963E+00    0.8182461155E-01    0.1947352166E-03
    0.1300000000E+05    0.4023713850E-01    0.1448537314E-01    0.6956027326E+00    0.9243099709E-01    0.1965575336E-03
    0.1500000000E+05    0.4278524455E-01    0.1542240403E-01    0.6956335793E+00    0.1022729292E+00    0.1981312533E-03
    0.1700000000E+05    0.4487866602E-01    0.1619704752E-01    0.6956570121E+00    0.1114667846E+00    0.1995174765E-03
    0.1900000000E+05    0.4660089731E-01    0.1683882679E-01    0.6956753867E+00    0.1201048018E+00    0.2007570937E-03
    0.2100000000E+05    0.4801711451E-01    0.1737081594E-01    0.6956901589E+00    0.1282611304E+00    0.2018788418E-03
    0.2300000000E+05    0.4917885506E-01    0.1781128367E-01    0.6957022764E+00    0.1359961362E+00    0.2029037027E-03
    0.2500000000E+05    0.5012734537E-01    0.1817486274E-01    0.6957123824E+00    0.1433595233E+00    0.2038474733E-03
    0.2700000000E+05    0.5089590856E-01    0.1847339663E-01    0.6957209290E+00    0.1503926377E+00    0.2047223498E-03
    0.2900000000E+05    0.5151173420E-01    0.1871656231E-01    0.6957282425E+00    0.1571301933E+00    0.2055379490E-03
    0.3100000000E+05    0.5199719777E-01    0.1891233474E-01    0.6957345648E+00    0.1636015827E+00    0.2063019900E-03
    0.3300000000E+05    0.5237085706E-01    0.1906733794E-01    0.6957400788E+00    0.1698318864E+00    0.2070207649E-03
    0.3500000000E+05    0.5264821376E-01    0.1918711352E-01    0.6957449251E+00    0.1758426582E+00    0.2076994712E-03
    0.3700000000E+05    0.5284230183E-01    0.1927632817E-01    0.6957492140E+00    0.1816525427E+00    0.2083424528E-03
    0.3900000000E+05    0.5296414653E-01    0.1933893577E-01    0.6957530327E+00    0.1872777665E+00    0.2089533780E-03
    0.4100000000E+05    0.5302312602E-01    0.1937830510E-01    0.6957564514E+00    0.1927325315E+00    0.2095353732E-03
    0.4300000000E+05    0.5302725856E-01    0.1939732138E-01    0.6957595271E+00    0.1980293331E+00    0.2100911250E-03
    0.4500000000E+05    0.5298343242E-01    0.1939846760E-01    0.6957623065E+00    0.2031792192E+00    0.2106229592E-03
    0.4700000000E+05    0.5289759137E-01    0.1938389018E-01    0.6957648284E+00    0.2081920032E+00    0.2111329032E-03
    0.4900000000E+05    0.5277488531E-01    0.1935545237E-01    0.6957671250E+00    0.2130764394E+00    0.2116227349E-03
    0.1000000000E+05    0.3531587761E-01    0.1268828311E-01    0.6955327515E+00    0.7618971677E-01    0.1937026323E-03
    0.3000000000E+05    0.5176952181E-01    0.1881993051E-01    0.6957315150E+00    0.1603975003E+00    0.2059259920E-03
    0.5000000000E+05    0.5270113095E-01    0.1933655155E-01    0.6957681975E+00    0.2154730097E+00    0.2118606060E-03
    0.7000000000E+05    0.5011720186E-01    0.1853169220E-01    0.6957826066E+00    0.2582014012E+00    0.2158613624E-03
    0.9000000000E+05    0.4660654401E-01    0.1735029426E-01    0.6957898719E+00    0.2936094782E+00    0.2188982991E-03
    0.1100000000E+06    0.4296460690E-01    0.1609092838E-01    0.6957940176E+00    0.3239020398E+00    0.2213536777E-03
    0.1300000000E+06    0.3947400386E-01    0.1486423820E-01    0.6957965530E+00    0.3502848138E+00    0.2234186050E-03
    0.1500000000E+06    0.3623538418E-01    0.1371276481E-01    0.6957981642E+00    0.3735208775E+00    0.2252026908E-03
    0.1700000000E+06    0.3327635822E-01    0.1265093434E-01    0.6957992048E+00    0.3941440730E+00    0.2267747717E-03
    0.1900000000E+06    0.3059341119E-01    0.1168070212E-01    0.6957998740E+00    0.4125543983E+00    0.2281809696E-03
    0.2100000000E+06    0.2816981537E-01    0.1079837770E-01    0.6958002914E+00    0.4290658516E+00    0.2294537292E-03
    0.2300000000E+06    0.2598382506E-01    0.9997831234E-02    0.6958005329E+00    0.4439328122E+00    0.2306167574E-03
    0.2500000000E+06    0.2401256437E-01    0.9272069988E-02    0.6958006485E+00    0.4573658357E+00    0.2316879137E-03
    0.2700000000E+06    0.2223387485E-01    0.8614027657E-02    0.6958006721E+00    0.4695418212E+00    0.2326809936E-03
    0.2900000000E+06    0.2062715087E-01    0.8016953525E-02    0.6958006277E+00    0.4806109808E+00    0.2336068795E-03
    0.3100000000E+06    0.1917365920E-01    0.7474591252E-02    0.6958005324E+00    0.4907018725E+00    0.2344743095E-03
    0.3300000000E+06    0.1785659412E-01    0.6981245134E-02    0.6958003986E+00    0.4999251901E+00    0.2352904084E-03
    0.3500000000E+06    0.1666099995E-01    0.6531786302E-02    0.6958002356E+00    0.5083767120E+00    0.2360610630E-03
    0.3700000000E+06    0.1557363162E-01    0.6121627741E-02    0.6958000504E+00    0.5161396506E+00    0.2367911946E-03
    0.3900000000E+06    0.1458279162E-01    0.5746684310E-02    0.6957998483E+00    0.5232865598E+00    0.2374849600E-03
    0.4100000000E+06    0.1367816364E-01    0.5403326877E-02    0.6957996335E+00    0.5298809033E+00    0.2381459021E-03
    0.4300000000E+06    0.1285065363E-01    0.5088335598E-02    0.6957994091E+00    0.5359783582E+00    0.2387770664E-03
    0.4500000000E+06    0.1209224333E-01    0.4798855079E-02    0.6957991776E+00    0.5416279065E+00    0.2393810897E-03
    0.4700000000E+06    0.1139585814E-01    0.4532352774E-02    0.6957989410E+00    0.5468727537E+00    0.2399602706E-03
    0.4900000000E+06    0.1075524962E-01    0.4286581192E-02    0.6957987010E+00    0.5517511076E+00    0.2405166252E-03
    0.1000000000E+06    0.4477794556E-01    0.1672107529E-01    0.6957922112E+00    0.3093055728E+00    0.2201840813E-03
    0.3000000000E+06    0.1988234605E-01    0.7739302805E-02    0.6958005856E+00    0.4857714110E+00    0.2340474234E-03
    0.5000000000E+06    0.1045410916E-01    0.4170836613E-02    0.6957985800E+00    0.5540635874E+00    0.2407868066E-03
    0.7000000000E+06    0.6315130659E-02    0.2564243612E-02    0.6957961746E+00    0.5875266833E+00    0.2453314642E-03
    0.9000000000E+06    0.4192704730E-02    0.1725857566E-02    0.6957939723E+00    0.6066164411E+00    0.2487817374E-03
    0.1100000000E+07    0.2974226666E-02    0.1238027482E-02    0.6957920138E+00    0.6187050190E+00    0.2515715118E-03
    0.1300000000E+07    0.2214597020E-02    0.9305574194E-03    0.6957902685E+00    0.6269502991E+00    0.2539177720E-03
    0.1500000000E+07    0.1710742898E-02    0.7247254523E-03    0.6957887005E+00    0.6328911971E+00    0.2559449944E-03
    0.1700000000E+07    0.1360103129E-02    0.5803357699E-03    0.6957872795E+00    0.6373546627E+00    0.2577313619E-03
    0.1900000000E+07    0.1106592347E-02    0.4752055347E-03    0.6957859811E+00    0.6408200350E+00    0.2593292639E-03
    0.2100000000E+07    0.9175304701E-03    0.3963071306E-03    0.6957847863E+00    0.6435823669E+00    0.2607755561E-03
    0.2300000000E+07    0.7728656015E-03    0.3355916581E-03    0.6957836798E+00    0.6458323303E+00    0.2620971703E-03
    0.2500000000E+07    0.6597563053E-03    0.2878726542E-03    0.6957826494E+00    0.6476981858E+00    0.2633143962E-03
    0.2700000000E+07    0.5696774392E-03    0.2496877163E-03    0.6957816853E+00    0.6492691588E+00    0.2644429070E-03
    0.2900000000E+07    0.4967931045E-03    0.2186545784E-03    0.6957807795E+00    0.6506091135E+00    0.2654950667E-03
    0.3100000000E+07    0.4370013299E-03    0.1930909359E-03    0.6957799251E+00    0.6517648948E+00    0.2664808033E-03
    0.3300000000E+07    0.3873517889E-03    0.1717815503E-03    0.6957791166E+00    0.6527716001E+00    0.2674082119E-03
    0.3500000000E+07    0.3456791564E-03    0.1538309230E-03    0.6957783492E+00    0.6536560185E+00    0.2682839814E-03
    0.3700000000E+07    0.3103655643E-03    0.1385674352E-03    0.6957776189E+00    0.6544389353E+00    0.2691137036E-03
    0.3900000000E+07    0.2801827681E-03    0.1254793999E-03    0.6957769221E+00    0.6551367139E+00    0.2699021013E-03
    0.4100000000E+07    0.2541848933E-03    0.1141714459E-03    0.6957762559E+00    0.6557624052E+00    0.2706532005E-03
    0.4300000000E+07    0.2316340715E-03    0.1043341694E-03    0.6957756177E+00    0.6563265403E+00    0.2713704617E-03
    0.4500000000E+07    0.2119479357E-03    0.9572263692E-04    0.6957750051E+00    0.6568377077E+00    0.2720568809E-03
    0.4700000000E+07    0.1946619356E-03    0.8814090721E-04    0.6957744160E+00    0.6573029789E+00    0.2727150702E-03
    0.4900000000E+07    0.1794018830E-03    0.8143072118E-04    0.6957738489E+00    0.6577282274E+00    0.2733473203E-03
    0.1000000000E+07    0.3506713489E-02    0.1451926360E-02    0.6957929640E+00    0.6132832989E+00    0.2502426089E-03
    0.3000000000E+07    0.4654669481E-03    0.2052739288E-03    0.6957803462E+00    0.6512076041E+00    0.2659956946E-03
    0.5000000000E+07    0.1724342596E-03    0.7836119756E-04    0.6957735729E+00    0.6579274120E+00    0.2736543591E-03
    0.7000000000E+07    0.8888425295E-04    0.4119958429E-04    0.6957688910E+00    0.6606686786E+00    0.2788190134E-03
    0.9000000000E+07    0.5402944758E-04    0.2541489237E-04    0.6957652945E+00    0.6621518012E+00    0.2827400093E-03
    0.1100000000E+08    0.3626374040E-04    0.1725832025E-04    0.6957623662E+00    0.6630800807E+00    0.2859104040E-03
    0.1300000000E+08    0.2600553450E-04    0.1249612436E-04    0.6957598918E+00    0.6637154610E+00    0.2885767784E-03
    0.1500000000E+08    0.1955400187E-04    0.9473131960E-05    0.6957577466E+00    0.6641775531E+00    0.2908805889E-03
    0.1700000000E+08    0.1523578669E-04    0.7433473166E-05    0.6957558513E+00    0.6645286888E+00    0.2929106840E-03
    0.1900000000E+08    0.1220496734E-04    0.5991796279E-05    0.6957541526E+00    0.6648045235E+00    0.2947266003E-03
    0.2100000000E+08    0.9996677362E-05    0.4934771794E-05    0.6957526125E+00    0.6650269213E+00    0.2963702217E-03
    0.2300000000E+08    0.8338306826E-05    0.4136478951E-05    0.6957512031E+00    0.6652100326E+00    0.2978721542E-03
    0.2500000000E+08    0.7061445132E-05    0.3518670228E-05    0.6957499036E+00    0.6653634185E+00    0.2992554557E-03
    0.2700000000E+08    0.6057513534E-05    0.3030628170E-05    0.6957486975E+00    0.6654937716E+00    0.3005379379E-03
