  Pressure (Pa) 22mC5-500 (mol/kg) 23mC5-500 (mol/kg) 24mC5-500 (mol/kg) 3mC6-500 (mol/kg) C7-500 (mol/kg)
    0.1000000000E+01    0.1135135956E-04    0.5216962813E-05    0.1266326350E+00    0.8975453559E-06    0.4169742936E-02
    0.3000000000E+01    0.2346140922E-04    0.1075231931E-04    0.2785246507E+00    0.2256167781E-05    0.4198570886E-02
    0.5000000000E+01    0.2961119549E-04    0.1354557402E-04    0.3664296391E+00    0.3495162569E-05    0.4211853372E-02
    0.7000000000E+01    0.3323309384E-04    0.1518326203E-04    0.4237467237E+00    0.4676163587E-05    0.4220173051E-02
    0.9000000000E+01    0.3561210396E-04    0.1625676620E-04    0.4640754727E+00    0.5819813220E-05    0.4225951088E-02
    0.1100000000E+02    0.3732057359E-04    0.1702828547E-04    0.4939940425E+00    0.6936406931E-05    0.4230214178E-02
    0.1300000000E+02    0.3864407490E-04    0.1762800080E-04    0.5170725813E+00    0.8032060659E-05    0.4233492073E-02
    0.1500000000E+02    0.3973702678E-04    0.1812593174E-04    0.5354161964E+00    0.9110799251E-05    0.4236089861E-02
    0.1700000000E+02    0.4068806072E-04    0.1856203430E-04    0.5503465262E+00    0.1017545787E-04    0.4238196846E-02
    0.1900000000E+02    0.4155041563E-04    0.1896015554E-04    0.5627352008E+00    0.1122813332E-04    0.4239937169E-02
    0.2100000000E+02    0.4235721696E-04    0.1933502689E-04    0.5731803493E+00    0.1227043427E-04    0.4241395831E-02
    0.2300000000E+02    0.4312964641E-04    0.1969599149E-04    0.5821060718E+00    0.1330363075E-04    0.4242633100E-02
    0.2500000000E+02    0.4388153476E-04    0.2004909255E-04    0.5898214413E+00    0.1432874879E-04    0.4243692960E-02
    0.2700000000E+02    0.4462205319E-04    0.2039829274E-04    0.5965570261E+00    0.1534663311E-04    0.4244608296E-02
    0.2900000000E+02    0.4535734604E-04    0.2074621116E-04    0.6024883267E+00    0.1635799027E-04    0.4245404218E-02
    0.3100000000E+02    0.4609155113E-04    0.2109458207E-04    0.6077512897E+00    0.1736341923E-04    0.4246100243E-02
    0.3300000000E+02    0.4682745354E-04    0.2144454754E-04    0.6124528572E+00    0.1836343363E-04    0.4246711784E-02
    0.3500000000E+02    0.4756691387E-04    0.2179684827E-04    0.6166783100E+00    0.1935847839E-04    0.4247251183E-02
    0.3700000000E+02    0.4831115397E-04    0.2215195027E-04    0.6204964878E+00    0.2034894232E-04    0.4247728444E-02
    0.3900000000E+02    0.4906095074E-04    0.2251013035E-04    0.6239635694E+00    0.2133516782E-04    0.4248151768E-02
    0.4100000000E+02    0.4981676945E-04    0.2287153452E-04    0.6271258551E+00    0.2231745857E-04    0.4248527946E-02
    0.4300000000E+02    0.5057885653E-04    0.2323621843E-04    0.6300218469E+00    0.2329608552E-04    0.4248862651E-02
    0.4500000000E+02    0.5134730486E-04    0.2360417558E-04    0.6326838238E+00    0.2427129183E-04    0.4249160661E-02
    0.4700000000E+02    0.5212210005E-04    0.2397535718E-04    0.6351390504E+00    0.2524329681E-04    0.4249426030E-02
    0.4900000000E+02    0.5290315352E-04    0.2434968615E-04    0.6374107141E+00    0.2621229918E-04    0.4249662224E-02
    0.1000000000E+02    0.3652807279E-04    0.1667019218E-04    0.4800667145E+00    0.6381045183E-05    0.4228231678E-02
    0.3000000000E+02    0.4572438465E-04    0.2092025742E-04    0.6051960853E+00    0.1686141189E-04    0.4245763672E-02
    0.5000000000E+02    0.5329598513E-04    0.2453800162E-04    0.6384840252E+00    0.2669573152E-04    0.4249770328E-02
    0.7000000000E+02    0.6143628236E-04    0.2844316687E-04    0.6538995974E+00    0.3624329294E-04    0.4250944036E-02
    0.9000000000E+02    0.6998716876E-04    0.3254512546E-04    0.6627903762E+00    0.4562690056E-04    0.4251010766E-02
    0.1100000000E+03    0.7880895410E-04    0.3677435919E-04    0.6685754074E+00    0.5490844854E-04    0.4250517144E-02
    0.1300000000E+03    0.8781907268E-04    0.4109104677E-04    0.6726401104E+00    0.6412501570E-04    0.4249694741E-02
    0.1500000000E+03    0.9696891848E-04    0.4547214970E-04    0.6756525460E+00    0.7330121044E-04    0.4248659740E-02
    0.1700000000E+03    0.1062289957E-03    0.4990387038E-04    0.6779745072E+00    0.8245453148E-04    0.4247477324E-02
    0.1900000000E+03    0.1155808743E-03    0.5437768959E-04    0.6798189823E+00    0.9159806260E-04    0.4246187096E-02
    0.2100000000E+03    0.1250127868E-03    0.5888823365E-04    0.6813195258E+00    0.1007419708E-03    0.4244814588E-02
    0.2300000000E+03    0.1345171278E-03    0.6343207714E-04    0.6825641317E+00    0.1098944029E-03    0.4243377039E-02
    0.2500000000E+03    0.1440889777E-03    0.6800704197E-04    0.6836131352E+00    0.1190620539E-03    0.4241886522E-02
    0.2700000000E+03    0.1537251982E-03    0.7261177150E-04    0.6845092878E+00    0.1282505439E-03    0.4240351745E-02
    0.2900000000E+03    0.1634238615E-03    0.7724546315E-04    0.6852837287E+00    0.1374646770E-03    0.4238779147E-02
    0.3100000000E+03    0.1731838788E-03    0.8190769570E-04    0.6859596763E+00    0.1467086254E-03    0.4237173582E-02
    0.3300000000E+03    0.1830047536E-03    0.8659831496E-04    0.6865547963E+00    0.1559860634E-03    0.4235538774E-02
    0.3500000000E+03    0.1928864133E-03    0.9131735657E-04    0.6870827681E+00    0.1653002671E-03    0.4233877619E-02
    0.3700000000E+03    0.2028290935E-03    0.9606499281E-04    0.6875543490E+00    0.1746541901E-03    0.4232192396E-02
    0.3900000000E+03    0.2128332559E-03    0.1008414954E-03    0.6879781149E+00    0.1840505219E-03    0.4230484916E-02
    0.4100000000E+03    0.2228995302E-03    0.1056472091E-03    0.6883609868E+00    0.1934917340E-03    0.4228756628E-02
    0.4300000000E+03    0.2330286717E-03    0.1104825331E-03    0.6887086113E+00    0.2029801160E-03    0.4227008701E-02
    0.4500000000E+03    0.2432215313E-03    0.1153479068E-03    0.6890256412E+00    0.2125178051E-03    0.4225242078E-02
    0.4700000000E+03    0.2534790324E-03    0.1202438003E-03    0.6893159450E+00    0.2221068101E-03    0.4223457527E-02
    0.4900000000E+03    0.2638021545E-03    0.1251707071E-03    0.6895827652E+00    0.2317490306E-03    0.4221655668E-02
    0.1000000000E+03    0.7437039422E-04    0.3464683901E-04    0.6659596639E+00    0.5027772957E-04    0.4250815577E-02
    0.3000000000E+03    0.1682962435E-03    0.7957302666E-04    0.6856328013E+00    0.1420826842E-03    0.4237980231E-02
    0.5000000000E+03    0.2689886418E-03    0.1276459496E-03    0.6897082417E+00    0.2365906645E-03    0.4220748410E-02
    0.7000000000E+03    0.3764295435E-03    0.1789103263E-03    0.6914696663E+00    0.3366221857E-03    0.4201773269E-02
    0.9000000000E+03    0.4917442171E-03    0.2339171659E-03    0.6924520277E+00    0.4437265520E-03    0.4181259840E-02
    0.1100000000E+04    0.6161950280E-03    0.2932741568E-03    0.6930785309E+00    0.5592479804E-03    0.4159125407E-02
    0.1300000000E+04    0.7511770787E-03    0.3576494293E-03    0.6935128530E+00    0.6845642465E-03    0.4135196340E-02
    0.1500000000E+04    0.8982686242E-03    0.4277972857E-03    0.6938316395E+00    0.8211925092E-03    0.4109245204E-02
    0.1700000000E+04    0.1059289250E-02    0.5045865781E-03    0.6940755630E+00    0.9708634813E-03    0.4080996407E-02
    0.1900000000E+04    0.1236365897E-02    0.5890324810E-03    0.6942682112E+00    0.1135591631E-02    0.4050122030E-02
    0.2100000000E+04    0.1432011238E-02    0.6823340206E-03    0.6944242053E+00    0.1317753076E-02    0.4016232814E-02
    0.2300000000E+04    0.1649219747E-02    0.7859199892E-03    0.6945530903E+00    0.1520178731E-02    0.3978865391E-02
    0.2500000000E+04    0.1891587715E-02    0.9015062533E-03    0.6946613624E+00    0.1746269630E-02    0.3937465652E-02
    0.2700000000E+04    0.2163464777E-02    0.1031168093E-02    0.6947535958E+00    0.2000142182E-02    0.3891367543E-02
    0.2900000000E+04    0.2470146294E-02    0.1177432034E-02    0.6948331050E+00    0.2286812607E-02    0.3839766325E-02
    0.3100000000E+04    0.2818117874E-02    0.1343392561E-02    0.6949023501E+00    0.2612431727E-02    0.3781685053E-02
    0.3300000000E+04    0.3215364975E-02    0.1532859912E-02    0.6949631955E+00    0.2984583014E-02    0.3715933036E-02
    0.3500000000E+04    0.3671760762E-02    0.1750545245E-02    0.6950170801E+00    0.3412657344E-02    0.3641055307E-02
    0.3700000000E+04    0.4199541470E-02    0.2002287609E-02    0.6950651318E+00    0.3908314677E-02    0.3555273327E-02
    0.3900000000E+04    0.4813864887E-02    0.2295320683E-02    0.6951082476E+00    0.4486030795E-02    0.3456419977E-02
    0.4100000000E+04    0.5533413111E-02    0.2638560771E-02    0.6951471495E+00    0.5163695700E-02    0.3341878306E-02
    0.4300000000E+04    0.6380924135E-02    0.3042861080E-02    0.6951824252E+00    0.5963159219E-02    0.3208546472E-02
    0.4500000000E+04    0.7383382393E-02    0.3521103613E-02    0.6952145582E+00    0.6910474575E-02    0.3052875851E-02
    0.4700000000E+04    0.8571316358E-02    0.4087865447E-02    0.6952439495E+00    0.8035323656E-02    0.2871071202E-02
    0.4900000000E+04    0.9976209518E-02    0.4758185365E-02    0.6952709349E+00    0.9368684477E-02    0.2659601786E-02
    0.1000000000E+04    0.5527440609E-03    0.2630118357E-03    0.6927964767E+00    0.5003513135E-03    0.4170404658E-02
    0.3000000000E+04    0.2638511021E-02    0.1257730833E-02    0.6948688824E+00    0.2444317177E-02    0.3811604557E-02
    0.5000000000E+04    0.1076874387E-01    0.5136351568E-02    0.6952836156E+00    0.1012232587E-01    0.2541950251E-02
    0.7000000000E+04    0.2969367559E-01    0.1417560451E-01    0.6954609103E+00    0.2870498566E-01    0.2704261504E-03
    0.9000000000E+04    0.3636165862E-01    0.1737736329E-01    0.6955590909E+00    0.3637161494E-01    0.1300343999E-03
    0.1100000000E+05    0.4117214803E-01    0.1969655624E-01    0.6956213476E+00    0.4255508328E-01    0.1298561489E-03
    0.1300000000E+05    0.4526922580E-01    0.2167801263E-01    0.6956642859E+00    0.4827903172E-01    0.1310496320E-03
    0.1500000000E+05    0.4879354085E-01    0.2338799256E-01    0.6956956504E+00    0.5362485520E-01    0.1320986026E-03
    0.1700000000E+05    0.5184408134E-01    0.2487310056E-01    0.6957195379E+00    0.5864696920E-01    0.1330229032E-03
    0.1900000000E+05    0.5449860265E-01    0.2616997422E-01    0.6957383180E+00    0.6338907865E-01    0.1338494575E-03
    0.2100000000E+05    0.5681909011E-01    0.2730784534E-01    0.6957534563E+00    0.6788685399E-01    0.1345974196E-03
    0.2300000000E+05    0.5885553110E-01    0.2831030800E-01    0.6957659077E+00    0.7216973684E-01    0.1352807795E-03
    0.2500000000E+05    0.6064865737E-01    0.2919660447E-01    0.6957763208E+00    0.7626227290E-01    0.1359100703E-03
    0.2700000000E+05    0.6223197183E-01    0.2998257612E-01    0.6957851515E+00    0.8018511294E-01    0.1364934240E-03
    0.2900000000E+05    0.6363326804E-01    0.3068137651E-01    0.6957927296E+00    0.8395577507E-01    0.1370372529E-03
    0.3100000000E+05    0.6487578384E-01    0.3130401326E-01    0.6957992995E+00    0.8758923256E-01    0.1375467039E-03
    0.3300000000E+05    0.6597908779E-01    0.3185976441E-01    0.6958050461E+00    0.9109837243E-01    0.1380259724E-03
    0.3500000000E+05    0.6695976762E-01    0.3235650204E-01    0.6958101120E+00    0.9449435700E-01    0.1384785241E-03
    0.3700000000E+05    0.6783197015E-01    0.3280094622E-01    0.6958146087E+00    0.9778691168E-01    0.1389072552E-03
    0.3900000000E+05    0.6860782879E-01    0.3319886612E-01    0.6958186247E+00    0.1009845562E+00    0.1393146118E-03
    0.4100000000E+05    0.6929780472E-01    0.3355524063E-01    0.6958222312E+00    0.1040947920E+00    0.1397026785E-03
    0.4300000000E+05    0.6991096153E-01    0.3387438770E-01    0.6958254861E+00    0.1071242547E+00    0.1400732465E-03
    0.4500000000E+05    0.7045518777E-01    0.3416006923E-01    0.6958284369E+00    0.1100788403E+00    0.1404278668E-03
    0.4700000000E+05    0.7093737861E-01    0.3441557669E-01    0.6958311231E+00    0.1129638087E+00    0.1407678911E-03
    0.4900000000E+05    0.7136358510E-01    0.3464380155E-01    0.6958335774E+00    0.1157838709E+00    0.1410945049E-03
    0.1000000000E+05    0.3886912662E-01    0.1858533908E-01    0.6955933603E+00    0.3952937674E-01    0.1293307061E-03
    0.3000000000E+05    0.6427307335E-01    0.3100159911E-01    0.6957961278E+00    0.8578880471E-01    0.1372959941E-03
    0.5000000000E+05    0.7155738512E-01    0.3474849173E-01    0.6958347265E+00    0.1171709022E+00    0.1412531144E-03
    0.7000000000E+05    0.7350223888E-01    0.3589313855E-01    0.6958504207E+00    0.1423369159E+00    0.1439207752E-03
    0.9000000000E+05    0.7331402111E-01    0.3597478170E-01    0.6958586586E+00    0.1640115253E+00    0.1459457772E-03
    0.1100000000E+06    0.7213772591E-01    0.3554982307E-01    0.6958635894E+00    0.1833858030E+00    0.1475830051E-03
    0.1300000000E+06    0.7047022124E-01    0.3486303633E-01    0.6958667841E+00    0.2010850503E+00    0.1489598856E-03
    0.1500000000E+06    0.6855557491E-01    0.3403654780E-01    0.6958689643E+00    0.2174788996E+00    0.1501495046E-03
    0.1700000000E+06    0.6652423010E-01    0.3313681966E-01    0.6958705059E+00    0.2328050325E+00    0.1511977613E-03
    0.1900000000E+06    0.6445013478E-01    0.3220234205E-01    0.6958716229E+00    0.2472263198E+00    0.1521354091E-03
    0.2100000000E+06    0.6237694090E-01    0.3125642888E-01    0.6958724455E+00    0.2608601397E+00    0.1529840817E-03
    0.2300000000E+06    0.6033107407E-01    0.3031365267E-01    0.6958730570E+00    0.2737946638E+00    0.1537595864E-03
    0.2500000000E+06    0.5832869987E-01    0.2938330407E-01    0.6958735133E+00    0.2860984810E+00    0.1544738318E-03
    0.2700000000E+06    0.5637964139E-01    0.2847135548E-01    0.6958738527E+00    0.2978265708E+00    0.1551360166E-03
    0.2900000000E+06    0.5448968202E-01    0.2758162679E-01    0.6958741026E+00    0.3090241644E+00    0.1557533970E-03
    0.3100000000E+06    0.5266197049E-01    0.2671650443E-01    0.6958742829E+00    0.3197293226E+00    0.1563317994E-03
    0.3300000000E+06    0.5089790569E-01    0.2587739948E-01    0.6958744084E+00    0.3299747072E+00    0.1568759745E-03
    0.3500000000E+06    0.4919770939E-01    0.2506504802E-01    0.6958744901E+00    0.3397888257E+00    0.1573898478E-03
    0.3700000000E+06    0.4756080579E-01    0.2427971296E-01    0.6958745368E+00    0.3491969250E+00    0.1578767007E-03
    0.3900000000E+06    0.4598607834E-01    0.2352132264E-01    0.6958745550E+00    0.3582216438E+00    0.1583393046E-03
    0.4100000000E+06    0.4447204653E-01    0.2278956794E-01    0.6958745500E+00    0.3668834976E+00    0.1587800223E-03
    0.4300000000E+06    0.4301698957E-01    0.2208397141E-01    0.6958745259E+00    0.3752012429E+00    0.1592008843E-03
    0.4500000000E+06    0.4161903393E-01    0.2140393723E-01    0.6958744861E+00    0.3831921563E+00    0.1596036488E-03
    0.4700000000E+06    0.4027621604E-01    0.2074878785E-01    0.6958744334E+00    0.3908722495E+00    0.1599898485E-03
    0.4900000000E+06    0.3898652746E-01    0.2011779102E-01    0.6958743698E+00    0.3982564384E+00    0.1603608277E-03
    0.1000000000E+06    0.7280977449E-01    0.3580619276E-01    0.6958614092E+00    0.1739389098E+00    0.1468031266E-03
    0.3000000000E+06    0.5356792471E-01    0.2714588288E-01    0.6958742004E+00    0.3144361466E+00    0.1560471516E-03
    0.5000000000E+06    0.3836097500E-01    0.1981111113E-01    0.6958743346E+00    0.4018419637E+00    0.1605409857E-03
    0.7000000000E+06    0.2816373097E-01    0.1475494417E-01    0.6958733706E+00    0.4609974763E+00    0.1635713868E-03
    0.9000000000E+06    0.2126714377E-01    0.1127228241E-01    0.6958722618E+00    0.5023424979E+00    0.1658720545E-03
    0.1100000000E+07    0.1648813293E-01    0.8825434702E-02    0.6958711874E+00    0.5320757586E+00    0.1677323016E-03
    0.1300000000E+07    0.1308562924E-01    0.7063880147E-02    0.6958701854E+00    0.5540506456E+00    0.1692968128E-03
    0.1500000000E+07    0.1059893676E-01    0.5764399331E-02    0.6958692597E+00    0.5707083536E+00    0.1706485887E-03
    0.1700000000E+07    0.8737396420E-02    0.4783754559E-02    0.6958684045E+00    0.5836277458E+00    0.1718397617E-03
    0.1900000000E+07    0.7313492542E-02    0.4028331913E-02    0.6958676122E+00    0.5938539460E+00    0.1729052649E-03
    0.2100000000E+07    0.6203267344E-02    0.3435596336E-02    0.6958668755E+00    0.6020954950E+00    0.1738696739E-03
    0.2300000000E+07    0.5322779726E-02    0.2962827441E-02    0.6958661876E+00    0.6088440407E+00    0.1747509469E-03
    0.2500000000E+07    0.4613874726E-02    0.2580203860E-02    0.6958655428E+00    0.6144482875E+00    0.1755626129E-03
    0.2700000000E+07    0.4035400205E-02    0.2266482686E-02    0.6958649362E+00    0.6191606268E+00    0.1763151230E-03
    0.2900000000E+07    0.3557664207E-02    0.2006245856E-02    0.6958643636E+00    0.6231671749E+00    0.1770167216E-03
    0.3100000000E+07    0.3158859606E-02    0.1788108985E-02    0.6958638214E+00    0.6266075334E+00    0.1776740287E-03
    0.3300000000E+07    0.2822708622E-02    0.1603532772E-02    0.6958633067E+00    0.6295880548E+00    0.1782924421E-03
    0.3500000000E+07    0.2536879831E-02    0.1446019119E-02    0.6958628168E+00    0.6321909188E+00    0.1788764221E-03
    0.3700000000E+07    0.2291904361E-02    0.1310557621E-02    0.6958623493E+00    0.6344804549E+00    0.1794296972E-03
    0.3900000000E+07    0.2080420938E-02    0.1193238016E-02    0.6958619023E+00    0.6365076203E+00    0.1799554167E-03
    0.4100000000E+07    0.1896641491E-02    0.1090974581E-02    0.6958614740E+00    0.6383132211E+00    0.1804562652E-03
    0.4300000000E+07    0.1735967228E-02    0.1001307267E-02    0.6958610630E+00    0.6399302629E+00    0.1809345500E-03
    0.4500000000E+07    0.1594708984E-02    0.9222562731E-03    0.6958606679E+00    0.6413856886E+00    0.1813922691E-03
    0.4700000000E+07    0.1469880900E-02    0.8522143545E-03    0.6958602875E+00    0.6427016804E+00    0.1818311641E-03
    0.4900000000E+07    0.1359046385E-02    0.7898661394E-03    0.6958599206E+00    0.6438966446E+00    0.1822527625E-03
    0.1000000000E+07    0.1866749574E-01    0.9944958180E-02    0.6958717166E+00    0.5183781610E+00    0.1668461764E-03
    0.3000000000E+07    0.3349520920E-02    0.1892504410E-02    0.6958640889E+00    0.6249508241E+00    0.1773505494E-03
    0.5000000000E+07    0.1308236256E-02    0.7612305764E-03    0.6958597420E+00    0.6444536505E+00    0.1824575028E-03
    0.7000000000E+07    0.6880797283E-03    0.4083405720E-03    0.6958566971E+00    0.6519131050E+00    0.1859014187E-03
    0.9000000000E+07    0.4225507473E-03    0.2545035519E-03    0.6958543439E+00    0.6557533689E+00    0.1885160434E-03
    0.1100000000E+08    0.2853031745E-03    0.1738894033E-03    0.6958524213E+00    0.6580704221E+00    0.1906301538E-03
    0.1300000000E+08    0.2053647546E-03    0.1264117782E-03    0.6958507930E+00    0.6596129234E+00    0.1924081735E-03
    0.1500000000E+08    0.1547953429E-03    0.9609503541E-04    0.6958493792E+00    0.6607106854E+00    0.1939444278E-03
    0.1700000000E+08    0.1208056468E-03    0.7555273759E-04    0.6958481288E+00    0.6615305111E+00    0.1952981627E-03
    0.1900000000E+08    0.9687481729E-04    0.6098653388E-04    0.6958470069E+00    0.6621654550E+00    0.1965090780E-03
    0.2100000000E+08    0.7939674510E-04    0.5028024072E-04    0.6958459891E+00    0.6626713823E+00    0.1976051028E-03
    0.2300000000E+08    0.6624647764E-04    0.4217863473E-04    0.6958450572E+00    0.6630837997E+00    0.1986066458E-03
    0.2500000000E+08    0.5610626558E-04    0.3589869728E-04    0.6958441975E+00    0.6634263265E+00    0.1995290826E-03
    0.2700000000E+08    0.4812389873E-04    0.3093131068E-04    0.6958433993E+00    0.6637152718E+00    0.2003842904E-03
