  Pressure (Pa) 22mC5-500 (mol/kg) 23mC5-500 (mol/kg) 24mC5-500 (mol/kg) 3mC6-500 (mol/kg) C7-500 (mol/kg)
    0.1000000000E+01    0.1114081348E-04    0.1279217796E-05    0.1266248136E+00    0.7205293848E-06    0.4229449596E-02
    0.3000000000E+01    0.2299627775E-04    0.2632806117E-05    0.2784862915E+00    0.1866484418E-05    0.4311128698E-02
    0.5000000000E+01    0.2892971298E-04    0.3305413288E-05    0.3663624814E+00    0.2924656014E-05    0.4358561281E-02
    0.7000000000E+01    0.3235324573E-04    0.3691264827E-05    0.4236560271E+00    0.3939410923E-05    0.4390062239E-02
    0.9000000000E+01    0.3454518942E-04    0.3937411787E-05    0.4639657536E+00    0.4925889575E-05    0.4412669287E-02
    0.1100000000E+02    0.3607457699E-04    0.4109010173E-05    0.4938687702E+00    0.5891720286E-05    0.4429776115E-02
    0.1300000000E+02    0.3722503208E-04    0.4238373875E-05    0.5169343890E+00    0.6841466937E-05    0.4443231551E-02
    0.1500000000E+02    0.3814970837E-04    0.4342857604E-05    0.5352671037E+00    0.7778149535E-05    0.4454132071E-02
    0.1700000000E+02    0.3893635893E-04    0.4432346116E-05    0.5501881071E+00    0.8703904973E-05    0.4463170624E-02
    0.1900000000E+02    0.3963758246E-04    0.4512725199E-05    0.5625687026E+00    0.9620319622E-05    0.4470807413E-02
    0.2100000000E+02    0.4028602001E-04    0.4587620236E-05    0.5730067761E+00    0.1052861453E-04    0.4477360513E-02
    0.2300000000E+02    0.4090247587E-04    0.4659322230E-05    0.5819262434E+00    0.1142975649E-04    0.4483057097E-02
    0.2500000000E+02    0.4150047967E-04    0.4729306248E-05    0.5896360360E+00    0.1232452855E-04    0.4488063942E-02
    0.2700000000E+02    0.4208895743E-04    0.4798533868E-05    0.5963666115E+00    0.1321357690E-04    0.4492506380E-02
    0.2900000000E+02    0.4267385061E-04    0.4867635791E-05    0.6022933827E+00    0.1409744318E-04    0.4496480515E-02
    0.3100000000E+02    0.4325912667E-04    0.4937025366E-05    0.6075522261E+00    0.1497658741E-04    0.4500061338E-02
    0.3300000000E+02    0.4384742596E-04    0.5006970933E-05    0.6122500267E+00    0.1585140482E-04    0.4503308277E-02
    0.3500000000E+02    0.4444048472E-04    0.5077642909E-05    0.6164720185E+00    0.1672223833E-04    0.4506269069E-02
    0.3700000000E+02    0.4503941699E-04    0.5149145002E-05    0.6202870027E+00    0.1758938805E-04    0.4508982528E-02
    0.3900000000E+02    0.4564490537E-04    0.5221535222E-05    0.6237511255E+00    0.1845311868E-04    0.4511480562E-02
    0.4100000000E+02    0.4625733211E-04    0.5294840218E-05    0.6269106603E+00    0.1931366528E-04    0.4513789659E-02
    0.4300000000E+02    0.4687686999E-04    0.5369065161E-05    0.6298040859E+00    0.2017123786E-04    0.4515932001E-02
    0.4500000000E+02    0.4750354621E-04    0.5444200628E-05    0.6324636616E+00    0.2102602513E-04    0.4517926323E-02
    0.4700000000E+02    0.4813728745E-04    0.5520227424E-05    0.6349166350E+00    0.2187819746E-04    0.4519788559E-02
    0.4900000000E+02    0.4877795202E-04    0.5597119980E-05    0.6371861791E+00    0.2272790939E-04    0.4521532358E-02
    0.1000000000E+02    0.3537076211E-04    0.4030026082E-05    0.4799488431E+00    0.5411053071E-05    0.4421770980E-02
    0.3000000000E+02    0.4296625046E-04    0.4902275099E-05    0.6049990340E+00    0.1453757949E-04    0.4498316063E-02
    0.5000000000E+02    0.4910082337E-04    0.5635881791E-05    0.6382584764E+00    0.2315188720E-04    0.4522363584E-02
    0.7000000000E+02    0.5586719475E-04    0.6448830884E-05    0.6536584206E+00    0.3153078356E-04    0.4534923996E-02
    0.9000000000E+02    0.6307506344E-04    0.7314642884E-05    0.6625389347E+00    0.3977018057E-04    0.4542851263E-02
    0.1100000000E+03    0.7056903600E-04    0.8214073088E-05    0.6683165148E+00    0.4791876173E-04    0.4548366518E-02
    0.1300000000E+03    0.7825731848E-04    0.9136069837E-05    0.6723754559E+00    0.5600581411E-04    0.4552431337E-02
    0.1500000000E+03    0.8608524699E-04    0.1007415369E-04    0.6753832376E+00    0.6405081791E-04    0.4555538730E-02
    0.1700000000E+03    0.9401903841E-04    0.1102436575E-04    0.6777013196E+00    0.7206763369E-04    0.4557971469E-02
    0.1900000000E+03    0.1020370553E-03    0.1198419500E-04    0.6795424828E+00    0.8006661658E-04    0.4559905270E-02
    0.2100000000E+03    0.1101250247E-03    0.1295200020E-04    0.6810401455E+00    0.8805579606E-04    0.4561456090E-02
    0.2300000000E+03    0.1182733149E-03    0.1392668407E-04    0.6822822081E+00    0.9604158456E-04    0.4562704124E-02
    0.2500000000E+03    0.1264753185E-03    0.1490750141E-04    0.6833289383E+00    0.1040292277E-03    0.4563706950E-02
    0.2700000000E+03    0.1347264566E-03    0.1589394177E-04    0.6842230386E+00    0.1120231038E-03    0.4564507195E-02
    0.2900000000E+03    0.1430235454E-03    0.1688565511E-04    0.6849956105E+00    0.1200269302E-03    0.4565137237E-02
    0.3100000000E+03    0.1513643809E-03    0.1788240346E-04    0.6856698436E+00    0.1280439100E-03    0.4565622199E-02
    0.3300000000E+03    0.1597474598E-03    0.1888402853E-04    0.6862633810E+00    0.1360768395E-03    0.4565981944E-02
    0.3500000000E+03    0.1681717884E-03    0.1989042959E-04    0.6867898838E+00    0.1441281876E-03    0.4566232428E-02
    0.3700000000E+03    0.1766367482E-03    0.2090154811E-04    0.6872600946E+00    0.1522001571E-03    0.4566386645E-02
    0.3900000000E+03    0.1851420010E-03    0.2191735681E-04    0.6876825773E+00    0.1602947313E-03    0.4566455310E-02
    0.4100000000E+03    0.1936874197E-03    0.2293785184E-04    0.6880642427E+00    0.1684137110E-03    0.4566447355E-02
    0.4300000000E+03    0.2022730381E-03    0.2396304702E-04    0.6884107289E+00    0.1765587438E-03    0.4566370297E-02
    0.4500000000E+03    0.2108990130E-03    0.2499296965E-04    0.6887266817E+00    0.1847313480E-03    0.4566230519E-02
    0.4700000000E+03    0.2195655969E-03    0.2602765735E-04    0.6890159635E+00    0.1929329312E-03    0.4566033481E-02
    0.4900000000E+03    0.2282731161E-03    0.2706715570E-04    0.6892818114E+00    0.2011648067E-03    0.4565783887E-02
    0.1000000000E+03    0.6679315742E-04    0.7760987479E-05    0.6657042339E+00    0.4385369057E-04    0.4545834341E-02
    0.3000000000E+03    0.1471886026E-03    0.1738341137E-04    0.6853438081E+00    0.1240335927E-03    0.4565396506E-02
    0.5000000000E+03    0.2326423448E-03    0.2758872483E-04    0.6894068190E+00    0.2052924918E-03    0.4565640679E-02
    0.7000000000E+03    0.3222901355E-03    0.3828740195E-04    0.6911606379E+00    0.2897039631E-03    0.4560772940E-02
    0.9000000000E+03    0.4166356775E-03    0.4954314857E-04    0.6921375198E+00    0.3782512244E-03    0.4553207291E-02
    0.1100000000E+04    0.5162922798E-03    0.6143053257E-04    0.6927597375E+00    0.4716793745E-03    0.4543754600E-02
    0.1300000000E+04    0.6219121310E-03    0.7402802862E-04    0.6931905380E+00    0.5706760605E-03    0.4532752220E-02
    0.1500000000E+04    0.7341945597E-03    0.8741942937E-04    0.6935063336E+00    0.6759389999E-03    0.4520343424E-02
    0.1700000000E+04    0.8539029032E-03    0.1016960154E-03    0.6937476563E+00    0.7882117019E-03    0.4506573282E-02
    0.1900000000E+04    0.9818825662E-03    0.1169587783E-03    0.6939380028E+00    0.9083085235E-03    0.4491428070E-02
    0.2100000000E+04    0.1119080170E-02    0.1333207393E-03    0.6940919314E+00    0.1037136521E-02    0.4474853108E-02
    0.2300000000E+04    0.1266564694E-02    0.1509094893E-03    0.6942189427E+00    0.1175717459E-02    0.4456760954E-02
    0.2500000000E+04    0.1425551643E-02    0.1698700826E-03    0.6943254997E+00    0.1325211922E-02    0.4437034689E-02
    0.2700000000E+04    0.1597431327E-02    0.1903684187E-03    0.6944161515E+00    0.1486947009E-02    0.4415528300E-02
    0.2900000000E+04    0.1783802504E-02    0.2125952592E-03    0.6944941928E+00    0.1662448978E-02    0.4392065111E-02
    0.3100000000E+04    0.1986512803E-02    0.2367710550E-03    0.6945620682E+00    0.1853482343E-02    0.4366434646E-02
    0.3300000000E+04    0.2207707669E-02    0.2631517889E-03    0.6946216297E+00    0.2062097153E-02    0.4338388049E-02
    0.3500000000E+04    0.2449889954E-02    0.2920360886E-03    0.6946743057E+00    0.2290686553E-02    0.4307632013E-02
    0.3700000000E+04    0.2715992756E-02    0.3237739202E-03    0.6947212158E+00    0.2542057196E-02    0.4273821057E-02
    0.3900000000E+04    0.3009468668E-02    0.3587772415E-03    0.6947632496E+00    0.2819515620E-02    0.4236547912E-02
    0.4100000000E+04    0.3334399283E-02    0.3975330727E-03    0.6948011231E+00    0.3126974395E-02    0.4195331666E-02
    0.4300000000E+04    0.3695629433E-02    0.4406195207E-03    0.6948354190E+00    0.3469082499E-02    0.4149603313E-02
    0.4500000000E+04    0.4098931207E-02    0.4887253589E-03    0.6948666161E+00    0.3851385002E-02    0.4098688296E-02
    0.4700000000E+04    0.4551202924E-02    0.5426737833E-03    0.6948951117E+00    0.4280517365E-02    0.4041785700E-02
    0.4900000000E+04    0.5060707384E-02    0.6034508590E-03    0.6949212382E+00    0.4764439009E-02    0.3977943982E-02
    0.1000000000E+04    0.4657602590E-03    0.5540308147E-04    0.6924797102E+00    0.4243118972E-03    0.4548689378E-02
    0.3000000000E+04    0.1882988794E-02    0.2244244480E-03    0.6945292739E+00    0.1755903419E-02    0.4379535378E-02
    0.5000000000E+04    0.5339944970E-02    0.6367609246E-03    0.6949335023E+00    0.5029861986E-02    0.3943075724E-02
    0.7000000000E+04    0.1761054401E-01    0.2100940903E-02    0.6951038335E+00    0.1680680359E-01    0.2491083738E-02
    0.9000000000E+04    0.3744081887E-01    0.4470195383E-02    0.6951967743E+00    0.3663187667E-01    0.6529579976E-03
    0.1100000000E+05    0.4415072868E-01    0.5276098252E-02    0.6952548180E+00    0.4446911353E-01    0.5222055492E-03
    0.1300000000E+05    0.4895606057E-01    0.5855524040E-02    0.6952942269E+00    0.5071834041E-01    0.5240110843E-03
    0.1500000000E+05    0.5312938754E-01    0.6360145631E-02    0.6953225507E+00    0.5655980433E-01    0.5281298136E-03
    0.1700000000E+05    0.5679307109E-01    0.6804402265E-02    0.6953437648E+00    0.6207161337E-01    0.5318211708E-03
    0.1900000000E+05    0.6002295112E-01    0.7197215683E-02    0.6953601579E+00    0.6729467194E-01    0.5351239211E-03
    0.2100000000E+05    0.6288039993E-01    0.7545809539E-02    0.6953731389E+00    0.7226243959E-01    0.5381126735E-03
    0.2300000000E+05    0.6541602746E-01    0.7856144966E-02    0.6953836214E+00    0.7700304956E-01    0.5408432726E-03
    0.2500000000E+05    0.6767192973E-01    0.8133183877E-02    0.6953922231E+00    0.8154036358E-01    0.5433578076E-03
    0.2700000000E+05    0.6968338717E-01    0.8381087893E-02    0.6953993760E+00    0.8589476989E-01    0.5456887761E-03
    0.2900000000E+05    0.7148017425E-01    0.8603371789E-02    0.6954053911E+00    0.9008380658E-01    0.5478618019E-03
    0.3100000000E+05    0.7308758021E-01    0.8803023140E-02    0.6954104978E+00    0.9412265401E-01    0.5498974532E-03
    0.3300000000E+05    0.7452721241E-01    0.8982596519E-02    0.6954148686E+00    0.9802452742E-01    0.5518124950E-03
    0.3500000000E+05    0.7581763414E-01    0.9144288319E-02    0.6954186361E+00    0.1018009928E+00    0.5536207763E-03
    0.3700000000E+05    0.7697487522E-01    0.9289996677E-02    0.6954219032E+00    0.1054622229E+00    0.5553338715E-03
    0.3900000000E+05    0.7801284397E-01    0.9421369832E-02    0.6954247515E+00    0.1090172065E+00    0.5569615546E-03
    0.4100000000E+05    0.7894366185E-01    0.9539845434E-02    0.6954272460E+00    0.1124739207E+00    0.5585121559E-03
    0.4300000000E+05    0.7977793721E-01    0.9646682709E-02    0.6954294395E+00    0.1158394731E+00    0.5599928336E-03
    0.4500000000E+05    0.8052499064E-01    0.9742988942E-02    0.6954313749E+00    0.1191202209E+00    0.5614097852E-03
    0.4700000000E+05    0.8119304149E-01    0.9829741416E-02    0.6954330877E+00    0.1223218705E+00    0.5627684122E-03
    0.4900000000E+05    0.8178936318E-01    0.9907805682E-02    0.6954346073E+00    0.1254495611E+00    0.5640734521E-03
    0.1000000000E+05    0.4133257124E-01    0.4937089803E-02    0.6952288352E+00    0.4103302625E-01    0.5373269108E-03
    0.3000000000E+05    0.7230612129E-01    0.8705857683E-02    0.6954080461E+00    0.9212113597E-01    0.5488956742E-03
    0.5000000000E+05    0.8206267230E-01    0.9943823485E-02    0.6954353026E+00    0.1269871403E+00    0.5647072018E-03
    0.7000000000E+05    0.8500086816E-01    0.1035573660E-01    0.6954433727E+00    0.1547772869E+00    0.5753661538E-03
    0.9000000000E+05    0.8507922278E-01    0.1041457074E-01    0.6954458326E+00    0.1785171530E+00    0.5834571456E-03
    0.1100000000E+06    0.8379101992E-01    0.1030058861E-01    0.6954460967E+00    0.1995685252E+00    0.5899986783E-03
    0.1300000000E+06    0.8180718223E-01    0.1009572639E-01    0.6954453697E+00    0.2186563723E+00    0.5954999322E-03
    0.1500000000E+06    0.7946543610E-01    0.9841780965E-02    0.6954441637E+00    0.2362125785E+00    0.6002529471E-03
    0.1700000000E+06    0.7694961146E-01    0.9561857579E-02    0.6954427229E+00    0.2525163609E+00    0.6044411265E-03
    0.1900000000E+06    0.7436539745E-01    0.9269485320E-02    0.6954411731E+00    0.2677599897E+00    0.6081873539E-03
    0.2100000000E+06    0.7177586249E-01    0.8972918121E-02    0.6954395827E+00    0.2820827553E+00    0.6115780713E-03
    0.2300000000E+06    0.6921949498E-01    0.8677333970E-02    0.6954379899E+00    0.2955899004E+00    0.6146764412E-03
    0.2500000000E+06    0.6671996678E-01    0.8386033722E-02    0.6954364165E+00    0.3083638165E+00    0.6175300459E-03
    0.2700000000E+06    0.6429169753E-01    0.8101129643E-02    0.6954348745E+00    0.3204709884E+00    0.6201756406E-03
    0.2900000000E+06    0.6194316500E-01    0.7823958500E-02    0.6954333707E+00    0.3319664725E+00    0.6226422183E-03
    0.3100000000E+06    0.5967894714E-01    0.7555338726E-02    0.6954319082E+00    0.3428968818E+00    0.6249530597E-03
    0.3300000000E+06    0.5750102120E-01    0.7295735650E-02    0.6954304884E+00    0.3533024290E+00    0.6271271467E-03
    0.3500000000E+06    0.5540961239E-01    0.7045370624E-02    0.6954291111E+00    0.3632183613E+00    0.6291801635E-03
    0.3700000000E+06    0.5340376093E-01    0.6804294816E-02    0.6954277755E+00    0.3726759881E+00    0.6311252213E-03
    0.3900000000E+06    0.5148170839E-01    0.6572440147E-02    0.6954264805E+00    0.3817034319E+00    0.6329733944E-03
    0.4100000000E+06    0.4964116525E-01    0.6349655094E-02    0.6954252246E+00    0.3903261869E+00    0.6347341223E-03
    0.4300000000E+06    0.4787949868E-01    0.6135730223E-02    0.6954240061E+00    0.3985675412E+00    0.6364155185E-03
    0.4500000000E+06    0.4619386566E-01    0.5930416648E-02    0.6954228233E+00    0.4064489012E+00    0.6380246079E-03
    0.4700000000E+06    0.4458130828E-01    0.5733439498E-02    0.6954216746E+00    0.4139900455E+00    0.6395675146E-03
    0.4900000000E+06    0.4303882202E-01    0.5544507831E-02    0.6954205585E+00    0.4212093253E+00    0.6410496096E-03
    0.1000000000E+06    0.8455285754E-01    0.1037272117E-01    0.6954461389E+00    0.1893242178E+00    0.5868826893E-03
    0.3000000000E+06    0.6080034384E-01    0.7688543824E-02    0.6954326342E+00    0.3374996674E+00    0.6238158323E-03
    0.5000000000E+06    0.4229291630E-01    0.5452965585E-02    0.6954200121E+00    0.4247036509E+00    0.6417693552E-03
    0.7000000000E+06    0.3035830164E-01    0.3972116752E-02    0.6954104527E+00    0.4812935338E+00    0.6538759046E-03
    0.9000000000E+06    0.2254854678E-01    0.2985545753E-02    0.6954028212E+00    0.5196621598E+00    0.6630669598E-03
    0.1100000000E+07    0.1727201801E-01    0.2309852255E-02    0.6953964743E+00    0.5466806439E+00    0.6704984388E-03
    0.1300000000E+07    0.1358626791E-01    0.1832645740E-02    0.6953910390E+00    0.5663674106E+00    0.6767484045E-03
    0.1500000000E+07    0.1093115129E-01    0.1485683764E-02    0.6953862834E+00    0.5811510453E+00    0.6821484677E-03
    0.1700000000E+07    0.8965360454E-02    0.1226740547E-02    0.6953820538E+00    0.5925478955E+00    0.6869069097E-03
    0.1900000000E+07    0.7474559024E-02    0.1028979461E-02    0.6953782436E+00    0.6015357149E+00    0.6911632956E-03
    0.2100000000E+07    0.6320008300E-02    0.8748582130E-03    0.6953747754E+00    0.6087644903E+00    0.6950158086E-03
    0.2300000000E+07    0.5409305981E-02    0.7525959635E-03    0.6953715917E+00    0.6146786271E+00    0.6985361941E-03
    0.2500000000E+07    0.4679280585E-02    0.6540804356E-03    0.6953686484E+00    0.6195898199E+00    0.7017785027E-03
    0.2700000000E+07    0.4085709123E-02    0.5735963823E-03    0.6953659110E+00    0.6237217671E+00    0.7047844875E-03
    0.2900000000E+07    0.3596964595E-02    0.5070330225E-03    0.6953633519E+00    0.6272383677E+00    0.7075870847E-03
    0.3100000000E+07    0.3189988180E-02    0.4513776831E-03    0.6953609487E+00    0.6302619611E+00    0.7102127420E-03
    0.3300000000E+07    0.2847673019E-02    0.4043847077E-03    0.6953586831E+00    0.6328854089E+00    0.7126830242E-03
    0.3500000000E+07    0.2557126609E-02    0.3643542540E-03    0.6953565399E+00    0.6351802726E+00    0.7150157494E-03
    0.3700000000E+07    0.2308492889E-02    0.3299815430E-03    0.6953545061E+00    0.6372024606E+00    0.7172258135E-03
    0.3900000000E+07    0.2094138592E-02    0.3002522229E-03    0.6953525708E+00    0.6389962000E+00    0.7193257979E-03
    0.4100000000E+07    0.1908081452E-02    0.2743685079E-03    0.6953507248E+00    0.6405968767E+00    0.7213264273E-03
    0.4300000000E+07    0.1745581947E-02    0.2516962249E-03    0.6953489600E+00    0.6420330984E+00    0.7232369195E-03
    0.4500000000E+07    0.1602847519E-02    0.2317263036E-03    0.6953472692E+00    0.6433282143E+00    0.7250652560E-03
    0.4700000000E+07    0.1476815385E-02    0.2140463967E-03    0.6953456465E+00    0.6445014490E+00    0.7268183944E-03
    0.4900000000E+07    0.1364991051E-02    0.1983197082E-03    0.6953440863E+00    0.6455687602E+00    0.7285024375E-03
    0.1000000000E+07    0.1966407392E-01    0.2617176709E-02    0.6953995148E+00    0.5342908031E+00    0.6669584810E-03
    0.3000000000E+07    0.3384440344E-02    0.4779971687E-03    0.6953621320E+00    0.6288054064E+00    0.7089205838E-03
    0.5000000000E+07    0.1313752146E-02    0.1911002172E-03    0.6953433282E+00    0.6460669520E+00    0.7293202553E-03
    0.7000000000E+07    0.6896396291E-03    0.1023137688E-03    0.6953305365E+00    0.6527915276E+00    0.7430764916E-03
    0.9000000000E+07    0.4231485204E-03    0.6371481735E-04    0.6953207848E+00    0.6563050465E+00    0.7535200000E-03
    0.1100000000E+08    0.2855791130E-03    0.4351389733E-04    0.6953128804E+00    0.6584490823E+00    0.7619641680E-03
    0.1300000000E+08    0.2055091795E-03    0.3162491010E-04    0.6953062218E+00    0.6598890299E+00    0.7690658189E-03
    0.1500000000E+08    0.1548780884E-03    0.2403645398E-04    0.6953004619E+00    0.6609210229E+00    0.7752017487E-03
    0.1700000000E+08    0.1208563986E-03    0.1889603155E-04    0.6952953818E+00    0.6616961457E+00    0.7806086203E-03
    0.1900000000E+08    0.9690764633E-04    0.1525174526E-04    0.6952908346E+00    0.6622993175E+00    0.7854450175E-03
    0.2100000000E+08    0.7941890541E-04    0.1257353322E-04    0.6952867165E+00    0.6627818496E+00    0.7898225033E-03
    0.2300000000E+08    0.6626196740E-04    0.1054710113E-04    0.6952829516E+00    0.6631765379E+00    0.7938226002E-03
    0.2500000000E+08    0.5611741182E-04    0.8976442121E-05    0.6952794828E+00    0.6635053058E+00    0.7975067247E-03
    0.2700000000E+08    0.4813211860E-04    0.7734138696E-05    0.6952762657E+00    0.6637833571E+00    0.8009223197E-03
