  Pressure (Pa) 22mC5-500 (mol/kg) 23mC5-500 (mol/kg) 24mC5-500 (mol/kg) 3mC6-500 (mol/kg) C7-500 (mol/kg)
    0.1000000000E+01    0.1243169088E-04    0.2142689782E-05    0.6964671861E-01    0.7085473390E-06    0.4245115611E-02
    0.3000000000E+01    0.2982188656E-04    0.5130482528E-05    0.1740591932E+00    0.1839397472E-05    0.4368690654E-02
    0.5000000000E+01    0.4126201080E-04    0.7088167107E-05    0.2485974657E+00    0.2884620337E-05    0.4456864055E-02
    0.7000000000E+01    0.4920167186E-04    0.8441624968E-05    0.3044783460E+00    0.3887441816E-05    0.4523598654E-02
    0.9000000000E+01    0.5494106764E-04    0.9416446353E-05    0.3479278363E+00    0.4862633520E-05    0.4576040469E-02
    0.1100000000E+02    0.5922921957E-04    0.1014232902E-04    0.3826790436E+00    0.5817643814E-05    0.4618440238E-02
    0.1300000000E+02    0.6252403626E-04    0.1069839784E-04    0.4111063491E+00    0.6756931385E-05    0.4653501856E-02
    0.1500000000E+02    0.6511872161E-04    0.1113520767E-04    0.4347920169E+00    0.7683447857E-05    0.4683031226E-02
    0.1700000000E+02    0.6720814470E-04    0.1148628255E-04    0.4548310891E+00    0.8599282426E-05    0.4708281980E-02
    0.1900000000E+02    0.6892585094E-04    0.1177454290E-04    0.4720055180E+00    0.9505986466E-05    0.4730152377E-02
    0.2100000000E+02    0.7036573710E-04    0.1201606486E-04    0.4868885984E+00    0.1040475435E-04    0.4749303360E-02
    0.2300000000E+02    0.7159527317E-04    0.1222237055E-04    0.4999102138E+00    0.1129653194E-04    0.4766232378E-02
    0.2500000000E+02    0.7266385087E-04    0.1240187235E-04    0.5113990407E+00    0.1218208545E-04    0.4781321198E-02
    0.2700000000E+02    0.7360821362E-04    0.1256081090E-04    0.5216106770E+00    0.1306204726E-04    0.4794867839E-02
    0.2900000000E+02    0.7445608037E-04    0.1270388031E-04    0.5307468833E+00    0.1393694751E-04    0.4807108447E-02
    0.3100000000E+02    0.7522861907E-04    0.1283465426E-04    0.5389690486E+00    0.1480723651E-04    0.4818232645E-02
    0.3300000000E+02    0.7594216912E-04    0.1295588223E-04    0.5464078074E+00    0.1567330119E-04    0.4828394509E-02
    0.3500000000E+02    0.7660946211E-04    0.1306969921E-04    0.5531700321E+00    0.1653547727E-04    0.4837720578E-02
    0.3700000000E+02    0.7724050094E-04    0.1317777646E-04    0.5593440010E+00    0.1739405863E-04    0.4846315777E-02
    0.3900000000E+02    0.7784320204E-04    0.1328143139E-04    0.5650032736E+00    0.1824930446E-04    0.4854267873E-02
    0.4100000000E+02    0.7842387056E-04    0.1338170889E-04    0.5702096356E+00    0.1910144497E-04    0.4861650869E-02
    0.4300000000E+02    0.7898755621E-04    0.1347944196E-04    0.5750153637E+00    0.1995068584E-04    0.4868527620E-02
    0.4500000000E+02    0.7953832252E-04    0.1357529760E-04    0.5794649873E+00    0.2079721189E-04    0.4874951870E-02
    0.4700000000E+02    0.8007945266E-04    0.1366981185E-04    0.5835966725E+00    0.2164119000E-04    0.4880969860E-02
    0.4900000000E+02    0.8061360813E-04    0.1376341664E-04    0.5874433193E+00    0.2248277158E-04    0.4886621603E-02
    0.1000000000E+02    0.5723299272E-04    0.9804702795E-05    0.3662188705E+00    0.5342336210E-05    0.4598300010E-02
    0.3000000000E+02    0.7485064763E-04    0.1277061586E-04    0.5349634281E+00    0.1437264291E-04    0.4812799740E-02
    0.5000000000E+02    0.8087876304E-04    0.1380998977E-04    0.5892688144E+00    0.2290270723E-04    0.4889321190E-02
    0.7000000000E+02    0.8616650042E-04    0.1474947054E-04    0.6160710506E+00    0.3120353508E-04    0.4930549310E-02
    0.9000000000E+02    0.9176060305E-04    0.1575435352E-04    0.6320416041E+00    0.3936910311E-04    0.4957065556E-02
    0.1100000000E+03    0.9775085636E-04    0.1683401303E-04    0.6426425970E+00    0.4744713563E-04    0.4975888540E-02
    0.1300000000E+03    0.1040877245E-03    0.1797707100E-04    0.6501921117E+00    0.5546635515E-04    0.4990111632E-02
    0.1500000000E+03    0.1107097481E-03    0.1917147171E-04    0.6558417828E+00    0.6344587493E-04    0.5001328239E-02
    0.1700000000E+03    0.1175653496E-03    0.2040751572E-04    0.6602285022E+00    0.7139930111E-04    0.5010450801E-02
    0.1900000000E+03    0.1246145126E-03    0.2167783349E-04    0.6637331044E+00    0.7933680440E-04    0.5018043585E-02
    0.2100000000E+03    0.1318267326E-03    0.2297688106E-04    0.6665972953E+00    0.8726627621E-04    0.5024476567E-02
    0.2300000000E+03    0.1391787348E-03    0.2430046856E-04    0.6689818693E+00    0.9519402311E-04    0.5030003765E-02
    0.2500000000E+03    0.1466526309E-03    0.2564539995E-04    0.6709979507E+00    0.1031252082E-03    0.5034806184E-02
    0.2700000000E+03    0.1542345456E-03    0.2700921172E-04    0.6727247978E+00    0.1110641447E-03    0.5039016817E-02
    0.2900000000E+03    0.1619136154E-03    0.2838998574E-04    0.6742204609E+00    0.1190144981E-03    0.5042735926E-02
    0.3100000000E+03    0.1696812602E-03    0.2978621465E-04    0.6755284312E+00    0.1269794302E-03    0.5046040761E-02
    0.3300000000E+03    0.1775306505E-03    0.3119670438E-04    0.6766819354E+00    0.1349617041E-03    0.5048991975E-02
    0.3500000000E+03    0.1854563141E-03    0.3262050255E-04    0.6777067953E+00    0.1429637627E-03    0.5051637972E-02
    0.3700000000E+03    0.1934538425E-03    0.3405684546E-04    0.6786233817E+00    0.1509877879E-03    0.5054017936E-02
    0.3900000000E+03    0.2015196692E-03    0.3550511821E-04    0.6794479806E+00    0.1590357472E-03    0.5056163993E-02
    0.4100000000E+03    0.2096509009E-03    0.3696482445E-04    0.6801937680E+00    0.1671094292E-03    0.5058102778E-02
    0.4300000000E+03    0.2178451875E-03    0.3843556315E-04    0.6808715187E+00    0.1752104730E-03    0.5059856597E-02
    0.4500000000E+03    0.2261006202E-03    0.3991701060E-04    0.6814901292E+00    0.1833403910E-03    0.5061444304E-02
    0.4700000000E+03    0.2344156526E-03    0.4140890629E-04    0.6820570099E+00    0.1915005879E-03    0.5062881959E-02
    0.4900000000E+03    0.2427890371E-03    0.4291104179E-04    0.6825783831E+00    0.1996923759E-03    0.5064183350E-02
    0.1000000000E+03    0.9470846445E-04    0.1628544772E-04    0.6378285343E+00    0.4341697013E-04    0.4967194603E-02
    0.3000000000E+03    0.1657868287E-03    0.2908624936E-04    0.6748956293E+00    0.1229949608E-03    0.5044436006E-02
    0.5000000000E+03    0.2469972909E-03    0.4366589636E-04    0.6828236814E+00    0.2038005048E-03    0.5064786735E-02
    0.7000000000E+03    0.3340789583E-03    0.5927699183E-04    0.6862744062E+00    0.2878902474E-03    0.5071896430E-02
    0.9000000000E+03    0.4267035982E-03    0.7586962270E-04    0.6882039775E+00    0.3762561194E-03    0.5072790965E-02
    0.1100000000E+04    0.5251905014E-03    0.9350492931E-04    0.6894357937E+00    0.4696616089E-03    0.5069829356E-02
    0.1300000000E+04    0.6300717539E-03    0.1122802098E-03    0.6902899158E+00    0.5688198094E-03    0.5064048142E-02
    0.1500000000E+04    0.7420013094E-03    0.1323136893E-03    0.6909166671E+00    0.6744607646E-03    0.5055962234E-02
    0.1700000000E+04    0.8617371548E-03    0.1537417560E-03    0.6913959718E+00    0.7873679117E-03    0.5045835145E-02
    0.1900000000E+04    0.9901456085E-03    0.1767199296E-03    0.6917742413E+00    0.9084044125E-03    0.5033789961E-02
    0.2100000000E+04    0.1128215061E-02    0.2014254225E-03    0.6920802701E+00    0.1038536770E-02    0.5019860809E-02
    0.2300000000E+04    0.1277075701E-02    0.2280607267E-03    0.6923328681E+00    0.1178859142E-02    0.5004018421E-02
    0.2500000000E+04    0.1438024583E-02    0.2568581342E-03    0.6925448421E+00    0.1330620398E-02    0.4986182948E-02
    0.2700000000E+04    0.1612556520E-02    0.2880852861E-03    0.6927252129E+00    0.1495255562E-02    0.4966229781E-02
    0.2900000000E+04    0.1802401840E-02    0.3220519448E-03    0.6928805174E+00    0.1674423221E-02    0.4943991041E-02
    0.3100000000E+04    0.2009572554E-02    0.3591182667E-03    0.6930156084E+00    0.1870050683E-02    0.4919254044E-02
    0.3300000000E+04    0.2236418922E-02    0.3997049342E-03    0.6931341635E+00    0.2084388980E-02    0.4891757297E-02
    0.3500000000E+04    0.2485698956E-02    0.4443056023E-03    0.6932390208E+00    0.2320080294E-02    0.4861184235E-02
    0.3700000000E+04    0.2760664037E-02    0.4935022295E-03    0.6933324050E+00    0.2580240963E-02    0.4827154630E-02
    0.3900000000E+04    0.3065164534E-02    0.5479839901E-03    0.6934160847E+00    0.2868563936E-02    0.4789213450E-02
    0.4100000000E+04    0.3403780154E-02    0.6085706132E-03    0.6934914836E+00    0.3189445371E-02    0.4746816824E-02
    0.4300000000E+04    0.3781980477E-02    0.6762411313E-03    0.6935597602E+00    0.3548140866E-02    0.4699314682E-02
    0.4500000000E+04    0.4206321722E-02    0.7521691156E-03    0.6936218673E+00    0.3950957407E-02    0.4645929632E-02
    0.4700000000E+04    0.4684685523E-02    0.8377654417E-03    0.6936785953E+00    0.4405487104E-02    0.4585731775E-02
    0.4900000000E+04    0.5226563666E-02    0.9347292910E-03    0.6937306055E+00    0.4920887168E-02    0.4517609522E-02
    0.1000000000E+04    0.4751843456E-03    0.8455142875E-04    0.6888811510E+00    0.4222841878E-03    0.5071710037E-02
    0.3000000000E+04    0.1903683303E-02    0.3401729071E-03    0.6929503368E+00    0.1770047097E-02    0.4931949962E-02
    0.5000000000E+04    0.5524807338E-02    0.9880982446E-03    0.6937550191E+00    0.5204782554E-02    0.4480171795E-02
    0.7000000000E+04    0.1891608940E-01    0.3385136383E-02    0.6940940002E+00    0.1808690319E-01    0.2880118251E-02
    0.9000000000E+04    0.3745310379E-01    0.6708147110E-02    0.6942788059E+00    0.3677628686E-01    0.1204427450E-02
    0.1100000000E+05    0.4363554162E-01    0.7822762137E-02    0.6943940901E+00    0.4414040616E-01    0.1124575957E-02
    0.1300000000E+05    0.4830434345E-01    0.8667604179E-02    0.6944722594E+00    0.5028827040E-01    0.1133247164E-02
    0.1500000000E+05    0.5235740963E-01    0.9403117374E-02    0.6945283583E+00    0.5603954826E-01    0.1142297854E-02
    0.1700000000E+05    0.5590676851E-01    0.1004910980E-01    0.6945703083E+00    0.6146192684E-01    0.1150302671E-02
    0.1900000000E+05    0.5902860056E-01    0.1061902690E-01    0.6946026691E+00    0.6659670144E-01    0.1157459292E-02
    0.2100000000E+05    0.6178455073E-01    0.1112375555E-01    0.6946282470E+00    0.7147780726E-01    0.1163933596E-02
    0.2300000000E+05    0.6422525517E-01    0.1157224500E-01    0.6946488612E+00    0.7613368684E-01    0.1169847322E-02
    0.2500000000E+05    0.6639267510E-01    0.1197191687E-01    0.6946657412E+00    0.8058838813E-01    0.1175292079E-02
    0.2700000000E+05    0.6832185806E-01    0.1232897472E-01    0.6946797466E+00    0.8486239965E-01    0.1180338549E-02
    0.2900000000E+05    0.7004228932E-01    0.1264864158E-01    0.6946914962E+00    0.8897330004E-01    0.1185042436E-02
    0.3100000000E+05    0.7157894016E-01    0.1293534435E-01    0.6947014460E+00    0.9293626888E-01    0.1189448433E-02
    0.3300000000E+05    0.7295308932E-01    0.1319285832E-01    0.6947099392E+00    0.9676449236E-01    0.1193592954E-02
    0.3500000000E+05    0.7418297252E-01    0.1342442147E-01    0.6947172389E+00    0.1004694884E+00    0.1197506071E-02
    0.3700000000E+05    0.7528430050E-01    0.1363282572E-01    0.6947235497E+00    0.1040613692E+00    0.1201212909E-02
    0.3900000000E+05    0.7627067545E-01    0.1382049030E-01    0.6947290335E+00    0.1075490556E+00    0.1204734677E-02
    0.4100000000E+05    0.7715392832E-01    0.1398952116E-01    0.6947338193E+00    0.1109404520E+00    0.1208089449E-02
    0.4300000000E+05    0.7794439378E-01    0.1414175948E-01    0.6947380117E+00    0.1142425917E+00    0.1211292754E-02
    0.4500000000E+05    0.7865113597E-01    0.1427882146E-01    0.6947416959E+00    0.1174617575E+00    0.1214358031E-02
    0.4700000000E+05    0.7928213486E-01    0.1440213124E-01    0.6947449422E+00    0.1206035819E+00    0.1217296993E-02
    0.4900000000E+05    0.7984444102E-01    0.1451294819E-01    0.6947478089E+00    0.1236731323E+00    0.1220119912E-02
    0.1000000000E+05    0.4094267372E-01    0.7336595504E-02    0.6943425018E+00    0.4080886332E-01    0.1130055256E-02
    0.3000000000E+05    0.7083217917E-01    0.1279586372E-01    0.6946966724E+00    0.9097240920E-01    0.1187280226E-02
    0.5000000000E+05    0.8010181575E-01    0.1456402606E-01    0.6947491155E+00    0.1251822515E+00    0.1221490728E-02
    0.7000000000E+05    0.8283800134E-01    0.1514375146E-01    0.6947638306E+00    0.1524762786E+00    0.1244542667E-02
    0.9000000000E+05    0.8285840710E-01    0.1521977569E-01    0.6947676523E+00    0.1758270952E+00    0.1262037207E-02
    0.1100000000E+06    0.8158845167E-01    0.1505048136E-01    0.6947672830E+00    0.1965647465E+00    0.1276179673E-02
    0.1300000000E+06    0.7966439896E-01    0.1475258833E-01    0.6947650683E+00    0.2153951727E+00    0.1288072092E-02
    0.1500000000E+06    0.7740507309E-01    0.1438538877E-01    0.6947619944E+00    0.2327381716E+00    0.1298346354E-02
    0.1700000000E+06    0.7498343602E-01    0.1398156370E-01    0.6947585265E+00    0.2488647977E+00    0.1307399219E-02
    0.1900000000E+06    0.7249868091E-01    0.1356021093E-01    0.6947549003E+00    0.2639614892E+00    0.1315496485E-02
    0.2100000000E+06    0.7000989191E-01    0.1313296726E-01    0.6947512410E+00    0.2781631582E+00    0.1322825106E-02
    0.2300000000E+06    0.6755308166E-01    0.1270712896E-01    0.6947476167E+00    0.2915716185E+00    0.1329521678E-02
    0.2500000000E+06    0.6515038515E-01    0.1228734821E-01    0.6947440646E+00    0.3042664797E+00    0.1335689095E-02
    0.2700000000E+06    0.6281528648E-01    0.1187660527E-01    0.6947406040E+00    0.3163119046E+00    0.1341406834E-02
    0.2900000000E+06    0.6055572134E-01    0.1147679062E-01    0.6947372444E+00    0.3277609673E+00    0.1346737584E-02
    0.3100000000E+06    0.5837598716E-01    0.1108906665E-01    0.6947339891E+00    0.3386585584E+00    0.1351731681E-02
    0.3300000000E+06    0.5627795612E-01    0.1071409980E-01    0.6947308380E+00    0.3490433750E+00    0.1356430165E-02
    0.3500000000E+06    0.5426186629E-01    0.1035221363E-01    0.6947277889E+00    0.3589493172E+00    0.1360866944E-02
    0.3700000000E+06    0.5232684960E-01    0.1000349221E-01    0.6947248383E+00    0.3684064892E+00    0.1365070366E-02
    0.3900000000E+06    0.5047129120E-01    0.9667851453E-02    0.6947219824E+00    0.3774419299E+00    0.1369064369E-02
    0.4100000000E+06    0.4869307811E-01    0.9345089255E-02    0.6947192168E+00    0.3860801561E+00    0.1372869362E-02
    0.4300000000E+06    0.4698977370E-01    0.9034921207E-02    0.6947165372E+00    0.3943435725E+00    0.1376502884E-02
    0.4500000000E+06    0.4535874147E-01    0.8737006455E-02    0.6947139393E+00    0.4022527866E+00    0.1379980120E-02
    0.4700000000E+06    0.4379723358E-01    0.8450966577E-02    0.6947114190E+00    0.4098268537E+00    0.1383314309E-02
    0.4900000000E+06    0.4230245455E-01    0.8176399500E-02    0.6947089722E+00    0.4170834706E+00    0.1386517062E-02
    0.1000000000E+06    0.8233431199E-01    0.1515657797E-01    0.6947677961E+00    0.1864692855E+00    0.1269443238E-02
    0.3000000000E+06    0.5945571238E-01    0.1128136611E-01    0.6947356037E+00    0.3332761518E+00    0.1349273960E-02
    0.5000000000E+06    0.4157921330E-01    0.8043288742E-02    0.6947077752E+00    0.4205979330E+00    0.1388072398E-02
    0.7000000000E+06    0.2996771794E-01    0.5882515305E-02    0.6946868966E+00    0.4777069574E+00    0.1414233303E-02
    0.9000000000E+06    0.2232392205E-01    0.4434262894E-02    0.6946702905E+00    0.5166389974E+00    0.1434093259E-02
    0.1100000000E+07    0.1713621803E-01    0.3437861011E-02    0.6946565066E+00    0.5441547178E+00    0.1450150621E-02
    0.1300000000E+07    0.1350035919E-01    0.2731781448E-02    0.6946447169E+00    0.5642518897E+00    0.1463654722E-02
    0.1500000000E+07    0.1087460394E-01    0.2217117215E-02    0.6946344099E+00    0.5793668059E+00    0.1475322225E-02
    0.1700000000E+07    0.8926841423E-02    0.1832278894E-02    0.6946252485E+00    0.5910299539E+00    0.1485603247E-02
    0.1900000000E+07    0.7447534851E-02    0.1537933777E-02    0.6946169990E+00    0.6002326447E+00    0.1494799393E-02
    0.2100000000E+07    0.6300560702E-02    0.1308275257E-02    0.6946094927E+00    0.6076360642E+00    0.1503122838E-02
    0.2300000000E+07    0.5395000323E-02    0.1125921751E-02    0.6946026040E+00    0.6136933893E+00    0.1510728622E-02
    0.2500000000E+07    0.4668555549E-02    0.9788764786E-03    0.6945962370E+00    0.6187230504E+00    0.1517733544E-02
    0.2700000000E+07    0.4077534868E-02    0.8586716357E-03    0.6945903164E+00    0.6229538938E+00    0.1524227829E-02
    0.2900000000E+07    0.3590644559E-02    0.7592072886E-03    0.6945847823E+00    0.6265537613E+00    0.1530282649E-02
    0.3100000000E+07    0.3185040516E-02    0.6760073099E-03    0.6945795862E+00    0.6296480304E+00    0.1535955154E-02
    0.3300000000E+07    0.2843757610E-02    0.6057316492E-03    0.6945746882E+00    0.6323319204E+00    0.1541291940E-02
    0.3500000000E+07    0.2553998972E-02    0.5458498099E-03    0.6945700551E+00    0.6346788386E+00    0.1546331512E-02
    0.3700000000E+07    0.2305974364E-02    0.4944179374E-03    0.6945656591E+00    0.6367461504E+00    0.1551106054E-02
    0.3900000000E+07    0.2092096657E-02    0.4499238698E-03    0.6945614764E+00    0.6385792429E+00    0.1555642754E-02
    0.4100000000E+07    0.1906416459E-02    0.4111776251E-03    0.6945574868E+00    0.6402144331E+00    0.1559964784E-02
    0.4300000000E+07    0.1744218025E-02    0.3772328044E-03    0.6945536728E+00    0.6416810821E+00    0.1564092063E-02
    0.4500000000E+07    0.1601726240E-02    0.3473293784E-03    0.6945500192E+00    0.6430031533E+00    0.1568041836E-02
    0.4700000000E+07    0.1475891276E-02    0.3208514903E-03    0.6945465128E+00    0.6442003757E+00    0.1571829137E-02
    0.4900000000E+07    0.1364228378E-02    0.2972959553E-03    0.6945431418E+00    0.6452891237E+00    0.1575467151E-02
    0.1000000000E+07    0.1949046602E-01    0.3891528453E-02    0.6946631074E+00    0.5315269218E+00    0.1442501811E-02
    0.3000000000E+07    0.3378856538E-02    0.7158051898E-03    0.6945821447E+00    0.6281575507E+00    0.1533163564E-02
    0.5000000000E+07    0.1313059176E-02    0.2864816578E-03    0.6945415037E+00    0.6457971881E+00    0.1577233865E-02
    0.7000000000E+07    0.6895755601E-03    0.1534390274E-03    0.6945138705E+00    0.6526449083E+00    0.1606950492E-02
    0.9000000000E+07    0.4232234439E-03    0.9557264507E-04    0.6944928090E+00    0.6562130571E+00    0.1629510032E-02
    0.1100000000E+08    0.2856921229E-03    0.6528100814E-04    0.6944757398E+00    0.6583859918E+00    0.1647750175E-02
    0.1300000000E+08    0.2056321861E-03    0.4745081372E-04    0.6944613621E+00    0.6598430606E+00    0.1663090003E-02
    0.1500000000E+08    0.1550018655E-03    0.3606916733E-04    0.6944489258E+00    0.6608860312E+00    0.1676343573E-02
    0.1700000000E+08    0.1209776926E-03    0.2835869667E-04    0.6944379580E+00    0.6616686149E+00    0.1688022179E-02
    0.1900000000E+08    0.9702535451E-04    0.2289207099E-04    0.6944281409E+00    0.6622770896E+00    0.1698468424E-02
    0.2100000000E+08    0.7953276177E-04    0.1887441051E-04    0.6944192507E+00    0.6627635270E+00    0.1707923325E-02
    0.2300000000E+08    0.6637204143E-04    0.1583436758E-04    0.6944111233E+00    0.6631611751E+00    0.1716562998E-02
    0.2500000000E+08    0.5622390306E-04    0.1347797467E-04    0.6944036352E+00    0.6634922406E+00    0.1724520121E-02
    0.2700000000E+08    0.4823526868E-04    0.1161412515E-04    0.6943966907E+00    0.6637721116E+00    0.1731897185E-02
