  Pressure (Pa) 22mC5-500 (mol/kg) 23mC5-500 (mol/kg) 24mC5-500 (mol/kg) 3mC6-500 (mol/kg) C7-500 (mol/kg)
    0.1000000000E+01    0.1117792578E-04    0.1925442197E-05    0.1266275566E+00    0.1503258541E-05    0.4211822514E-02
    0.3000000000E+01    0.2308089501E-04    0.3964289436E-05    0.2784996945E+00    0.3873818643E-05    0.4274217899E-02
    0.5000000000E+01    0.2905561569E-04    0.4980556343E-05    0.3663858761E+00    0.6058660954E-05    0.4309863814E-02
    0.7000000000E+01    0.3251759495E-04    0.5566184685E-05    0.4236875425E+00    0.8152344967E-05    0.4333419657E-02
    0.9000000000E+01    0.3474630782E-04    0.5941958105E-05    0.4640037977E+00    0.1018701068E-04    0.4350262511E-02
    0.1100000000E+02    0.3631137446E-04    0.6205715156E-05    0.4939121271E+00    0.1217881334E-04    0.4362963375E-02
    0.1300000000E+02    0.3749676559E-04    0.6405988423E-05    0.5169821403E+00    0.1413740138E-04    0.4372918227E-02
    0.1500000000E+02    0.3845585979E-04    0.6568849956E-05    0.5353185480E+00    0.1606915020E-04    0.4380953497E-02
    0.1700000000E+02    0.3927656537E-04    0.6709154481E-05    0.5502426997E+00    0.1797856540E-04    0.4387590877E-02
    0.1900000000E+02    0.4001159323E-04    0.6835750623E-05    0.5626260134E+00    0.1986898823E-04    0.4393176555E-02
    0.2100000000E+02    0.4069366858E-04    0.6954091406E-05    0.5730664599E+00    0.2174298804E-04    0.4397949648E-02
    0.2300000000E+02    0.4134366068E-04    0.7067624876E-05    0.5819880193E+00    0.2360259741E-04    0.4402080850E-02
    0.2500000000E+02    0.4197515052E-04    0.7178572762E-05    0.5896996722E+00    0.2544946133E-04    0.4405695414E-02
    0.2700000000E+02    0.4259710554E-04    0.7288384788E-05    0.5964319144E+00    0.2728493628E-04    0.4408887432E-02
    0.2900000000E+02    0.4321550119E-04    0.7398013047E-05    0.6023601892E+00    0.2911015851E-04    0.4411729021E-02
    0.3100000000E+02    0.4383433325E-04    0.7508082590E-05    0.6076203973E+00    0.3092609249E-04    0.4414276440E-02
    0.3300000000E+02    0.4445626591E-04    0.7619000168E-05    0.6123194432E+00    0.3273356634E-04    0.4416574252E-02
    0.3500000000E+02    0.4508305577E-04    0.7731025023E-05    0.6165425769E+00    0.3453329818E-04    0.4418658245E-02
    0.3700000000E+02    0.4571583437E-04    0.7844315828E-05    0.6203586130E+00    0.3632591622E-04    0.4420557507E-02
    0.3900000000E+02    0.4635529956E-04    0.7958962306E-05    0.6238237087E+00    0.3811197426E-04    0.4422295943E-02
    0.4100000000E+02    0.4700184690E-04    0.8075006797E-05    0.6269841465E+00    0.3989196388E-04    0.4423893390E-02
    0.4300000000E+02    0.4765566093E-04    0.8192459149E-05    0.6298784133E+00    0.4166632414E-04    0.4425366458E-02
    0.4500000000E+02    0.4831677926E-04    0.8311307081E-05    0.6325387749E+00    0.4343544936E-04    0.4426729168E-02
    0.4700000000E+02    0.4898513791E-04    0.8431523457E-05    0.6349924849E+00    0.4519969546E-04    0.4427993444E-02
    0.4900000000E+02    0.4966060353E-04    0.8553071409E-05    0.6372627210E+00    0.4695938522E-04    0.4429169494E-02
    0.1000000000E+02    0.3558983085E-04    0.6084078942E-05    0.4799896749E+00    0.1118756588E-04    0.4357025482E-02
    0.3000000000E+02    0.4352467077E-04    0.7452963092E-05    0.6050665390E+00    0.3001923193E-04    0.4413036482E-02
    0.5000000000E+02    0.5000094667E-04    0.8614331460E-05    0.6383353489E+00    0.4783761435E-04    0.4429727231E-02
    0.7000000000E+02    0.5712789947E-04    0.9898098521E-05    0.6537403652E+00    0.6522249071E-04    0.4437859826E-02
    0.9000000000E+02    0.6472026091E-04    0.1126544041E-04    0.6626241852E+00    0.8237401349E-04    0.4442554948E-02
    0.1100000000E+03    0.7262512042E-04    0.1268793218E-04    0.6684041534E+00    0.9939375376E-04    0.4445466240E-02
    0.1300000000E+03    0.8075223565E-04    0.1414927289E-04    0.6724649351E+00    0.1163429615E-03    0.4447307054E-02
    0.1500000000E+03    0.8904807185E-04    0.1563994477E-04    0.6754742003E+00    0.1332625770E-03    0.4448441788E-02
    0.1700000000E+03    0.9747975877E-04    0.1715417240E-04    0.6777935171E+00    0.1501819463E-03    0.4449078651E-02
    0.1900000000E+03    0.1060264532E-03    0.1868833106E-04    0.6796357334E+00    0.1671232112E-03    0.4449346514E-02
    0.2100000000E+03    0.1146746090E-03    0.2024008875E-04    0.6811343117E+00    0.1841037539E-03    0.4449330067E-02
    0.2300000000E+03    0.1234152829E-03    0.2180792258E-04    0.6823771822E+00    0.2011376632E-03    0.4449087627E-02
    0.2500000000E+03    0.1322425351E-03    0.2339083409E-04    0.6834246345E+00    0.2182366632E-03    0.4448660872E-02
    0.2700000000E+03    0.1411524447E-03    0.2498817521E-04    0.6843193867E+00    0.2354107315E-03    0.4448080510E-02
    0.2900000000E+03    0.1501424834E-03    0.2659953811E-04    0.6850925524E+00    0.2526685234E-03    0.4447369740E-02
    0.3100000000E+03    0.1592111050E-03    0.2822468346E-04    0.6857673303E+00    0.2700176742E-03    0.4446546468E-02
    0.3300000000E+03    0.1683574702E-03    0.2986349258E-04    0.6863613706E+00    0.2874650189E-03    0.4445624762E-02
    0.3500000000E+03    0.1775812579E-03    0.3151593466E-04    0.6868883404E+00    0.3050167567E-03    0.4444615850E-02
    0.3700000000E+03    0.1868825327E-03    0.3318204409E-04    0.6873589869E+00    0.3226785753E-03    0.4443528811E-02
    0.3900000000E+03    0.1962616514E-03    0.3486190424E-04    0.6877818778E+00    0.3404557473E-03    0.4442371073E-02
    0.4100000000E+03    0.2057191950E-03    0.3655563600E-04    0.6881639271E+00    0.3583532063E-03    0.4441148776E-02
    0.4300000000E+03    0.2152559193E-03    0.3826338927E-04    0.6885107757E+00    0.3763756071E-03    0.4439867038E-02
    0.4500000000E+03    0.2248727183E-03    0.3998533686E-04    0.6888270715E+00    0.3945273739E-03    0.4438530159E-02
    0.4700000000E+03    0.2345705971E-03    0.4172166982E-04    0.6891166788E+00    0.4128127406E-03    0.4437141775E-02
    0.4900000000E+03    0.2443506511E-03    0.4347259406E-04    0.6893828367E+00    0.4312357829E-03    0.4435704981E-02
    0.1000000000E+03    0.6864038854E-04    0.1197102051E-04    0.6657907638E+00    0.9089590172E-04    0.4444177098E-02
    0.3000000000E+03    0.1546670378E-03    0.2741039778E-04    0.6854410280E+00    0.2613312352E-03    0.4446971211E-02
    0.5000000000E+03    0.2492718568E-03    0.4435359567E-04    0.6895079938E+00    0.4405001697E-03    0.4434969272E-02
    0.7000000000E+03    0.3523276415E-03    0.6279815359E-04    0.6912642418E+00    0.6339344038E-03    0.4418186269E-02
    0.9000000000E+03    0.4652414228E-03    0.8300122923E-04    0.6922428799E+00    0.8453056102E-03    0.4398067636E-02
    0.1100000000E+04    0.5897572443E-03    0.1052769630E-03    0.6928664751E+00    0.1078241172E-02    0.4374887013E-02
    0.1300000000E+04    0.7279476817E-03    0.1299971818E-03    0.6932984102E+00    0.1336803546E-02    0.4348534546E-02
    0.1500000000E+04    0.8823041975E-03    0.1576082069E-03    0.6936151713E+00    0.1625781840E-02    0.4318695209E-02
    0.1700000000E+04    0.1055864183E-02    0.1886538243E-03    0.6938573350E+00    0.1950973703E-02    0.4284893490E-02
    0.1900000000E+04    0.1252377741E-02    0.2238052371E-03    0.6940484269E+00    0.2319519918E-02    0.4246492302E-02
    0.2100000000E+04    0.1476528812E-02    0.2639006914E-03    0.6942030252E+00    0.2740335028E-02    0.4202667990E-02
    0.2300000000E+04    0.1734232296E-02    0.3099986828E-03    0.6943306448E+00    0.3224680940E-02    0.4152366261E-02
    0.2500000000E+04    0.2033037175E-02    0.3634501293E-03    0.6944377590E+00    0.3786943855E-02    0.4094237681E-02
    0.2700000000E+04    0.2382676417E-02    0.4259968171E-03    0.6945289252E+00    0.4445695157E-02    0.4026548185E-02
    0.2900000000E+04    0.2795816768E-02    0.4999056400E-03    0.6946074443E+00    0.5225141635E-02    0.3947057982E-02
    0.3100000000E+04    0.3289071070E-02    0.5881498568E-03    0.6946757659E+00    0.6157091125E-02    0.3852861932E-02
    0.3300000000E+04    0.3884328169E-02    0.6946472587E-03    0.6947357458E+00    0.7283550342E-02    0.3740188601E-02
    0.3500000000E+04    0.4610391967E-02    0.8245537940E-03    0.6947888160E+00    0.8659959079E-02    0.3604171532E-02
    0.3700000000E+04    0.5504704376E-02    0.9845724395E-03    0.6948360987E+00    0.1035866556E-01    0.3438652871E-02
    0.3900000000E+04    0.6614339674E-02    0.1183132077E-02    0.6948784858E+00    0.1247114612E-01    0.3236194072E-02
    0.4100000000E+04    0.7994105249E-02    0.1430049124E-02    0.6949166952E+00    0.1510490266E-01    0.2988712555E-02
    0.4300000000E+04    0.9697104015E-02    0.1734840769E-02    0.6949513113E+00    0.1836619031E-01    0.2689567867E-02
    0.4500000000E+04    0.1175061814E-01    0.2102411357E-02    0.6949828144E+00    0.2231471953E-01    0.2338206889E-02
    0.4700000000E+04    0.1411421748E-01    0.2525555336E-02    0.6950116030E+00    0.2688359082E-01    0.1947396720E-02
    0.4900000000E+04    0.1664037070E-01    0.2977901533E-02    0.6950380105E+00    0.3180174658E-01    0.1548625112E-02
    0.1000000000E+04    0.5259281020E-03    0.9385829107E-04    0.6925857958E+00    0.9588378180E-03    0.4386861090E-02
    0.3000000000E+04    0.3031203169E-02    0.5420163040E-03    0.6946427522E+00    0.5669702214E-02    0.3902010981E-02
    0.5000000000E+04    0.1789134101E-01    0.3201956485E-02    0.6950504109E+00    0.3425452359E-01    0.1360069505E-02
    0.7000000000E+04    0.2926168509E-01    0.5244024260E-02    0.6952230246E+00    0.5851962425E-01    0.3838178102E-03
    0.9000000000E+04    0.3427190172E-01    0.6150325432E-02    0.6953176866E+00    0.7159061729E-01    0.3850525895E-03
    0.1100000000E+05    0.3834034281E-01    0.6889538073E-02    0.6953771163E+00    0.8350352862E-01    0.3893738779E-03
    0.1300000000E+05    0.4168200446E-01    0.7499605523E-02    0.6954176876E+00    0.9449820374E-01    0.3930166314E-03
    0.1500000000E+05    0.4443818088E-01    0.8005433024E-02    0.6954470137E+00    0.1047180890E+00    0.3961624733E-03
    0.1700000000E+05    0.4671723059E-01    0.8426140516E-02    0.6954691096E+00    0.1142762689E+00    0.3989335027E-03
    0.1900000000E+05    0.4860354682E-01    0.8776635717E-02    0.6954862905E+00    0.1232633216E+00    0.4014114622E-03
    0.2100000000E+05    0.5016372377E-01    0.9068695701E-02    0.6954999838E+00    0.1317527353E+00    0.4036537982E-03
    0.2300000000E+05    0.5145092978E-01    0.9311734351E-02    0.6955111167E+00    0.1398048225E+00    0.4057024547E-03
    0.2500000000E+05    0.5250806415E-01    0.9513356646E-02    0.6955203169E+00    0.1474695991E+00    0.4075890102E-03
    0.2700000000E+05    0.5337007226E-01    0.9679765376E-02    0.6955280244E+00    0.1547889348E+00    0.4093378457E-03
    0.2900000000E+05    0.5406566798E-01    0.9816063910E-02    0.6955345563E+00    0.1617981819E+00    0.4109681853E-03
    0.3100000000E+05    0.5461863202E-01    0.9926484546E-02    0.6955401469E+00    0.1685274253E+00    0.4124954598E-03
    0.3300000000E+05    0.5504880236E-01    0.1001456280E-01    0.6955449728E+00    0.1750024531E+00    0.4139322474E-03
    0.3500000000E+05    0.5537283802E-01    0.1008327191E-01    0.6955491698E+00    0.1812455182E+00    0.4152889379E-03
    0.3700000000E+05    0.5560481420E-01    0.1013512768E-01    0.6955528438E+00    0.1872759417E+00    0.4165742151E-03
    0.3900000000E+05    0.5575669014E-01    0.1017227100E-01    0.6955560786E+00    0.1931105956E+00    0.4177954117E-03
    0.4100000000E+05    0.5583868034E-01    0.1019653327E-01    0.6955589412E+00    0.1987642926E+00    0.4189587776E-03
    0.4300000000E+05    0.5585955122E-01    0.1020948886E-01    0.6955614861E+00    0.2042501018E+00    0.4200696831E-03
    0.4500000000E+05    0.5582686024E-01    0.1021249727E-01    0.6955637577E+00    0.2095796090E+00    0.4211327779E-03
    0.4700000000E+05    0.5574714973E-01    0.1020673745E-01    0.6955657928E+00    0.2147631295E+00    0.4221521146E-03
    0.4900000000E+05    0.5562610527E-01    0.1019323577E-01    0.6955676220E+00    0.2198098859E+00    0.4231312472E-03
    0.1000000000E+05    0.3640742884E-01    0.6537917448E-02    0.6953504739E+00    0.7767232190E-01    0.3873103578E-03
    0.3000000000E+05    0.5435865657E-01    0.9874273407E-02    0.6955374571E+00    0.1651961014E+00    0.4117438615E-03
    0.5000000000E+05    0.5555165777E-01    0.1018386652E-01    0.6955684676E+00    0.2222845978E+00    0.4236067310E-03
    0.7000000000E+05    0.5281185508E-01    0.9756909915E-02    0.6955790640E+00    0.2662251163E+00    0.4316038591E-03
    0.9000000000E+05    0.4901996909E-01    0.9117906448E-02    0.6955834396E+00    0.3023519795E+00    0.4376743511E-03
    0.1100000000E+06    0.4507560722E-01    0.8435083519E-02    0.6955852516E+00    0.3330360547E+00    0.4425823408E-03
    0.1300000000E+06    0.4129988351E-01    0.7770974499E-02    0.6955858258E+00    0.3595836629E+00    0.4467098445E-03
    0.1500000000E+06    0.3780653021E-01    0.7149443795E-02    0.6955857436E+00    0.3828246199E+00    0.4502759678E-03
    0.1700000000E+06    0.3462579789E-01    0.6578358384E-02    0.6955852926E+00    0.4033396453E+00    0.4534183115E-03
    0.1900000000E+06    0.3175251585E-01    0.6058524510E-02    0.6955846281E+00    0.4215627443E+00    0.4562290708E-03
    0.2100000000E+06    0.2916669055E-01    0.5587596090E-02    0.6955838389E+00    0.4378329928E+00    0.4587730999E-03
    0.2300000000E+06    0.2684290661E-01    0.5161905944E-02    0.6955829780E+00    0.4524233847E+00    0.4610977877E-03
    0.2500000000E+06    0.2475474799E-01    0.4777358532E-02    0.6955820785E+00    0.4655582964E+00    0.4632388338E-03
    0.2700000000E+06    0.2287686184E-01    0.4429869760E-02    0.6955811613E+00    0.4774248465E+00    0.4652238144E-03
    0.2900000000E+06    0.2118585923E-01    0.4115577768E-02    0.6955802399E+00    0.4881807435E+00    0.4670744821E-03
    0.3100000000E+06    0.1966062972E-01    0.3830934543E-02    0.6955793230E+00    0.4979599795E+00    0.4688083038E-03
    0.3300000000E+06    0.1828236093E-01    0.3572734838E-02    0.6955784164E+00    0.5068771213E+00    0.4704395212E-03
    0.3500000000E+06    0.1703441507E-01    0.3338112468E-02    0.6955775237E+00    0.5150306407E+00    0.4719799017E-03
    0.3700000000E+06    0.1590214245E-01    0.3124520384E-02    0.6955766473E+00    0.5225055570E+00    0.4734392824E-03
    0.3900000000E+06    0.1487267480E-01    0.2929703521E-02    0.6955757885E+00    0.5293755666E+00    0.4748259718E-03
    0.4100000000E+06    0.1393472046E-01    0.2751669405E-02    0.6955749480E+00    0.5357047823E+00    0.4761470525E-03
    0.4300000000E+06    0.1307837243E-01    0.2588659153E-02    0.6955741263E+00    0.5415491671E+00    0.4774086116E-03
    0.4500000000E+06    0.1229493402E-01    0.2439120247E-02    0.6955733232E+00    0.5469577235E+00    0.4786159198E-03
    0.4700000000E+06    0.1157676354E-01    0.2301681672E-02    0.6955725386E+00    0.5519734883E+00    0.4797735720E-03
    0.4900000000E+06    0.1091713758E-01    0.2175131640E-02    0.6955717721E+00    0.5566343670E+00    0.4808855979E-03
    0.1000000000E+06    0.4703952567E-01    0.8776722623E-02    0.6955845566E+00    0.3182774164E+00    0.4402444699E-03
    0.3000000000E+06    0.2040375148E-01    0.3969758487E-02    0.6955797805E+00    0.4931848714E+00    0.4679550430E-03
    0.5000000000E+06    0.1060739911E-01    0.2115599772E-02    0.6955713955E+00    0.5588423420E+00    0.4814256282E-03
    0.7000000000E+06    0.6373041317E-02    0.1293729549E-02    0.6955646915E+00    0.5907115442E+00    0.4905092970E-03
    0.9000000000E+06    0.4218830997E-02    0.8682385090E-03    0.6955592271E+00    0.6088566008E+00    0.4974054869E-03
    0.1100000000E+07    0.2987602169E-02    0.6217628865E-03    0.6955546318E+00    0.6203562631E+00    0.5029814691E-03
    0.1300000000E+07    0.2222113912E-02    0.4668384502E-03    0.6955506694E+00    0.6282142634E+00    0.5076709593E-03
    0.1500000000E+07    0.1715278698E-02    0.3633116580E-03    0.6955471861E+00    0.6338884171E+00    0.5117227635E-03
    0.1700000000E+07    0.1362997273E-02    0.2907777621E-03    0.6955440775E+00    0.6381609340E+00    0.5152931545E-03
    0.1900000000E+07    0.1108523834E-02    0.2380124243E-03    0.6955412698E+00    0.6414851637E+00    0.5184868480E-03
    0.2100000000E+07    0.9188679036E-03    0.1984388883E-03    0.6955387089E+00    0.6441403323E+00    0.5213775109E-03
    0.2300000000E+07    0.7738206300E-03    0.1680006596E-03    0.6955363543E+00    0.6463070665E+00    0.5240189743E-03
    0.2500000000E+07    0.6604562730E-03    0.1440871906E-03    0.6955341744E+00    0.6481070189E+00    0.5264517924E-03
    0.2700000000E+07    0.5702020578E-03    0.1249574428E-03    0.6955321447E+00    0.6496249301E+00    0.5287072929E-03
    0.2900000000E+07    0.4971939888E-03    0.1094144517E-03    0.6955302454E+00    0.6509215382E+00    0.5308101881E-03
    0.3100000000E+07    0.4373128966E-03    0.9661347883E-04    0.6955284603E+00    0.6520414555E+00    0.5327803219E-03
    0.3300000000E+07    0.3875975830E-03    0.8594462850E-04    0.6955267761E+00    0.6530181523E+00    0.5346338746E-03
    0.3500000000E+07    0.3458756534E-03    0.7695866521E-04    0.6955251819E+00    0.6538772093E+00    0.5363842155E-03
    0.3700000000E+07    0.3105245267E-03    0.6931878494E-04    0.6955236682E+00    0.6546384994E+00    0.5380425210E-03
    0.3900000000E+07    0.2803127457E-03    0.6276846396E-04    0.6955222272E+00    0.6553176867E+00    0.5396182311E-03
    0.4100000000E+07    0.2542922018E-03    0.5710954188E-04    0.6955208519E+00    0.6559272790E+00    0.5411193928E-03
    0.4300000000E+07    0.2317234445E-03    0.5218697975E-04    0.6955195366E+00    0.6564773808E+00    0.5425529222E-03
    0.4500000000E+07    0.2120229686E-03    0.4787806749E-04    0.6955182760E+00    0.6569762412E+00    0.5439248081E-03
    0.4700000000E+07    0.1947253925E-03    0.4408465621E-04    0.6955170657E+00    0.6574306593E+00    0.5452402709E-03
    0.4900000000E+07    0.1794559124E-03    0.4072748409E-04    0.6955159017E+00    0.6578462881E+00    0.5465038896E-03
    0.1000000000E+07    0.3525158208E-02    0.7297339167E-03    0.6955568381E+00    0.6151964998E+00    0.5003253672E-03
    0.3000000000E+07    0.4658196628E-03    0.1027138077E-03    0.6955293394E+00    0.6515012747E+00    0.5318107644E-03
    0.5000000000E+07    0.1724842319E-03    0.3919182589E-04    0.6955153360E+00    0.6580410677E+00    0.5471175381E-03
    0.7000000000E+07    0.8889776321E-04    0.2060289329E-04    0.6955057796E+00    0.6607287560E+00    0.5574395605E-03
    0.9000000000E+07    0.5403448012E-04    0.1270862235E-04    0.6954984829E+00    0.6621889624E+00    0.5652759297E-03
    0.1100000000E+08    0.3626600659E-04    0.8629699079E-05    0.6954925630E+00    0.6631053547E+00    0.5716121158E-03
    0.1300000000E+08    0.2600668862E-04    0.6248341911E-05    0.6954875728E+00    0.6637337779E+00    0.5769409534E-03
    0.1500000000E+08    0.1955464087E-04    0.4736724374E-05    0.6954832540E+00    0.6641914466E+00    0.5815451659E-03
    0.1700000000E+08    0.1523616132E-04    0.3716832103E-05    0.6954794435E+00    0.6645395941E+00    0.5856023303E-03
    0.1900000000E+08    0.1220519536E-04    0.2995958468E-05    0.6954760317E+00    0.6648133148E+00    0.5892314384E-03
    0.2100000000E+08    0.9996819010E-05    0.2467425302E-05    0.6954729410E+00    0.6650341617E+00    0.5925162007E-03
    0.2300000000E+08    0.8338395079E-05    0.2068265823E-05    0.6954701148E+00    0.6652161010E+00    0.5955177870E-03
    0.2500000000E+08    0.7061499060E-05    0.1759352983E-05    0.6954675104E+00    0.6653685796E+00    0.5982822811E-03
    0.2700000000E+08    0.6057544676E-05    0.1515326264E-05    0.6954650945E+00    0.6654982157E+00    0.6008452818E-03
