  Pressure (Pa) 22mC5-500 (mol/kg) 23mC5-500 (mol/kg) 24mC5-500 (mol/kg) 3mC6-500 (mol/kg) C7-500 (mol/kg)
    0.1000000000E+01    0.1135238006E-04    0.6521809137E-06    0.1266335872E+00    0.7186916348E-05    0.4168720208E-02
    0.3000000000E+01    0.2346810764E-04    0.1344437825E-05    0.2785289758E+00    0.1809417288E-04    0.4196374317E-02
    0.5000000000E+01    0.2962733415E-04    0.1694156120E-05    0.3664367214E+00    0.2807208693E-04    0.4208668306E-02
    0.7000000000E+01    0.3326205982E-04    0.1899630420E-05    0.4237557377E+00    0.3761111921E-04    0.4216082667E-02
    0.9000000000E+01    0.3565711389E-04    0.2034773414E-05    0.4640858118E+00    0.4687500792E-04    0.4221006499E-02
    0.1100000000E+02    0.3738473436E-04    0.2132353409E-05    0.4940052899E+00    0.5594520063E-04    0.4224451079E-02
    0.1300000000E+02    0.3873041242E-04    0.2208638186E-05    0.5170844511E+00    0.6486996798E-04    0.4226937240E-02
    0.1500000000E+02    0.3984850359E-04    0.2272376402E-05    0.5354284897E+00    0.7368101178E-04    0.4228764321E-02
    0.1700000000E+02    0.4082758821E-04    0.2328559504E-05    0.5503591022E+00    0.8240062404E-04    0.4230117644E-02
    0.1900000000E+02    0.4172086313E-04    0.2380165866E-05    0.5627479584E+00    0.9104526678E-04    0.4231118448E-02
    0.2100000000E+02    0.4256141879E-04    0.2429034829E-05    0.5731932148E+00    0.9962755434E-04    0.4231849534E-02
    0.2300000000E+02    0.4337040751E-04    0.2476332534E-05    0.5821189907E+00    0.1081574364E-03    0.4232369455E-02
    0.2500000000E+02    0.4416163526E-04    0.2522812905E-05    0.5898343734E+00    0.1166429458E-03    0.4232720819E-02
    0.2700000000E+02    0.4494425218E-04    0.2568970022E-05    0.5965699412E+00    0.1250906935E-03    0.4232935394E-02
    0.2900000000E+02    0.4572438476E-04    0.2615130211E-05    0.6025012020E+00    0.1335062088E-03    0.4233037358E-02
    0.3100000000E+02    0.4650615561E-04    0.2661509349E-05    0.6077641082E+00    0.1418941798E-03    0.4233045447E-02
    0.3300000000E+02    0.4729233699E-04    0.2708249432E-05    0.6124656060E+00    0.1502586290E-03    0.4232974406E-02
    0.3500000000E+02    0.4808477861E-04    0.2755442399E-05    0.6166909796E+00    0.1586030436E-03    0.4232836003E-02
    0.3700000000E+02    0.4888469323E-04    0.2803145963E-05    0.6205090711E+00    0.1669304744E-03    0.4232639744E-02
    0.3900000000E+02    0.4969285016E-04    0.2851394272E-05    0.6239760613E+00    0.1752436121E-03    0.4232393395E-02
    0.4100000000E+02    0.5050970847E-04    0.2900205211E-05    0.6271382519E+00    0.1835448469E-03    0.4232103359E-02
    0.4300000000E+02    0.5133550959E-04    0.2949585439E-05    0.6300341461E+00    0.1918363163E-03    0.4231774965E-02
    0.4500000000E+02    0.5217034250E-04    0.2999533914E-05    0.6326960238E+00    0.2001199430E-03    0.4231412687E-02
    0.4700000000E+02    0.5301418990E-04    0.3050044361E-05    0.6351511505E+00    0.2083974658E-03    0.4231020303E-02
    0.4900000000E+02    0.5386696117E-04    0.3101107030E-05    0.6374227140E+00    0.2166704651E-03    0.4230601030E-02
    0.1000000000E+02    0.3658227534E-04    0.2086998899E-05    0.4800775503E+00    0.5143078686E-04    0.4222874028E-02
    0.3000000000E+02    0.4611486635E-04    0.2638282133E-05    0.6052089340E+00    0.1377033720E-03    0.4233052135E-02
    0.5000000000E+02    0.5429665088E-04    0.3126841763E-05    0.6384959751E+00    0.2208057243E-03    0.4230382186E-02
    0.7000000000E+02    0.6331414994E-04    0.3667236314E-05    0.6539105993E+00    0.3035677350E-03    0.4225091453E-02
    0.9000000000E+02    0.7301129167E-04    0.4248259623E-05    0.6628005780E+00    0.3869911691E-03    0.4218752981E-02
    0.1100000000E+03    0.8325439441E-04    0.4861580711E-05    0.6685849463E+00    0.4716186091E-03    0.4211835981E-02
    0.1300000000E+03    0.9396933645E-04    0.5502725697E-05    0.6726490951E+00    0.5578114690E-03    0.4204523996E-02
    0.1500000000E+03    0.1051177482E-03    0.6169425273E-05    0.6756610604E+00    0.6458442902E-03    0.4196899298E-02
    0.1700000000E+03    0.1166818566E-03    0.6860653772E-05    0.6779826172E+00    0.7359455170E-03    0.4189000801E-02
    0.1900000000E+03    0.1286562896E-03    0.7576124861E-05    0.6798267400E+00    0.8283180291E-03    0.4180846274E-02
    0.2100000000E+03    0.1410436045E-03    0.8316020888E-05    0.6813269732E+00    0.9231506798E-03    0.4172442091E-02
    0.2300000000E+03    0.1538517684E-03    0.9080842060E-05    0.6825713034E+00    0.1020625368E-02    0.4163787954E-02
    0.2500000000E+03    0.1670926937E-03    0.9871319581E-05    0.6836200596E+00    0.1120921707E-02    0.4154879346E-02
    0.2700000000E+03    0.1807813693E-03    0.1068836453E-04    0.6845159890E+00    0.1224220331E-02    0.4145708875E-02
    0.2900000000E+03    0.1949353433E-03    0.1153303762E-04    0.6852902270E+00    0.1330705378E-02    0.4136267043E-02
    0.3100000000E+03    0.2095744188E-03    0.1240653165E-04    0.6859659892E+00    0.1440566490E-02    0.4126542685E-02
    0.3300000000E+03    0.2247204890E-03    0.1331016207E-04    0.6865609390E+00    0.1554000507E-02    0.4116523226E-02
    0.3500000000E+03    0.2403974632E-03    0.1424536299E-04    0.6870887536E+00    0.1671212976E-02    0.4106194822E-02
    0.3700000000E+03    0.2566312571E-03    0.1521368680E-04    0.6875601889E+00    0.1792419571E-02    0.4095542431E-02
    0.3900000000E+03    0.2734498301E-03    0.1621680673E-04    0.6879838195E+00    0.1917847459E-02    0.4084549830E-02
    0.4100000000E+03    0.2908832599E-03    0.1725652137E-04    0.6883665651E+00    0.2047736674E-02    0.4073199607E-02
    0.4300000000E+03    0.3089638467E-03    0.1833476114E-04    0.6887140714E+00    0.2182341513E-02    0.4061473115E-02
    0.4500000000E+03    0.3277262446E-03    0.1945359612E-04    0.6890309904E+00    0.2321931993E-02    0.4049350423E-02
    0.4700000000E+03    0.3472076162E-03    0.2061524548E-04    0.6893211898E+00    0.2466795387E-02    0.4036810235E-02
    0.4900000000E+03    0.3674478119E-03    0.2182208817E-04    0.6895879116E+00    0.2617237858E-02    0.4023829803E-02
    0.1000000000E+03    0.7807031253E-04    0.4551230029E-05    0.6659695189E+00    0.4291290580E-03    0.4215351821E-02
    0.3000000000E+03    0.2021929227E-03    0.1196610261E-04    0.6856392049E+00    0.1385201810E-02    0.4131440935E-02
    0.5000000000E+03    0.3778657061E-03    0.2244324709E-04    0.6897133410E+00    0.2694652516E-02    0.4017166966E-02
    0.7000000000E+03    0.6386896365E-03    0.3799246499E-04    0.6914740324E+00    0.4631724705E-02    0.3853696354E-02
    0.9000000000E+03    0.1055720782E-02    0.6285197839E-04    0.6924559082E+00    0.7733936850E-02    0.3601888033E-02
    0.1100000000E+04    0.1783899525E-02    0.1062618109E-03    0.6930820593E+00    0.1317266942E-01    0.3180674041E-02
    0.1300000000E+04    0.3142819043E-02    0.1872872378E-03    0.6935161110E+00    0.2339118503E-01    0.2438922590E-02
    0.1500000000E+04    0.5391642625E-02    0.3214232169E-03    0.6938346813E+00    0.4051320105E-01    0.1325365220E-02
    0.1700000000E+04    0.7555349920E-02    0.4505946350E-03    0.6940784267E+00    0.5745190440E-01    0.4605399321E-03
    0.1900000000E+04    0.8781754719E-02    0.5239567110E-03    0.6942709250E+00    0.6766323532E-01    0.1838419281E-03
    0.2100000000E+04    0.9567773970E-02    0.5710956087E-03    0.6944267905E+00    0.7471521352E-01    0.1298252990E-03
    0.2300000000E+04    0.1022540452E-01    0.6106063218E-03    0.6945555637E+00    0.8092541904E-01    0.1209010209E-03
    0.2500000000E+04    0.1082945458E-01    0.6469474847E-03    0.6946637373E+00    0.8685097400E-01    0.1198239948E-03
    0.2700000000E+04    0.1139591043E-01    0.6810702507E-03    0.6947558832E+00    0.9260525649E-01    0.1200610055E-03
    0.2900000000E+04    0.1192930129E-01    0.7132424665E-03    0.6948353138E+00    0.9821452984E-01    0.1204966739E-03
    0.3100000000E+04    0.1243193695E-01    0.7435997107E-03    0.6949044878E+00    0.1036884629E+00    0.1209422792E-03
    0.3300000000E+04    0.1290562250E-01    0.7722476059E-03    0.6949652686E+00    0.1090333569E+00    0.1213678694E-03
    0.3500000000E+04    0.1335198039E-01    0.7992810357E-03    0.6950190941E+00    0.1142546258E+00    0.1217706294E-03
    0.3700000000E+04    0.1377251659E-01    0.8247880803E-03    0.6950670915E+00    0.1193572775E+00    0.1221521326E-03
    0.3900000000E+04    0.1416863903E-01    0.8488511070E-03    0.6951101571E+00    0.1243460210E+00    0.1225144174E-03
    0.4100000000E+04    0.1454166670E-01    0.8715473020E-03    0.6951490125E+00    0.1292253024E+00    0.1228593491E-03
    0.4300000000E+04    0.1489283648E-01    0.8929490700E-03    0.6951842448E+00    0.1339993253E+00    0.1231885519E-03
    0.4500000000E+04    0.1522330920E-01    0.9131243843E-03    0.6952163373E+00    0.1386720683E+00    0.1235034345E-03
    0.4700000000E+04    0.1553417508E-01    0.9321371044E-03    0.6952456907E+00    0.1432472996E+00    0.1238052233E-03
    0.4900000000E+04    0.1582645874E-01    0.9500472668E-03    0.6952726405E+00    0.1477285912E+00    0.1240949926E-03
    0.1000000000E+04    0.1365691742E-02    0.8133007580E-04    0.6928001685E+00    0.1004574311E-01    0.3420147704E-02
    0.3000000000E+04    0.1218434490E-01    0.7286410164E-03    0.6948710548E+00    0.1009679878E+00    0.1207213106E-03
    0.5000000000E+04    0.1596593563E-01    0.9586066713E-03    0.6952853042E+00    0.1499350752E+00    0.1242356702E-03
    0.7000000000E+04    0.1798561370E-01    0.1083977140E-02    0.6954623380E+00    0.1898703246E+00    0.1265983873E-03
    0.9000000000E+04    0.1895243639E-01    0.1146384654E-02    0.6955603488E+00    0.2233742695E+00    0.1283885634E-03
    0.1100000000E+05    0.1927264361E-01    0.1169780376E-02    0.6956224835E+00    0.2520853354E+00    0.1298343860E-03
    0.1300000000E+05    0.1918989543E-01    0.1168599833E-02    0.6956653287E+00    0.2770932217E+00    0.1310494590E-03
    0.1500000000E+05    0.1885556211E-01    0.1151861220E-02    0.6956966190E+00    0.2991557003E+00    0.1320987727E-03
    0.1700000000E+05    0.1836622706E-01    0.1125355840E-02    0.6957204453E+00    0.3188197341E+00    0.1330230704E-03
    0.1900000000E+05    0.1778474729E-01    0.1092880786E-02    0.6957391740E+00    0.3364927602E+00    0.1338496164E-03
    0.2100000000E+05    0.1715259371E-01    0.1056962991E-02    0.6957542682E+00    0.3524865356E+00    0.1345975712E-03
    0.2300000000E+05    0.1649734405E-01    0.1019300131E-02    0.6957666813E+00    0.3670451453E+00    0.1352809248E-03
    0.2500000000E+05    0.1583737158E-01    0.9810373975E-03    0.6957770605E+00    0.3803634977E+00    0.1359102098E-03
    0.2700000000E+05    0.1518485482E-01    0.9429458058E-03    0.6957858611E+00    0.3925998992E+00    0.1364935585E-03
    0.2900000000E+05    0.1454775201E-01    0.9055396417E-03    0.6957934121E+00    0.4038848293E+00    0.1370373828E-03
    0.3100000000E+05    0.1393112041E-01    0.8691552862E-03    0.6957999575E+00    0.4143272097E+00    0.1375468297E-03
    0.3300000000E+05    0.1333801180E-01    0.8340049810E-03    0.6958056819E+00    0.4240189790E+00    0.1380260944E-03
    0.3500000000E+05    0.1277008826E-01    0.8002140036E-03    0.6958107273E+00    0.4330384946E+00    0.1384786425E-03
    0.3700000000E+05    0.1222805030E-01    0.7678466654E-03    0.6958152051E+00    0.4414531086E+00    0.1389073704E-03
    0.3900000000E+05    0.1171193703E-01    0.7369246661E-03    0.6958192036E+00    0.4493211478E+00    0.1393147240E-03
    0.4100000000E+05    0.1122133817E-01    0.7074401489E-03    0.6958227939E+00    0.4566934594E+00    0.1397027879E-03
    0.4300000000E+05    0.1075554435E-01    0.6793650398E-03    0.6958260337E+00    0.4636146317E+00    0.1400733532E-03
    0.4500000000E+05    0.1031365410E-01    0.6526577537E-03    0.6958289704E+00    0.4701239724E+00    0.1404279711E-03
    0.4700000000E+05    0.9894649881E-02    0.6272680186E-03    0.6958316432E+00    0.4762562984E+00    0.1407679930E-03
    0.4900000000E+05    0.9497452099E-02    0.6031403465E-03    0.6958340851E+00    0.4820425820E+00    0.1410946046E-03
    0.1000000000E+05    0.1917536990E-01    0.1161894481E-02    0.6955945528E+00    0.2382511147E+00    0.1291458312E-03
    0.3000000000E+05    0.1423664789E-01    0.8872040642E-03    0.6957967978E+00    0.4092052386E+00    0.1372961219E-03
    0.5000000000E+05    0.9306685918E-02    0.5915316455E-03    0.6958352281E+00    0.4848147184E+00    0.1412532131E-03
    0.7000000000E+05    0.6380063812E-02    0.4116699863E-03    0.6958508296E+00    0.5274638752E+00    0.1439208574E-03
    0.9000000000E+05    0.4599321413E-02    0.3003910189E-03    0.6958590058E+00    0.5545518018E+00    0.1459458482E-03
    0.1100000000E+06    0.3455984333E-02    0.2280168971E-03    0.6958638911E+00    0.5731346231E+00    0.1475830677E-03
    0.1300000000E+06    0.2684655446E-02    0.1786732683E-03    0.6958670504E+00    0.5866054335E+00    0.1489599415E-03
    0.1500000000E+06    0.2142160359E-02    0.1436567633E-03    0.6958692018E+00    0.5967843684E+00    0.1501495551E-03
    0.1700000000E+06    0.1747179542E-02    0.1179629865E-03    0.6958707192E+00    0.6047286905E+00    0.1511978072E-03
    0.1900000000E+06    0.1451181756E-02    0.9857536660E-04    0.6958718154E+00    0.6110914539E+00    0.1521354510E-03
    0.2100000000E+06    0.1223906199E-02    0.8359702624E-04    0.6958726198E+00    0.6162963391E+00    0.1529841200E-03
    0.2300000000E+06    0.1045752913E-02    0.7179031563E-04    0.6958732153E+00    0.6206294861E+00    0.1537596215E-03
    0.2500000000E+06    0.9036021387E-03    0.6232138800E-04    0.6958736571E+00    0.6242907276E+00    0.1544738641E-03
    0.2700000000E+06    0.7884170438E-03    0.5461253835E-04    0.6958739834E+00    0.6274236338E+00    0.1551360462E-03
    0.2900000000E+06    0.6938156091E-03    0.4825361520E-04    0.6958742214E+00    0.6301338892E+00    0.1557534242E-03
    0.3100000000E+06    0.6151905847E-03    0.4294708803E-04    0.6958743906E+00    0.6325009431E+00    0.1563318243E-03
    0.3300000000E+06    0.5491506481E-03    0.3847296820E-04    0.6958745059E+00    0.6345856309E+00    0.1568759974E-03
    0.3500000000E+06    0.4931559158E-03    0.3466581293E-04    0.6958745782E+00    0.6364352959E+00    0.1573898688E-03
    0.3700000000E+06    0.4452744666E-03    0.3139929219E-04    0.6958746160E+00    0.6380873152E+00    0.1578767198E-03
    0.3900000000E+06    0.4040161726E-03    0.2857561034E-04    0.6958746258E+00    0.6395715794E+00    0.1583393220E-03
    0.4100000000E+06    0.3682170750E-03    0.2611811599E-04    0.6958746129E+00    0.6409122696E+00    0.1587800381E-03
    0.4300000000E+06    0.3369575060E-03    0.2396604905E-04    0.6958745814E+00    0.6421291533E+00    0.1592008985E-03
    0.4500000000E+06    0.3095031763E-03    0.2207074795E-04    0.6958745346E+00    0.6432385434E+00    0.1596036615E-03
    0.4700000000E+06    0.2852621644E-03    0.2039287137E-04    0.6958744751E+00    0.6442540188E+00    0.1599898598E-03
    0.4900000000E+06    0.2637530929E-03    0.1890033617E-04    0.6958744052E+00    0.6451869722E+00    0.1603608377E-03
    0.1000000000E+06    0.3968467750E-02    0.2605599999E-03    0.6958617321E+00    0.5646426412E+00    0.1468031932E-03
    0.3000000000E+06    0.6527415010E-03    0.4548405384E-04    0.6958743136E+00    0.6313561474E+00    0.1560471777E-03
    0.5000000000E+06    0.2538968393E-03    0.1821514093E-04    0.6958743668E+00    0.6456255713E+00    0.1605409950E-03
    0.7000000000E+06    0.1337459274E-03    0.9782256224E-05    0.6958733519E+00    0.6517706294E+00    0.1635713850E-03
    0.9000000000E+06    0.8231684748E-04    0.6107706755E-05    0.6958722054E+00    0.6551851847E+00    0.1658720443E-03
    0.1100000000E+07    0.5570505583E-04    0.4180321316E-05    0.6958711005E+00    0.6573568839E+00    0.1677322846E-03
    0.1300000000E+07    0.4018498030E-04    0.3043855123E-05    0.6958700730E+00    0.6588594082E+00    0.1692967898E-03
    0.1500000000E+07    0.3035439895E-04    0.2317344211E-05    0.6958691249E+00    0.6599606130E+00    0.1706485605E-03
    0.1700000000E+07    0.2373905264E-04    0.1824558249E-05    0.6958682499E+00    0.6608022810E+00    0.1718397288E-03
    0.1900000000E+07    0.1907634928E-04    0.1474804509E-05    0.6958674396E+00    0.6614664647E+00    0.1729052278E-03
    0.2100000000E+07    0.1566744742E-04    0.1217513813E-05    0.6958666864E+00    0.6620039353E+00    0.1738696328E-03
    0.2300000000E+07    0.1310019290E-04    0.1022666914E-05    0.6958659832E+00    0.6624477891E+00    0.1747509020E-03
    0.2500000000E+07    0.1111879003E-04    0.8715235058E-06    0.6958653241E+00    0.6628205220E+00    0.1755625645E-03
    0.2700000000E+07    0.9557686989E-05    0.7518901798E-06    0.6958647041E+00    0.6631379576E+00    0.1763150713E-03
    0.2900000000E+07    0.8305911849E-05    0.6555536576E-06    0.6958641188E+00    0.6634115505E+00    0.1770166667E-03
    0.3100000000E+07    0.7286827475E-05    0.5768163729E-06    0.6958635647E+00    0.6636497961E+00    0.1776739708E-03
    0.3300000000E+07    0.6446133284E-05    0.5116245484E-06    0.6958630385E+00    0.6638591284E+00    0.1782923814E-03
    0.3500000000E+07    0.5744487180E-05    0.4570297228E-06    0.6958625375E+00    0.6640445094E+00    0.1788763586E-03
    0.3700000000E+07    0.5152821207E-05    0.4108455067E-06    0.6958620595E+00    0.6642098271E+00    0.1794296310E-03
    0.3900000000E+07    0.4649283055E-05    0.3714226341E-06    0.6958616024E+00    0.6643581714E+00    0.1799553479E-03
    0.4100000000E+07    0.4217189188E-05    0.3374978896E-06    0.6958611644E+00    0.6644920285E+00    0.1804561939E-03
    0.4300000000E+07    0.3843624560E-05    0.3080904168E-06    0.6958607440E+00    0.6646134220E+00    0.1809344763E-03
    0.4500000000E+07    0.3518465641E-05    0.2824291462E-06    0.6958603398E+00    0.6647240152E+00    0.1813921931E-03
    0.4700000000E+07    0.3233686612E-05    0.2599011045E-06    0.6958599505E+00    0.6648251880E+00    0.1818310857E-03
    0.4900000000E+07    0.2982858663E-05    0.2400140066E-06    0.6958595750E+00    0.6649180949E+00    0.1822526820E-03
    0.1000000000E+07    0.6707567173E-04    0.5006658832E-05    0.6958716442E+00    0.6563797911E+00    0.1668461627E-03
    0.3000000000E+07    0.7771097518E-05    0.6142694840E-06    0.6958638381E+00    0.6635346493E+00    0.1773504930E-03
    0.5000000000E+07    0.2868511725E-05    0.2309330601E-06    0.6958593922E+00    0.6649617590E+00    0.1824574212E-03
    0.7000000000E+07    0.1505772633E-05    0.1218262933E-06    0.6958562730E+00    0.6655729098E+00    0.1859013175E-03
    0.9000000000E+07    0.9408205951E-06    0.7594333173E-07    0.6958538586E+00    0.6659123333E+00    0.1885159258E-03
    0.1100000000E+08    0.6525907157E-06    0.5231488854E-07    0.6958518828E+00    0.6661283033E+00    0.1906300216E-03
    0.1300000000E+08    0.4853739513E-06    0.3852182993E-07    0.6958502072E+00    0.6662778170E+00    0.1924080282E-03
    0.1500000000E+08    0.3794576983E-06    0.2975072008E-07    0.6958487503E+00    0.6663874639E+00    0.1939442706E-03
    0.1700000000E+08    0.3079371902E-06    0.2381467388E-07    0.6958474601E+00    0.6664713177E+00    0.1952979943E-03
    0.1900000000E+08    0.2572296690E-06    0.1960224429E-07    0.6958463013E+00    0.6665375247E+00    0.1965088991E-03
    0.2100000000E+08    0.2198701610E-06    0.1649923719E-07    0.6958452488E+00    0.6665911275E+00    0.1976049140E-03
    0.2300000000E+08    0.1914760767E-06    0.1414343416E-07    0.6958442841E+00    0.6666354144E+00    0.1986064476E-03
    0.2500000000E+08    0.1693348176E-06    0.1230979965E-07    0.6958433932E+00    0.6666726213E+00    0.1995288754E-03
    0.2700000000E+08    0.1516930916E-06    0.1085243017E-07    0.6958425653E+00    0.6667043214E+00    0.2003840746E-03
