  Pressure (Pa) 22mC5-500 (mol/kg) 23mC5-500 (mol/kg) 24mC5-500 (mol/kg) 3mC6-500 (mol/kg) C7-500 (mol/kg)
    0.1000000000E+01    0.1149817532E-04    0.1321690179E-05    0.1266348909E+00    0.8169712185E-05    0.4146123404E-02
    0.3000000000E+01    0.2377699953E-04    0.2725588556E-05    0.2785353702E+00    0.2017599517E-04    0.4172806319E-02
    0.5000000000E+01    0.3007298468E-04    0.3441279389E-05    0.3664479171E+00    0.3107594421E-04    0.4180811300E-02
    0.7000000000E+01    0.3383279841E-04    0.3867095472E-05    0.4237708581E+00    0.4145922199E-04    0.4184856986E-02
    0.9000000000E+01    0.3634586891E-04    0.4151408789E-05    0.4641041040E+00    0.5152040648E-04    0.4187175559E-02
    0.1100000000E+02    0.3818664605E-04    0.4360018802E-05    0.4940261755E+00    0.6135569329E-04    0.4188548901E-02
    0.1300000000E+02    0.3964189912E-04    0.4525612938E-05    0.5171074911E+00    0.7102185139E-04    0.4189340539E-02
    0.1500000000E+02    0.4086680550E-04    0.4665786157E-05    0.5354533474E+00    0.8055604250E-04    0.4189746581E-02
    0.1700000000E+02    0.4195051297E-04    0.4790588778E-05    0.5503855151E+00    0.8998432906E-04    0.4189883277E-02
    0.1900000000E+02    0.4294663083E-04    0.4906026542E-05    0.5627757186E+00    0.9932591505E-04    0.4189824271E-02
    0.2100000000E+02    0.4388856106E-04    0.5015815146E-05    0.5732221547E+00    0.1085954881E-03    0.4189618600E-02
    0.2300000000E+02    0.4479769860E-04    0.5122315697E-05    0.5821489738E+00    0.1178046143E-03    0.4189300223E-02
    0.2500000000E+02    0.4568804308E-04    0.5227059048E-05    0.5898652865E+00    0.1269626179E-03    0.4188893408E-02
    0.2700000000E+02    0.4656890237E-04    0.5331052100E-05    0.5966016896E+00    0.1360771630E-03    0.4188415966E-02
    0.2900000000E+02    0.4744653363E-04    0.5434963027E-05    0.6025337057E+00    0.1451546520E-03    0.4187881254E-02
    0.3100000000E+02    0.4832516934E-04    0.5539236639E-05    0.6077972990E+00    0.1542005081E-03    0.4187299484E-02
    0.3300000000E+02    0.4920767526E-04    0.5644168034E-05    0.6124994250E+00    0.1632193801E-03    0.4186678593E-02
    0.3500000000E+02    0.5009598164E-04    0.5749950660E-05    0.6167253757E+00    0.1722152946E-03    0.4186024836E-02
    0.3700000000E+02    0.5099137116E-04    0.5856708251E-05    0.6205439999E+00    0.1811917719E-03    0.4185343205E-02
    0.3900000000E+02    0.5189467451E-04    0.5964516397E-05    0.6240114834E+00    0.1901519145E-03    0.4184637732E-02
    0.4100000000E+02    0.5280640493E-04    0.6073417303E-05    0.6271741328E+00    0.1990984770E-03    0.4183911703E-02
    0.4300000000E+02    0.5372685211E-04    0.6183430021E-05    0.6300704549E+00    0.2080339211E-03    0.4183167822E-02
    0.4500000000E+02    0.5465614820E-04    0.6294557595E-05    0.6327327332E+00    0.2169604601E-03    0.4182408330E-02
    0.4700000000E+02    0.5559431480E-04    0.6406792102E-05    0.6351882355E+00    0.2258800951E-03    0.4181635101E-02
    0.4900000000E+02    0.5654129653E-04    0.6520118226E-05    0.6374601526E+00    0.2347946439E-03    0.4180849710E-02
    0.1000000000E+02    0.3732812207E-04    0.4262645750E-05    0.4800972019E+00    0.5646213168E-04    0.4187952100E-02
    0.3000000000E+02    0.4788552069E-04    0.5487033205E-05    0.6052417891E+00    0.1496812275E-03    0.4187595710E-02
    0.5000000000E+02    0.5701806081E-04    0.6577184478E-05    0.6385335827E+00    0.2392505351E-03    0.4180452878E-02
    0.7000000000E+02    0.6697784958E-04    0.7770009224E-05    0.6539508132E+00    0.3284396239E-03    0.4172113071E-02
    0.9000000000E+02    0.7763095151E-04    0.9045725960E-05    0.6628425038E+00    0.4184001313E-03    0.4163310996E-02
    0.1100000000E+03    0.8885564806E-04    0.1038909496E-04    0.6686281148E+00    0.5097564112E-03    0.4154231135E-02
    0.1300000000E+03    0.1005859721E-03    0.1179213825E-04    0.6726932246E+00    0.6029261910E-03    0.4144928127E-02
    0.1500000000E+03    0.1127899902E-03    0.1325108292E-04    0.6757059661E+00    0.6982289106E-03    0.4135414876E-02
    0.1700000000E+03    0.1254555342E-03    0.1476454459E-04    0.6780281699E+00    0.7959324702E-03    0.4125688244E-02
    0.1900000000E+03    0.1385824494E-03    0.1633257166E-04    0.6798728450E+00    0.8962767613E-03    0.4115738091E-02
    0.2100000000E+03    0.1521783748E-03    0.1795613379E-04    0.6813735587E+00    0.9994869101E-03    0.4105550873E-02
    0.2300000000E+03    0.1662563817E-03    0.1963683918E-04    0.6826183130E+00    0.1105781432E-02    0.4095111164E-02
    0.2500000000E+03    0.1808336193E-03    0.2137677389E-04    0.6836674484E+00    0.1215377657E-02    0.4084402324E-02
    0.2700000000E+03    0.1959305297E-03    0.2317840953E-04    0.6845637202E+00    0.1328495619E-02    0.4073406775E-02
    0.2900000000E+03    0.2115703989E-03    0.2504455101E-04    0.6853382699E+00    0.1445361024E-02    0.4062106091E-02
    0.3100000000E+03    0.2277791149E-03    0.2697830870E-04    0.6860143181E+00    0.1566207688E-02    0.4050480992E-02
    0.3300000000E+03    0.2445850593E-03    0.2898308649E-04    0.6866095318E+00    0.1691279641E-02    0.4038511296E-02
    0.3500000000E+03    0.2620190908E-03    0.3106258042E-04    0.6871375915E+00    0.1820833055E-02    0.4026175830E-02
    0.3700000000E+03    0.2801145929E-03    0.3322078502E-04    0.6876092553E+00    0.1955138080E-02    0.4013452336E-02
    0.3900000000E+03    0.2989075719E-03    0.3546200543E-04    0.6880330999E+00    0.2094480659E-02    0.4000317357E-02
    0.4100000000E+03    0.3184367956E-03    0.3779087423E-04    0.6884160467E+00    0.2239164370E-02    0.3986746114E-02
    0.4300000000E+03    0.3387439661E-03    0.4021237246E-04    0.6887637429E+00    0.2389512337E-02    0.3972712372E-02
    0.4500000000E+03    0.3598739258E-03    0.4273185428E-04    0.6890808416E+00    0.2545869238E-02    0.3958188301E-02
    0.4700000000E+03    0.3818748937E-03    0.4535507545E-04    0.6893712115E+00    0.2708603442E-02    0.3943144323E-02
    0.4900000000E+03    0.4047987327E-03    0.4808822531E-04    0.6896380954E+00    0.2878109308E-02    0.3927548945E-02
    0.1000000000E+03    0.8317699969E-04    0.9709580865E-05    0.6660121100E+00    0.4638745783E-03    0.4158800878E-02
    0.3000000000E+03    0.2196019351E-03    0.2600277191E-04    0.6856873937E+00    0.1505271710E-02    0.4056335333E-02
    0.5000000000E+03    0.4166240055E-03    0.4949808498E-04    0.6897636030E+00    0.2965532563E-02    0.3919534073E-02
    0.7000000000E+03    0.7182385538E-03    0.8545364777E-04    0.6915255631E+00    0.5195084456E-02    0.3720464806E-02
    0.9000000000E+03    0.1219869537E-02    0.1452503524E-03    0.6925083529E+00    0.8911914518E-02    0.3404579548E-02
    0.1100000000E+04    0.2132265679E-02    0.2540228447E-03    0.6931352190E+00    0.1570622180E-01    0.2860200157E-02
    0.1300000000E+04    0.3825674525E-02    0.4559539249E-03    0.6935698581E+00    0.2842623785E-01    0.1924564564E-02
    0.1500000000E+04    0.6167560505E-02    0.7353612286E-03    0.6938889273E+00    0.4632529257E-01    0.8020015154E-03
    0.1700000000E+04    0.7867900203E-02    0.9384872312E-03    0.6941331066E+00    0.5985851690E-01    0.2261144998E-03
    0.1900000000E+04    0.8834503926E-02    0.1054234863E-02    0.6943259890E+00    0.6812506114E-01    0.8861055883E-04
    0.2100000000E+04    0.9556342119E-02    0.1140859453E-02    0.6944821990E+00    0.7469560320E-01    0.6421803953E-04
    0.2300000000E+04    0.1019860532E-01    0.1218050228E-02    0.6946112848E+00    0.8079502729E-01    0.6032425141E-04
    0.2500000000E+04    0.1079676677E-01    0.1290032800E-02    0.6947197445E+00    0.8668246037E-01    0.5989238938E-04
    0.2700000000E+04    0.1135909564E-01    0.1357788596E-02    0.6948121543E+00    0.9241194023E-01    0.6003059615E-04
    0.2900000000E+04    0.1188869823E-01    0.1421683429E-02    0.6948918298E+00    0.9799859692E-01    0.6025211027E-04
    0.3100000000E+04    0.1238763443E-01    0.1481958589E-02    0.6949612323E+00    0.1034500809E+00    0.6047562959E-04
    0.3300000000E+04    0.1285767449E-01    0.1538821150E-02    0.6950222274E+00    0.1087723779E+00    0.6068858707E-04
    0.3500000000E+04    0.1330044424E-01    0.1592461273E-02    0.6950762545E+00    0.1139708995E+00    0.6089002348E-04
    0.3700000000E+04    0.1371745854E-01    0.1643056176E-02    0.6951244424E+00    0.1190507045E+00    0.6108080997E-04
    0.3900000000E+04    0.1411013389E-01    0.1690771617E-02    0.6951676885E+00    0.1240165575E+00    0.6126198200E-04
    0.4100000000E+04    0.1447979651E-01    0.1735762836E-02    0.6952067154E+00    0.1288729558E+00    0.6143447539E-04
    0.4300000000E+04    0.1482768926E-01    0.1778175362E-02    0.6952421112E+00    0.1336241490E+00    0.6159910303E-04
    0.4500000000E+04    0.1515497772E-01    0.1818145715E-02    0.6952743598E+00    0.1382741562E+00    0.6175656940E-04
    0.4700000000E+04    0.1546275584E-01    0.1855802071E-02    0.6953038627E+00    0.1428267819E+00    0.6190748791E-04
    0.4900000000E+04    0.1575205107E-01    0.1891264850E-02    0.6953309558E+00    0.1472856297E+00    0.6205239580E-04
    0.1000000000E+04    0.1604368306E-02    0.1910868123E-03    0.6928529900E+00    0.1176997680E-01    0.3171161335E-02
    0.3000000000E+04    0.1214188489E-01    0.1452260044E-02    0.6949276870E+00    0.1007408429E+00    0.6036492172E-04
    0.5000000000E+04    0.1589007166E-01    0.1908209296E-02    0.6953436890E+00    0.1494809615E+00    0.6212274585E-04
    0.7000000000E+04    0.1788600710E-01    0.2156092003E-02    0.6955218846E+00    0.1892068177E+00    0.6330429565E-04
    0.9000000000E+04    0.1883848509E-01    0.2279153614E-02    0.6956207697E+00    0.2225336766E+00    0.6419953084E-04
    0.1100000000E+05    0.1915165265E-01    0.2325057289E-02    0.6956836074E+00    0.2511013377E+00    0.6492256234E-04
    0.1300000000E+05    0.1906706948E-01    0.2322430266E-02    0.6957270415E+00    0.2759964125E+00    0.6553020082E-04
    0.1500000000E+05    0.1873442162E-01    0.2289111736E-02    0.6957588391E+00    0.2979724022E+00    0.6605494649E-04
    0.1700000000E+05    0.1824904555E-01    0.2236537253E-02    0.6957831115E+00    0.3175720222E+00    0.6651717413E-04
    0.1900000000E+05    0.1767290983E-01    0.2172195466E-02    0.6958022385E+00    0.3351988978E+00    0.6693051801E-04
    0.2100000000E+05    0.1704686683E-01    0.2101066218E-02    0.6958176927E+00    0.3511615106E+00    0.6730455991E-04
    0.2300000000E+05    0.1639807159E-01    0.2026493836E-02    0.6958304342E+00    0.3657011896E+00    0.6764629591E-04
    0.2500000000E+05    0.1574461405E-01    0.1950734152E-02    0.6958411157E+00    0.3790105492E+00    0.6796099325E-04
    0.2700000000E+05    0.1509848748E-01    0.1875306320E-02    0.6958501963E+00    0.3912459960E+00    0.6825271859E-04
    0.2900000000E+05    0.1446753328E-01    0.1801224226E-02    0.6958580081E+00    0.4025364409E+00    0.6852467849E-04
    0.3100000000E+05    0.1385673927E-01    0.1729151673E-02    0.6958647977E+00    0.4129895124E+00    0.6877944681E-04
    0.3300000000E+05    0.1326912028E-01    0.1659508143E-02    0.6958707516E+00    0.4226960833E+00    0.6901912155E-04
    0.3500000000E+05    0.1270632352E-01    0.1592541902E-02    0.6958760137E+00    0.4317336331E+00    0.6924543575E-04
    0.3700000000E+05    0.1216904929E-01    0.1528381114E-02    0.6958806967E+00    0.4401687910E+00    0.6945983786E-04
    0.3900000000E+05    0.1165734604E-01    0.1467069930E-02    0.6958848901E+00    0.4480592890E+00    0.6966355101E-04
    0.4100000000E+05    0.1117081876E-01    0.1408594160E-02    0.6958886659E+00    0.4554554847E+00    0.6985761765E-04
    0.4300000000E+05    0.1070877684E-01    0.1352899645E-02    0.6958920829E+00    0.4624015648E+00    0.7004293359E-04
    0.4500000000E+05    0.1027033928E-01    0.1299905460E-02    0.6958951890E+00    0.4689365070E+00    0.7022027439E-04
    0.4700000000E+05    0.9854509643E-02    0.1249513415E-02    0.6958980242E+00    0.4750948586E+00    0.7039031603E-04
    0.4900000000E+05    0.9460229237E-02    0.1201614901E-02    0.6959006220E+00    0.4809073716E+00    0.7055365134E-04
    0.1000000000E+05    0.1905712493E-01    0.2309637290E-02    0.6956553422E+00    0.2373347512E+00    0.6457822750E-04
    0.3000000000E+05    0.1415938976E-01    0.1764905799E-02    0.6958615179E+00    0.4078616202E+00    0.6865407080E-04
    0.5000000000E+05    0.9270831650E-02    0.1178565166E-02    0.6959018409E+00    0.4836926419E+00    0.7063296994E-04
    0.7000000000E+05    0.6362360898E-02    0.8210849739E-03    0.6959187146E+00    0.5265869391E+00    0.7196703586E-04
    0.9000000000E+05    0.4589810153E-02    0.5995555286E-03    0.6959278550E+00    0.5538655742E+00    0.7297971926E-04
    0.1100000000E+06    0.3450482142E-02    0.4553169540E-03    0.6959335192E+00    0.5725890498E+00    0.7379848293E-04
    0.1300000000E+06    0.2681272509E-02    0.3569019058E-03    0.6959373329E+00    0.5861637154E+00    0.7448705054E-04
    0.1500000000E+06    0.2139973899E-02    0.2870239339E-03    0.6959400494E+00    0.5964205150E+00    0.7508197120E-04
    0.1700000000E+06    0.1745706861E-02    0.2357295818E-03    0.6959420646E+00    0.6044243081E+00    0.7560619832E-04
    0.1900000000E+06    0.1450155042E-02    0.1970129705E-03    0.6959436059E+00    0.6108333344E+00    0.7607511123E-04
    0.2100000000E+06    0.1223169229E-02    0.1670946135E-03    0.6959448130E+00    0.6160748251E+00    0.7649952857E-04
    0.2300000000E+06    0.1045210574E-02    0.1435070784E-03    0.6959457763E+00    0.6204373862E+00    0.7688735545E-04
    0.2500000000E+06    0.9031943493E-03    0.1245872092E-03    0.6959465569E+00    0.6241225924E+00    0.7724454714E-04
    0.2700000000E+06    0.7881046206E-03    0.1091823177E-03    0.6959471972E+00    0.6272752673E+00    0.7757570381E-04
    0.2900000000E+06    0.6935722744E-03    0.9647379041E-04    0.6959477278E+00    0.6300020123E+00    0.7788445416E-04
    0.3100000000E+06    0.6149982773E-03    0.8586764674E-04    0.6959481713E+00    0.6323829588E+00    0.7817371198E-04
    0.3300000000E+06    0.5489966808E-03    0.7692461921E-04    0.6959485445E+00    0.6344794573E+00    0.7844585303E-04
    0.3500000000E+06    0.4930312013E-03    0.6931429963E-04    0.6959488603E+00    0.6363392453E+00    0.7870284034E-04
    0.3700000000E+06    0.4451723817E-03    0.6278435590E-04    0.6959491287E+00    0.6380000055E+00    0.7894631492E-04
    0.3900000000E+06    0.4039318136E-03    0.5713942642E-04    0.6959493578E+00    0.6394918685E+00    0.7917766282E-04
    0.4100000000E+06    0.3681467589E-03    0.5222637201E-04    0.6959495537E+00    0.6408392057E+00    0.7939806554E-04
    0.4300000000E+06    0.3368984305E-03    0.4792379091E-04    0.6959497215E+00    0.6420619367E+00    0.7960853854E-04
    0.4500000000E+06    0.3094531841E-03    0.4413444692E-04    0.6959498654E+00    0.6431764976E+00    0.7980996110E-04
    0.4700000000E+06    0.2852195761E-03    0.4077972205E-04    0.6959499889E+00    0.6441965678E+00    0.8000309971E-04
    0.4900000000E+06    0.2637165883E-03    0.3779549873E-04    0.6959500946E+00    0.6451336222E+00    0.8018862664E-04
    0.1000000000E+06    0.3961294097E-02    0.5201899806E-03    0.6959309893E+00    0.5640321494E+00    0.7340847213E-04
    0.3000000000E+06    0.6525255504E-03    0.9093837297E-04    0.6959479593E+00    0.6312315060E+00    0.7803136021E-04
    0.5000000000E+06    0.2538629694E-03    0.3642547577E-04    0.6959501416E+00    0.6455741085E+00    0.8027872377E-04
    0.7000000000E+06    0.1337363583E-03    0.1956312553E-04    0.6959505612E+00    0.6517426452E+00    0.8179423277E-04
    0.9000000000E+06    0.8231319672E-04    0.1221487483E-04    0.6959505035E+00    0.6551675981E+00    0.8294480467E-04
    0.1100000000E+07    0.5570338829E-04    0.8360392268E-05    0.6959502787E+00    0.6573448010E+00    0.8387512311E-04
    0.1300000000E+07    0.4018412386E-04    0.6087579203E-05    0.6959499911E+00    0.6588505895E+00    0.8465754424E-04
    0.1500000000E+07    0.3035392273E-04    0.4634613899E-05    0.6959496824E+00    0.6599538893E+00    0.8533357641E-04
    0.1700000000E+07    0.2373877328E-04    0.3649071518E-05    0.6959493706E+00    0.6607969825E+00    0.8592929091E-04
    0.1900000000E+07    0.1907617980E-04    0.2949580680E-05    0.6959490641E+00    0.6614621799E+00    0.8646215776E-04
    0.2100000000E+07    0.1566734299E-04    0.2435009229E-05    0.6959487668E+00    0.6620003974E+00    0.8694446712E-04
    0.2300000000E+07    0.1310012884E-04    0.2045321658E-05    0.6959484802E+00    0.6624448177E+00    0.8738519987E-04
    0.2500000000E+07    0.1111875197E-04    0.1743038895E-05    0.6959482048E+00    0.6628179904E+00    0.8779112197E-04
    0.2700000000E+07    0.9557666231E-05    0.1503774968E-05    0.6959479405E+00    0.6631357745E+00    0.8816745999E-04
    0.2900000000E+07    0.8305902893E-05    0.1311103805E-05    0.6959476868E+00    0.6634096481E+00    0.8851833689E-04
    0.3100000000E+07    0.7286826744E-05    0.1153630564E-05    0.6959474433E+00    0.6636481233E+00    0.8884706339E-04
    0.3300000000E+07    0.6446138384E-05    0.1023247871E-05    0.6959472094E+00    0.6638576457E+00    0.8915633899E-04
    0.3500000000E+07    0.5744496473E-05    0.9140589202E-06    0.6959469844E+00    0.6640431860E+00    0.8944839422E-04
    0.3700000000E+07    0.5152833546E-05    0.8216910073E-06    0.6959467679E+00    0.6642086385E+00    0.8972509376E-04
    0.3900000000E+07    0.4649297627E-05    0.7428456519E-06    0.6959465592E+00    0.6643570979E+00    0.8998801258E-04
    0.4100000000E+07    0.4217205402E-05    0.6749964584E-06    0.6959463579E+00    0.6644910541E+00    0.9023849324E-04
    0.4300000000E+07    0.3843641983E-05    0.6161817384E-06    0.6959461635E+00    0.6646125334E+00    0.9047768966E-04
    0.4500000000E+07    0.3518483954E-05    0.5648593705E-06    0.6959459755E+00    0.6647232015E+00    0.9070660101E-04
    0.4700000000E+07    0.3233705573E-05    0.5198034207E-06    0.6959457936E+00    0.6648244401E+00    0.9092609827E-04
    0.4900000000E+07    0.2982878091E-05    0.4800293283E-06    0.6959456174E+00    0.6649174051E+00    0.9113694542E-04
    0.1000000000E+07    0.6707324783E-04    0.1001295692E-04    0.6959504032E+00    0.6563653439E+00    0.8343196742E-04
    0.3000000000E+07    0.7771093035E-05    0.1228536177E-05    0.6959475638E+00    0.6635328673E+00    0.8868528779E-04
    0.5000000000E+07    0.2868531332E-05    0.4618674777E-06    0.6959455313E+00    0.6649610956E+00    0.9123933889E-04
    0.7000000000E+07    0.1505792487E-05    0.2436542036E-06    0.6959440392E+00    0.6655725648E+00    0.9296169224E-04
    0.9000000000E+07    0.9408391448E-06    0.1518882186E-06    0.6959428599E+00    0.6659121217E+00    0.9426930906E-04
    0.1100000000E+08    0.6526080056E-06    0.1046312374E-06    0.6959418828E+00    0.6661281603E+00    0.9532661301E-04
    0.1300000000E+08    0.4853901771E-06    0.7704503228E-07    0.6959410470E+00    0.6662777138E+00    0.9621583383E-04
    0.1500000000E+08    0.3794730352E-06    0.5950273663E-07    0.6959403158E+00    0.6663873859E+00    0.9698414457E-04
    0.1700000000E+08    0.3079517772E-06    0.4763057916E-07    0.6959396649E+00    0.6664712565E+00    0.9766117469E-04
    0.1900000000E+08    0.2572436144E-06    0.3920566391E-07    0.6959390780E+00    0.6665374755E+00    0.9826677862E-04
    0.2100000000E+08    0.2198835503E-06    0.3299960093E-07    0.6959385431E+00    0.6665910871E+00    0.9881492402E-04
    0.2300000000E+08    0.1914889780E-06    0.2828795201E-07    0.6959380514E+00    0.6666353806E+00    0.9931581757E-04
    0.2500000000E+08    0.1693472863E-06    0.2462064496E-07    0.6959375961E+00    0.6666725926E+00    0.9977714875E-04
    0.2700000000E+08    0.1517051732E-06    0.2170587199E-07    0.6959371721E+00    0.6667042968E+00    0.1002048576E-03
