  Pressure (Pa) 22mC5-500 (mol/kg) 23mC5-500 (mol/kg) 24mC5-500 (mol/kg) 3mC6-500 (mol/kg) C7-500 (mol/kg)
    0.1000000000E+01    0.1028127711E-04    0.2361170758E-05    0.1741113026E+00    0.2693272449E-05    0.4168152230E-02
    0.3000000000E+01    0.1908032966E-04    0.4367240799E-05    0.3481356422E+00    0.6772885899E-05    0.4192136471E-02
    0.5000000000E+01    0.2283466285E-04    0.5217082891E-05    0.4351161417E+00    0.1049636045E-04    0.4201322539E-02
    0.7000000000E+01    0.2491456769E-04    0.5687197648E-05    0.4872947710E+00    0.1404833602E-04    0.4206472920E-02
    0.9000000000E+01    0.2630685541E-04    0.6003320183E-05    0.5220767046E+00    0.1749059286E-04    0.4209764413E-02
    0.1100000000E+02    0.2738251825E-04    0.6249651518E-05    0.5469191804E+00    0.2085391888E-04    0.4212024785E-02
    0.1300000000E+02    0.2830337287E-04    0.6462593358E-05    0.5655501340E+00    0.2415658981E-04    0.4213648393E-02
    0.1500000000E+02    0.2914719784E-04    0.6659462834E-05    0.5800403772E+00    0.2741062454E-04    0.4214849245E-02
    0.1700000000E+02    0.2995391803E-04    0.6849039351E-05    0.5916322809E+00    0.3062448399E-04    0.4215754203E-02
    0.1900000000E+02    0.3074494278E-04    0.7035958025E-05    0.6011163890E+00    0.3380442190E-04    0.4216443503E-02
    0.2100000000E+02    0.3153205237E-04    0.7222717401E-05    0.6090197016E+00    0.3695523350E-04    0.4216970500E-02
    0.2300000000E+02    0.3232178298E-04    0.7410664158E-05    0.6157070486E+00    0.4008070267E-04    0.4217372112E-02
    0.2500000000E+02    0.3311771480E-04    0.7600503506E-05    0.6214390139E+00    0.4318388491E-04    0.4217674739E-02
    0.2700000000E+02    0.3392172034E-04    0.7792575551E-05    0.6264066865E+00    0.4626729471E-04    0.4217897777E-02
    0.2900000000E+02    0.3473467020E-04    0.7987010230E-05    0.6307533798E+00    0.4933303443E-04    0.4218055809E-02
    0.3100000000E+02    0.3555684360E-04    0.8183816549E-05    0.6345886839E+00    0.5238288567E-04    0.4218160024E-02
    0.3300000000E+02    0.3638817268E-04    0.8382935051E-05    0.6379978345E+00    0.5541837581E-04    0.4218219150E-02
    0.3500000000E+02    0.3722839015E-04    0.8584269117E-05    0.6410481216E+00    0.5844082752E-04    0.4218240105E-02
    0.3700000000E+02    0.3807711966E-04    0.8787703775E-05    0.6437933767E+00    0.6145139638E-04    0.4218228442E-02
    0.3900000000E+02    0.3893393141E-04    0.8993117014E-05    0.6462771771E+00    0.6445109989E-04    0.4218188673E-02
    0.4100000000E+02    0.3979837622E-04    0.9200386524E-05    0.6485351768E+00    0.6744084029E-04    0.4218124505E-02
    0.4300000000E+02    0.4067000632E-04    0.9409393623E-05    0.6505968287E+00    0.7042142258E-04    0.4218039011E-02
    0.4500000000E+02    0.4154838760E-04    0.9620025433E-05    0.6524866768E+00    0.7339356912E-04    0.4217934761E-02
    0.4700000000E+02    0.4243310658E-04    0.9832175975E-05    0.6542253379E+00    0.7635793138E-04    0.4217813923E-02
    0.4900000000E+02    0.4332377404E-04    0.1004574660E-04    0.6558302569E+00    0.7931509972E-04    0.4217678338E-02
    0.1000000000E+02    0.2687132021E-04    0.6132290199E-05    0.5354535985E+00    0.1918078655E-04    0.4210992893E-02
    0.3000000000E+02    0.3514460215E-04    0.8085119490E-05    0.6327291440E+00    0.5085984534E-04    0.4218114049E-02
    0.5000000000E+02    0.4377122382E-04    0.1015303562E-04    0.6565872946E+00    0.8079115592E-04    0.4217605516E-02
    0.7000000000E+02    0.5295776827E-04    0.1235484050E-04    0.6673725450E+00    0.1100432369E-03    0.4215658949E-02
    0.9000000000E+02    0.6246399757E-04    0.1463118671E-04    0.6735190562E+00    0.1389814327E-03    0.4213174642E-02
    0.1100000000E+03    0.7218066700E-04    0.1695610425E-04    0.6774898572E+00    0.1677909225E-03    0.4210423491E-02
    0.1300000000E+03    0.8205672926E-04    0.1931771940E-04    0.6802664573E+00    0.1965838553E-03    0.4207515197E-02
    0.1500000000E+03    0.9206718317E-04    0.2171033656E-04    0.6823171617E+00    0.2254358817E-03    0.4204502229E-02
    0.1700000000E+03    0.1021996827E-03    0.2413121897E-04    0.6838937206E+00    0.2544019751E-03    0.4201412466E-02
    0.1900000000E+03    0.1124484917E-03    0.2657915651E-04    0.6851435334E+00    0.2835243656E-03    0.4198261786E-02
    0.2100000000E+03    0.1228115324E-03    0.2905377423E-04    0.6861586389E+00    0.3128369411E-03    0.4195059652E-02
    0.2300000000E+03    0.1332888486E-03    0.3155517561E-04    0.6869994755E+00    0.3423678772E-03    0.4191811850E-02
    0.2500000000E+03    0.1438817618E-03    0.3408374874E-04    0.6877073706E+00    0.3721413013E-03    0.4188521946E-02
    0.2700000000E+03    0.1545923891E-03    0.3664005641E-04    0.6883115415E+00    0.4021783953E-03    0.4185192103E-02
    0.2900000000E+03    0.1654233581E-03    0.3922477178E-04    0.6888332282E+00    0.4324981540E-03    0.4181823563E-02
    0.3100000000E+03    0.1763776336E-03    0.4183863986E-04    0.6892882421E+00    0.4631179237E-03    0.4178416950E-02
    0.3300000000E+03    0.1874584114E-03    0.4448245399E-04    0.6896885961E+00    0.4940537955E-03    0.4174972454E-02
    0.3500000000E+03    0.1986690514E-03    0.4715704140E-04    0.6900435806E+00    0.5253208984E-03    0.4171489960E-02
    0.3700000000E+03    0.2100130361E-03    0.4986325434E-04    0.6903604936E+00    0.5569336233E-03    0.4167969129E-02
    0.3900000000E+03    0.2214939443E-03    0.5260196473E-04    0.6906451475E+00    0.5889057976E-03    0.4164409457E-02
    0.4100000000E+03    0.2331154360E-03    0.5537406108E-04    0.6909022287E+00    0.6212508225E-03    0.4160810311E-02
    0.4300000000E+03    0.2448812428E-03    0.5818044680E-04    0.6911355580E+00    0.6539817842E-03    0.4157170960E-02
    0.4500000000E+03    0.2567951638E-03    0.6102203950E-04    0.6913482813E+00    0.6871115439E-03    0.4153490595E-02
    0.4700000000E+03    0.2688610635E-03    0.6389977095E-04    0.6915430124E+00    0.7206528135E-03    0.4149768342E-02
    0.4900000000E+03    0.2810828729E-03    0.6681458740E-04    0.6917219411E+00    0.7546182177E-03    0.4146003272E-02
    0.1000000000E+03    0.6730006893E-04    0.1578851928E-04    0.6756972090E+00    0.1533941271E-03    0.4211823587E-02
    0.3000000000E+03    0.1708848872E-03    0.4052801308E-04    0.6890682442E+00    0.4477695062E-03    0.4180124996E-02
    0.5000000000E+03    0.2872534906E-03    0.6828620231E-04    0.6918060686E+00    0.7717639052E-03    0.4144104378E-02
    0.7000000000E+03    0.4198769902E-03    0.9991158159E-04    0.6929859104E+00    0.1140073763E-02    0.4103617684E-02
    0.9000000000E+03    0.5732936527E-03    0.1364911373E-03    0.6936429859E+00    0.1566235857E-02    0.4057490539E-02
    0.1100000000E+04    0.7532580944E-03    0.1793989924E-03    0.6940616769E+00    0.2066683844E-02    0.4004187041E-02
    0.1300000000E+04    0.9673720074E-03    0.2304489094E-03    0.6943517627E+00    0.2662939500E-02    0.3941699096E-02
    0.1500000000E+04    0.1225966770E-02    0.2921054013E-03    0.6945645890E+00    0.3384215864E-02    0.3867337198E-02
    0.1700000000E+04    0.1543405550E-02    0.3677945879E-03    0.6947273804E+00    0.4271161926E-02    0.3777420590E-02
    0.1900000000E+04    0.1940050236E-02    0.4623736091E-03    0.6948559160E+00    0.5381506907E-02    0.3666821407E-02
    0.2100000000E+04    0.2445222733E-02    0.5828373666E-03    0.6949599718E+00    0.6798589043E-02    0.3528306095E-02
    0.2300000000E+04    0.3101478772E-02    0.7393387397E-03    0.6950459276E+00    0.8643761082E-02    0.3351648974E-02
    0.2500000000E+04    0.3969969339E-02    0.9464691162E-03    0.6951181239E+00    0.1109222282E-01    0.3122688535E-02
    0.2700000000E+04    0.5134147652E-02    0.1224146118E-02    0.6951796162E+00    0.1438487296E-01    0.2823226314E-02
    0.2900000000E+04    0.6690995964E-02    0.1595527528E-02    0.6952326179E+00    0.1880599878E-01    0.2434735507E-02
    0.3100000000E+04    0.8702458522E-02    0.2075435546E-02    0.6952787716E+00    0.2454913447E-01    0.1952389755E-02
    0.3300000000E+04    0.1108150974E-01    0.2643180973E-02    0.6953193222E+00    0.3139442332E-01    0.1412936763E-02
    0.3500000000E+04    0.1350329766E-01    0.3221336323E-02    0.6953552299E+00    0.3844460789E-01    0.9083660187E-03
    0.3700000000E+04    0.1557269869E-01    0.3715650818E-02    0.6953872475E+00    0.4457979197E-01    0.5320615303E-03
    0.3900000000E+04    0.1713257677E-01    0.4088583206E-02    0.6954159736E+00    0.4933217763E-01    0.3049959519E-03
    0.4100000000E+04    0.1827825715E-01    0.4362810879E-02    0.6954418899E+00    0.5294881251E-01    0.1870966315E-03
    0.4300000000E+04    0.1916736201E-01    0.4575898424E-02    0.6954653885E+00    0.5586376509E-01    0.1309289006E-03
    0.4500000000E+04    0.1991458494E-01    0.4755191144E-02    0.6954867920E+00    0.5839731643E-01    0.1053093535E-03
    0.4700000000E+04    0.2058415463E-01    0.4916005602E-02    0.6955063677E+00    0.6073007543E-01    0.9388296903E-04
    0.4900000000E+04    0.2120839535E-01    0.5066050663E-02    0.6955243398E+00    0.6295319314E-01    0.8887248667E-04
    0.1000000000E+04    0.6595343657E-03    0.1570530750E-03    0.6938732160E+00    0.1805974790E-02    0.4031848231E-02
    0.3000000000E+04    0.7640149624E-02    0.1821971195E-02    0.6952564652E+00    0.2151149439E-01    0.2204346720E-02
    0.5000000000E+04    0.2150878761E-01    0.5138291434E-02    0.6955327846E+00    0.6403846914E-01    0.8757185182E-04
    0.7000000000E+04    0.2661830430E-01    0.6370709534E-02    0.6956508212E+00    0.8406457809E-01    0.8633799881E-04
    0.9000000000E+04    0.3050259330E-01    0.7313379431E-02    0.6957161515E+00    0.1018937318E+00    0.8755528031E-04
    0.1100000000E+05    0.3347957235E-01    0.8040951986E-02    0.6957575592E+00    0.1180014762E+00    0.8853979956E-04
    0.1300000000E+05    0.3576403568E-01    0.8603893557E-02    0.6957861065E+00    0.1327062156E+00    0.8936741981E-04
    0.1500000000E+05    0.3751157156E-01    0.9038814423E-02    0.6958069514E+00    0.1462473661E+00    0.9008227389E-04
    0.1700000000E+05    0.3883724516E-01    0.9372832508E-02    0.6958228213E+00    0.1588087141E+00    0.9071204874E-04
    0.1900000000E+05    0.3982769968E-01    0.9626401554E-02    0.6958352939E+00    0.1705339112E+00    0.9127528091E-04
    0.2100000000E+05    0.4054921455E-01    0.9815195691E-02    0.6958453446E+00    0.1815370437E+00    0.9178500233E-04
    0.2300000000E+05    0.4105320217E-01    0.9951395825E-02    0.6958536087E+00    0.1919100135E+00    0.9225073101E-04
    0.2500000000E+05    0.4138003784E-01    0.1004458664E-01    0.6958605178E+00    0.2017278014E+00    0.9267963463E-04
    0.2700000000E+05    0.4156177969E-01    0.1010239409E-01    0.6958663751E+00    0.2110522912E+00    0.9307724820E-04
    0.2900000000E+05    0.4162413345E-01    0.1013094627E-01    0.6958714001E+00    0.2199350944E+00    0.9344793678E-04
    0.3100000000E+05    0.4158789379E-01    0.1013521181E-01    0.6958757552E+00    0.2284196691E+00    0.9379520466E-04
    0.3300000000E+05    0.4147001641E-01    0.1011925173E-01    0.6958795635E+00    0.2365429300E+00    0.9412190856E-04
    0.3500000000E+05    0.4128442593E-01    0.1008640950E-01    0.6958829195E+00    0.2443364892E+00    0.9443040853E-04
    0.3700000000E+05    0.4104263150E-01    0.1003945590E-01    0.6958858976E+00    0.2518276208E+00    0.9472267721E-04
    0.3900000000E+05    0.4075420122E-01    0.9980700801E-02    0.6958885566E+00    0.2590400207E+00    0.9500038055E-04
    0.4100000000E+05    0.4042713118E-01    0.9912080237E-02    0.6958909437E+00    0.2659944103E+00    0.9526493847E-04
    0.4300000000E+05    0.4006813523E-01    0.9835224784E-02    0.6958930975E+00    0.2727090196E+00    0.9551757127E-04
    0.4500000000E+05    0.3968287443E-01    0.9751513799E-02    0.6958950494E+00    0.2791999784E+00    0.9575933546E-04
    0.4700000000E+05    0.3927614010E-01    0.9662118735E-02    0.6958968258E+00    0.2854816341E+00    0.9599115199E-04
    0.4900000000E+05    0.3885200103E-01    0.9568038002E-02    0.6958984483E+00    0.2915668130E+00    0.9621382853E-04
    0.1000000000E+05    0.3208940431E-01    0.7700508601E-02    0.6957389466E+00    0.1101406825E+00    0.8807089386E-04
    0.3000000000E+05    0.4161719864E-01    0.1013584227E-01    0.6958736529E+00    0.2242247159E+00    0.9362430660E-04
    0.5000000000E+05    0.3863450845E-01    0.9519512261E-02    0.6958992078E+00    0.2945393698E+00    0.9632196521E-04
    0.7000000000E+05    0.3398272448E-01    0.8454944474E-02    0.6959095659E+00    0.3459500226E+00    0.9814080141E-04
    0.9000000000E+05    0.2951557591E-01    0.7405193897E-02    0.6959149851E+00    0.3859967001E+00    0.9952154738E-04
    0.1100000000E+06    0.2561087699E-01    0.6473063281E-02    0.6959182170E+00    0.4182066727E+00    0.1006379273E-03
    0.1300000000E+06    0.2229497858E-01    0.5672248289E-02    0.6959203025E+00    0.4446404112E+00    0.1015768040E-03
    0.1500000000E+06    0.1950347551E-01    0.4991727501E-02    0.6959217193E+00    0.4666556548E+00    0.1023880019E-03
    0.1700000000E+06    0.1715508385E-01    0.4414664615E-02    0.6959227157E+00    0.4852099065E+00    0.1031028133E-03
    0.1900000000E+06    0.1517377909E-01    0.3924421718E-02    0.6959234331E+00    0.5010064994E+00    0.1037422056E-03
    0.2100000000E+06    0.1349456579E-01    0.3506360700E-02    0.6959239574E+00    0.5145760182E+00    0.1043209286E-03
    0.2300000000E+06    0.1206382452E-01    0.3148176879E-02    0.6959243435E+00    0.5263264427E+00    0.1048497603E-03
    0.2500000000E+06    0.1083797403E-01    0.2839730183E-02    0.6959246282E+00    0.5365761689E+00    0.1053368203E-03
    0.2700000000E+06    0.9781778637E-02    0.2572732506E-02    0.6959248366E+00    0.5455767537E+00    0.1057883809E-03
    0.2900000000E+06    0.8866760520E-02    0.2340424755E-02    0.6959249869E+00    0.5535290778E+00    0.1062093896E-03
    0.3100000000E+06    0.8069850492E-02    0.2137289379E-02    0.6959250920E+00    0.5605950900E+00    0.1066038193E-03
    0.3300000000E+06    0.7372289790E-02    0.1958809634E-02    0.6959251615E+00    0.5669064914E+00    0.1069749094E-03
    0.3500000000E+06    0.6758754182E-02    0.1801273751E-02    0.6959252029E+00    0.5725712457E+00    0.1073253364E-03
    0.3700000000E+06    0.6216661912E-02    0.1661617904E-02    0.6959252217E+00    0.5776785193E+00    0.1076573381E-03
    0.3900000000E+06    0.5735628781E-02    0.1537301081E-02    0.6959252222E+00    0.5823024676E+00    0.1079728041E-03
    0.4100000000E+06    0.5307039093E-02    0.1426205600E-02    0.6959252079E+00    0.5865051658E+00    0.1082733457E-03
    0.4300000000E+06    0.4923707127E-02    0.1326557970E-02    0.6959251815E+00    0.5903388962E+00    0.1085603473E-03
    0.4500000000E+06    0.4579609181E-02    0.1236865789E-02    0.6959251451E+00    0.5938479481E+00    0.1088350080E-03
    0.4700000000E+06    0.4269670605E-02    0.1155867281E-02    0.6959251005E+00    0.5970700443E+00    0.1090983728E-03
    0.4900000000E+06    0.3989595786E-02    0.1082490773E-02    0.6959250492E+00    0.6000374802E+00    0.1093513584E-03
    0.1000000000E+06    0.2748760800E-01    0.6922603640E-02    0.6959167895E+00    0.4029306360E+00    0.1001061464E-03
    0.3000000000E+06    0.8454804185E-02    0.2235513772E-02    0.6959250444E+00    0.5571640178E+00    0.1064097094E-03
    0.5000000000E+06    0.3859593794E-02    0.1048369681E-02    0.6959250214E+00    0.6014345380E+00    0.1094742155E-03
    0.7000000000E+06    0.2178376774E-02    0.6028314125E-03    0.6959243074E+00    0.6210520734E+00    0.1115407782E-03
    0.9000000000E+06    0.1391851272E-02    0.3906923081E-03    0.6959235161E+00    0.6318690199E+00    0.1131097133E-03
    0.1100000000E+07    0.9638061628E-03    0.2736707394E-03    0.6959227585E+00    0.6386541825E+00    0.1143783093E-03
    0.1300000000E+07    0.7059680423E-03    0.2024028360E-03    0.6959220563E+00    0.6432843079E+00    0.1154452311E-03
    0.1500000000E+07    0.5389551419E-03    0.1558099757E-03    0.6959214099E+00    0.6466359952E+00    0.1163670795E-03
    0.1700000000E+07    0.4247147695E-03    0.1236831308E-03    0.6959208142E+00    0.6491702272E+00    0.1171794055E-03
    0.1900000000E+07    0.3431895090E-03    0.1005940496E-03    0.6959202633E+00    0.6511514230E+00    0.1179060315E-03
    0.2100000000E+07    0.2830055806E-03    0.8344120907E-04    0.6959197517E+00    0.6527416584E+00    0.1185637164E-03
    0.2300000000E+07    0.2373280306E-03    0.7034827439E-04    0.6959192744E+00    0.6540456145E+00    0.1191647068E-03
    0.2500000000E+07    0.2018509297E-03    0.6012606873E-04    0.6959188274E+00    0.6551338234E+00    0.1197182288E-03
    0.2700000000E+07    0.1737532639E-03    0.5199125762E-04    0.6959184071E+00    0.6560554968E+00    0.1202314094E-03
    0.2900000000E+07    0.1511248145E-03    0.4541076778E-04    0.6959180106E+00    0.6568459903E+00    0.1207098708E-03
    0.3100000000E+07    0.1326350779E-03    0.4001159536E-04    0.6959176353E+00    0.6575313454E+00    0.1211581275E-03
    0.3300000000E+07    0.1173344443E-03    0.3552638313E-04    0.6959172792E+00    0.6581311595E+00    0.1215798606E-03
    0.3500000000E+07    0.1045305611E-03    0.3175942723E-04    0.6959169403E+00    0.6586604573E+00    0.1219781117E-03
    0.3700000000E+07    0.9370907661E-04    0.2856479611E-04    0.6959166170E+00    0.6591309488E+00    0.1223554234E-03
    0.3900000000E+07    0.8448145750E-04    0.2583186854E-04    0.6959163079E+00    0.6595518932E+00    0.1227139436E-03
    0.4100000000E+07    0.7654981018E-04    0.2347554871E-04    0.6959160119E+00    0.6599307068E+00    0.1230555029E-03
    0.4300000000E+07    0.6968265821E-04    0.2142950591E-04    0.6959157278E+00    0.6602733994E+00    0.1233816747E-03
    0.4500000000E+07    0.6369794499E-04    0.1964141536E-04    0.6959154548E+00    0.6605848917E+00    0.1236938217E-03
    0.4700000000E+07    0.5845090052E-04    0.1806955070E-04    0.6959151919E+00    0.6608692509E+00    0.1239931314E-03
    0.4900000000E+07    0.5382524486E-04    0.1668030628E-04    0.6959149384E+00    0.6611298680E+00    0.1242806457E-03
    0.1000000000E+07    0.1148714008E-02    0.3243929166E-03    0.6959231309E+00    0.6356133113E+00    0.1137740155E-03
    0.3000000000E+07    0.1414291632E-03    0.4258223012E-04    0.6959178205E+00    0.6572004599E+00    0.1209375277E-03
    0.5000000000E+07    0.5171526265E-04    0.1604542569E-04    0.6959148150E+00    0.6612521819E+00    0.1244202709E-03
    0.7000000000E+07    0.2652371480E-04    0.8392602938E-05    0.6959127120E+00    0.6629524926E+00    0.1267688964E-03
    0.9000000000E+07    0.1608323769E-04    0.5163336786E-05    0.6959110871E+00    0.6638870922E+00    0.1285519800E-03
    0.1100000000E+08    0.1078095601E-04    0.3500770623E-05    0.6959097593E+00    0.6644779953E+00    0.1299937330E-03
    0.1300000000E+08    0.7726296910E-05    0.2532349737E-05    0.6959086347E+00    0.6648853008E+00    0.1312062852E-03
    0.1500000000E+08    0.5808123540E-05    0.1918591398E-05    0.6959076579E+00    0.6651830553E+00    0.1322539626E-03
    0.1700000000E+08    0.4525615649E-05    0.1504958999E-05    0.6959067938E+00    0.6654102118E+00    0.1331771684E-03
    0.1900000000E+08    0.3626166264E-05    0.1212847775E-05    0.6959060183E+00    0.6655892152E+00    0.1340029766E-03
    0.2100000000E+08    0.2971191478E-05    0.9988169404E-06    0.6959053145E+00    0.6657339087E+00    0.1347504334E-03
    0.2300000000E+08    0.2479527672E-05    0.8372591327E-06    0.6959046699E+00    0.6658532935E+00    0.1354334571E-03
    0.2500000000E+08    0.2101085984E-05    0.7122788065E-06    0.6959040751E+00    0.6659534757E+00    0.1360625329E-03
    0.2700000000E+08    0.1803599741E-05    0.6135819456E-06    0.6959035228E+00    0.6660387436E+00    0.1366457609E-03
