  Pressure (Pa) 22mC5-500 (mol/kg) 23mC5-500 (mol/kg) 24mC5-500 (mol/kg) 3mC6-500 (mol/kg) C7-500 (mol/kg)
    0.1000000000E+01    0.1195403880E-04    0.1144167833E-05    0.1950017587E+00    0.4082537626E-05    0.4145921927E-02
    0.3000000000E+01    0.2130457791E-04    0.2032313152E-05    0.3749120666E+00    0.1007246996E-04    0.4170312886E-02
    0.5000000000E+01    0.2514428930E-04    0.2395031069E-05    0.4597460895E+00    0.1549997218E-04    0.4176460639E-02
    0.7000000000E+01    0.2733326763E-04    0.2602362646E-05    0.5091189433E+00    0.2066078830E-04    0.4179222954E-02
    0.9000000000E+01    0.2889352255E-04    0.2751434964E-05    0.5414216186E+00    0.2565268136E-04    0.4180671617E-02
    0.1100000000E+02    0.3018422044E-04    0.2876053324E-05    0.5642021829E+00    0.3052405310E-04    0.4181461962E-02
    0.1300000000E+02    0.3135364994E-04    0.2990019066E-05    0.5811302142E+00    0.3530350228E-04    0.4181873404E-02
    0.1500000000E+02    0.3246953993E-04    0.3099550481E-05    0.5942043719E+00    0.4000976905E-04    0.4182046529E-02
    0.1700000000E+02    0.3356486737E-04    0.3207623017E-05    0.6046062530E+00    0.4465600709E-04    0.4182060121E-02
    0.1900000000E+02    0.3465628170E-04    0.3315703752E-05    0.6130792031E+00    0.4925191455E-04    0.4181961857E-02
    0.2100000000E+02    0.3575227548E-04    0.3424515145E-05    0.6201142587E+00    0.5380491180E-04    0.4181782296E-02
    0.2300000000E+02    0.3685708419E-04    0.3534396687E-05    0.6260488243E+00    0.5832084325E-04    0.4181541936E-02
    0.2500000000E+02    0.3797265571E-04    0.3645485906E-05    0.6311223976E+00    0.6280442046E-04    0.4181255028E-02
    0.2700000000E+02    0.3909968954E-04    0.3757812863E-05    0.6355096809E+00    0.6725951507E-04    0.4180931785E-02
    0.2900000000E+02    0.4023820377E-04    0.3871351073E-05    0.6393411054E+00    0.7168935993E-04    0.4180579712E-02
    0.3100000000E+02    0.4138785216E-04    0.3986045543E-05    0.6427160196E+00    0.7609669145E-04    0.4180204438E-02
    0.3300000000E+02    0.4254810447E-04    0.4101828405E-05    0.6457114274E+00    0.8048385310E-04    0.4179810267E-02
    0.3500000000E+02    0.4371834973E-04    0.4218627647E-05    0.6483879357E+00    0.8485287243E-04    0.4179400541E-02
    0.3700000000E+02    0.4489795528E-04    0.4336371916E-05    0.6507938985E+00    0.8920551934E-04    0.4178977891E-02
    0.3900000000E+02    0.4608629997E-04    0.4454993079E-05    0.6529683641E+00    0.9354335120E-04    0.4178544414E-02
    0.4100000000E+02    0.4728279208E-04    0.4574427475E-05    0.6549432113E+00    0.9786774802E-04    0.4178101801E-02
    0.4300000000E+02    0.4848687816E-04    0.4694616412E-05    0.6567447223E+00    0.1021799405E-03    0.4177651426E-02
    0.4500000000E+02    0.4969804661E-04    0.4815506238E-05    0.6583947595E+00    0.1064810323E-03    0.4177194418E-02
    0.4700000000E+02    0.5091582802E-04    0.4937048174E-05    0.6599116568E+00    0.1107720187E-03    0.4176731710E-02
    0.4900000000E+02    0.5213979382E-04    0.5059198023E-05    0.6613109042E+00    0.1150538011E-03    0.4176264081E-02
    0.1000000000E+02    0.2956054008E-04    0.2815677951E-05    0.5537180751E+00    0.2810133971E-04    0.4181126878E-02
    0.3000000000E+02    0.4081166651E-04    0.3928557842E-05    0.6410803703E+00    0.7389568519E-04    0.4180394680E-02
    0.5000000000E+02    0.5275397255E-04    0.5120488271E-05    0.6619706053E+00    0.1171914999E-03    0.4176028629E-02
    0.7000000000E+02    0.6528522594E-04    0.6370396331E-05    0.6713468159E+00    0.1596281078E-03    0.4171174618E-02
    0.9000000000E+02    0.7816231192E-04    0.7653687568E-05    0.6766717539E+00    0.2017636697E-03    0.4166186180E-02
    0.1100000000E+03    0.9129080007E-04    0.8961154203E-05    0.6801046875E+00    0.2438824257E-03    0.4161144676E-02
    0.1300000000E+03    0.1046332069E-03    0.1028925591E-04    0.6825018886E+00    0.2861585060E-03    0.4156072088E-02
    0.1500000000E+03    0.1181756366E-03    0.1163675171E-04    0.6842706539E+00    0.3287114673E-03    0.4150972827E-02
    0.1700000000E+03    0.1319149570E-03    0.1300343208E-04    0.6856294706E+00    0.3716302401E-03    0.4145845297E-02
    0.1900000000E+03    0.1458533374E-03    0.1438958705E-04    0.6867060620E+00    0.4149850989E-03    0.4140685751E-02
    0.2100000000E+03    0.1599957212E-03    0.1579576323E-04    0.6875800847E+00    0.4588342858E-03    0.4135489737E-02
    0.2300000000E+03    0.1743485804E-03    0.1722264571E-04    0.6883037958E+00    0.5032279641E-03    0.4130252655E-02
    0.2500000000E+03    0.1889192734E-03    0.1867099809E-04    0.6889129011E+00    0.5482107195E-03    0.4124969981E-02
    0.2700000000E+03    0.2037157049E-03    0.2014163125E-04    0.6894326267E+00    0.5938232198E-03    0.4119637343E-02
    0.2900000000E+03    0.2187461432E-03    0.2163538701E-04    0.6898813015E+00    0.6401033611E-03    0.4114250536E-02
    0.3100000000E+03    0.2340191239E-03    0.2315312984E-04    0.6902725634E+00    0.6870870860E-03    0.4108805508E-02
    0.3300000000E+03    0.2495434016E-03    0.2469574298E-04    0.6906167697E+00    0.7348089869E-03    0.4103298344E-02
    0.3500000000E+03    0.2653279297E-03    0.2626412707E-04    0.6909219278E+00    0.7833027617E-03    0.4097725236E-02
    0.3700000000E+03    0.2813818559E-03    0.2785920019E-04    0.6911943257E+00    0.8326015682E-03    0.4092082465E-02
    0.3900000000E+03    0.2977145276E-03    0.2948189883E-04    0.6914389702E+00    0.8827383059E-03    0.4086366372E-02
    0.4100000000E+03    0.3143355032E-03    0.3113317924E-04    0.6916598972E+00    0.9337458453E-03    0.4080573343E-02
    0.4300000000E+03    0.3312545669E-03    0.3281401915E-04    0.6918603961E+00    0.9856572187E-03    0.4074699787E-02
    0.4500000000E+03    0.3484817455E-03    0.3452541961E-04    0.6920431752E+00    0.1038505784E-02    0.4068742122E-02
    0.4700000000E+03    0.3660273271E-03    0.3626840694E-04    0.6922104841E+00    0.1092325364E-02    0.4062696756E-02
    0.4900000000E+03    0.3839018802E-03    0.3804403481E-04    0.6923642070E+00    0.1147150374E-02    0.4056560079E-02
    0.1000000000E+03    0.8469826320E-04    0.8304697707E-05    0.6785555520E+00    0.2228125707E-03    0.4163670038E-02
    0.3000000000E+03    0.2263517734E-03    0.2239120526E-04    0.6900833975E+00    0.6635050878E-03    0.4111535547E-02
    0.5000000000E+03    0.3929659054E-03    0.3894442620E-04    0.6924364806E+00    0.1174950861E-02    0.4053456360E-02
    0.7000000000E+03    0.5943950327E-03    0.5895237928E-04    0.6934499076E+00    0.1792932089E-02    0.3985656889E-02
    0.9000000000E+03    0.8440772988E-03    0.8375210297E-04    0.6940142045E+00    0.2560005979E-02    0.3903944352E-02
    0.1100000000E+04    0.1161485234E-02    0.1152790114E-03    0.6943737704E+00    0.3537061139E-02    0.3802649156E-02
    0.1300000000E+04    0.1576154442E-02    0.1564681669E-03    0.6946229069E+00    0.4816415910E-02    0.3673482826E-02
    0.1500000000E+04    0.2134351090E-02    0.2119172877E-03    0.6948057092E+00    0.6543016192E-02    0.3503857313E-02
    0.1700000000E+04    0.2909921886E-02    0.2889656466E-03    0.6949455537E+00    0.8949097327E-02    0.3274386462E-02
    0.1900000000E+04    0.4019230365E-02    0.3991801296E-03    0.6950559877E+00    0.1240279909E-01    0.2956070359E-02
    0.2100000000E+04    0.5627577243E-02    0.5589978919E-03    0.6951454041E+00    0.1743302992E-01    0.2511640528E-02
    0.2300000000E+04    0.7886231460E-02    0.7834785031E-03    0.6952192798E+00    0.2454196616E-01    0.1918403519E-02
    0.2500000000E+04    0.1068285567E-01    0.1061509538E-02    0.6952813410E+00    0.3342986729E-01    0.1237611948E-02
    0.2700000000E+04    0.1341344600E-01    0.1333113505E-02    0.6953342109E+00    0.4224994796E-01    0.6524040287E-03
    0.2900000000E+04    0.1549368099E-01    0.1540210319E-02    0.6953797895E+00    0.4915753698E-01    0.2986129580E-03
    0.3100000000E+04    0.1692874324E-01    0.1683267391E-02    0.6954194871E+00    0.5412088943E-01    0.1365952360E-03
    0.3300000000E+04    0.1798938964E-01    0.1789160690E-02    0.6954543722E+00    0.5795818485E-01    0.7283677337E-04
    0.3500000000E+04    0.1887069868E-01    0.1877265490E-02    0.6954852695E+00    0.6127050034E-01    0.4931840398E-04
    0.3700000000E+04    0.1966493782E-01    0.1956747831E-02    0.6955128253E+00    0.6434430212E-01    0.4086661832E-04
    0.3900000000E+04    0.2041012192E-01    0.2031384064E-02    0.6955375533E+00    0.6729763100E-01    0.3788301677E-04
    0.4100000000E+04    0.2112147224E-01    0.2102685506E-02    0.6955598673E+00    0.7017712229E-01    0.3686673702E-04
    0.4300000000E+04    0.2180532013E-01    0.2171279902E-02    0.6955801040E+00    0.7300137768E-01    0.3655721503E-04
    0.4500000000E+04    0.2246460278E-01    0.2237457630E-02    0.6955985402E+00    0.7577826049E-01    0.3650115392E-04
    0.4700000000E+04    0.2310095649E-01    0.2301379786E-02    0.6956154059E+00    0.7851153410E-01    0.3653510888E-04
    0.4900000000E+04    0.2371550490E-01    0.2363156561E-02    0.6956308932E+00    0.8120337918E-01    0.3659994519E-04
    0.1000000000E+04    0.9927670266E-03    0.9852077265E-04    0.6942119214E+00    0.3017448614E-02    0.3856185074E-02
    0.3000000000E+04    0.1627505210E-01    0.1618076195E-02    0.6954002999E+00    0.5183210116E-01    0.1999465017E-03
    0.5000000000E+04    0.2401489058E-01    0.2393268652E-02    0.6956381716E+00    0.8253426326E-01    0.3663656933E-04
    0.7000000000E+04    0.2904268286E-01    0.2900941107E-02    0.6957400115E+00    0.1072714786E+00    0.3732336669E-04
    0.9000000000E+04    0.3262437120E-01    0.3265841011E-02    0.6957965073E+00    0.1290204288E+00    0.3784986333E-04
    0.1100000000E+05    0.3517007965E-01    0.3528094713E-02    0.6958324000E+00    0.1484381196E+00    0.3827531550E-04
    0.1300000000E+05    0.3695719087E-01    0.3714893189E-02    0.6958572046E+00    0.1659903652E+00    0.3863299226E-04
    0.1500000000E+05    0.3817889515E-01    0.3845213693E-02    0.6958753607E+00    0.1820174080E+00    0.3894195094E-04
    0.1700000000E+05    0.3897311027E-01    0.3932634443E-02    0.6958892178E+00    0.1967741421E+00    0.3921414935E-04
    0.1900000000E+05    0.3944039236E-01    0.3987079275E-02    0.6959001359E+00    0.2104557639E+00    0.3945759441E-04
    0.2100000000E+05    0.3965539762E-01    0.4015935087E-02    0.6959089562E+00    0.2232146636E+00    0.3967791591E-04
    0.2300000000E+05    0.3967442859E-01    0.4024788253E-02    0.6959162273E+00    0.2351718631E+00    0.3987922597E-04
    0.2500000000E+05    0.3954052801E-01    0.4017922209E-02    0.6959223221E+00    0.2464249510E+00    0.4006462148E-04
    0.2700000000E+05    0.3928699378E-01    0.3998661180E-02    0.6959275028E+00    0.2570537098E+00    0.4023649407E-04
    0.2900000000E+05    0.3893985247E-01    0.3969612327E-02    0.6959319591E+00    0.2671241814E+00    0.4039672990E-04
    0.3100000000E+05    0.3851963082E-01    0.3932839381E-02    0.6959358317E+00    0.2766916576E+00    0.4054684326E-04
    0.3300000000E+05    0.3804264458E-01    0.3889989135E-02    0.6959392273E+00    0.2858029122E+00    0.4068806867E-04
    0.3500000000E+05    0.3752194988E-01    0.3842384917E-02    0.6959422280E+00    0.2944978917E+00    0.4082142601E-04
    0.3700000000E+05    0.3696805444E-01    0.3791096589E-02    0.6959448982E+00    0.3028110125E+00    0.4094776780E-04
    0.3900000000E+05    0.3638945584E-01    0.3736993583E-02    0.6959472889E+00    0.3107721667E+00    0.4106781401E-04
    0.4100000000E+05    0.3579305310E-01    0.3680785530E-02    0.6959494413E+00    0.3184075119E+00    0.4118217831E-04
    0.4300000000E+05    0.3518446472E-01    0.3623053696E-02    0.6959513889E+00    0.3257400966E+00    0.4129138809E-04
    0.4500000000E+05    0.3456827661E-01    0.3564275533E-02    0.6959531592E+00    0.3327903601E+00    0.4139589998E-04
    0.4700000000E+05    0.3394823694E-01    0.3504844013E-02    0.6959547749E+00    0.3395765360E+00    0.4149611201E-04
    0.4900000000E+05    0.3332741069E-01    0.3445082984E-02    0.6959562551E+00    0.3461149798E+00    0.4159237326E-04
    0.1000000000E+05    0.3400696949E-01    0.3407863521E-02    0.6958162559E+00    0.1389880169E+00    0.3807267689E-04
    0.3000000000E+05    0.3873777078E-01    0.3952079899E-02    0.6959339610E+00    0.2719676929E+00    0.4047296904E-04
    0.5000000000E+05    0.3301750442E-01    0.3415164275E-02    0.6959569495E+00    0.3492959669E+00    0.4163911999E-04
    0.7000000000E+05    0.2718141312E-01    0.2843355764E-02    0.6959665582E+00    0.4028463127E+00    0.4242540032E-04
    0.9000000000E+05    0.2237288883E-01    0.2362822401E-02    0.6959717573E+00    0.4424274907E+00    0.4302230529E-04
    0.1100000000E+06    0.1856883541E-01    0.1977417371E-02    0.6959749753E+00    0.4727727060E+00    0.4350492820E-04
    0.1300000000E+06    0.1557441914E-01    0.1670747811E-02    0.6959771395E+00    0.4966446615E+00    0.4391081736E-04
    0.1500000000E+06    0.1320325056E-01    0.1425713425E-02    0.6959786791E+00    0.5158117691E+00    0.4426151103E-04
    0.1700000000E+06    0.1130733597E-01    0.1228267576E-02    0.6959798197E+00    0.5314670473E+00    0.4457053647E-04
    0.1900000000E+06    0.9774993603E-02    0.1067592884E-02    0.6959806909E+00    0.5444440827E+00    0.4484695772E-04
    0.2100000000E+06    0.8523068713E-02    0.9355181677E-03    0.6959813722E+00    0.5553409753E+00    0.4509715115E-04
    0.2300000000E+06    0.7489613050E-02    0.8258875238E-03    0.6959819150E+00    0.5645962848E+00    0.4532577607E-04
    0.2500000000E+06    0.6628177571E-02    0.7340426166E-03    0.6959823542E+00    0.5725376378E+00    0.4553634261E-04
    0.2700000000E+06    0.5903618933E-02    0.6564313124E-03    0.6959827137E+00    0.5794138441E+00    0.4573156225E-04
    0.2900000000E+06    0.5289079730E-02    0.5903204507E-03    0.6959830111E+00    0.5854166597E+00    0.4591357388E-04
    0.3100000000E+06    0.4763823243E-02    0.5335869717E-03    0.6959832592E+00    0.5906958507E+00    0.4608409503E-04
    0.3300000000E+06    0.4311676108E-02    0.4845660065E-03    0.6959834674E+00    0.5953698141E+00    0.4624452610E-04
    0.3500000000E+06    0.3919900733E-02    0.4419398715E-03    0.6959836432E+00    0.5995331916E+00    0.4639602421E-04
    0.3700000000E+06    0.3578371946E-02    0.4046563791E-03    0.6959837922E+00    0.6032624093E+00    0.4653955668E-04
    0.3900000000E+06    0.3278970230E-02    0.3718682255E-03    0.6959839190E+00    0.6066197646E+00    0.4667594053E-04
    0.4100000000E+06    0.3015130304E-02    0.3428876250E-03    0.6959840270E+00    0.6096564792E+00    0.4680587224E-04
    0.4300000000E+06    0.2781502095E-02    0.3171520544E-03    0.6959841192E+00    0.6124150067E+00    0.4692995038E-04
    0.4500000000E+06    0.2573693760E-02    0.2941981608E-03    0.6959841980E+00    0.6149307958E+00    0.4704869329E-04
    0.4700000000E+06    0.2388075161E-02    0.2736417165E-03    0.6959842652E+00    0.6172336510E+00    0.4716255278E-04
    0.4900000000E+06    0.2221626270E-02    0.2551620945E-03    0.6959843225E+00    0.6193487933E+00    0.4727192515E-04
    0.1000000000E+06    0.2035684940E-01    0.2159141019E-02    0.6959735385E+00    0.4585514183E+00    0.4327503314E-04
    0.3000000000E+06    0.5016393977E-02    0.5608948634E-03    0.6959831407E+00    0.5881386745E+00    0.4600017679E-04
    0.5000000000E+06    0.2144783972E-02    0.2466152480E-03    0.6959843478E+00    0.6203428092E+00    0.4732503953E-04
    0.7000000000E+06    0.1175768245E-02    0.1377958716E-03    0.6959845626E+00    0.6342075272E+00    0.4821847160E-04
    0.9000000000E+06    0.7392585600E-03    0.8790010427E-04    0.6959845116E+00    0.6418146533E+00    0.4889676788E-04
    0.1100000000E+07    0.5067705338E-03    0.6096214445E-04    0.6959843693E+00    0.6465934622E+00    0.4944522028E-04
    0.1300000000E+07    0.3686540754E-03    0.4478148099E-04    0.6959841937E+00    0.6498653314E+00    0.4990648369E-04
    0.1500000000E+07    0.2800447910E-03    0.3430383429E-04    0.6959840079E+00    0.6522426115E+00    0.5030502803E-04
    0.1700000000E+07    0.2198587756E-03    0.2712973883E-04    0.6959838216E+00    0.6540465905E+00    0.5065622287E-04
    0.1900000000E+07    0.1771379626E-03    0.2200132788E-04    0.6959836395E+00    0.6554616165E+00    0.5097036719E-04
    0.2100000000E+07    0.1457332124E-03    0.1820744501E-04    0.6959834634E+00    0.6566008617E+00    0.5125470635E-04
    0.2300000000E+07    0.1219790721E-03    0.1532135681E-04    0.6959832941E+00    0.6575375778E+00    0.5151453480E-04
    0.2500000000E+07    0.1035811914E-03    0.1307435985E-04    0.6959831317E+00    0.6583212383E+00    0.5175384126E-04
    0.2700000000E+07    0.8904430277E-04    0.1129038691E-04    0.6959829762E+00    0.6589864465E+00    0.5197570695E-04
    0.2900000000E+07    0.7736030223E-04    0.9850145365E-05    0.6959828271E+00    0.6595581232E+00    0.5218256247E-04
    0.3100000000E+07    0.6782959842E-04    0.8670471271E-05    0.6959826842E+00    0.6600546672E+00    0.5237635960E-04
    0.3300000000E+07    0.5995444028E-04    0.7691943204E-05    0.6959825470E+00    0.6604899552E+00    0.5255868975E-04
    0.3500000000E+07    0.5337290291E-04    0.6871183451E-05    0.6959824152E+00    0.6608746489E+00    0.5273086790E-04
    0.3700000000E+07    0.4781674491E-04    0.6175923133E-05    0.6959822884E+00    0.6612170744E+00    0.5289399335E-04
    0.3900000000E+07    0.4308376158E-04    0.5581752430E-05    0.6959821664E+00    0.6615238276E+00    0.5304899457E-04
    0.4100000000E+07    0.3901920514E-04    0.5069928778E-05    0.6959820487E+00    0.6618002014E+00    0.5319666307E-04
    0.4300000000E+07    0.3550302723E-04    0.4625866831E-05    0.6959819351E+00    0.6620504917E+00    0.5333767910E-04
    0.4500000000E+07    0.3244094886E-04    0.4238078074E-05    0.6959818254E+00    0.6622782216E+00    0.5347263172E-04
    0.4700000000E+07    0.2975809992E-04    0.3897413272E-05    0.6959817192E+00    0.6624863075E+00    0.5360203439E-04
    0.4900000000E+07    0.2739441695E-04    0.3596512765E-05    0.6959816164E+00    0.6626771843E+00    0.5372633751E-04
    0.1000000000E+07    0.6067323411E-03    0.7258396738E-04    0.6959844470E+00    0.6444500828E+00    0.4918396566E-04
    0.3000000000E+07    0.7236070766E-04    0.9231900473E-05    0.6959827549E+00    0.6598148315E+00    0.5228098654E-04
    0.5000000000E+07    0.2631669132E-04    0.3459061742E-05    0.6959815662E+00    0.6627668224E+00    0.5378670271E-04
    0.7000000000E+07    0.1347405263E-04    0.1805457152E-05    0.6959806980E+00    0.6640167162E+00    0.5480210295E-04
    0.9000000000E+07    0.8166732285E-05    0.1109740210E-05    0.6959800137E+00    0.6647069609E+00    0.5557300023E-04
    0.1100000000E+08    0.5475458040E-05    0.7521379686E-06    0.6959794481E+00    0.6651446378E+00    0.5619632825E-04
    0.1300000000E+08    0.3926364489E-05    0.5440488982E-06    0.6959789651E+00    0.6654469238E+00    0.5672056452E-04
    0.1500000000E+08    0.2954107755E-05    0.4122542608E-06    0.6959785432E+00    0.6656682242E+00    0.5717351935E-04
    0.1700000000E+08    0.2304229941E-05    0.3234724373E-06    0.6959781682E+00    0.6658372395E+00    0.5757266047E-04
    0.1900000000E+08    0.1848512402E-05    0.2607923165E-06    0.6959778304E+00    0.6659705421E+00    0.5792969285E-04
    0.2100000000E+08    0.1516663028E-05    0.2148752091E-06    0.6959775230E+00    0.6660783699E+00    0.5825285098E-04
    0.2300000000E+08    0.1267536340E-05    0.1802194282E-06    0.6959772406E+00    0.6661673890E+00    0.5854815211E-04
    0.2500000000E+08    0.1075750365E-05    0.1534114388E-06    0.6959769794E+00    0.6662421263E+00    0.5882012952E-04
    0.2700000000E+08    0.9249593867E-06    0.1322414433E-06    0.6959767364E+00    0.6663057640E+00    0.5907228506E-04
