  Pressure (Pa) 22mC5-500 (mol/kg) 23mC5-500 (mol/kg) 24mC5-500 (mol/kg) 3mC6-500 (mol/kg) C7-500 (mol/kg)
    0.1000000000E+01    0.1596706760E-04    0.5354858738E-05    0.3665942455E-01    0.1599959648E-05    0.4198037446E-02
    0.3000000000E+01    0.4216270593E-04    0.1412350253E-04    0.9948170562E-01    0.4089257851E-05    0.4266906895E-02
    0.5000000000E+01    0.6287395556E-04    0.2104205500E-04    0.1513572276E+00    0.6375994825E-05    0.4321142521E-02
    0.7000000000E+01    0.7956792834E-04    0.2660756476E-04    0.1949181015E+00    0.8563994844E-05    0.4366536028E-02
    0.9000000000E+01    0.9323239538E-04    0.3115420675E-04    0.2320151920E+00    0.1068835541E-04    0.4405269052E-02
    0.1100000000E+02    0.1045643209E-03    0.3491752706E-04    0.2639879521E+00    0.1276666637E-04    0.4438764680E-02
    0.1300000000E+02    0.1140695558E-03    0.3806831592E-04    0.2918296470E+00    0.1480941111E-04    0.4468046403E-02
    0.1500000000E+02    0.1221234866E-03    0.4073319150E-04    0.3162924091E+00    0.1682350554E-04    0.4493880296E-02
    0.1700000000E+02    0.1290099273E-03    0.4300779019E-04    0.3379562264E+00    0.1881383068E-04    0.4516854245E-02
    0.1900000000E+02    0.1349469379E-03    0.4496551760E-04    0.3572755270E+00    0.2078400209E-04    0.4537427993E-02
    0.2100000000E+02    0.1401044357E-03    0.4666351450E-04    0.3746114127E+00    0.2273679724E-04    0.4555966708E-02
    0.2300000000E+02    0.1446164856E-03    0.4814681792E-04    0.3902544475E+00    0.2467441141E-04    0.4572764338E-02
    0.2500000000E+02    0.1485900487E-03    0.4945132139E-04    0.4044410798E+00    0.2659861984E-04    0.4588060286E-02
    0.2700000000E+02    0.1521113190E-03    0.5060591796E-04    0.4173656801E+00    0.2851088538E-04    0.4602051582E-02
    0.2900000000E+02    0.1552503847E-03    0.5163407581E-04    0.4291895032E+00    0.3041243252E-04    0.4614901905E-02
    0.3100000000E+02    0.1580647070E-03    0.5255501317E-04    0.4400474521E+00    0.3230430002E-04    0.4626748389E-02
    0.3300000000E+02    0.1606017473E-03    0.5338458551E-04    0.4500532505E+00    0.3418737928E-04    0.4637706822E-02
    0.3500000000E+02    0.1629009766E-03    0.5413596324E-04    0.4593034418E+00    0.3606244290E-04    0.4647875660E-02
    0.3700000000E+02    0.1649954269E-03    0.5482015497E-04    0.4678805154E+00    0.3793016644E-04    0.4657339170E-02
    0.3900000000E+02    0.1669129018E-03    0.5544641539E-04    0.4758553748E+00    0.3979114514E-04    0.4666169908E-02
    0.4100000000E+02    0.1686769289E-03    0.5602256605E-04    0.4832893020E+00    0.4164590719E-04    0.4674430695E-02
    0.4300000000E+02    0.1703075161E-03    0.5655524982E-04    0.4902355367E+00    0.4349492413E-04    0.4682176204E-02
    0.4500000000E+02    0.1718217560E-03    0.5705013418E-04    0.4967405534E+00    0.4533861932E-04    0.4689454245E-02
    0.4700000000E+02    0.1732343133E-03    0.5751207498E-04    0.5028451029E+00    0.4717737480E-04    0.4696306819E-02
    0.4900000000E+02    0.1745578188E-03    0.5794524895E-04    0.5085850674E+00    0.4901153689E-04    0.4702770974E-02
    0.1000000000E+02    0.9915467676E-04    0.3312187716E-04    0.2485733718E+00    0.1173250173E-04    0.4422600319E-02
    0.3000000000E+02    0.1566949642E-03    0.5210688608E-04    0.4347316595E+00    0.3135951743E-04    0.4620942941E-02
    0.5000000000E+02    0.1751896490E-03    0.5815219497E-04    0.5113283884E+00    0.4992699504E-04    0.4705867795E-02
    0.7000000000E+02    0.1851424943E-03    0.6143659312E-04    0.5530986611E+00    0.6805880497E-04    0.4753687110E-02
    0.9000000000E+02    0.1927500288E-03    0.6399689142E-04    0.5793964566E+00    0.8596952885E-04    0.4784543707E-02
    0.1100000000E+03    0.1997960780E-03    0.6640818465E-04    0.5974759613E+00    0.1037679898E-03    0.4806135042E-02
    0.1300000000E+03    0.2068832621E-03    0.6885931086E-04    0.6106693249E+00    0.1215199027E-03    0.4822063971E-02
    0.1500000000E+03    0.2142259196E-03    0.7141416938E-04    0.6207217072E+00    0.1392693339E-03    0.4834252260E-02
    0.1700000000E+03    0.2218947072E-03    0.7409142468E-04    0.6286355646E+00    0.1570480268E-03    0.4843823669E-02
    0.1900000000E+03    0.2299037964E-03    0.7689253199E-04    0.6350277653E+00    0.1748800909E-03    0.4851481846E-02
    0.2100000000E+03    0.2382450562E-03    0.7981253239E-04    0.6402987239E+00    0.1927846092E-03    0.4857691354E-02
    0.2300000000E+03    0.2469022767E-03    0.8284443775E-04    0.6447196872E+00    0.2107771985E-03    0.4862772150E-02
    0.2500000000E+03    0.2558572568E-03    0.8598104090E-04    0.6484809337E+00    0.2288709989E-03    0.4866952332E-02
    0.2700000000E+03    0.2650923851E-03    0.8921563716E-04    0.6517198883E+00    0.2470773291E-03    0.4870399248E-02
    0.2900000000E+03    0.2745916568E-03    0.9254227260E-04    0.6545382828E+00    0.2654061383E-03    0.4873238686E-02
    0.3100000000E+03    0.2843409824E-03    0.9595578629E-04    0.6570130377E+00    0.2838663265E-03    0.4875567174E-02
    0.3300000000E+03    0.2943281806E-03    0.9945176657E-04    0.6592033922E+00    0.3024659776E-03    0.4877460125E-02
    0.3500000000E+03    0.3045428403E-03    0.1030264758E-03    0.6611557082E+00    0.3212125341E-03    0.4878977379E-02
    0.3700000000E+03    0.3149761359E-03    0.1066767681E-03    0.6629067897E+00    0.3401129293E-03    0.4880167078E-02
    0.3900000000E+03    0.3256206377E-03    0.1104000118E-03    0.6644862246E+00    0.3591736898E-03    0.4881068418E-02
    0.4100000000E+03    0.3364701343E-03    0.1141940185E-03    0.6659180713E+00    0.3784010163E-03    0.4881713659E-02
    0.4300000000E+03    0.3475194739E-03    0.1180569824E-03    0.6672220924E+00    0.3978008479E-03    0.4882129610E-02
    0.4500000000E+03    0.3587644260E-03    0.1219874283E-03    0.6684146727E+00    0.4173789142E-03    0.4882338735E-02
    0.4700000000E+03    0.3702015616E-03    0.1259841666E-03    0.6695095114E+00    0.4371407780E-03    0.4882360010E-02
    0.4900000000E+03    0.3818281516E-03    0.1300462559E-03    0.6705181505E+00    0.4570918703E-03    0.4882209569E-02
    0.1000000000E+03    0.1962915990E-03    0.6520483663E-04    0.5892022758E+00    0.9487801635E-04    0.4796216544E-02
    0.3000000000E+03    0.2794358677E-03    0.9423846214E-04    0.6558145635E+00    0.2746192880E-03    0.4874461665E-02
    0.5000000000E+03    0.3877118089E-03    0.1321015730E-03    0.6709932647E+00    0.4671400457E-03    0.4882074350E-02
    0.7000000000E+03    0.5150823813E-03    0.1765557688E-03    0.6777163703E+00    0.6793160794E-03    0.4872844225E-02
    0.9000000000E+03    0.6614969296E-03    0.2275962061E-03    0.6815097631E+00    0.9164391775E-03    0.4854575706E-02
    0.1100000000E+04    0.8292581040E-03    0.2860353335E-03    0.6839455579E+00    0.1184257845E-02    0.4829341786E-02
    0.1300000000E+04    0.1022097472E-02    0.3531785641E-03    0.6856417269E+00    0.1489667564E-02    0.4797547256E-02
    0.1500000000E+04    0.1245132291E-02    0.4308107685E-03    0.6868905995E+00    0.1841288274E-02    0.4758823282E-02
    0.1700000000E+04    0.1505148405E-02    0.5212957690E-03    0.6878483924E+00    0.2250155418E-02    0.4712267082E-02
    0.1900000000E+04    0.1811118019E-02    0.6277571216E-03    0.6886061696E+00    0.2730649736E-02    0.4656469851E-02
    0.2100000000E+04    0.2174983854E-02    0.7543513564E-03    0.6892206007E+00    0.3301800164E-02    0.4589439514E-02
    0.2300000000E+04    0.2612799781E-02    0.9066651690E-03    0.6897287979E+00    0.3989136901E-02    0.4508441973E-02
    0.2500000000E+04    0.3146361306E-02    0.1092283090E-02    0.6901560826E+00    0.4827326952E-02    0.4409757831E-02
    0.2700000000E+04    0.3805476831E-02    0.1321578282E-02    0.6905203228E+00    0.5863853811E-02    0.4288346683E-02
    0.2900000000E+04    0.4630945708E-02    0.1608749692E-02    0.6908344878E+00    0.7163881481E-02    0.4137434272E-02
    0.3100000000E+04    0.5677885540E-02    0.1972981557E-02    0.6911082187E+00    0.8815799099E-02    0.3948130531E-02
    0.3300000000E+04    0.7017676190E-02    0.2439123211E-02    0.6913488321E+00    0.1093480584E-01    0.3709454463E-02
    0.3500000000E+04    0.8733218258E-02    0.3036045261E-02    0.6915619801E+00    0.1365626647E-01    0.3409775769E-02
    0.3700000000E+04    0.1089542279E-01    0.3788468004E-02    0.6917520988E+00    0.1709968430E-01    0.3041742140E-02
    0.3900000000E+04    0.1350467422E-01    0.4696600605E-02    0.6919227180E+00    0.2127681420E-01    0.2612935692E-02
    0.4100000000E+04    0.1640733996E-01    0.5707080945E-02    0.6920766817E+00    0.2595768158E-01    0.2158850666E-02
    0.4300000000E+04    0.1927915960E-01    0.6707153342E-02    0.6922163069E+00    0.3063795223E-01    0.1740885383E-02
    0.4500000000E+04    0.2177957195E-01    0.7578316783E-02    0.6923434999E+00    0.3477661932E-01    0.1414744744E-02
    0.4700000000E+04    0.2375478532E-01    0.8266988165E-02    0.6924598439E+00    0.3811913964E-01    0.1196992421E-02
    0.4900000000E+04    0.2525812620E-01    0.8791637784E-02    0.6925666643E+00    0.4073784180E-01    0.1068135706E-02
    0.1000000000E+04    0.7425068459E-03    0.2558200104E-03    0.6828473566E+00    0.1046114030E-02    0.4842780725E-02
    0.3000000000E+04    0.5122649339E-02    0.1779812007E-02    0.6909759048E+00    0.7939286880E-02    0.4048224834E-02
    0.5000000000E+04    0.2587571349E-01    0.9007351061E-02    0.6926168596E+00    0.4184096506E-01    0.1027429790E-02
    0.7000000000E+04    0.3317272675E-01    0.1156606267E-01    0.6933183918E+00    0.5641938579E-01    0.9357362279E-03
    0.9000000000E+04    0.3841307857E-01    0.1341357285E-01    0.6937062560E+00    0.6852818378E-01    0.9490733414E-03
    0.1100000000E+05    0.4260248111E-01    0.1489807699E-01    0.6939516334E+00    0.7952505727E-01    0.9599206183E-03
    0.1300000000E+05    0.4598102260E-01    0.1610191207E-01    0.6941204097E+00    0.8961951621E-01    0.9690121070E-03
    0.1500000000E+05    0.4872245678E-01    0.1708473224E-01    0.6942433237E+00    0.9896753801E-01    0.9768482639E-03
    0.1700000000E+05    0.5095588311E-01    0.1789091568E-01    0.6943366355E+00    0.1076888286E+00    0.9837409786E-03
    0.1900000000E+05    0.5277903866E-01    0.1855410288E-01    0.6944097486E+00    0.1158769566E+00    0.9898979647E-03
    0.2100000000E+05    0.5426714384E-01    0.1910021865E-01    0.6944684760E+00    0.1236062439E+00    0.9954646636E-03
    0.2300000000E+05    0.5547893746E-01    0.1954953510E-01    0.6945166031E+00    0.1309365678E+00    0.1000546962E-02
    0.2500000000E+05    0.5646088504E-01    0.1991811122E-01    0.6945566995E+00    0.1379167811E+00    0.1005224392E-02
    0.2700000000E+05    0.5725017133E-01    0.2021881717E-01    0.6945905704E+00    0.1445871964E+00    0.1009558241E-02
    0.2900000000E+05    0.5787686558E-01    0.2046207591E-01    0.6946195206E+00    0.1509814194E+00    0.1013596752E-02
    0.3100000000E+05    0.5836551328E-01    0.2065640881E-01    0.6946445161E+00    0.1571277251E+00    0.1017378599E-02
    0.3300000000E+05    0.5873632303E-01    0.2080884276E-01    0.6946662874E+00    0.1630501047E+00    0.1020935265E-02
    0.3500000000E+05    0.5900606303E-01    0.2092521788E-01    0.6946853968E+00    0.1687690713E+00    0.1024292731E-02
    0.3700000000E+05    0.5918874649E-01    0.2101042298E-01    0.6947022842E+00    0.1743022892E+00    0.1027472692E-02
    0.3900000000E+05    0.5929616114E-01    0.2106857757E-01    0.6947172985E+00    0.1796650681E+00    0.1030493451E-02
    0.4100000000E+05    0.5933828262E-01    0.2110317409E-01    0.6947307197E+00    0.1848707580E+00    0.1033370599E-02
    0.4300000000E+05    0.5932360009E-01    0.2111719002E-01    0.6947427754E+00    0.1899310647E+00    0.1036117523E-02
    0.4500000000E+05    0.5925937501E-01    0.2111317703E-01    0.6947536523E+00    0.1948563061E+00    0.1038745808E-02
    0.4700000000E+05    0.5915184827E-01    0.2109333246E-01    0.6947635049E+00    0.1996556208E+00    0.1041265544E-02
    0.4900000000E+05    0.5900640747E-01    0.2105955698E-01    0.6947724621E+00    0.2043371403E+00    0.1043685578E-02
    0.1000000000E+05    0.4062223625E-01    0.1419540256E-01    0.6938414023E+00    0.7415096001E-01    0.9547590195E-03
    0.3000000000E+05    0.5813709227E-01    0.2056488790E-01    0.6946324624E+00    0.1540839725E+00    0.1015517645E-02
    0.5000000000E+05    0.5892095355E-01    0.2103796973E-01    0.6947766396E+00    0.2066360278E+00    0.1044860680E-02
    0.7000000000E+05    0.5607862211E-01    0.2017917922E-01    0.6948322606E+00    0.2478462365E+00    0.1064615396E-02
    0.9000000000E+05    0.5229373198E-01    0.1894405899E-01    0.6948596489E+00    0.2823446878E+00    0.1079601559E-02
    0.1100000000E+06    0.4837570020E-01    0.1762946905E-01    0.6948747986E+00    0.3121308975E+00    0.1091713476E-02
    0.1300000000E+06    0.4461127561E-01    0.1634531779E-01    0.6948836838E+00    0.3382884977E+00    0.1101896891E-02
    0.1500000000E+06    0.4110386537E-01    0.1513446741E-01    0.6948890085E+00    0.3614999861E+00    0.1110693779E-02
    0.1700000000E+06    0.3788341269E-01    0.1401212335E-01    0.6948921593E+00    0.3822424380E+00    0.1118444314E-02
    0.1900000000E+06    0.3494829801E-01    0.1298111652E-01    0.6948939125E+00    0.4008743364E+00    0.1125376322E-02
    0.2100000000E+06    0.3228320105E-01    0.1203855734E-01    0.6948947323E+00    0.4176787197E+00    0.1131650016E-02
    0.2300000000E+06    0.2986730943E-01    0.1117897645E-01    0.6948949106E+00    0.4328866805E+00    0.1137382435E-02
    0.2500000000E+06    0.2767826391E-01    0.1039588814E-01    0.6948946384E+00    0.4466912311E+00    0.1142661728E-02
    0.2700000000E+06    0.2569408093E-01    0.9682590763E-02    0.6948940448E+00    0.4592560942E+00    0.1147555977E-02
    0.2900000000E+06    0.2389406411E-01    0.9032576436E-02    0.6948932195E+00    0.4707216515E+00    0.1152118877E-02
    0.3100000000E+06    0.2225919243E-01    0.8439732569E-02    0.6948922262E+00    0.4812092014E+00    0.1156393541E-02
    0.3300000000E+06    0.2077223342E-01    0.7898429458E-02    0.6948911108E+00    0.4908241536E+00    0.1160415115E-02
    0.3500000000E+06    0.1941771245E-01    0.7403545073E-02    0.6948899073E+00    0.4996585165E+00    0.1164212638E-02
    0.3700000000E+06    0.1818180996E-01    0.6950455550E-02    0.6948886406E+00    0.5077928891E+00    0.1167810383E-02
    0.3900000000E+06    0.1705222614E-01    0.6535007678E-02    0.6948873298E+00    0.5152980913E+00    0.1171228850E-02
    0.4100000000E+06    0.1601803513E-01    0.6153482859E-02    0.6948859892E+00    0.5222365175E+00    0.1174485513E-02
    0.4300000000E+06    0.1506954085E-01    0.5802557982E-02    0.6948846298E+00    0.5286632738E+00    0.1177595390E-02
    0.4500000000E+06    0.1419814074E-01    0.5479266356E-02    0.6948832601E+00    0.5346271410E+00    0.1180571483E-02
    0.4700000000E+06    0.1339620048E-01    0.5180960422E-02    0.6948818865E+00    0.5401713951E+00    0.1183425127E-02
    0.4900000000E+06    0.1265694066E-01    0.4905277120E-02    0.6948805142E+00    0.5453345094E+00    0.1186166261E-02
    0.1000000000E+06    0.5032699937E-01    0.1828749445E-01    0.6948682644E+00    0.2977461134E+00    0.1085944516E-02
    0.3000000000E+06    0.2305710420E-01    0.8729371880E-02    0.6948927407E+00    0.4760807488E+00    0.1154289880E-02
    0.5000000000E+06    0.1230890598E-01    0.4775250452E-02    0.6948798297E+00    0.5477839991E+00    0.1187497417E-02
    0.7000000000E+06    0.7490406310E-02    0.2957097276E-02    0.6948667829E+00    0.5833477918E+00    0.1209887159E-02
    0.9000000000E+06    0.4992915631E-02    0.1998057166E-02    0.6948553170E+00    0.6036884812E+00    0.1226883826E-02
    0.1100000000E+07    0.3550454824E-02    0.1436644687E-02    0.6948453050E+00    0.6165566452E+00    0.1240625959E-02
    0.1300000000E+07    0.2647868936E-02    0.1081489803E-02    0.6948364736E+00    0.6253134190E+00    0.1252182889E-02
    0.1500000000E+07    0.2047747113E-02    0.8431622480E-03    0.6948285910E+00    0.6316055285E+00    0.1262167999E-02
    0.1700000000E+07    0.1629416119E-02    0.6756993235E-03    0.6948214788E+00    0.6363195644E+00    0.1270966527E-02
    0.1900000000E+07    0.1326600489E-02    0.5536237617E-03    0.6948150016E+00    0.6399695207E+00    0.1278836604E-02
    0.2100000000E+07    0.1100564548E-02    0.4619266461E-03    0.6948090554E+00    0.6428715336E+00    0.1285959816E-02
    0.2300000000E+07    0.9274875984E-03    0.3913138549E-03    0.6948035595E+00    0.6452296343E+00    0.1292468849E-02
    0.2500000000E+07    0.7920888427E-03    0.3357862594E-03    0.6947984497E+00    0.6471808544E+00    0.1298463664E-02
    0.2700000000E+07    0.6842104216E-03    0.2913336153E-03    0.6947936748E+00    0.6488203582E+00    0.1304021477E-02
    0.2900000000E+07    0.5968915569E-03    0.2551938260E-03    0.6947891929E+00    0.6502161418E+00    0.1309203196E-02
    0.3100000000E+07    0.5252355341E-03    0.2254147133E-03    0.6947849694E+00    0.6514179930E+00    0.1314057731E-02
    0.3300000000E+07    0.4657180050E-03    0.2005851189E-03    0.6947809757E+00    0.6524631499E+00    0.1318624960E-02
    0.3500000000E+07    0.4157508873E-03    0.1796645789E-03    0.6947771875E+00    0.6533799881E+00    0.1322937835E-02
    0.3700000000E+07    0.3733995193E-03    0.1618723774E-03    0.6947735843E+00    0.6541904882E+00    0.1327023899E-02
    0.3900000000E+07    0.3371945589E-03    0.1466134685E-03    0.6947701485E+00    0.6549119273E+00    0.1330906420E-02
    0.4100000000E+07    0.3060040681E-03    0.1334279105E-03    0.6947668649E+00    0.6555580648E+00    0.1334605228E-02
    0.4300000000E+07    0.2789447647E-03    0.1219556615E-03    0.6947637202E+00    0.6561399875E+00    0.1338137370E-02
    0.4500000000E+07    0.2553193289E-03    0.1119116264E-03    0.6947607029E+00    0.6566667248E+00    0.1341517603E-02
    0.4700000000E+07    0.2345713839E-03    0.1030676834E-03    0.6947578029E+00    0.6571457015E+00    0.1344758795E-02
    0.4900000000E+07    0.2162526836E-03    0.9523954408E-04    0.6947550111E+00    0.6575830770E+00    0.1347872228E-02
    0.1000000000E+07    0.4181620835E-02    0.1683118075E-02    0.6948501467E+00    0.6107883157E+00    0.1234080008E-02
    0.3000000000E+07    0.5593520796E-03    0.2396077044E-03    0.6947870507E+00    0.6508387380E+00    0.1311668685E-02
    0.5000000000E+07    0.2078876907E-03    0.9165834750E-04    0.6947536532E+00    0.6577878076E+00    0.1349384193E-02
    0.7000000000E+07    0.1075301426E-03    0.4828560030E-04    0.6947306351E+00    0.6605960867E+00    0.1374815943E-02
    0.9000000000E+07    0.6561823910E-04    0.2984916887E-04    0.6947129758E+00    0.6621075214E+00    0.1394122713E-02
    0.1100000000E+08    0.4423263928E-04    0.2031607994E-04    0.6946986075E+00    0.6630503549E+00    0.1409732963E-02
    0.1300000000E+08    0.3187034872E-04    0.1474654697E-04    0.6946864725E+00    0.6636941944E+00    0.1422861131E-02
    0.1500000000E+08    0.2408619412E-04    0.1120865772E-04    0.6946759556E+00    0.6641616366E+00    0.1434203878E-02
    0.1700000000E+08    0.1886934752E-04    0.8819891566E-05    0.6946666668E+00    0.6645163715E+00    0.1444198767E-02
    0.1900000000E+08    0.1520283602E-04    0.7130200826E-05    0.6946583428E+00    0.6647947447E+00    0.1453138995E-02
    0.2100000000E+08    0.1252754292E-04    0.5890371710E-05    0.6946507974E+00    0.6650190009E+00    0.1461230823E-02
    0.2300000000E+08    0.1051543629E-04    0.4953261709E-05    0.6946438938E+00    0.6652035145E+00    0.1468624971E-02
    0.2500000000E+08    0.8963770790E-05    0.4227410550E-05    0.6946375289E+00    0.6653579855E+00    0.1475434985E-02
    0.2700000000E+08    0.7741766621E-05    0.3653519851E-05    0.6946316226E+00    0.6654891961E+00    0.1481748577E-02
