  Pressure (Pa) 22mC5-500 (mol/kg) 23mC5-500 (mol/kg) 24mC5-500 (mol/kg) 3mC6-500 (mol/kg) C7-500 (mol/kg)
    0.1000000000E+01    0.1436435808E-04    0.5503220485E-05    0.9949969793E-01    0.8975765043E-06    0.4170459413E-02
    0.3000000000E+01    0.3176776014E-04    0.1214159031E-04    0.2321118808E+00    0.2256375207E-05    0.4202381620E-02
    0.5000000000E+01    0.4171794130E-04    0.1591728298E-04    0.3164702083E+00    0.3495663963E-05    0.4218752826E-02
    0.7000000000E+01    0.4799941801E-04    0.1829034915E-04    0.3748585138E+00    0.4677062718E-05    0.4229678134E-02
    0.9000000000E+01    0.5226757096E-04    0.1989742651E-04    0.4176698830E+00    0.5821207203E-05    0.4237600417E-02
    0.1100000000E+02    0.5534689828E-04    0.2105458535E-04    0.4504043709E+00    0.6938388718E-05    0.4243634812E-02
    0.1300000000E+02    0.5768637197E-04    0.2193335521E-04    0.4762453145E+00    0.8034720213E-05    0.4248392010E-02
    0.1500000000E+02    0.5954714251E-04    0.2263315133E-04    0.4971629295E+00    0.9114224232E-05    0.4252240440E-02
    0.1700000000E+02    0.6108902289E-04    0.2321458075E-04    0.5144419253E+00    0.1017973407E-04    0.4255417250E-02
    0.1900000000E+02    0.6241382097E-04    0.2371609693E-04    0.5289557892E+00    0.1123334499E-04    0.4258082618E-02
    0.2100000000E+02    0.6358852966E-04    0.2416289412E-04    0.5413191314E+00    0.1227666431E-04    0.4260348900E-02
    0.2300000000E+02    0.6465841695E-04    0.2457191723E-04    0.5519769754E+00    0.1331096094E-04    0.4262297378E-02
    0.2500000000E+02    0.6565474750E-04    0.2495481027E-04    0.5612594759E+00    0.1433725990E-04    0.4263988381E-02
    0.2700000000E+02    0.6659950907E-04    0.2531971703E-04    0.5694167347E+00    0.1535640503E-04    0.4265467674E-02
    0.2900000000E+02    0.6750839841E-04    0.2567241586E-04    0.5766416773E+00    0.1636910210E-04    0.4266770633E-02
    0.3100000000E+02    0.6839275943E-04    0.2601705434E-04    0.5830855090E+00    0.1737594934E-04    0.4267925055E-02
    0.3300000000E+02    0.6926087144E-04    0.2635663644E-04    0.5888684141E+00    0.1837745978E-04    0.4268953098E-02
    0.3500000000E+02    0.7011882325E-04    0.2669335206E-04    0.5940871229E+00    0.1937407774E-04    0.4269872651E-02
    0.3700000000E+02    0.7097111721E-04    0.2702880415E-04    0.5988203673E+00    0.2036619152E-04    0.4270698324E-02
    0.3900000000E+02    0.7182109350E-04    0.2736416778E-04    0.6031328809E+00    0.2135414304E-04    0.4271442172E-02
    0.4100000000E+02    0.7267123242E-04    0.2770030306E-04    0.6070783775E+00    0.2233823552E-04    0.4272114231E-02
    0.4300000000E+02    0.7352337259E-04    0.2803783644E-04    0.6107018006E+00    0.2331873952E-04    0.4272722933E-02
    0.4500000000E+02    0.7437887027E-04    0.2837721982E-04    0.6140410429E+00    0.2429589784E-04    0.4273275412E-02
    0.4700000000E+02    0.7523871687E-04    0.2871877401E-04    0.6171282772E+00    0.2526992943E-04    0.4273777748E-02
    0.4900000000E+02    0.7610362654E-04    0.2906272095E-04    0.6199909962E+00    0.2624103270E-04    0.4274235157E-02
    0.1000000000E+02    0.5392189346E-04    0.2051926390E-04    0.4350604567E+00    0.6382721655E-05    0.4240807815E-02
    0.3000000000E+02    0.6795306751E-04    0.2584553256E-04    0.5799530945E+00    0.1687322310E-04    0.4267364912E-02
    0.5000000000E+02    0.7653814390E-04    0.2923564010E-04    0.6213456799E+00    0.2672554326E-04    0.4274448446E-02
    0.7000000000E+02    0.8554996244E-04    0.3283245829E-04    0.6409534079E+00    0.3629850906E-04    0.4277180733E-02
    0.9000000000E+02    0.9512759916E-04    0.3666239454E-04    0.6523919012E+00    0.4571472557E-04    0.4278183510E-02
    0.1100000000E+03    0.1051386024E-03    0.4066559217E-04    0.6598865178E+00    0.5503599697E-04    0.4278304672E-02
    0.1300000000E+03    0.1154738550E-03    0.4479655188E-04    0.6651771195E+00    0.6429937210E-04    0.4277906852E-02
    0.1500000000E+03    0.1260594541E-03    0.4902529736E-04    0.6691113495E+00    0.7352946729E-04    0.4277172968E-02
    0.1700000000E+03    0.1368462395E-03    0.5333220371E-04    0.6721515713E+00    0.8274381548E-04    0.4276206017E-02
    0.1900000000E+03    0.1478011058E-03    0.5770420679E-04    0.6745714370E+00    0.9195555416E-04    0.4275068756E-02
    0.2100000000E+03    0.1589013719E-03    0.6213244206E-04    0.6765432512E+00    0.1011749192E-03    0.4273801759E-02
    0.2300000000E+03    0.1701312570E-03    0.6661079637E-04    0.6781809136E+00    0.1104101387E-03    0.4272432499E-02
    0.2500000000E+03    0.1814796540E-03    0.7113500513E-04    0.6795627326E+00    0.1196679994E-03    0.4270980277E-02
    0.2700000000E+03    0.1929386943E-03    0.7570207597E-04    0.6807443200E+00    0.1289542219E-03    0.4269459063E-02
    0.2900000000E+03    0.2045028012E-03    0.8030991148E-04    0.6817662587E+00    0.1382737189E-03    0.4267879226E-02
    0.3100000000E+03    0.2161680511E-03    0.8495705632E-04    0.6826588581E+00    0.1476307785E-03    0.4266248621E-02
    0.3300000000E+03    0.2279317343E-03    0.8964252417E-04    0.6834452116E+00    0.1570291973E-03    0.4264573305E-02
    0.3500000000E+03    0.2397920461E-03    0.9436567682E-04    0.6841432237E+00    0.1664723800E-03    0.4262858015E-02
    0.3700000000E+03    0.2517478669E-03    0.9912613822E-04    0.6847669895E+00    0.1759634147E-03    0.4261106504E-02
    0.3900000000E+03    0.2637986026E-03    0.1039237325E-03    0.6853277572E+00    0.1855051309E-03    0.4259321777E-02
    0.4100000000E+03    0.2759440669E-03    0.1087584387E-03    0.6858346119E+00    0.1951001455E-03    0.4257506262E-02
    0.4300000000E+03    0.2881843942E-03    0.1136303568E-03    0.6862949717E+00    0.2047508990E-03    0.4255661932E-02
    0.4500000000E+03    0.3005199737E-03    0.1185396829E-03    0.6867149537E+00    0.2144596844E-03    0.4253790402E-02
    0.4700000000E+03    0.3129513995E-03    0.1234866895E-03    0.6870996468E+00    0.2242286713E-03    0.4251893001E-02
    0.4900000000E+03    0.3254794322E-03    0.1284717115E-03    0.6874533194E+00    0.2340599255E-03    0.4249970823E-02
    0.1000000000E+03    0.1000866800E-03    0.3864560559E-04    0.6564926775E+00    0.5038452992E-04    0.4278325494E-02
    0.3000000000E+03    0.2103229770E-03    0.8262864125E-04    0.6822271410E+00    0.1429473059E-03    0.4267069856E-02
    0.5000000000E+03    0.3317799519E-03    0.1309785972E-03    0.6876196722E+00    0.2389995239E-03    0.4249000731E-02
    0.7000000000E+03    0.4631356960E-03    0.1832264758E-03    0.6899571433E+00    0.3415104719E-03    0.4228446422E-02
    0.9000000000E+03    0.6056685510E-03    0.2398986658E-03    0.6912626146E+00    0.4522316810E-03    0.4205820271E-02
    0.1100000000E+04    0.7611056085E-03    0.3016891509E-03    0.6920958974E+00    0.5727670634E-03    0.4181060792E-02
    0.1300000000E+04    0.9314870605E-03    0.3694126063E-03    0.6926739088E+00    0.7048243793E-03    0.4153953131E-02
    0.1500000000E+04    0.1119211792E-02    0.4440246763E-03    0.6930983458E+00    0.8503398740E-03    0.4124191947E-02
    0.1700000000E+04    0.1327125973E-02    0.5266580218E-03    0.6934232193E+00    0.1011578075E-02    0.4091391832E-02
    0.1900000000E+04    0.1558640002E-02    0.6186691860E-03    0.6936798715E+00    0.1191236415E-02    0.4055080552E-02
    0.2100000000E+04    0.1817877986E-02    0.7216982144E-03    0.6938877395E+00    0.1392569279E-02    0.4014683295E-02
    0.2300000000E+04    0.2109869518E-02    0.8377450178E-03    0.6940595173E+00    0.1619543118E-02    0.3969499596E-02
    0.2500000000E+04    0.2440797335E-02    0.9692679155E-03    0.6942038469E+00    0.1877035006E-02    0.3918672464E-02
    0.2700000000E+04    0.2818318334E-02    0.1119311343E-02    0.6943268153E+00    0.2171089503E-02    0.3861148253E-02
    0.2900000000E+04    0.3251979557E-02    0.1291671329E-02    0.6944328337E+00    0.2509251783E-02    0.3795625313E-02
    0.3100000000E+04    0.3753753795E-02    0.1491108564E-02    0.6945251771E+00    0.2900997659E-02    0.3720489400E-02
    0.3300000000E+04    0.4338718179E-02    0.1723618383E-02    0.6946063282E+00    0.3358280734E-02    0.3633734708E-02
    0.3500000000E+04    0.5025885670E-02    0.1996761649E-02    0.6946782030E+00    0.3896207225E-02    0.3532872426E-02
    0.3700000000E+04    0.5839156443E-02    0.2320043470E-02    0.6947423037E+00    0.4533816780E-02    0.3414836372E-02
    0.3900000000E+04    0.6808248312E-02    0.2705283870E-02    0.6947998252E+00    0.5294864723E-02    0.3275912514E-02
    0.4100000000E+04    0.7969225829E-02    0.3166829321E-02    0.6948517292E+00    0.6208314822E-02    0.3111754557E-02
    0.4300000000E+04    0.9363771862E-02    0.3721264883E-02    0.6948987989E+00    0.7307877571E-02    0.2917613369E-02
    0.4500000000E+04    0.1103553677E-01    0.4385965130E-02    0.6949416784E+00    0.8629285555E-02    0.2689009979E-02
    0.4700000000E+04    0.1302090964E-01    0.5175427744E-02    0.6949809022E+00    0.1020319116E-01    0.2423184458E-02
    0.4900000000E+04    0.1533144779E-01    0.6094289659E-02    0.6950169178E+00    0.1204142299E-01    0.2121588689E-02
    0.1000000000E+04    0.6816541165E-03    0.2701061621E-03    0.6917206797E+00    0.5111699947E-03    0.4193718187E-02
    0.3000000000E+04    0.3493491995E-02    0.1387663103E-02    0.6944805441E+00    0.2697745030E-02    0.3759374142E-02
    0.5000000000E+04    0.1659932581E-01    0.6598552727E-02    0.6950338427E+00    0.1305333630E-01    0.1959776621E-02
    0.7000000000E+04    0.3553003304E-01    0.1413905941E-01    0.6952705443E+00    0.2890271648E-01    0.2034314779E-03
    0.9000000000E+04    0.4222307944E-01    0.1682167032E-01    0.6954016899E+00    0.3561932382E-01    0.1687555865E-03
    0.1100000000E+05    0.4758061686E-01    0.1897675671E-01    0.6954848851E+00    0.4155063602E-01    0.1703480191E-03
    0.1300000000E+05    0.5211358979E-01    0.2080634830E-01    0.6955422864E+00    0.4703256076E-01    0.1719410186E-03
    0.1500000000E+05    0.5598275343E-01    0.2237352048E-01    0.6955842298E+00    0.5213957263E-01    0.1733191961E-03
    0.1700000000E+05    0.5930864645E-01    0.2372559866E-01    0.6956161846E+00    0.5692815602E-01    0.1745330346E-03
    0.1900000000E+05    0.6218480004E-01    0.2489933836E-01    0.6956413149E+00    0.6144327756E-01    0.1756183770E-03
    0.2100000000E+05    0.6468486181E-01    0.2592370838E-01    0.6956615781E+00    0.6572125641E-01    0.1766004324E-03
    0.2300000000E+05    0.6686757111E-01    0.2682183534E-01    0.6956782495E+00    0.6979179372E-01    0.1774976016E-03
    0.2500000000E+05    0.6878031793E-01    0.2761239533E-01    0.6956921958E+00    0.7367944995E-01    0.1783237349E-03
    0.2700000000E+05    0.7046173349E-01    0.2831062748E-01    0.6957040260E+00    0.7740473880E-01    0.1790895236E-03
    0.2900000000E+05    0.7194360560E-01    0.2892908367E-01    0.6957141809E+00    0.8098494983E-01    0.1798033961E-03
    0.3100000000E+05    0.7325231506E-01    0.2947819112E-01    0.6957229871E+00    0.8443477564E-01    0.1804721170E-03
    0.3300000000E+05    0.7440992658E-01    0.2996667986E-01    0.6957306919E+00    0.8776679614E-01    0.1811011992E-03
    0.3500000000E+05    0.7543502740E-01    0.3040191156E-01    0.6957374858E+00    0.9099185680E-01    0.1816951965E-03
    0.3700000000E+05    0.7634337868E-01    0.3079013502E-01    0.6957435178E+00    0.9411936718E-01    0.1822579143E-03
    0.3900000000E+05    0.7714842668E-01    0.3113668681E-01    0.6957489065E+00    0.9715753896E-01    0.1827925658E-03
    0.4100000000E+05    0.7786170749E-01    0.3144615024E-01    0.6957537469E+00    0.1001135772E+00    0.1833018893E-03
    0.4300000000E+05    0.7849317028E-01    0.3172248234E-01    0.6957581166E+00    0.1029938358E+00    0.1837882379E-03
    0.4500000000E+05    0.7905143746E-01    0.3196911619E-01    0.6957620791E+00    0.1058039437E+00    0.1842536485E-03
    0.4700000000E+05    0.7954401563E-01    0.3218904384E-01    0.6957656871E+00    0.1085489103E+00    0.1846998965E-03
    0.4900000000E+05    0.7997746784E-01    0.3238488417E-01    0.6957689845E+00    0.1112332108E+00    0.1851285389E-03
    0.1000000000E+05    0.4501746252E-01    0.1794482346E-01    0.6954474810E+00    0.3864711387E-01    0.1694710126E-03
    0.3000000000E+05    0.7261813634E-01    0.2921172485E-01    0.6957187356E+00    0.8272533001E-01    0.1801430305E-03
    0.5000000000E+05    0.8017385001E-01    0.3247450185E-01    0.6957705286E+00    0.1125538820E+00    0.1853366934E-03
    0.7000000000E+05    0.8208047020E-01    0.3343591010E-01    0.6957916438E+00    0.1365691800E+00    0.1888374894E-03
    0.9000000000E+05    0.8177635597E-01    0.3347473336E-01    0.6958027573E+00    0.1573416329E+00    0.1914947538E-03
    0.1100000000E+06    0.8046030515E-01    0.3307808961E-01    0.6958094286E+00    0.1759820553E+00    0.1936430935E-03
    0.1300000000E+06    0.7864510055E-01    0.3245744251E-01    0.6958137649E+00    0.1930708267E+00    0.1954497682E-03
    0.1500000000E+06    0.7658022818E-01    0.3171741873E-01    0.6958167349E+00    0.2089502397E+00    0.1970107022E-03
    0.1700000000E+06    0.7439814576E-01    0.3091465565E-01    0.6958188437E+00    0.2238400696E+00    0.1983861339E-03
    0.1900000000E+06    0.7217360447E-01    0.3008185410E-01    0.6958203789E+00    0.2378906982E+00    0.1996164228E-03
    0.2100000000E+06    0.6995060953E-01    0.2923880017E-01    0.6958215159E+00    0.2512103104E+00    0.2007299587E-03
    0.2300000000E+06    0.6775577420E-01    0.2839787229E-01    0.6958223671E+00    0.2638799911E+00    0.2017474856E-03
    0.2500000000E+06    0.6560539593E-01    0.2756698694E-01    0.6958230076E+00    0.2759626488E+00    0.2026846304E-03
    0.2700000000E+06    0.6350941585E-01    0.2675126337E-01    0.6958234893E+00    0.2875085600E+00    0.2035534640E-03
    0.2900000000E+06    0.6147373590E-01    0.2595400849E-01    0.6958238491E+00    0.2985589579E+00    0.2043635080E-03
    0.3100000000E+06    0.5950162703E-01    0.2517732234E-01    0.6958241139E+00    0.3091484322E+00    0.2051224080E-03
    0.3300000000E+06    0.5759461289E-01    0.2442248292E-01    0.6958243038E+00    0.3193065815E+00    0.2058363976E-03
    0.3500000000E+06    0.5575303996E-01    0.2369019788E-01    0.6958244339E+00    0.3290591756E+00    0.2065106278E-03
    0.3700000000E+06    0.5397645446E-01    0.2298077328E-01    0.6958245157E+00    0.3384289915E+00    0.2071494042E-03
    0.3900000000E+06    0.5226385664E-01    0.2229422951E-01    0.6958245584E+00    0.3474364247E+00    0.2077563637E-03
    0.4100000000E+06    0.5061387569E-01    0.2163038226E-01    0.6958245689E+00    0.3560999426E+00    0.2083346062E-03
    0.4300000000E+06    0.4902489198E-01    0.2098890028E-01    0.6958245532E+00    0.3644364262E+00    0.2088867962E-03
    0.4500000000E+06    0.4749512360E-01    0.2036934716E-01    0.6958245156E+00    0.3724614305E+00    0.2094152406E-03
    0.4700000000E+06    0.4602268844E-01    0.1977121203E-01    0.6958244599E+00    0.3801893849E+00    0.2099219507E-03
    0.4900000000E+06    0.4460564913E-01    0.1919393230E-01    0.6958243891E+00    0.3876337500E+00    0.2104086902E-03
    0.1000000000E+06    0.8120382342E-01    0.3331400964E-01    0.6958064764E+00    0.1668844124E+00    0.1926197590E-03
    0.3000000000E+06    0.6047960676E-01    0.2556299863E-01    0.6958239920E+00    0.3039093591E+00    0.2047489327E-03
    0.5000000000E+06    0.4391729062E-01    0.1891292755E-01    0.6958243488E+00    0.3912535591E+00    0.2106450645E-03
    0.7000000000E+06    0.3259208137E-01    0.1423609438E-01    0.6958231718E+00    0.4514707738E+00    0.2146210496E-03
    0.9000000000E+06    0.2480754687E-01    0.1096142380E-01    0.6958217707E+00    0.4941346802E+00    0.2176395811E-03
    0.1100000000E+07    0.1934563639E-01    0.8631615240E-02    0.6958203979E+00    0.5251120426E+00    0.2200802600E-03
    0.1300000000E+07    0.1542012605E-01    0.6938331339E-02    0.6958191105E+00    0.5481573390E+00    0.2221329218E-03
    0.1500000000E+07    0.1253061800E-01    0.5680197045E-02    0.6958179170E+00    0.5657035253E+00    0.2239064677E-03
    0.1700000000E+07    0.1035563852E-01    0.4725505956E-02    0.6958168120E+00    0.5793510734E+00    0.2254692978E-03
    0.1900000000E+07    0.8684878532E-02    0.3986919669E-02    0.6958157866E+00    0.5901729052E+00    0.2268672460E-03
    0.2100000000E+07    0.7377795132E-02    0.3405435338E-02    0.6958148319E+00    0.5989033265E+00    0.2281325560E-03
    0.2300000000E+07    0.6338398811E-02    0.2940388285E-02    0.6958139395E+00    0.6060555044E+00    0.2292887898E-03
    0.2500000000E+07    0.5499732012E-02    0.2563192080E-02    0.6958131024E+00    0.6119953695E+00    0.2303536979E-03
    0.2700000000E+07    0.4814151607E-02    0.2253367840E-02    0.6958123143E+00    0.6169888644E+00    0.2313409925E-03
    0.2900000000E+07    0.4247126910E-02    0.1995983123E-02    0.6958115700E+00    0.6212327058E+00    0.2322614902E-03
    0.3100000000E+07    0.3773202280E-02    0.1779969926E-02    0.6958108650E+00    0.6248747922E+00    0.2331238768E-03
    0.3300000000E+07    0.3373317268E-02    0.1596999762E-02    0.6958101953E+00    0.6280279946E+00    0.2339352344E-03
    0.3500000000E+07    0.3032994453E-02    0.1440717919E-02    0.6958095576E+00    0.6307796432E+00    0.2347014149E-03
    0.3700000000E+07    0.2741092297E-02    0.1306213363E-02    0.6958089489E+00    0.6331981633E+00    0.2354273102E-03
    0.3900000000E+07    0.2488932588E-02    0.1189645894E-02    0.6958083668E+00    0.6353377924E+00    0.2361170522E-03
    0.4100000000E+07    0.2269680504E-02    0.1087979969E-02    0.6958078089E+00    0.6372419815E+00    0.2367741633E-03
    0.4300000000E+07    0.2077897793E-02    0.9987920039E-03    0.6958072734E+00    0.6389458841E+00    0.2374016706E-03
    0.4500000000E+07    0.1909216409E-02    0.9201290508E-03    0.6958067584E+00    0.6404781996E+00    0.2380021955E-03
    0.4700000000E+07    0.1760097145E-02    0.8504038857E-03    0.6958062625E+00    0.6418625551E+00    0.2385780230E-03
    0.4900000000E+07    0.1627649049E-02    0.7883162354E-03    0.6958057842E+00    0.6431185540E+00    0.2391311573E-03
    0.1000000000E+07    0.2184367170E-01    0.9700708876E-02    0.6958210753E+00    0.5108111706E+00    0.2189176483E-03
    0.3000000000E+07    0.3999843669E-02    0.1883379457E-02    0.6958112129E+00    0.6231212209E+00    0.2326994721E-03
    0.5000000000E+07    0.1566916213E-02    0.7597935925E-03    0.6958055513E+00    0.6437036470E+00    0.2393997752E-03
    0.7000000000E+07    0.8249177802E-03    0.4079463981E-03    0.6958015781E+00    0.6515116362E+00    0.2439181604E-03
    0.9000000000E+07    0.5068027419E-03    0.2543624414E-03    0.6957985049E+00    0.6555046657E+00    0.2473485139E-03
    0.1100000000E+08    0.3422743646E-03    0.1738321893E-03    0.6957959926E+00    0.6579016428E+00    0.2501221932E-03
    0.1300000000E+08    0.2464144805E-03    0.1263882874E-03    0.6957938641E+00    0.6594910368E+00    0.2524549229E-03
    0.1500000000E+08    0.1857605495E-03    0.9608695447E-04    0.6957920155E+00    0.6606186082E+00    0.2544704579E-03
    0.1700000000E+08    0.1449869818E-03    0.7555234854E-04    0.6957903800E+00    0.6614585394E+00    0.2562465288E-03
    0.1900000000E+08    0.1162770164E-03    0.6099022380E-04    0.6957889126E+00    0.6621076754E+00    0.2578352217E-03
    0.2100000000E+08    0.9530686520E-04    0.5028617875E-04    0.6957875811E+00    0.6626239888E+00    0.2592731795E-03
    0.2300000000E+08    0.7952824341E-04    0.4218583457E-04    0.6957863618E+00    0.6630442330E+00    0.2605871785E-03
    0.2500000000E+08    0.6736068285E-04    0.3590660167E-04    0.6957852368E+00    0.6633928031E+00    0.2617973910E-03
    0.2700000000E+08    0.5778197103E-04    0.3093959296E-04    0.6957841923E+00    0.6636865107E+00    0.2629194000E-03
