  Pressure (Pa) 22mC5-500 (mol/kg) 23mC5-500 (mol/kg) 24mC5-500 (mol/kg) 3mC6-500 (mol/kg) C7-500 (mol/kg)
    0.1000000000E+01    0.1585355938E-04    0.1518718765E-05    0.3665773372E-01    0.2162207731E-05    0.4239204512E-02
    0.3000000000E+01    0.4190540559E-04    0.4009816574E-05    0.9946919774E-01    0.5603800448E-05    0.4370445473E-02
    0.5000000000E+01    0.6249067485E-04    0.5974089106E-05    0.1513281493E+00    0.8784769288E-05    0.4477967577E-02
    0.7000000000E+01    0.7906717749E-04    0.7552625182E-05    0.1948696802E+00    0.1183794378E-04    0.4568565469E-02
    0.9000000000E+01    0.9262002863E-04    0.8840638096E-05    0.2319463189E+00    0.1480860303E-04    0.4646082671E-02
    0.1100000000E+02    0.1038449373E-03    0.9905301113E-05    0.2638984588E+00    0.1771954022E-04    0.4713227956E-02
    0.1300000000E+02    0.1132469917E-03    0.1079533510E-04    0.2917198943E+00    0.2058438120E-04    0.4771997342E-02
    0.1500000000E+02    0.1212010426E-03    0.1154686318E-04    0.3161630487E+00    0.2341213572E-04    0.4823900112E-02
    0.1700000000E+02    0.1279904957E-03    0.1218716930E-04    0.3378080596E+00    0.2620917433E-04    0.4870100419E-02
    0.1900000000E+02    0.1338330840E-03    0.1273719396E-04    0.3571094205E+00    0.2898022317E-04    0.4911511292E-02
    0.2100000000E+02    0.1388984553E-03    0.1321323632E-04    0.3744282489E+00    0.3172891766E-04    0.4948859239E-02
    0.2300000000E+02    0.1433204484E-03    0.1362814166E-04    0.3900550949E+00    0.3445813448E-04    0.4982729754E-02
    0.2500000000E+02    0.1472058316E-03    0.1399214620E-04    0.4042263757E+00    0.3717020229E-04    0.5013600086E-02
    0.2700000000E+02    0.1506406331E-03    0.1431348869E-04    0.4171364223E+00    0.3986704171E-04    0.5041863237E-02
    0.2900000000E+02    0.1536947979E-03    0.1459886016E-04    0.4289464451E+00    0.4255026178E-04    0.5067845836E-02
    0.3100000000E+02    0.1564256617E-03    0.1485373916E-04    0.4397913017E+00    0.4522122858E-04    0.5091821636E-02
    0.3300000000E+02    0.1588805763E-03    0.1508264500E-04    0.4497846709E+00    0.4788111522E-04    0.5114021837E-02
    0.3500000000E+02    0.1610989159E-03    0.1528933111E-04    0.4590230528E+00    0.5053093918E-04    0.5134643077E-02
    0.3700000000E+02    0.1631136270E-03    0.1547693438E-04    0.4675888957E+00    0.5317159069E-04    0.5153853688E-02
    0.3900000000E+02    0.1649524367E-03    0.1564809148E-04    0.4755530644E+00    0.5580385469E-04    0.5171798628E-02
    0.4100000000E+02    0.1666388049E-03    0.1580503047E-04    0.4829768049E+00    0.5842842808E-04    0.5188603426E-02
    0.4300000000E+02    0.1681926785E-03    0.1594964329E-04    0.4899133233E+00    0.6104593340E-04    0.5204377342E-02
    0.4500000000E+02    0.1696310954E-03    0.1608354387E-04    0.4964090631E+00    0.6365692990E-04    0.5219215933E-02
    0.4700000000E+02    0.1709686707E-03    0.1620811472E-04    0.5025047465E+00    0.6626192252E-04    0.5233203149E-02
    0.4900000000E+02    0.1722179908E-03    0.1632454480E-04    0.5082362289E+00    0.6886136926E-04    0.5246413050E-02
    0.1000000000E+02    0.9848828156E-04    0.9397492416E-05    0.2484941695E+00    0.1627054288E-04    0.4680813541E-02
    0.3000000000E+02    0.1550974750E-03    0.1472980879E-04    0.4344819696E+00    0.4388719949E-04    0.5080069242E-02
    0.5000000000E+02    0.1728130142E-03    0.1638003339E-04    0.5109754452E+00    0.7015914474E-04    0.5252747302E-02
    0.7000000000E+02    0.1820634384E-03    0.1724897290E-04    0.5526787875E+00    0.9590801288E-04    0.5351169968E-02
    0.9000000000E+02    0.1890185752E-03    0.1791595163E-04    0.5789294664E+00    0.1214183872E-03    0.5415615626E-02
    0.1100000000E+03    0.1954499216E-03    0.1854407403E-04    0.5969737395E+00    0.1468355165E-03    0.5461487497E-02
    0.1300000000E+03    0.2019534668E-03    0.1918664441E-04    0.6101395689E+00    0.1722477704E-03    0.5495999969E-02
    0.1500000000E+03    0.2087396233E-03    0.1986153545E-04    0.6201697039E+00    0.1977149447E-03    0.5523003872E-02
    0.1700000000E+03    0.2158765809E-03    0.2057383849E-04    0.6280651143E+00    0.2232805786E-03    0.5544752656E-02
    0.1900000000E+03    0.2233769082E-03    0.2132381261E-04    0.6344417004E+00    0.2489781551E-03    0.5562658440E-02
    0.2100000000E+03    0.2312314227E-03    0.2210993831E-04    0.6396992179E+00    0.2748345509E-03    0.5577654315E-02
    0.2300000000E+03    0.2394232366E-03    0.2293015295E-04    0.6441084491E+00    0.3008721036E-03    0.5590383494E-02
    0.2500000000E+03    0.2479337362E-03    0.2378235735E-04    0.6478593347E+00    0.3271099226E-03    0.5601304960E-02
    0.2700000000E+03    0.2567450949E-03    0.2466461528E-04    0.6510890476E+00    0.3535647591E-03    0.5610755786E-02
    0.2900000000E+03    0.2658412445E-03    0.2557521992E-04    0.6538991275E+00    0.3802516059E-03    0.5618989604E-02
    0.3100000000E+03    0.2752081528E-03    0.2651270291E-04    0.6563663460E+00    0.4071841238E-03    0.5626201264E-02
    0.3300000000E+03    0.2848337953E-03    0.2747581975E-04    0.6585498244E+00    0.4343749523E-03    0.5632543174E-02
    0.3500000000E+03    0.2947080010E-03    0.2846352672E-04    0.6604958305E+00    0.4618359429E-03    0.5638136424E-02
    0.3700000000E+03    0.3048222562E-03    0.2947495634E-04    0.6622410916E+00    0.4895783363E-03    0.5643078555E-02
    0.3900000000E+03    0.3151695072E-03    0.3050939424E-04    0.6638151330E+00    0.5176129006E-03    0.5647449104E-02
    0.4100000000E+03    0.3257439759E-03    0.3156625844E-04    0.6652419610E+00    0.5459500401E-03    0.5651313629E-02
    0.4300000000E+03    0.3365409963E-03    0.3264508151E-04    0.6665412945E+00    0.5745998835E-03    0.5654726695E-02
    0.4500000000E+03    0.3475568726E-03    0.3374549522E-04    0.6677294817E+00    0.6035723547E-03    0.5657734112E-02
    0.4700000000E+03    0.3587887574E-03    0.3486721763E-04    0.6688201903E+00    0.6328772323E-03    0.5660374642E-02
    0.4900000000E+03    0.3702345475E-03    0.3601004212E-04    0.6698249357E+00    0.6625241984E-03    0.5662681311E-02
    0.1000000000E+03    0.1922485821E-03    0.1823025397E-04    0.5887165025E+00    0.1341322017E-03    0.5440310737E-02
    0.3000000000E+03    0.2704916509E-03    0.2604068440E-04    0.6551715507E+00    0.3936863451E-03    0.5622712834E-02
    0.5000000000E+03    0.3760371814E-03    0.3658932140E-04    0.6702981844E+00    0.6774789746E-03    0.5663718460E-02
    0.7000000000E+03    0.5032599680E-03    0.4927783972E-04    0.6769921487E+00    0.9969098338E-03    0.5672065081E-02
    0.9000000000E+03    0.6530358681E-03    0.6419702938E-04    0.6807658187E+00    0.1362153758E-02    0.5663914692E-02
    0.1100000000E+04    0.8290905714E-03    0.8172052480E-04    0.6831868801E+00    0.1785244669E-02    0.5643805085E-02
    0.1300000000E+04    0.1037263441E-02    0.1024308795E-03    0.6848713603E+00    0.2281569985E-02    0.5612866869E-02
    0.1500000000E+04    0.1285794177E-02    0.1271485164E-03    0.6861105780E+00    0.2871530649E-02    0.5570624303E-02
    0.1700000000E+04    0.1586137376E-02    0.1570130264E-03    0.6870601634E+00    0.3582856507E-02    0.5515445428E-02
    0.1900000000E+04    0.1954331958E-02    0.1936195174E-03    0.6878108117E+00    0.4454053217E-02    0.5444525511E-02
    0.2100000000E+04    0.2413149349E-02    0.2392323492E-03    0.6884189467E+00    0.5539653741E-02    0.5353598407E-02
    0.2300000000E+04    0.2995393237E-02    0.2971133941E-03    0.6889215093E+00    0.6918241746E-02    0.5236395232E-02
    0.2500000000E+04    0.3748799832E-02    0.3720095674E-03    0.6893436967E+00    0.8704409323E-02    0.5083829016E-02
    0.2700000000E+04    0.4742637748E-02    0.4708096975E-03    0.6897032845E+00    0.1106505327E-01    0.4882982130E-02
    0.2900000000E+04    0.6074016184E-02    0.6031731824E-03    0.6900131709E+00    0.1423558953E-01    0.4616467261E-02
    0.3100000000E+04    0.7864314192E-02    0.7811779679E-03    0.6902829419E+00    0.1851374853E-01    0.4264333265E-02
    0.3300000000E+04    0.1021717385E-01    0.1015148972E-02    0.6905198701E+00    0.2416302895E-01    0.3814227905E-02
    0.3500000000E+04    0.1309425135E-01    0.1301308171E-02    0.6907295721E+00    0.3111849831E-01    0.3286858691E-02
    0.3700000000E+04    0.1615938783E-01    0.1606271032E-02    0.6909164547E+00    0.3860644041E-01    0.2761661783E-02
    0.3900000000E+04    0.1888152067E-01    0.1877249161E-02    0.6910840238E+00    0.4536759507E-01    0.2344367751E-02
    0.4100000000E+04    0.2095234245E-01    0.2083563826E-02    0.6912351030E+00    0.5064584450E-01    0.2081461827E-02
    0.4300000000E+04    0.2243706550E-01    0.2231662818E-02    0.6913719922E+00    0.5456946217E-01    0.1943340720E-02
    0.4500000000E+04    0.2354426050E-01    0.2342260354E-02    0.6914965832E+00    0.5761937481E-01    0.1879165751E-02
    0.4700000000E+04    0.2444237151E-01    0.2432094352E-02    0.6916104466E+00    0.6019085849E-01    0.1852169627E-02
    0.4900000000E+04    0.2522874482E-01    0.2510840287E-02    0.6917148969E+00    0.6251424212E-01    0.1842419076E-02
    0.1000000000E+04    0.7374634252E-03    0.7260177895E-04    0.6820955751E+00    0.1565602488E-02    0.5655236036E-02
    0.3000000000E+04    0.6903943337E-02    0.6856882835E-03    0.6901525711E+00    0.1621669470E-01    0.4452266998E-02
    0.5000000000E+04    0.2559660417E-01    0.2547702783E-02    0.6917639455E+00    0.6362227305E-01    0.1840778206E-02
    0.7000000000E+04    0.3163566018E-01    0.3154830905E-02    0.6924465699E+00    0.8350083743E-01    0.1868958401E-02
    0.9000000000E+04    0.3618658930E-01    0.3615254825E-02    0.6928204803E+00    0.1011085330E+00    0.1895863563E-02
    0.1100000000E+05    0.3966265945E-01    0.3969469260E-02    0.6930547752E+00    0.1170004978E+00    0.1917504779E-02
    0.1300000000E+05    0.4232229999E-01    0.4242783336E-02    0.6932143466E+00    0.1315001263E+00    0.1935642167E-02
    0.1500000000E+05    0.4435149856E-01    0.4453439012E-02    0.6933293806E+00    0.1448490779E+00    0.1951274890E-02
    0.1700000000E+05    0.4588704119E-01    0.4614873949E-02    0.6934157986E+00    0.1572319003E+00    0.1965025268E-02
    0.1900000000E+05    0.4703143437E-01    0.4737175314E-02    0.6934827806E+00    0.1687922005E+00    0.1977307750E-02
    0.2100000000E+05    0.4786276797E-01    0.4828041304E-02    0.6935359850E+00    0.1796435922E+00    0.1988412529E-02
    0.2300000000E+05    0.4844139777E-01    0.4893433092E-02    0.6935790853E+00    0.1898772913E+00    0.1998550874E-02
    0.2500000000E+05    0.4881457411E-01    0.4938026728E-02    0.6936145677E+00    0.1995675013E+00    0.2007881470E-02
    0.2700000000E+05    0.4901971149E-01    0.4965532602E-02    0.6936441735E+00    0.2087753063E+00    0.2016526596E-02
    0.2900000000E+05    0.4908673908E-01    0.4978925300E-02    0.6936691573E+00    0.2175515345E+00    0.2024582509E-02
    0.3100000000E+05    0.4903981777E-01    0.4980611643E-02    0.6936904454E+00    0.2259388967E+00    0.2032126365E-02
    0.3300000000E+05    0.4889861240E-01    0.4972555316E-02    0.6937087357E+00    0.2339736071E+00    0.2039220981E-02
    0.3500000000E+05    0.4867924699E-01    0.4956370522E-02    0.6937245640E+00    0.2416866265E+00    0.2045918192E-02
    0.3700000000E+05    0.4839503057E-01    0.4933393210E-02    0.6937383479E+00    0.2491046280E+00    0.2052261280E-02
    0.3900000000E+05    0.4805701465E-01    0.4904735839E-02    0.6937504176E+00    0.2562507545E+00    0.2058286765E-02
    0.4100000000E+05    0.4767442594E-01    0.4871329928E-02    0.6937610375E+00    0.2631452192E+00    0.2064025750E-02
    0.4300000000E+05    0.4725500520E-01    0.4833959408E-02    0.6937704214E+00    0.2698057860E+00    0.2069504945E-02
    0.4500000000E+05    0.4680527496E-01    0.4793287006E-02    0.6937787444E+00    0.2762481566E+00    0.2074747460E-02
    0.4700000000E+05    0.4633075275E-01    0.4749875277E-02    0.6937861507E+00    0.2824862854E+00    0.2079773429E-02
    0.4900000000E+05    0.4583612218E-01    0.4704203503E-02    0.6937927604E+00    0.2885326378E+00    0.2084600498E-02
    0.1000000000E+05    0.3804078201E-01    0.3803856695E-02    0.6929498032E+00    0.1092464866E+00    0.1907207275E-02
    0.3000000000E+05    0.4907620011E-01    0.4981099874E-02    0.6936802153E+00    0.2217914243E+00    0.2028414226E-02
    0.5000000000E+05    0.4558253644E-01    0.4680650522E-02    0.6937957987E+00    0.2914874389E+00    0.2086944380E-02
    0.7000000000E+05    0.4015920627E-01    0.4163865215E-02    0.6938323284E+00    0.3427217853E+00    0.2126346570E-02
    0.9000000000E+05    0.3494195772E-01    0.3653251513E-02    0.6938453002E+00    0.3828085664E+00    0.2156236305E-02
    0.1100000000E+06    0.3036965833E-01    0.3198605980E-02    0.6938488334E+00    0.4151647873E+00    0.2180392603E-02
    0.1300000000E+06    0.2647656961E-01    0.2806948273E-02    0.6938479726E+00    0.4417927316E+00    0.2200702102E-02
    0.1500000000E+06    0.2319118308E-01    0.2473297311E-02    0.6938448921E+00    0.4640185059E+00    0.2218245951E-02
    0.1700000000E+06    0.2042132475E-01    0.2189748707E-02    0.6938406471E+00    0.4827825103E+00    0.2233702720E-02
    0.1900000000E+06    0.1808000457E-01    0.1948397888E-02    0.6938357927E+00    0.4987791839E+00    0.2247526867E-02
    0.2100000000E+06    0.1609239263E-01    0.1742239414E-02    0.6938306377E+00    0.5125348991E+00    0.2260037971E-02
    0.2300000000E+06    0.1439645691E-01    0.1565352406E-02    0.6938253609E+00    0.5244560767E+00    0.2271469485E-02
    0.2500000000E+06    0.1294157655E-01    0.1412836162E-02    0.6938200681E+00    0.5348610249E+00    0.2281997241E-02
    0.2700000000E+06    0.1168668546E-01    0.1280670413E-02    0.6938148227E+00    0.5440019936E+00    0.2291757034E-02
    0.2900000000E+06    0.1059849715E-01    0.1165566415E-02    0.6938096628E+00    0.5520809338E+00    0.2300855969E-02
    0.3100000000E+06    0.9649979204E-02    0.1064832382E-02    0.6938046106E+00    0.5592610117E+00    0.2309380033E-02
    0.3300000000E+06    0.8819102000E-02    0.9762597110E-03    0.6937996781E+00    0.5656751619E+00    0.2317399332E-02
    0.3500000000E+06    0.8087834795E-02    0.8980297801E-03    0.6937948715E+00    0.5714325294E+00    0.2324971785E-02
    0.3700000000E+06    0.7441348706E-02    0.8286387921E-03    0.6937901925E+00    0.5766233743E+00    0.2332145804E-02
    0.3900000000E+06    0.6867386647E-02    0.7668376275E-03    0.6937856404E+00    0.5813228451E+00    0.2338962279E-02
    0.4100000000E+06    0.6355765537E-02    0.7115838418E-03    0.6937812128E+00    0.5855939077E+00    0.2345456061E-02
    0.4300000000E+06    0.5897982411E-02    0.6620033551E-03    0.6937769064E+00    0.5894896361E+00    0.2351657102E-02
    0.4500000000E+06    0.5486901824E-02    0.6173598242E-03    0.6937727170E+00    0.5930550205E+00    0.2357591335E-02
    0.4700000000E+06    0.5116506858E-02    0.5770300876E-03    0.6937686405E+00    0.5963284018E+00    0.2363281366E-02
    0.4900000000E+06    0.4781699951E-02    0.5404844085E-03    0.6937646723E+00    0.5993426204E+00    0.2368747021E-02
    0.1000000000E+06    0.3256880282E-01    0.3418027374E-02    0.6938478286E+00    0.3998068195E+00    0.2168886938E-02
    0.3000000000E+06    0.1010826061E-01    0.1113551327E-02    0.6938071223E+00    0.5557743978E+00    0.2305185155E-02
    0.5000000000E+06    0.4626260371E-02    0.5234866018E-03    0.6937627275E+00    0.6007615331E+00    0.2371401253E-02
    0.7000000000E+06    0.2614188029E-02    0.3013288698E-03    0.6937284982E+00    0.6206692282E+00    0.2416043497E-02
    0.9000000000E+06    0.1671637696E-02    0.1954137375E-03    0.6937009715E+00    0.6316259633E+00    0.2449930982E-02
    0.1100000000E+07    0.1158321121E-02    0.1369491441E-03    0.6936779845E+00    0.6384877578E+00    0.2477328611E-02
    0.1300000000E+07    0.8489805054E-03    0.1013287836E-03    0.6936582477E+00    0.6431639794E+00    0.2500368880E-02
    0.1500000000E+07    0.6485415246E-03    0.7803461884E-04    0.6936409470E+00    0.6465453696E+00    0.2520274979E-02
    0.1700000000E+07    0.5114004100E-03    0.6196924323E-04    0.6936255389E+00    0.6490997767E+00    0.2537815121E-02
    0.1900000000E+07    0.4135095784E-03    0.5042119635E-04    0.6936116433E+00    0.6510952576E+00    0.2553504036E-02
    0.2100000000E+07    0.3412285198E-03    0.4184079334E-04    0.6935989845E+00    0.6526959529E+00    0.2567703814E-02
    0.2300000000E+07    0.2863582602E-03    0.3529031779E-04    0.6935873560E+00    0.6540077828E+00    0.2580679034E-02
    0.2500000000E+07    0.2437326250E-03    0.3017536840E-04    0.6935765992E+00    0.6551020579E+00    0.2592629014E-02
    0.2700000000E+07    0.2099665048E-03    0.2610434859E-04    0.6935665897E+00    0.6560284977E+00    0.2603707717E-02
    0.2900000000E+07    0.1827674128E-03    0.2281073980E-04    0.6935572281E+00    0.6568228003E+00    0.2614036592E-02
    0.3100000000E+07    0.1605384035E-03    0.2010803462E-04    0.6935484336E+00    0.6575112449E+00    0.2623713159E-02
    0.3300000000E+07    0.1421395813E-03    0.1786253902E-04    0.6935401399E+00    0.6581135972E+00    0.2632816929E-02
    0.3500000000E+07    0.1267397758E-03    0.1597638214E-04    0.6935322917E+00    0.6586450045E+00    0.2641413602E-02
    0.3700000000E+07    0.1137214490E-03    0.1437657883E-04    0.6935248424E+00    0.6591172670E+00    0.2649558097E-02
    0.3900000000E+07    0.1026180804E-03    0.1300780007E-04    0.6935177523E+00    0.6595397119E+00    0.2657296803E-02
    0.4100000000E+07    0.9307195100E-04    0.1182748105E-04    0.6935109876E+00    0.6599198074E+00    0.2664669260E-02
    0.4300000000E+07    0.8480507370E-04    0.1080244120E-04    0.6935045189E+00    0.6602636034E+00    0.2671709452E-02
    0.4500000000E+07    0.7759879242E-04    0.9906504570E-05    0.6934983208E+00    0.6605760518E+00    0.2678446805E-02
    0.4700000000E+07    0.7127921892E-04    0.9118795946E-05    0.6934923710E+00    0.6608612448E+00    0.2684906970E-02
    0.4900000000E+07    0.6570667355E-04    0.8422501843E-05    0.6934866498E+00    0.6611225932E+00    0.2691112446E-02
    0.1000000000E+07    0.1380097844E-02    0.1622937316E-03    0.6936890057E+00    0.6354137702E+00    0.2464278095E-02
    0.3000000000E+07    0.1711115380E-03    0.2139488170E-04    0.6935527644E+00    0.6571788928E+00    0.2618951078E-02
    0.5000000000E+07    0.6316428617E-04    0.8104261760E-05    0.6934838694E+00    0.6612452394E+00    0.2694125969E-02
    0.7000000000E+07    0.3277411624E-04    0.4265548519E-05    0.6934369293E+00    0.6629494442E+00    0.2744812704E-02
    0.9000000000E+07    0.2014085244E-04    0.2642916203E-05    0.6934011155E+00    0.6638856091E+00    0.2783289860E-02
    0.1100000000E+08    0.1370284296E-04    0.1805906791E-05    0.6933720716E+00    0.6644772971E+00    0.2814398709E-02
    0.1300000000E+08    0.9979737016E-05    0.1317337545E-05    0.6933475963E+00    0.6648850563E+00    0.2840560186E-02
    0.1500000000E+08    0.7632102197E-05    0.1006996883E-05    0.6933264187E+00    0.6651831009E+00    0.2863163018E-02
    0.1700000000E+08    0.6055445389E-05    0.7973452863E-06    0.6933077367E+00    0.6654104576E+00    0.2883079413E-02
    0.1900000000E+08    0.4944449147E-05    0.6489115911E-06    0.6932910113E+00    0.6655896077E+00    0.2900893800E-02
    0.2100000000E+08    0.4131366531E-05    0.5398641638E-06    0.6932758621E+00    0.6657344138E+00    0.2917017306E-02
    0.2300000000E+08    0.3517801955E-05    0.4573226332E-06    0.6932620107E+00    0.6658538888E+00    0.2931750346E-02
    0.2500000000E+08    0.3042933099E-05    0.3932844117E-06    0.6932492471E+00    0.6659541455E+00    0.2945319239E-02
    0.2700000000E+08    0.2667511991E-05    0.3425621297E-06    0.6932374086E+00    0.6660394766E+00    0.2957898802E-02
