  Pressure (Pa) 22mC5-500 (mol/kg) 23mC5-500 (mol/kg) 24mC5-500 (mol/kg) 3mC6-500 (mol/kg) C7-500 (mol/kg)
    0.1000000000E+01    0.1280997520E-04    0.1225686382E-05    0.1514014871E+00    0.2400113757E-05    0.4191584341E-02
    0.3000000000E+01    0.2495730946E-04    0.2380313357E-05    0.3164811274E+00    0.6135140307E-05    0.4230419212E-02
    0.5000000000E+01    0.3049648496E-04    0.2902809134E-05    0.4047437062E+00    0.9567214538E-05    0.4249966722E-02
    0.7000000000E+01    0.3357607109E-04    0.3192008105E-05    0.4596874758E+00    0.1285202538E-04    0.4262140400E-02
    0.9000000000E+01    0.3555783680E-04    0.3378082307E-05    0.4971836205E+00    0.1604218324E-04    0.4270504502E-02
    0.1100000000E+02    0.3699499770E-04    0.3513588218E-05    0.5244043347E+00    0.1916404481E-04    0.4276620023E-02
    0.1300000000E+02    0.3814421452E-04    0.3622743825E-05    0.5450644897E+00    0.2223331285E-04    0.4281289723E-02
    0.1500000000E+02    0.3913582095E-04    0.3717753833E-05    0.5612808204E+00    0.2526034315E-04    0.4284971200E-02
    0.1700000000E+02    0.4004039167E-04    0.3805169683E-05    0.5743478724E+00    0.2825244243E-04    0.4287945324E-02
    0.1900000000E+02    0.4089795741E-04    0.3888669691E-05    0.5851018678E+00    0.3121502164E-04    0.4290394473E-02
    0.2100000000E+02    0.4173198641E-04    0.3970383911E-05    0.5941070447E+00    0.3415223655E-04    0.4292442462E-02
    0.2300000000E+02    0.4255654204E-04    0.4051569320E-05    0.6017579223E+00    0.3706737118E-04    0.4294176434E-02
    0.2500000000E+02    0.4338014956E-04    0.4132972800E-05    0.6083386508E+00    0.3996308077E-04    0.4295659592E-02
    0.2700000000E+02    0.4420797850E-04    0.4215034931E-05    0.6140590845E+00    0.4284155292E-04    0.4296938948E-02
    0.2900000000E+02    0.4504311955E-04    0.4298008532E-05    0.6190775742E+00    0.4570461862E-04    0.4298050230E-02
    0.3100000000E+02    0.4588735429E-04    0.4382029671E-05    0.6235158542E+00    0.4855383095E-04    0.4299021109E-02
    0.3300000000E+02    0.4674163084E-04    0.4467161239E-05    0.6274690479E+00    0.5139052257E-04    0.4299873362E-02
    0.3500000000E+02    0.4760636393E-04    0.4553420212E-05    0.6310125626E+00    0.5421584848E-04    0.4300624383E-02
    0.3700000000E+02    0.4848162735E-04    0.4640794979E-05    0.6342069455E+00    0.5703081851E-04    0.4301288238E-02
    0.3900000000E+02    0.4936727911E-04    0.4729256490E-05    0.6371013731E+00    0.5983632250E-04    0.4301876435E-02
    0.4100000000E+02    0.5026304359E-04    0.4818765478E-05    0.6397362001E+00    0.6263314998E-04    0.4302398488E-02
    0.4300000000E+02    0.5116856582E-04    0.4909277166E-05    0.6421448531E+00    0.6542200588E-04    0.4302862331E-02
    0.4500000000E+02    0.5208344756E-04    0.5000744330E-05    0.6443552559E+00    0.6820352309E-04    0.4303274642E-02
    0.4700000000E+02    0.5300727112E-04    0.5093119270E-05    0.6463909175E+00    0.7097827277E-04    0.4303641082E-02
    0.4900000000E+02    0.5393961505E-04    0.5186355077E-05    0.6482717709E+00    0.7374677274E-04    0.4303966486E-02
    0.1000000000E+02    0.3632427536E-04    0.3450244803E-05    0.5117949958E+00    0.1761050453E-04    0.4273782065E-02
    0.3000000000E+02    0.4546402559E-04    0.4339882893E-05    0.6213627643E+00    0.4713086856E-04    0.4298551741E-02
    0.5000000000E+02    0.5440885202E-04    0.5233281560E-05    0.6491595602E+00    0.7512882806E-04    0.4304115120E-02
    0.7000000000E+02    0.6414926674E-04    0.6207228183E-05    0.6618490405E+00    0.1025372590E-03    0.4305690486E-02
    0.9000000000E+02    0.7438426881E-04    0.7229791355E-05    0.6691155469E+00    0.1296773289E-03    0.4305685009E-02
    0.1100000000E+03    0.8494898910E-04    0.8284375439E-05    0.6738233464E+00    0.1567124643E-03    0.4304861972E-02
    0.1300000000E+03    0.9575793492E-04    0.9362556382E-05    0.6771215615E+00    0.1837419223E-03    0.4303546553E-02
    0.1500000000E+03    0.1067647295E-03    0.1045983401E-04    0.6795608118E+00    0.2108328070E-03    0.4301902993E-02
    0.1700000000E+03    0.1179432573E-03    0.1157371069E-04    0.6814379753E+00    0.2380339706E-03    0.4300024045E-02
    0.1900000000E+03    0.1292785695E-03    0.1270278055E-04    0.6829272531E+00    0.2653829970E-03    0.4297966388E-02
    0.2100000000E+03    0.1407622190E-03    0.1384626762E-04    0.6841376029E+00    0.2929100826E-03    0.4295766734E-02
    0.2300000000E+03    0.1523897236E-03    0.1500377694E-04    0.6851406680E+00    0.3206403582E-03    0.4293449944E-02
    0.2500000000E+03    0.1641591169E-03    0.1617515351E-04    0.6859854915E+00    0.3485953602E-03    0.4291033449E-02
    0.2700000000E+03    0.1760700846E-03    0.1736039869E-04    0.6867067763E+00    0.3767940060E-03    0.4288529800E-02
    0.2900000000E+03    0.1881234310E-03    0.1855961898E-04    0.6873297694E+00    0.4052532657E-03    0.4285948233E-02
    0.3100000000E+03    0.2003207401E-03    0.1977299370E-04    0.6878732775E+00    0.4339886398E-03    0.4283295655E-02
    0.3300000000E+03    0.2126641551E-03    0.2100075400E-04    0.6883515969E+00    0.4630145075E-03    0.4280577291E-02
    0.3500000000E+03    0.2251562312E-03    0.2224316906E-04    0.6887757898E+00    0.4923443869E-03    0.4277797128E-02
    0.3700000000E+03    0.2377998367E-03    0.2350053677E-04    0.6891545492E+00    0.5219911344E-03    0.4274958217E-02
    0.3900000000E+03    0.2505980847E-03    0.2477317750E-04    0.6894948016E+00    0.5519670988E-03    0.4272062893E-02
    0.4100000000E+03    0.2635542869E-03    0.2606142974E-04    0.6898021334E+00    0.5822842437E-03    0.4269112931E-02
    0.4300000000E+03    0.2766719208E-03    0.2736564718E-04    0.6900811005E+00    0.6129542464E-03    0.4266109662E-02
    0.4500000000E+03    0.2899546069E-03    0.2868619667E-04    0.6903354552E+00    0.6439885775E-03    0.4263054060E-02
    0.4700000000E+03    0.3034060943E-03    0.3002345689E-04    0.6905683159E+00    0.6753985679E-03    0.4259946808E-02
    0.4900000000E+03    0.3170302492E-03    0.3137781749E-04    0.6907822956E+00    0.7071954643E-03    0.4256788349E-02
    0.1000000000E+03    0.7963200147E-04    0.7753732926E-05    0.6716966674E+00    0.1432008157E-03    0.4305349862E-02
    0.3000000000E+03    0.1942039673E-03    0.1916452362E-04    0.6876104773E+00    0.4195855169E-03    0.4284630460E-02
    0.5000000000E+03    0.3239083158E-03    0.3206153504E-04    0.6908829081E+00    0.7232425058E-03    0.4255190000E-02
    0.7000000000E+03    0.4715727587E-03    0.4673771873E-04    0.6922942246E+00    0.1067276985E-02    0.4220512008E-02
    0.9000000000E+03    0.6418385746E-03    0.6365722283E-04    0.6930803423E+00    0.1463687400E-02    0.4180234779E-02
    0.1100000000E+04    0.8406978724E-03    0.8341665281E-04    0.6935812284E+00    0.1926932136E-02    0.4133269892E-02
    0.1300000000E+04    0.1076057001E-02    0.1068023057E-03    0.6939282015E+00    0.2475805919E-02    0.4078003693E-02
    0.1500000000E+04    0.1358604943E-02    0.1348768401E-03    0.6941827030E+00    0.3135633556E-02    0.4012197187E-02
    0.1700000000E+04    0.1703111019E-02    0.1691084171E-03    0.6943773170E+00    0.3941407669E-02    0.3932753158E-02
    0.1900000000E+04    0.2130397130E-02    0.2115668533E-03    0.6945309312E+00    0.4942525585E-02    0.3835342757E-02
    0.2100000000E+04    0.2670349475E-02    0.2652231370E-03    0.6946552480E+00    0.6210034986E-02    0.3713842040E-02
    0.2300000000E+04    0.3366429360E-02    0.3343980928E-03    0.6947579049E+00    0.7847545488E-02    0.3559522749E-02
    0.2500000000E+04    0.4281941387E-02    0.4253860463E-03    0.6948440976E+00    0.1000655598E-01    0.3360023375E-02
    0.2700000000E+04    0.5506787503E-02    0.5471274672E-03    0.6949174840E+00    0.1290346396E-01    0.3098523154E-02
    0.2900000000E+04    0.7157437105E-02    0.7112085895E-03    0.6949807135E+00    0.1682150225E-01    0.2754883837E-02
    0.3100000000E+04    0.9346375172E-02    0.9288288662E-03    0.6950357524E+00    0.2204165124E-01    0.2313787577E-02
    0.3300000000E+04    0.1207697981E-01    0.1200355286E-02    0.6950840905E+00    0.2859614311E-01    0.1787658467E-02
    0.3500000000E+04    0.1508052046E-01    0.1499112179E-02    0.6951268769E+00    0.3587603150E-01    0.1246070802E-02
    0.3700000000E+04    0.1784624538E-01    0.1774345406E-02    0.6951650128E+00    0.4268206471E-01    0.7972106777E-03
    0.3900000000E+04    0.2000714445E-01    0.1989551943E-02    0.6951992142E+00    0.4812737523E-01    0.5026879870E-03
    0.4100000000E+04    0.2157163200E-01    0.2145532795E-02    0.6952300576E+00    0.5220489336E-01    0.3422816336E-03
    0.4300000000E+04    0.2273476042E-01    0.2261652853E-02    0.6952580120E+00    0.5535924514E-01    0.2644830762E-03
    0.4500000000E+04    0.2367151543E-01    0.2355296054E-02    0.6952834633E+00    0.5799799407E-01    0.2290219955E-03
    0.4700000000E+04    0.2448689393E-01    0.2436896165E-02    0.6953067315E+00    0.6036793836E-01    0.2134070013E-03
    0.4900000000E+04    0.2523475635E-01    0.2511806099E-02    0.6953280844E+00    0.6259626645E-01    0.2067323881E-03
    0.1000000000E+04    0.7372532892E-03    0.7313810334E-04    0.6933557781E+00    0.1685904904E-02    0.4157676387E-02
    0.3000000000E+04    0.8179933041E-02    0.8128587928E-03    0.6950091544E+00    0.1925642175E-01    0.2546781800E-02
    0.5000000000E+04    0.2559213259E-01    0.2547623207E-02    0.6953381146E+00    0.6367802814E-01    0.2050605534E-03
    0.7000000000E+04    0.3161249935E-01    0.3152853605E-02    0.6954780253E+00    0.8350084296E-01    0.2050801657E-03
    0.9000000000E+04    0.3616595557E-01    0.3613502869E-02    0.6955551113E+00    0.1011085075E+00    0.2079748623E-03
    0.1100000000E+05    0.3964385556E-01    0.3967879725E-02    0.6956037418E+00    0.1170004700E+00    0.2103145142E-03
    0.1300000000E+05    0.4230489727E-01    0.4241317661E-02    0.6956371078E+00    0.1315000965E+00    0.2122810848E-03
    0.1500000000E+05    0.4433521408E-01    0.4452071843E-02    0.6956613512E+00    0.1448490462E+00    0.2139795700E-03
    0.1700000000E+05    0.4587167651E-01    0.4613587563E-02    0.6956797158E+00    0.1572318668E+00    0.2154758211E-03
    0.1900000000E+05    0.4701684390E-01    0.4735956746E-02    0.6956940746E+00    0.1687921653E+00    0.2168139169E-03
    0.2100000000E+05    0.4784884112E-01    0.4826880729E-02    0.6957055843E+00    0.1796435555E+00    0.2180248419E-03
    0.2300000000E+05    0.4842804816E-01    0.4892322854E-02    0.6957149973E+00    0.1898772532E+00    0.2191312231E-03
    0.2500000000E+05    0.4880173274E-01    0.4936960724E-02    0.6957228237E+00    0.1995674618E+00    0.2201500986E-03
    0.2700000000E+05    0.4900732216E-01    0.4964505872E-02    0.6957294216E+00    0.2087752655E+00    0.2210946245E-03
    0.2900000000E+05    0.4907475534E-01    0.4977933749E-02    0.6957350495E+00    0.2175514924E+00    0.2219751752E-03
    0.3100000000E+05    0.4902820066E-01    0.4979651843E-02    0.6957398987E+00    0.2259388534E+00    0.2228000791E-03
    0.3300000000E+05    0.4888732886E-01    0.4971624363E-02    0.6957441138E+00    0.2339735625E+00    0.2235761249E-03
    0.3500000000E+05    0.4866826870E-01    0.4955465931E-02    0.6957478059E+00    0.2416865808E+00    0.2243089211E-03
    0.3700000000E+05    0.4838433301E-01    0.4932512832E-02    0.6957510619E+00    0.2491045812E+00    0.2250031552E-03
    0.3900000000E+05    0.4804657645E-01    0.4903877806E-02    0.6957539506E+00    0.2562507066E+00    0.2256627858E-03
    0.4100000000E+05    0.4766422835E-01    0.4870492598E-02    0.6957565273E+00    0.2631451703E+00    0.2262911869E-03
    0.4300000000E+05    0.4724503161E-01    0.4833141333E-02    0.6957588368E+00    0.2698057361E+00    0.2268912579E-03
    0.4500000000E+05    0.4679551062E-01    0.4792486899E-02    0.6957609158E+00    0.2762481056E+00    0.2274655092E-03
    0.4700000000E+05    0.4632118448E-01    0.4749091990E-02    0.6957627949E+00    0.2824862336E+00    0.2280161289E-03
    0.4900000000E+05    0.4582673812E-01    0.4703436003E-02    0.6957644993E+00    0.2885325849E+00    0.2285450359E-03
    0.1000000000E+05    0.3802112973E-01    0.3802191946E-02    0.6955819111E+00    0.1092464599E+00    0.2092002269E-03
    0.3000000000E+05    0.4906440415E-01    0.4980124591E-02    0.6957375615E+00    0.2217913816E+00    0.2223941274E-03
    0.5000000000E+05    0.4557324040E-01    0.4679890561E-02    0.6957652928E+00    0.2914873856E+00    0.2288018839E-03
    0.7000000000E+05    0.4015126110E-01    0.4163220503E-02    0.6957757370E+00    0.3427217236E+00    0.2331219253E-03
    0.9000000000E+05    0.3493489219E-01    0.3652681357E-02    0.6957807296E+00    0.3828084976E+00    0.2364013379E-03
    0.1100000000E+06    0.3036322488E-01    0.3198089128E-02    0.6957833849E+00    0.4151647122E+00    0.2390528093E-03
    0.1300000000E+06    0.2647061909E-01    0.2806471981E-02    0.6957848579E+00    0.4417926509E+00    0.2412826735E-03
    0.1500000000E+06    0.2318561735E-01    0.2472853226E-02    0.6957856677E+00    0.4640184200E+00    0.2432092797E-03
    0.1700000000E+06    0.2041607515E-01    0.2189331003E-02    0.6957860783E+00    0.4827824195E+00    0.2449069552E-03
    0.1900000000E+06    0.1807502082E-01    0.1948002312E-02    0.6957862365E+00    0.4987790885E+00    0.2464255020E-03
    0.2100000000E+06    0.1608763658E-01    0.1741862746E-02    0.6957862293E+00    0.5125347994E+00    0.2477999540E-03
    0.2300000000E+06    0.1439189881E-01    0.1564992140E-02    0.6957861110E+00    0.5244559730E+00    0.2490559107E-03
    0.2500000000E+06    0.1293719264E-01    0.1412490302E-02    0.6957859166E+00    0.5348609174E+00    0.2502126573E-03
    0.2700000000E+06    0.1168245643E-01    0.1280337339E-02    0.6957856698E+00    0.5440018824E+00    0.2512850909E-03
    0.2900000000E+06    0.1059440701E-01    0.1165244789E-02    0.6957853866E+00    0.5520808191E+00    0.2522849626E-03
    0.3100000000E+06    0.9646014584E-02    0.1064521086E-02    0.6957850783E+00    0.5592608935E+00    0.2532217086E-03
    0.3300000000E+06    0.8815251550E-02    0.9759577969E-03    0.6957847530E+00    0.5656750405E+00    0.2541030226E-03
    0.3500000000E+06    0.8084088793E-02    0.8977364377E-03    0.6957844166E+00    0.5714324048E+00    0.2549352616E-03
    0.3700000000E+06    0.7437698745E-02    0.8283533215E-03    0.6957840733E+00    0.5766232466E+00    0.2557237401E-03
    0.3900000000E+06    0.6863825398E-02    0.7665594194E-03    0.6957837263E+00    0.5813227144E+00    0.2564729466E-03
    0.4100000000E+06    0.6352286567E-02    0.7113123618E-03    0.6957833778E+00    0.5855937741E+00    0.2571867074E-03
    0.4300000000E+06    0.5894580033E-02    0.6617381314E-03    0.6957830297E+00    0.5894894997E+00    0.2578683111E-03
    0.4500000000E+06    0.5483570983E-02    0.6171004379E-03    0.6957826832E+00    0.5930548813E+00    0.2585206051E-03
    0.4700000000E+06    0.5113243035E-02    0.5767761646E-03    0.6957823393E+00    0.5963282600E+00    0.2591460717E-03
    0.4900000000E+06    0.4778499089E-02    0.5402356132E-03    0.6957819987E+00    0.5993424759E+00    0.2597468880E-03
    0.1000000000E+06    0.3256207653E-01    0.3417485855E-02    0.6957822547E+00    0.3998067475E+00    0.2377898011E-03
    0.3000000000E+06    0.1010423476E-01    0.1113234995E-02    0.6957852350E+00    0.5557742813E+00    0.2527607100E-03
    0.5000000000E+06    0.4623089593E-02    0.5232402550E-03    0.6957818298E+00    0.6007613874E+00    0.2600386613E-03
    0.7000000000E+06    0.2611478720E-02    0.3011199363E-03    0.6957786927E+00    0.6206690592E+00    0.2649465183E-03
    0.9000000000E+06    0.1669228698E-02    0.1952289927E-03    0.6957760107E+00    0.6316257746E+00    0.2686725354E-03
    0.1100000000E+07    0.1156127838E-02    0.1367816873E-03    0.6957737001E+00    0.6384875516E+00    0.2716852688E-03
    0.1300000000E+07    0.8469519964E-03    0.1011744782E-03    0.6957716785E+00    0.6431637576E+00    0.2742190430E-03
    0.1500000000E+07    0.6466442853E-03    0.7789075498E-04    0.6957698839E+00    0.6465451333E+00    0.2764082819E-03
    0.1700000000E+07    0.5096110037E-03    0.6183393120E-04    0.6957682710E+00    0.6490995270E+00    0.2783374168E-03
    0.1900000000E+07    0.4118108442E-03    0.5029305639E-04    0.6957668065E+00    0.6510949953E+00    0.2800630238E-03
    0.2100000000E+07    0.3396074414E-03    0.4171878152E-04    0.6957654652E+00    0.6526956789E+00    0.2816249041E-03
    0.2300000000E+07    0.2848046841E-03    0.3517362160E-04    0.6957642278E+00    0.6540074976E+00    0.2830521420E-03
    0.2500000000E+07    0.2422384480E-03    0.3006334072E-04    0.6957630792E+00    0.6551017620E+00    0.2843666486E-03
    0.2700000000E+07    0.2085251358E-03    0.2599646403E-04    0.6957620072E+00    0.6560281915E+00    0.2855853500E-03
    0.2900000000E+07    0.1813734043E-03    0.2270656488E-04    0.6957610021E+00    0.6568224844E+00    0.2867215980E-03
    0.3100000000E+07    0.1591871911E-03    0.2000720670E-04    0.6957600559E+00    0.6575109195E+00    0.2877861143E-03
    0.3300000000E+07    0.1408272946E-03    0.1776475106E-04    0.6957591619E+00    0.6581132627E+00    0.2887876410E-03
    0.3500000000E+07    0.1254630991E-03    0.1588137144E-04    0.6957583146E+00    0.6586446612E+00    0.2897334015E-03
    0.3700000000E+07    0.1124775152E-03    0.1428411858E-04    0.6957575091E+00    0.6591169152E+00    0.2906294344E-03
    0.3900000000E+07    0.1014043906E-03    0.1291769279E-04    0.6957567416E+00    0.6595393518E+00    0.2914808401E-03
    0.4100000000E+07    0.9188631114E-04    0.1173955356E-04    0.6957560084E+00    0.6599194393E+00    0.2922919665E-03
    0.4300000000E+07    0.8364554469E-04    0.1071654063E-04    0.6957553066E+00    0.6602632275E+00    0.2930665504E-03
    0.4500000000E+07    0.7646365048E-04    0.9822495166E-05    0.6957546335E+00    0.6605756683E+00    0.2938078274E-03
    0.4700000000E+07    0.7016692340E-04    0.9036556484E-05    0.6957539868E+00    0.6608608539E+00    0.2945186182E-03
    0.4900000000E+07    0.6461584068E-04    0.8341923557E-05    0.6957533645E+00    0.6611221950E+00    0.2952013968E-03
    0.1000000000E+07    0.1377804626E-02    0.1621182751E-03    0.6957748146E+00    0.6354135726E+00    0.2702501597E-03
    0.3000000000E+07    0.1697394510E-03    0.2129242183E-04    0.6957605221E+00    0.6571785721E+00    0.2872622360E-03
    0.5000000000E+07    0.6208370876E-04    0.8024476685E-05    0.6957530619E+00    0.6612448377E+00    0.2955329736E-03
    0.7000000000E+07    0.3185084008E-04    0.4197883278E-05    0.6957479388E+00    0.6629489782E+00    0.3011103762E-03
    0.9000000000E+07    0.1931993648E-04    0.2583086222E-05    0.6957440151E+00    0.6638850884E+00    0.3053447261E-03
    0.1100000000E+08    0.1295544967E-04    0.1751676499E-05    0.6957408258E+00    0.6644767282E+00    0.3087684867E-03
    0.1300000000E+08    0.9288501926E-05    0.1267367012E-05    0.6957381340E+00    0.6648844438E+00    0.3116479459E-03
    0.1500000000E+08    0.6985605555E-05    0.9604082463E-06    0.6957358020E+00    0.6651824485E+00    0.3141358654E-03
    0.1700000000E+08    0.5445699040E-05    0.7535264588E-06    0.6957337430E+00    0.6654097682E+00    0.3163281946E-03
    0.1900000000E+08    0.4365604101E-05    0.6074156570E-06    0.6957318982E+00    0.6655888836E+00    0.3182892282E-03
    0.2100000000E+08    0.3578986465E-05    0.5003529909E-06    0.6957302262E+00    0.6657336570E+00    0.3200641973E-03
    0.2300000000E+08    0.2988426342E-05    0.4195330526E-06    0.6957286966E+00    0.6658531010E+00    0.3216861542E-03
    0.2500000000E+08    0.2533800198E-05    0.3570068220E-06    0.6957272865E+00    0.6659533281E+00    0.3231799993E-03
    0.2700000000E+08    0.2176375510E-05    0.3076263658E-06    0.6957259780E+00    0.6660386310E+00    0.3245649681E-03
