  Pressure (Pa) 22mC5-500 (mol/kg) 23mC5-500 (mol/kg) 24mC5-500 (mol/kg) 3mC6-500 (mol/kg) C7-500 (mol/kg)
    0.1000000000E+01    0.1454057541E-04    0.1393258334E-05    0.9950155952E-01    0.8170010351E-05    0.4146452981E-02
    0.3000000000E+01    0.3214685126E-04    0.3072943376E-05    0.2321218700E+00    0.2017796003E-04    0.4174653136E-02
    0.5000000000E+01    0.4227296940E-04    0.4034291843E-05    0.3164885519E+00    0.3108068465E-04    0.4184177846E-02
    0.7000000000E+01    0.4872044693E-04    0.4644000938E-05    0.3748839754E+00    0.4146772207E-04    0.4189503928E-02
    0.9000000000E+01    0.5314993769E-04    0.5061752431E-05    0.4177011926E+00    0.5153359290E-04    0.4192873486E-02
    0.1100000000E+02    0.5638846024E-04    0.5366813459E-05    0.4504404717E+00    0.6137445870E-04    0.4195112190E-02
    0.1300000000E+02    0.5888643184E-04    0.5602209464E-05    0.4762853684E+00    0.7104706565E-04    0.4196623795E-02
    0.1500000000E+02    0.6090592362E-04    0.5792885358E-05    0.4972062770E+00    0.8058855909E-04    0.4197635924E-02
    0.1700000000E+02    0.6260737768E-04    0.5954055152E-05    0.5144880458E+00    0.9002498926E-04    0.4198288648E-02
    0.1900000000E+02    0.6409305427E-04    0.6095376957E-05    0.5290042675E+00    0.9937555094E-04    0.4198673551E-02
    0.2100000000E+02    0.6543028465E-04    0.6223182813E-05    0.5413696330E+00    0.1086549247E-03    0.4198853295E-02
    0.2300000000E+02    0.6666459798E-04    0.6341734777E-05    0.5520292282E+00    0.1178746713E-03    0.4198872299E-02
    0.2500000000E+02    0.6782746582E-04    0.6453964321E-05    0.5613132561E+00    0.1270441110E-03    0.4198762973E-02
    0.2700000000E+02    0.6894104351E-04    0.6561923971E-05    0.5694718563E+00    0.1361709048E-03    0.4198549536E-02
    0.2900000000E+02    0.7002116615E-04    0.6667071996E-05    0.5766979847E+00    0.1452614534E-03    0.4198250458E-02
    0.3100000000E+02    0.7107929381E-04    0.6770456787E-05    0.5831428707E+00    0.1543211786E-03    0.4197880071E-02
    0.3300000000E+02    0.7212380475E-04    0.6872839126E-05    0.5889267183E+00    0.1633547286E-03    0.4197449666E-02
    0.3500000000E+02    0.7316087326E-04    0.6974774945E-05    0.5941462738E+00    0.1723661301E-03    0.4196968258E-02
    0.3700000000E+02    0.7419507642E-04    0.7076672381E-05    0.5988802823E+00    0.1813589038E-03    0.4196443131E-02
    0.3900000000E+02    0.7522982049E-04    0.7178831735E-05    0.6031934882E+00    0.1903361533E-03    0.4195880230E-02
    0.4100000000E+02    0.7626764477E-04    0.7281473879E-05    0.6071396147E+00    0.1993006344E-03    0.4195284457E-02
    0.4300000000E+02    0.7731044106E-04    0.7384760690E-05    0.6107636128E+00    0.2082548105E-03    0.4194659885E-02
    0.4500000000E+02    0.7835961399E-04    0.7488809931E-05    0.6141033819E+00    0.2172008972E-03    0.4194009926E-02
    0.4700000000E+02    0.7941619936E-04    0.7593706197E-05    0.6171911003E+00    0.2261408975E-03    0.4193337459E-02
    0.4900000000E+02    0.8048095226E-04    0.7699509036E-05    0.6200542654E+00    0.2350766321E-03    0.4192644928E-02
    0.1000000000E+02    0.5488401893E-04    0.5225113231E-05    0.4350942795E+00    0.5647799763E-04    0.4194103198E-02
    0.3000000000E+02    0.7055239537E-04    0.6718931628E-05    0.5800099441E+00    0.1497948623E-03    0.4198073411E-02
    0.5000000000E+02    0.8101656741E-04    0.7752763707E-05    0.6214091593E+00    0.2395434248E-03    0.4192291804E-02
    0.7000000000E+02    0.9222150355E-04    0.8869466106E-05    0.6410198451E+00    0.3289944306E-03    0.4184551033E-02
    0.9000000000E+02    0.1043363065E-03    0.1007861660E-04    0.6524599762E+00    0.4193034131E-03    0.4176029563E-02
    0.1100000000E+03    0.1172510940E-03    0.1136749024E-04    0.6599556260E+00    0.5111000294E-03    0.4167060133E-02
    0.1300000000E+03    0.1308777413E-03    0.1272679609E-04    0.6652469404E+00    0.6048083497E-03    0.4157761164E-02
    0.1500000000E+03    0.1451635205E-03    0.1415114273E-04    0.6691816948E+00    0.7007550714E-03    0.4148177448E-02
    0.1700000000E+03    0.1600813411E-03    0.1563781570E-04    0.6722223222E+00    0.7992162376E-03    0.4138323374E-02
    0.1900000000E+03    0.1756214241E-03    0.1718586584E-04    0.6746425140E+00    0.9004407838E-03    0.4128199035E-02
    0.2100000000E+03    0.1917859063E-03    0.1879554201E-04    0.6766145986E+00    0.1004663827E-02    0.4117797039E-02
    0.2300000000E+03    0.2085854952E-03    0.2046794703E-04    0.6782524911E+00    0.1112114882E-02    0.4107105664E-02
    0.2500000000E+03    0.2260374061E-03    0.2220482803E-04    0.6796345100E+00    0.1223023373E-02    0.4096110395E-02
    0.2700000000E+03    0.2441640858E-03    0.2400844824E-04    0.6808162742E+00    0.1337622609E-02    0.4084794706E-02
    0.2900000000E+03    0.2629924315E-03    0.2588150910E-04    0.6818383713E+00    0.1456152873E-02    0.4073140451E-02
    0.3100000000E+03    0.2825533288E-03    0.2782710453E-04    0.6827311145E+00    0.1578863972E-02    0.4061128042E-02
    0.3300000000E+03    0.3028814012E-03    0.2984869654E-04    0.6835175999E+00    0.1706017494E-02    0.4048736514E-02
    0.3500000000E+03    0.3240149094E-03    0.3195010556E-04    0.6842157340E+00    0.1837888886E-02    0.4035943512E-02
    0.3700000000E+03    0.3459957568E-03    0.3413551140E-04    0.6848396136E+00    0.1974769471E-02    0.4022725239E-02
    0.3900000000E+03    0.3688695772E-03    0.3640946239E-04    0.6854004880E+00    0.2116968460E-02    0.4009056367E-02
    0.4100000000E+03    0.3926858891E-03    0.3877689098E-04    0.6859074432E+00    0.2264815015E-02    0.3994909926E-02
    0.4300000000E+03    0.4174983069E-03    0.4124313495E-04    0.6863678983E+00    0.2418660409E-02    0.3980257174E-02
    0.4500000000E+03    0.4433648021E-03    0.4381396368E-04    0.6867879710E+00    0.2578880308E-02    0.3965067447E-02
    0.4700000000E+03    0.4703480136E-03    0.4649560913E-04    0.6871727508E+00    0.2745877221E-02    0.3949307993E-02
    0.4900000000E+03    0.4985156055E-03    0.4929480153E-04    0.6875265063E+00    0.2920083141E-02    0.3932943794E-02
    0.1000000000E+03    0.1107001320E-03    0.1071377447E-04    0.6565613217E+00    0.4649861714E-03    0.4171590862E-02
    0.3000000000E+03    0.2726792331E-03    0.2684503207E-04    0.6822993271E+00    0.1516969770E-02    0.4067180294E-02
    0.5000000000E+03    0.5130661618E-03    0.5074072712E-04    0.6876928994E+00    0.3010033236E-02    0.3924523302E-02
    0.7000000000E+03    0.8882802594E-03    0.8801985497E-04    0.6900310511E+00    0.5326390192E-02    0.3713299295E-02
    0.9000000000E+03    0.1526219692E-02    0.1513947888E-03    0.6913370563E+00    0.9269878152E-02    0.3371319057E-02
    0.1100000000E+04    0.2713376673E-02    0.2693403029E-03    0.6921707882E+00    0.1664469555E-01    0.2770342418E-02
    0.1300000000E+04    0.4908123584E-02    0.4874486129E-03    0.6927491916E+00    0.3040898932E-01    0.1749651003E-02
    0.1500000000E+04    0.7676746119E-02    0.7627583125E-03    0.6931739784E+00    0.4812753131E-01    0.6588829377E-03
    0.1700000000E+04    0.9482834441E-02    0.9426297495E-03    0.6934991687E+00    0.6025385321E-01    0.1947906186E-03
    0.1900000000E+04    0.1054011312E-01    0.1048191233E-02    0.6937561113E+00    0.6790619211E-01    0.9703430258E-04
    0.2100000000E+04    0.1137194187E-01    0.1131410915E-02    0.6939642477E+00    0.7428537218E-01    0.8084521141E-04
    0.2300000000E+04    0.1212398837E-01    0.1206757057E-02    0.6941362754E+00    0.8029129019E-01    0.7852887706E-04
    0.2500000000E+04    0.1282618455E-01    0.1277199405E-02    0.6942808390E+00    0.8610344959E-01    0.7845339957E-04
    0.2700000000E+04    0.1348598945E-01    0.1343474334E-02    0.6944040276E+00    0.9175998591E-01    0.7872322640E-04
    0.2900000000E+04    0.1410671628E-01    0.1405906380E-02    0.6945102540E+00    0.9727318632E-01    0.7903122814E-04
    0.3100000000E+04    0.1469080994E-01    0.1464734114E-02    0.6946027947E+00    0.1026503911E+00    0.7932899603E-04
    0.3300000000E+04    0.1524043387E-01    0.1520168472E-02    0.6946841334E+00    0.1078977403E+00    0.7961042135E-04
    0.3500000000E+04    0.1575758359E-01    0.1572404035E-02    0.6947561871E+00    0.1130208657E+00    0.7987614021E-04
    0.3700000000E+04    0.1624411625E-01    0.1621621937E-02    0.6948204590E+00    0.1180250373E+00    0.8012766303E-04
    0.3900000000E+04    0.1670176446E-01    0.1667991211E-02    0.6948781445E+00    0.1229152101E+00    0.8036643367E-04
    0.4100000000E+04    0.1713214651E-01    0.1711669788E-02    0.6949302060E+00    0.1276960499E+00    0.8059370992E-04
    0.4300000000E+04    0.1753677532E-01    0.1752805361E-02    0.6949774272E+00    0.1323719559E+00    0.8081057532E-04
    0.4500000000E+04    0.1791706645E-01    0.1791536161E-02    0.6950204526E+00    0.1369470788E+00    0.8101796671E-04
    0.4700000000E+04    0.1827434548E-01    0.1827991678E-02    0.6950598173E+00    0.1414253389E+00    0.8121669905E-04
    0.4900000000E+04    0.1860985465E-01    0.1862293300E-02    0.6950959690E+00    0.1458104416E+00    0.8140748561E-04
    0.1000000000E+04    0.2023650501E-02    0.2008129423E-03    0.6917953544E+00    0.1235415158E-01    0.3114749485E-02
    0.3000000000E+04    0.1440320252E-01    0.1435757161E-02    0.6945580643E+00    0.9997838924E-01    0.7918208007E-04
    0.5000000000E+04    0.1876981248E-01    0.1878672268E-02    0.6951129603E+00    0.1479691620E+00    0.8150009841E-04
    0.7000000000E+04    0.2107339571E-01    0.2117369187E-02    0.6953508049E+00    0.1870114818E+00    0.8305467046E-04
    0.9000000000E+04    0.2216225211E-01    0.2234913098E-02    0.6954828486E+00    0.2197660862E+00    0.8423164414E-04
    0.1100000000E+05    0.2251250976E-01    0.2278122449E-02    0.6955667869E+00    0.2478747464E+00    0.8518180377E-04
    0.1300000000E+05    0.2240554382E-01    0.2274801579E-02    0.6956248237E+00    0.2724122824E+00    0.8598009437E-04
    0.1500000000E+05    0.2201430732E-01    0.2242138210E-02    0.6956673234E+00    0.2941171855E+00    0.8666934640E-04
    0.1700000000E+05    0.2144833582E-01    0.2191088994E-02    0.6956997734E+00    0.3135176687E+00    0.8727639190E-04
    0.1900000000E+05    0.2077856148E-01    0.2128802714E-02    0.6957253506E+00    0.3310045497E+00    0.8781917692E-04
    0.2100000000E+05    0.2005164250E-01    0.2060023099E-02    0.6957460211E+00    0.3468754240E+00    0.8831030854E-04
    0.2300000000E+05    0.1929856408E-01    0.1987933220E-02    0.6957630670E+00    0.3613625347E+00    0.8875898889E-04
    0.2500000000E+05    0.1853997168E-01    0.1914680753E-02    0.6957773599E+00    0.3746509789E+00    0.8917214440E-04
    0.2700000000E+05    0.1778957055E-01    0.1841713999E-02    0.6957895131E+00    0.3868909721E+00    0.8955512164E-04
    0.2900000000E+05    0.1705634393E-01    0.1770002019E-02    0.6957999703E+00    0.3982063359E+00    0.8991213565E-04
    0.3100000000E+05    0.1634602973E-01    0.1700181816E-02    0.6958090608E+00    0.4087005192E+00    0.9024656931E-04
    0.3300000000E+05    0.1566212014E-01    0.1632658468E-02    0.6958170339E+00    0.4184609633E+00    0.9056117969E-04
    0.3500000000E+05    0.1500654810E-01    0.1567674257E-02    0.6958240819E+00    0.4275623314E+00    0.9085824406E-04
    0.3700000000E+05    0.1438016429E-01    0.1505356993E-02    0.6958303554E+00    0.4360689416E+00    0.9113966548E-04
    0.3900000000E+05    0.1378307182E-01    0.1445754148E-02    0.6958359741E+00    0.4440366304E+00    0.9140705088E-04
    0.4100000000E+05    0.1321486281E-01    0.1388857158E-02    0.6958410341E+00    0.4515142025E+00    0.9166176970E-04
    0.4300000000E+05    0.1267478654E-01    0.1334618852E-02    0.6958456140E+00    0.4585445734E+00    0.9190499868E-04
    0.4500000000E+05    0.1216186944E-01    0.1282965994E-02    0.6958497780E+00    0.4651656830E+00    0.9213775651E-04
    0.4700000000E+05    0.1167500073E-01    0.1233808342E-02    0.6958535795E+00    0.4714112326E+00    0.9236093107E-04
    0.4900000000E+05    0.1121299352E-01    0.1187045195E-02    0.6958570633E+00    0.4773112878E+00    0.9257530095E-04
    0.1000000000E+05    0.2240884525E-01    0.2263751589E-02    0.6955290270E+00    0.2343240917E+00    0.8472934235E-04
    0.3000000000E+05    0.1669806115E-01    0.1734825624E-02    0.6958046692E+00    0.4035502773E+00    0.9008198998E-04
    0.5000000000E+05    0.1099093223E-01    0.1164528420E-02    0.6958586980E+00    0.4801402803E+00    0.9267940190E-04
    0.7000000000E+05    0.7569574179E-02    0.8141402517E-03    0.6958813464E+00    0.5238408013E+00    0.9443020370E-04
    0.9000000000E+05    0.5473241408E-02    0.5958289461E-03    0.6958936350E+00    0.5517368950E+00    0.9575914884E-04
    0.1100000000E+06    0.4120944473E-02    0.4531704285E-03    0.6959012623E+00    0.5709107982E+00    0.9683357567E-04
    0.1300000000E+06    0.3205696850E-02    0.3555919938E-03    0.6959064060E+00    0.5848150774E+00    0.9773713176E-04
    0.1500000000E+06    0.2560505753E-02    0.2861865750E-03    0.6959100760E+00    0.5953170939E+00    0.9851778968E-04
    0.1700000000E+06    0.2089967769E-02    0.2351739959E-03    0.6959128031E+00    0.6035068927E+00    0.9920567521E-04
    0.1900000000E+06    0.1736904611E-02    0.1966332003E-03    0.6959148926E+00    0.6100597188E+00    0.9982097255E-04
    0.2100000000E+06    0.1465550800E-02    0.1668288248E-03    0.6959165322E+00    0.6154143502E+00    0.1003778798E-03
    0.2300000000E+06    0.1252684883E-02    0.1433176266E-03    0.6959178432E+00    0.6198673539E+00    0.1008867714E-03
    0.2500000000E+06    0.1082733552E-02    0.1244503270E-03    0.6959189077E+00    0.6236258947E+00    0.1013554624E-03
    0.2700000000E+06    0.9449538450E-03    0.1090825186E-03    0.6959197829E+00    0.6268387946E+00    0.1017899897E-03
    0.2900000000E+06    0.8317496139E-03    0.9640070175E-04    0.6959205100E+00    0.6296155661E+00    0.1021951152E-03
    0.3100000000E+06    0.7376316519E-03    0.8581415117E-04    0.6959211192E+00    0.6320384961E+00    0.1025746625E-03
    0.3300000000E+06    0.6585561030E-03    0.7688572732E-04    0.6959216332E+00    0.6341705554E+00    0.1029317493E-03
    0.3500000000E+06    0.5914922780E-03    0.6928644656E-04    0.6959220696E+00    0.6360607170E+00    0.1032689515E-03
    0.3700000000E+06    0.5341335790E-03    0.6276495090E-04    0.6959224418E+00    0.6377476184E+00    0.1035884226E-03
    0.3900000000E+06    0.4846999898E-03    0.5712655770E-04    0.6959227604E+00    0.6392621359E+00    0.1038919813E-03
    0.4100000000E+06    0.4418005150E-03    0.5221860920E-04    0.6959230341E+00    0.6406292307E+00    0.1041811780E-03
    0.4300000000E+06    0.4043356881E-03    0.4792005042E-04    0.6959232696E+00    0.6418692935E+00    0.1044573452E-03
    0.4500000000E+06    0.3714273759E-03    0.4413389852E-04    0.6959234726E+00    0.6429991396E+00    0.1047216368E-03
    0.4700000000E+06    0.3423674983E-03    0.4078172303E-04    0.6959236477E+00    0.6440327567E+00    0.1049750585E-03
    0.4900000000E+06    0.3165800662E-03    0.3779954685E-04    0.6959237986E+00    0.6449818727E+00    0.1052184925E-03
    0.1000000000E+06    0.4727724616E-02    0.5173842641E-03    0.6958978541E+00    0.5621465475E+00    0.9632178561E-04
    0.3000000000E+06    0.7825855394E-03    0.9087581716E-04    0.6959208278E+00    0.6308669451E+00    0.1023878769E-03
    0.5000000000E+06    0.3047624880E-03    0.3643039343E-04    0.6959238661E+00    0.6454278993E+00    0.1053367109E-03
    0.7000000000E+06    0.1606582463E-03    0.1957495441E-04    0.6959245025E+00    0.6516647103E+00    0.1073252343E-03
    0.9000000000E+06    0.9894739944E-04    0.1222725816E-04    0.6959244796E+00    0.6551193677E+00    0.1088349098E-03
    0.1100000000E+07    0.6700575344E-04    0.8372273644E-05    0.6959242216E+00    0.6573120829E+00    0.1100555849E-03
    0.1300000000E+07    0.4837273869E-04    0.6098799758E-05    0.6959238718E+00    0.6588269717E+00    0.1110822009E-03
    0.1500000000E+07    0.3656773210E-04    0.4645204328E-05    0.6959234883E+00    0.6599360597E+00    0.1119692222E-03
    0.1700000000E+07    0.2862197347E-04    0.3659100029E-05    0.6959230969E+00    0.6607830599E+00    0.1127508578E-03
    0.1900000000E+07    0.2302030696E-04    0.2959115844E-05    0.6959227096E+00    0.6614510177E+00    0.1134500304E-03
    0.2100000000E+07    0.1892399533E-04    0.2444111316E-05    0.6959223321E+00    0.6619912573E+00    0.1140828661E-03
    0.2300000000E+07    0.1583832505E-04    0.2054041656E-05    0.6959219671E+00    0.6624372030E+00    0.1146611489E-03
    0.2500000000E+07    0.1345623091E-04    0.1751419545E-05    0.6959216154E+00    0.6628115546E+00    0.1151937565E-03
    0.2700000000E+07    0.1157896041E-04    0.1511852139E-05    0.6959212773E+00    0.6631302688E+00    0.1156875467E-03
    0.2900000000E+07    0.1007327428E-04    0.1318907773E-05    0.6959209523E+00    0.6634048891E+00    0.1161479293E-03
    0.3100000000E+07    0.8847149130E-05    0.1161187065E-05    0.6959206399E+00    0.6636439729E+00    0.1165792484E-03
    0.3300000000E+07    0.7835376565E-05    0.1030578949E-05    0.6959203394E+00    0.6638539980E+00    0.1169850460E-03
    0.3500000000E+07    0.6990707132E-05    0.9211835980E-06    0.6959200502E+00    0.6640399582E+00    0.1173682487E-03
    0.3700000000E+07    0.6278227242E-05    0.8286258195E-06    0.6959197716E+00    0.6642057652E+00    0.1177313032E-03
    0.3900000000E+07    0.5671687535E-05    0.7496050657E-06    0.6959195030E+00    0.6643545266E+00    0.1180762761E-03
    0.4100000000E+07    0.5151045527E-05    0.6815932116E-06    0.6959192436E+00    0.6644887424E+00    0.1184049289E-03
    0.4300000000E+07    0.4700784420E-05    0.6226271111E-06    0.6959189930E+00    0.6646104463E+00    0.1187187757E-03
    0.4500000000E+07    0.4308740068E-05    0.5711634051E-06    0.6959187506E+00    0.6647213101E+00    0.1190191274E-03
    0.4700000000E+07    0.3965267885E-05    0.5259751023E-06    0.6959185159E+00    0.6648227204E+00    0.1193071270E-03
    0.4900000000E+07    0.3662641603E-05    0.4860767325E-06    0.6959182885E+00    0.6649158368E+00    0.1195837768E-03
    0.1000000000E+07    0.8065470574E-04    0.1002513507E-04    0.6959243679E+00    0.6563259845E+00    0.1094741187E-03
    0.3000000000E+07    0.9429846836E-05    0.1236213443E-05    0.6959207945E+00    0.6635284276E+00    0.1163669841E-03
    0.5000000000E+07    0.3524644916E-05    0.4678555216E-06    0.6959181774E+00    0.6649595964E+00    0.1197181259E-03
    0.7000000000E+07    0.1877377547E-05    0.2487342352E-06    0.6959162488E+00    0.6655718952E+00    0.1219780006E-03
    0.9000000000E+07    0.1191632420E-05    0.1563806218E-06    0.6959147221E+00    0.6659118040E+00    0.1236937027E-03
    0.1100000000E+08    0.8401504724E-06    0.1087035286E-06    0.6959134561E+00    0.6661280280E+00    0.1250809717E-03
    0.1300000000E+08    0.6352076962E-06    0.8079768615E-07    0.6959123728E+00    0.6662776938E+00    0.1262477008E-03
    0.1500000000E+08    0.5046961172E-06    0.6300160049E-07    0.6959114247E+00    0.6663874409E+00    0.1272557853E-03
    0.1700000000E+08    0.4160684950E-06    0.5092157258E-07    0.6959105807E+00    0.6664713654E+00    0.1281441017E-03
    0.1900000000E+08    0.3528624578E-06    0.4232231863E-07    0.6959098196E+00    0.6665376253E+00    0.1289387009E-03
    0.2100000000E+08    0.3060123394E-06    0.3596728855E-07    0.6959091258E+00    0.6665912693E+00    0.1296579096E-03
    0.2300000000E+08    0.2701846334E-06    0.3112642034E-07    0.6959084881E+00    0.6666355895E+00    0.1303151199E-03
    0.2500000000E+08    0.2420709396E-06    0.2734562284E-07    0.6959078977E+00    0.6666728240E+00    0.1309204211E-03
    0.2700000000E+08    0.2195280028E-06    0.2433012937E-07    0.6959073478E+00    0.6667045478E+00    0.1314816069E-03
