  Pressure (Pa) 22mC5-500 (mol/kg) 23mC5-500 (mol/kg) 24mC5-500 (mol/kg) 3mC6-500 (mol/kg) C7-500 (mol/kg)
    0.1000000000E+01    0.1536417933E-04    0.2945292881E-05    0.6965330060E-01    0.7147861073E-05    0.4147038455E-02
    0.3000000000E+01    0.3676512974E-04    0.7034506885E-05    0.1741005452E+00    0.1764965374E-04    0.4177436709E-02
    0.5000000000E+01    0.5095173720E-04    0.9735521663E-05    0.2486822647E+00    0.2718065555E-04    0.4189434133E-02
    0.7000000000E+01    0.6090476640E-04    0.1162435977E-04    0.3046061668E+00    0.3625704368E-04    0.4197065376E-02
    0.9000000000E+01    0.6819753077E-04    0.1300440273E-04    0.3480954807E+00    0.4504920240E-04    0.4202485022E-02
    0.1100000000E+02    0.7373535800E-04    0.1404987026E-04    0.3828826820E+00    0.5364138932E-04    0.4206525977E-02
    0.1300000000E+02    0.7807163014E-04    0.1486703332E-04    0.4113422641E+00    0.6208333906E-04    0.4209622576E-02
    0.1500000000E+02    0.8156076955E-04    0.1552380883E-04    0.4350568430E+00    0.7040761378E-04    0.4212035413E-02
    0.1700000000E+02    0.8443843936E-04    0.1606525572E-04    0.4551218629E+00    0.7863705264E-04    0.4213934006E-02
    0.1900000000E+02    0.8686623822E-04    0.1652220042E-04    0.4723196585E+00    0.8678848549E-04    0.4215434706E-02
    0.2100000000E+02    0.8895786871E-04    0.1691628071E-04    0.4872238650E+00    0.9487478430E-04    0.4216620545E-02
    0.2300000000E+02    0.9079509955E-04    0.1726301849E-04    0.5002646602E+00    0.1029060849E-03    0.4217552604E-02
    0.2500000000E+02    0.9243784550E-04    0.1757375765E-04    0.5117709715E+00    0.1108905577E-03    0.4218276919E-02
    0.2700000000E+02    0.9393072457E-04    0.1785692293E-04    0.5219986104E+00    0.1188349174E-03    0.4218828903E-02
    0.2900000000E+02    0.9530743514E-04    0.1811885922E-04    0.5311495186E+00    0.1267447725E-03    0.4219236274E-02
    0.3100000000E+02    0.9659374459E-04    0.1836440363E-04    0.5393852392E+00    0.1346248721E-03    0.4219521046E-02
    0.3300000000E+02    0.9780957099E-04    0.1859728355E-04    0.5468365383E+00    0.1424792863E-03    0.4219700941E-02
    0.3500000000E+02    0.9897045917E-04    0.1882039833E-04    0.5536104008E+00    0.1503115390E-03    0.4219790386E-02
    0.3700000000E+02    0.1000886440E-03    0.1903602200E-04    0.5597952020E+00    0.1581247098E-03    0.4219801249E-02
    0.3900000000E+02    0.1011738276E-03    0.1924595108E-04    0.5654645851E+00    0.1659215115E-03    0.4219743385E-02
    0.4100000000E+02    0.1022337545E-03    0.1945161395E-04    0.5706804083E+00    0.1737043514E-03    0.4219625045E-02
    0.4300000000E+02    0.1032746426E-03    0.1965415254E-04    0.5754950115E+00    0.1814753799E-03    0.4219453189E-02
    0.4500000000E+02    0.1043015096E-03    0.1985448416E-04    0.5799529795E+00    0.1892365289E-03    0.4219233733E-02
    0.4700000000E+02    0.1053184227E-03    0.2005334860E-04    0.5840925267E+00    0.1969895437E-03    0.4218971732E-02
    0.4900000000E+02    0.1063286907E-03    0.2025134455E-04    0.5879465962E+00    0.2047360090E-03    0.4218671535E-02
    0.1000000000E+02    0.7114526023E-04    0.1356116589E-04    0.3664049928E+00    0.4936665203E-04    0.4204645113E-02
    0.3000000000E+02    0.9596052773E-04    0.1824342520E-04    0.5353729756E+00    0.1306882732E-03    0.4219392790E-02
    0.5000000000E+02    0.1068321971E-03    0.2035017240E-04    0.5897756498E+00    0.2086072421E-03    0.4218508308E-02
    0.7000000000E+02    0.1169956741E-03    0.2235968257E-04    0.6166332030E+00    0.2859820817E-03    0.4213928972E-02
    0.9000000000E+02    0.1277797639E-03    0.2450671711E-04    0.6326401966E+00    0.3638110360E-03    0.4207840230E-02
    0.1100000000E+03    0.1393328336E-03    0.2681181220E-04    0.6432674364E+00    0.4426274805E-03    0.4200939424E-02
    0.1300000000E+03    0.1516248350E-03    0.2926561944E-04    0.6508370145E+00    0.5227814758E-03    0.4193511706E-02
    0.1500000000E+03    0.1646067425E-03    0.3185696663E-04    0.6565026847E+00    0.6045349003E-03    0.4185690784E-02
    0.1700000000E+03    0.1782393990E-03    0.3457743164E-04    0.6609025708E+00    0.6881024495E-03    0.4177544148E-02
    0.1900000000E+03    0.1924968277E-03    0.3742156341E-04    0.6644182753E+00    0.7736722045E-03    0.4169106610E-02
    0.2100000000E+03    0.2073644894E-03    0.4038635076E-04    0.6672920103E+00    0.8614171326E-03    0.4160395307E-02
    0.2300000000E+03    0.2228369841E-03    0.4347068105E-04    0.6696849182E+00    0.9515020866E-03    0.4151417071E-02
    0.2500000000E+03    0.2389161414E-03    0.4667491935E-04    0.6717083714E+00    0.1044088384E-02    0.4142172316E-02
    0.2700000000E+03    0.2556095988E-03    0.5000060498E-04    0.6734418103E+00    0.1139337000E-02    0.4132657207E-02
    0.2900000000E+03    0.2729297852E-03    0.5345023863E-04    0.6749434224E+00    0.1237410937E-02    0.4122864914E-02
    0.3100000000E+03    0.2908932113E-03    0.5702713552E-04    0.6762568040E+00    0.1338477087E-02    0.4112786364E-02
    0.3300000000E+03    0.3095199833E-03    0.6073532570E-04    0.6774152643E+00    0.1442707770E-02    0.4102410699E-02
    0.3500000000E+03    0.3288334815E-03    0.6457948855E-04    0.6784446908E+00    0.1550282090E-02    0.4091725547E-02
    0.3700000000E+03    0.3488601593E-03    0.6856491208E-04    0.6793655070E+00    0.1661387163E-02    0.4080717188E-02
    0.3900000000E+03    0.3696294343E-03    0.7269747100E-04    0.6801940423E+00    0.1776219285E-02    0.4069370644E-02
    0.4100000000E+03    0.3911736501E-03    0.7698361906E-04    0.6809435084E+00    0.1894985082E-02    0.4057669714E-02
    0.4300000000E+03    0.4135280952E-03    0.8143039284E-04    0.6816247099E+00    0.2017902659E-02    0.4045596980E-02
    0.4500000000E+03    0.4367310681E-03    0.8604542485E-04    0.6822465684E+00    0.2145202784E-02    0.4033133778E-02
    0.4700000000E+03    0.4608239830E-03    0.9083696471E-04    0.6828165156E+00    0.2277130117E-02    0.4020260158E-02
    0.4900000000E+03    0.4858515113E-03    0.9581390739E-04    0.6833407920E+00    0.2413944502E-02    0.4006954819E-02
    0.1000000000E+03    0.1334608866E-03    0.2563992762E-04    0.6384412108E+00    0.4030711655E-03    0.4204468318E-02
    0.3000000000E+03    0.2818299165E-03    0.5522254314E-04    0.6756213581E+00    0.1287559359E-02    0.4117862062E-02
    0.5000000000E+03    0.4987306480E-03    0.9837486938E-04    0.6835874857E+00    0.2484270031E-02    0.4000133211E-02
    0.7000000000E+03    0.8196235563E-03    0.1621613290E-03    0.6870604265E+00    0.4227638584E-02    0.3834442133E-02
    0.9000000000E+03    0.1323799923E-02    0.2623494431E-03    0.6890055578E+00    0.6958883049E-02    0.3585124538E-02
    0.1100000000E+04    0.2177839379E-02    0.4320513571E-03    0.6902493187E+00    0.1159447642E-01    0.3181758224E-02
    0.1300000000E+04    0.3709617384E-02    0.7364565956E-03    0.6911131275E+00    0.1995417091E-01    0.2499438841E-02
    0.1500000000E+04    0.6225177528E-02    0.1236518018E-02    0.6917480254E+00    0.3383000206E-01    0.1477425540E-02
    0.1700000000E+04    0.8892387483E-02    0.1767099157E-02    0.6922343603E+00    0.4888054921E-01    0.5768925508E-03
    0.1900000000E+04    0.1056311077E-01    0.2099982692E-02    0.6926188147E+00    0.5878679501E-01    0.2190387204E-03
    0.2100000000E+04    0.1160212096E-01    0.2307482104E-02    0.6929303660E+00    0.6538709003E-01    0.1348579569E-03
    0.2300000000E+04    0.1243475210E-01    0.2474073168E-02    0.6931879537E+00    0.7096355051E-01    0.1184187650E-03
    0.2500000000E+04    0.1318934539E-01    0.2625251770E-02    0.6934044796E+00    0.7621086995E-01    0.1156450857E-03
    0.2700000000E+04    0.1389640354E-01    0.2767072818E-02    0.6935890359E+00    0.8129072904E-01    0.1155047298E-03
    0.2900000000E+04    0.1456408654E-01    0.2901150283E-02    0.6937482151E+00    0.8624181522E-01    0.1158514435E-03
    0.3100000000E+04    0.1519572753E-01    0.3028138885E-02    0.6938869136E+00    0.9107629653E-01    0.1162704056E-03
    0.3300000000E+04    0.1579354732E-01    0.3148472686E-02    0.6940088441E+00    0.9580051329E-01    0.1166828530E-03
    0.3500000000E+04    0.1635943557E-01    0.3262520443E-02    0.6941168732E+00    0.1004193552E+00    0.1170754986E-03
    0.3700000000E+04    0.1689512100E-01    0.3370619427E-02    0.6942132492E+00    0.1049371998E+00    0.1174476779E-03
    0.3900000000E+04    0.1740221390E-01    0.3473083852E-02    0.6942997605E+00    0.1093581261E+00    0.1178009551E-03
    0.4100000000E+04    0.1788222142E-01    0.3570207872E-02    0.6943778472E+00    0.1136859735E+00    0.1181370976E-03
    0.4300000000E+04    0.1833655654E-01    0.3662267335E-02    0.6944486823E+00    0.1179243666E+00    0.1184577104E-03
    0.4500000000E+04    0.1876654528E-01    0.3749521180E-02    0.6945132304E+00    0.1220767319E+00    0.1187641974E-03
    0.4700000000E+04    0.1917343304E-01    0.3832212670E-02    0.6945722927E+00    0.1261463114E+00    0.1190577827E-03
    0.4900000000E+04    0.1955839038E-01    0.3910570516E-02    0.6946265394E+00    0.1301361752E+00    0.1193395369E-03
    0.1000000000E+04    0.1691151519E-02    0.3353435133E-03    0.6896890492E+00    0.8950797329E-02    0.3409180198E-02
    0.3000000000E+04    0.1488426182E-01    0.2965501255E-02    0.6938198692E+00    0.8867317937E-01    0.1160596230E-03
    0.5000000000E+04    0.1974299179E-01    0.3948192070E-02    0.6946520371E+00    0.1321021289E+00    0.1194762763E-03
    0.7000000000E+04    0.2251885173E-01    0.4519100981E-02    0.6950090869E+00    0.1678680833E+00    0.1217688721E-03
    0.9000000000E+04    0.2402358836E-01    0.4837109858E-02    0.6952074353E+00    0.1981953815E+00    0.1235019125E-03
    0.1100000000E+05    0.2472528174E-01    0.4994155772E-02    0.6953335840E+00    0.2244743673E+00    0.1248997190E-03
    0.1300000000E+05    0.2490784151E-01    0.5046227760E-02    0.6954208415E+00    0.2476235778E+00    0.1260734173E-03
    0.1500000000E+05    0.2475041887E-01    0.5028818403E-02    0.6954847623E+00    0.2682779711E+00    0.1270863825E-03
    0.1700000000E+05    0.2436963770E-01    0.4965153039E-02    0.6955335840E+00    0.2868934364E+00    0.1279782605E-03
    0.1900000000E+05    0.2384329866E-01    0.4870816668E-02    0.6955720770E+00    0.3038080105E+00    0.1287755399E-03
    0.2100000000E+05    0.2322429615E-01    0.4756475743E-02    0.6956031945E+00    0.3192793762E+00    0.1294968137E-03
    0.2300000000E+05    0.2254910494E-01    0.4629541584E-02    0.6956288626E+00    0.3335087233E+00    0.1301556450E-03
    0.2500000000E+05    0.2184312538E-01    0.4495220605E-02    0.6956503907E+00    0.3466564392E+00    0.1307622373E-03
    0.2700000000E+05    0.2112414468E-01    0.4357196241E-02    0.6956687006E+00    0.3588527282E+00    0.1313244637E-03
    0.2900000000E+05    0.2040463257E-01    0.4218082597E-02    0.6956844592E+00    0.3702049846E+00    0.1318485287E-03
    0.3100000000E+05    0.1969329593E-01    0.4079732648E-02    0.6956981615E+00    0.3808030295E+00    0.1323394105E-03
    0.3300000000E+05    0.1899615064E-01    0.3943451518E-02    0.6957101824E+00    0.3907229083E+00    0.1328011650E-03
    0.3500000000E+05    0.1831727236E-01    0.3810146442E-02    0.6957208108E+00    0.4000296967E+00    0.1332371420E-03
    0.3700000000E+05    0.1765932952E-01    0.3680433700E-02    0.6957302735E+00    0.4087796098E+00    0.1336501400E-03
    0.3900000000E+05    0.1702396622E-01    0.3554715791E-02    0.6957387502E+00    0.4170216130E+00    0.1340425216E-03
    0.4100000000E+05    0.1641208010E-01    0.3433237723E-02    0.6957463859E+00    0.4247986699E+00    0.1344163001E-03
    0.4300000000E+05    0.1582402564E-01    0.3316128437E-02    0.6957532985E+00    0.4321487234E+00    0.1347732051E-03
    0.4500000000E+05    0.1525976406E-01    0.3203431525E-02    0.6957595847E+00    0.4391054751E+00    0.1351147337E-03
    0.4700000000E+05    0.1471897435E-01    0.3095128156E-02    0.6957653249E+00    0.4456990130E+00    0.1354421909E-03
    0.4900000000E+05    0.1420113601E-01    0.2991154268E-02    0.6957705863E+00    0.4519563226E+00    0.1357567205E-03
    0.1000000000E+05    0.2445393366E-01    0.4931640656E-02    0.6952768288E+00    0.2117752045E+00    0.1242342128E-03
    0.3000000000E+05    0.2004751332E-01    0.4148719758E-02    0.6956915416E+00    0.3755932447E+00    0.1320978453E-03
    0.5000000000E+05    0.1395062191E-01    0.2940761746E-02    0.6957730556E+00    0.4549665810E+00    0.1359094574E-03
    0.7000000000E+05    0.9955191219E-02    0.2128767043E-02    0.6958072989E+00    0.5023226553E+00    0.1384779864E-03
    0.9000000000E+05    0.7373221349E-02    0.1595121286E-02    0.6958259158E+00    0.5334231523E+00    0.1404273784E-03
    0.1100000000E+06    0.5647051881E-02    0.1233716394E-02    0.6958374936E+00    0.5551912263E+00    0.1420033093E-03
    0.1300000000E+06    0.4448651647E-02    0.9801497904E-03    0.6958453170E+00    0.5711639172E+00    0.1433285502E-03
    0.1500000000E+06    0.3587738144E-02    0.7963570410E-03    0.6958509102E+00    0.5833223010E+00    0.1444734991E-03
    0.1700000000E+06    0.2950700579E-02    0.6593000569E-03    0.6958550752E+00    0.5928529042E+00    0.1454823590E-03
    0.1900000000E+06    0.2467210425E-02    0.5545630249E-03    0.6958582735E+00    0.6005048486E+00    0.1463847433E-03
    0.2100000000E+06    0.2092175521E-02    0.4728197495E-03    0.6958607887E+00    0.6067718930E+00    0.1472014816E-03
    0.2300000000E+06    0.1795743026E-02    0.4078481578E-03    0.6958628048E+00    0.6119913787E+00    0.1479477929E-03
    0.2500000000E+06    0.1557575310E-02    0.3553806138E-03    0.6958644460E+00    0.6164009024E+00    0.1486351416E-03
    0.2700000000E+06    0.1363460445E-02    0.3124168420E-03    0.6958657991E+00    0.6201722354E+00    0.1492723827E-03
    0.2900000000E+06    0.1203240439E-02    0.2768006662E-03    0.6958669263E+00    0.6234324036E+00    0.1498665014E-03
    0.3100000000E+06    0.1069507468E-02    0.2469518272E-03    0.6958678738E+00    0.6262772218E+00    0.1504231062E-03
    0.3300000000E+06    0.9567613813E-03    0.2216916327E-03    0.6958686760E+00    0.6287802347E+00    0.1509467698E-03
    0.3500000000E+06    0.8608520688E-03    0.2001269262E-03    0.6958693595E+00    0.6309987744E+00    0.1514412706E-03
    0.3700000000E+06    0.7786022408E-03    0.1815712080E-03    0.6958699447E+00    0.6329781570E+00    0.1519097669E-03
    0.3900000000E+06    0.7075471810E-03    0.1654899665E-03    0.6958704479E+00    0.6347546484E+00    0.1523549265E-03
    0.4100000000E+06    0.6457519380E-03    0.1514621166E-03    0.6958708821E+00    0.6363575996E+00    0.1527790233E-03
    0.4300000000E+06    0.5916807957E-03    0.1391523559E-03    0.6958712578E+00    0.6378110077E+00    0.1531840116E-03
    0.4500000000E+06    0.5441026629E-03    0.1282910566E-03    0.6958715834E+00    0.6391346749E+00    0.1535715836E-03
    0.4700000000E+06    0.5020215482E-03    0.1186594368E-03    0.6958718661E+00    0.6403450812E+00    0.1539432144E-03
    0.4900000000E+06    0.4646248172E-03    0.1100784890E-03    0.6958721116E+00    0.6414560486E+00    0.1543001979E-03
    0.1000000000E+06    0.6427862530E-02    0.1397706593E-02    0.6958323173E+00    0.5452027046E+00    0.1412526451E-03
    0.3000000000E+06    0.1133443930E-02    0.2612368279E-03    0.6958674202E+00    0.6249016950E+00    0.1501491862E-03
    0.5000000000E+06    0.4474694934E-03    0.1061348522E-03    0.6958722220E+00    0.6419779636E+00    0.1544735588E-03
    0.7000000000E+06    0.2373012202E-03    0.5735946850E-04    0.6958733250E+00    0.6492617973E+00    0.1573895975E-03
    0.9000000000E+06    0.1466581102E-03    0.3594684580E-04    0.6958733966E+00    0.6532820030E+00    0.1596034121E-03
    0.1100000000E+07    0.9954919489E-04    0.2466725354E-04    0.6958730916E+00    0.6558268742E+00    0.1613934188E-03
    0.1300000000E+07    0.7199471984E-04    0.1799758177E-04    0.6958726340E+00    0.6575815197E+00    0.1628988487E-03
    0.1500000000E+07    0.5450406700E-04    0.1372520911E-04    0.6958721154E+00    0.6588641364E+00    0.1641995725E-03
    0.1700000000E+07    0.4271430364E-04    0.1082280433E-04    0.6958715773E+00    0.6598424449E+00    0.1653457559E-03
    0.1900000000E+07    0.3439309029E-04    0.8760267365E-05    0.6958710396E+00    0.6606131780E+00    0.1663710139E-03
    0.2100000000E+07    0.2830230753E-04    0.7241424160E-05    0.6958705121E+00    0.6612360222E+00    0.1672989947E-03
    0.2300000000E+07    0.2371056932E-04    0.6090178151E-05    0.6958699996E+00    0.6617497943E+00    0.1681469786E-03
    0.2500000000E+07    0.2016335326E-04    0.5196454515E-05    0.6958695042E+00    0.6621808258E+00    0.1689279841E-03
    0.2700000000E+07    0.1736616395E-04    0.4488555996E-05    0.6958690264E+00    0.6625476068E+00    0.1696520676E-03
    0.2900000000E+07    0.1512140858E-04    0.3918144505E-05    0.6958685663E+00    0.6628635023E+00    0.1703271623E-03
    0.3100000000E+07    0.1329251635E-04    0.3451661440E-05    0.6958681232E+00    0.6631384117E+00    0.1709596382E-03
    0.3300000000E+07    0.1178264999E-04    0.3065213650E-05    0.6958676965E+00    0.6633798238E+00    0.1715546894E-03
    0.3500000000E+07    0.1052160223E-04    0.2741412146E-05    0.6958672852E+00    0.6635935082E+00    0.1721166076E-03
    0.3700000000E+07    0.9457469205E-05    0.2467355303E-05    0.6958668886E+00    0.6637839816E+00    0.1726489807E-03
    0.3900000000E+07    0.8551209862E-05    0.2233306166E-05    0.6958665058E+00    0.6639548304E+00    0.1731548390E-03
    0.4100000000E+07    0.7773002413E-05    0.2031803569E-05    0.6958661360E+00    0.6641089387E+00    0.1736367657E-03
    0.4300000000E+07    0.7099750238E-05    0.1857051670E-05    0.6958657785E+00    0.6642486516E+00    0.1740969810E-03
    0.4500000000E+07    0.6513340820E-05    0.1704492486E-05    0.6958654324E+00    0.6643758961E+00    0.1745374074E-03
    0.4700000000E+07    0.5999408656E-05    0.1570501269E-05    0.6958650971E+00    0.6644922699E+00    0.1749597207E-03
    0.4900000000E+07    0.5546442097E-05    0.1452165955E-05    0.6958647721E+00    0.6645991088E+00    0.1753653909E-03
    0.1000000000E+07    0.1196973774E-03    0.2950776853E-04    0.6958732724E+00    0.6546831205E+00    0.1605407538E-03
    0.3000000000E+07    0.1416178011E-04    0.3673587675E-05    0.6958683427E+00    0.6630055652E+00    0.1706483790E-03
    0.5000000000E+07    0.5339839169E-05    0.1398113344E-05    0.6958646132E+00    0.6646493115E+00    0.1755623959E-03
    0.7000000000E+07    0.2870161595E-05    0.7474488984E-06    0.6958618519E+00    0.6653513744E+00    0.1788761937E-03
    0.9000000000E+07    0.1838810941E-05    0.4726331586E-06    0.6958596622E+00    0.6657407943E+00    0.1813920285E-03
    0.1100000000E+08    0.1308515167E-05    0.3304780287E-06    0.6958578452E+00    0.6659883912E+00    0.1834262578E-03
    0.1300000000E+08    0.9983024751E-06    0.2471074612E-06    0.6958562899E+00    0.6661597160E+00    0.1851370938E-03
    0.1500000000E+08    0.8000896049E-06    0.1938325994E-06    0.6958549286E+00    0.6662853150E+00    0.1866152987E-03
    0.1700000000E+08    0.6650235768E-06    0.1575944649E-06    0.6958537169E+00    0.6663813441E+00    0.1879178799E-03
    0.1900000000E+08    0.5683607059E-06    0.1317433820E-06    0.6958526242E+00    0.6664571499E+00    0.1890830375E-03
    0.2100000000E+08    0.4964560835E-06    0.1125975557E-06    0.6958516285E+00    0.6665185150E+00    0.1901376455E-03
    0.2300000000E+08    0.4412709060E-06    0.9798135521E-07    0.6958507134E+00    0.6665692093E+00    0.1911013416E-03
    0.2500000000E+08    0.3978115580E-06    0.8654037998E-07    0.6958498664E+00    0.6666117954E+00    0.1919889203E-03
    0.2700000000E+08    0.3628383675E-06    0.7739466748E-07    0.6958490777E+00    0.6666480760E+00    0.1928118102E-03
