  Pressure (Pa) 22mC5-500 (mol/kg) 23mC5-500 (mol/kg) 24mC5-500 (mol/kg) 3mC6-500 (mol/kg) C7-500 (mol/kg)
    0.1000000000E+01    0.1286432837E-04    0.1231069631E-05    0.1514031349E+00    0.3352621806E-05    0.4181228985E-02
    0.3000000000E+01    0.2507752614E-04    0.2392219234E-05    0.3164883866E+00    0.8516908711E-05    0.4212717282E-02
    0.5000000000E+01    0.3067333786E-04    0.2920324020E-05    0.4047556594E+00    0.1325184353E-04    0.4227605239E-02
    0.7000000000E+01    0.3380557120E-04    0.3214737335E-05    0.4597029845E+00    0.1777970505E-04    0.4236675978E-02
    0.9000000000E+01    0.3583768906E-04    0.3405798936E-05    0.4972018557E+00    0.2217527290E-04    0.4242801785E-02
    0.1100000000E+02    0.3732372974E-04    0.3546146723E-05    0.5244247147E+00    0.2647591502E-04    0.4247205558E-02
    0.1300000000E+02    0.3852083006E-04    0.3660045791E-05    0.5450865992E+00    0.3070385313E-04    0.4250508449E-02
    0.1500000000E+02    0.3955962925E-04    0.3759731077E-05    0.5613043547E+00    0.3487372053E-04    0.4253062040E-02
    0.1700000000E+02    0.4051091231E-04    0.3851774829E-05    0.5743726026E+00    0.3899582937E-04    0.4255081115E-02
    0.1900000000E+02    0.4141486225E-04    0.3939870427E-05    0.5851276172E+00    0.4307780821E-04    0.4256704651E-02
    0.2100000000E+02    0.4229506193E-04    0.4026159263E-05    0.5941336745E+00    0.4712551073E-04    0.4258026732E-02
    0.2300000000E+02    0.4316566366E-04    0.4111907114E-05    0.6017853214E+00    0.5114355900E-04    0.4259113422E-02
    0.2500000000E+02    0.4403526345E-04    0.4197867862E-05    0.6083667290E+00    0.5513568752E-04    0.4260012533E-02
    0.2700000000E+02    0.4490908829E-04    0.4284487771E-05    0.6140877671E+00    0.5910497124E-04    0.4260759562E-02
    0.2900000000E+02    0.4579027632E-04    0.4372024355E-05    0.6191067991E+00    0.6305398242E-04    0.4261381438E-02
    0.3100000000E+02    0.4668064892E-04    0.4460617622E-05    0.6235455689E+00    0.6698490197E-04    0.4261898981E-02
    0.3300000000E+02    0.4758118804E-04    0.4550333810E-05    0.6274992079E+00    0.7089960048E-04    0.4262328552E-02
    0.3500000000E+02    0.4849233744E-04    0.4641192768E-05    0.6310431293E+00    0.7479969863E-04    0.4262683197E-02
    0.3700000000E+02    0.4941419616E-04    0.4733185382E-05    0.6342378858E+00    0.7868661305E-04    0.4262973449E-02
    0.3900000000E+02    0.5034664426E-04    0.4826284785E-05    0.6371326579E+00    0.8256159175E-04    0.4263207915E-02
    0.4100000000E+02    0.5128942562E-04    0.4920453640E-05    0.6397678039E+00    0.8642574188E-04    0.4263393696E-02
    0.4300000000E+02    0.5224220262E-04    0.5015648888E-05    0.6421767534E+00    0.9028005182E-04    0.4263536708E-02
    0.4500000000E+02    0.5320459251E-04    0.5111824839E-05    0.6443874328E+00    0.9412540894E-04    0.4263641923E-02
    0.4700000000E+02    0.5417619160E-04    0.5208935178E-05    0.6464233531E+00    0.9796261403E-04    0.4263713548E-02
    0.4900000000E+02    0.5515659111E-04    0.5306934249E-05    0.6483044493E+00    0.1017923931E-03    0.4263755171E-02
    0.1000000000E+02    0.3662871650E-04    0.3480397090E-05    0.5118143641E+00    0.2433583636E-04    0.4245171400E-02
    0.3000000000E+02    0.4623423769E-04    0.4416183416E-05    0.6213922402E+00    0.6502158026E-04    0.4261652139E-02
    0.5000000000E+02    0.5564996453E-04    0.5356253175E-05    0.6491923545E+00    0.1037047068E-03    0.4263765711E-02
    0.7000000000E+02    0.6589015959E-04    0.6379744200E-05    0.6618836059E+00    0.1416950006E-03    0.4262960853E-02
    0.9000000000E+02    0.7666186708E-04    0.7455521804E-05    0.6691512641E+00    0.1794435022E-03    0.4261013738E-02
    0.1100000000E+03    0.8780472023E-04    0.8567436529E-05    0.6738598970E+00    0.2171811211E-03    0.4258477798E-02
    0.1300000000E+03    0.9923644731E-04    0.9707383709E-05    0.6771587569E+00    0.2550496685E-03    0.4255584415E-02
    0.1500000000E+03    0.1109133336E-03    0.1087112727E-04    0.6795985291E+00    0.2931465580E-03    0.4252448029E-02
    0.1700000000E+03    0.1228116640E-03    0.1205640783E-04    0.6814761289E+00    0.3315441674E-03    0.4249131734E-02
    0.1900000000E+03    0.1349187712E-03    0.1326204600E-04    0.6829657806E+00    0.3702995490E-03    0.4245673010E-02
    0.2100000000E+03    0.1472284475E-03    0.1448748818E-04    0.6841764567E+00    0.4094598189E-03    0.4242095327E-02
    0.2300000000E+03    0.1597384538E-03    0.1573256220E-04    0.6851798111E+00    0.4490653794E-03    0.4238413928E-02
    0.2500000000E+03    0.1724490989E-03    0.1699733900E-04    0.6860248940E+00    0.4891519615E-03    0.4234638957E-02
    0.2700000000E+03    0.1853623955E-03    0.1828205109E-04    0.6867464139E+00    0.5297519808E-03    0.4230777238E-02
    0.2900000000E+03    0.1984815408E-03    0.1958704269E-04    0.6873696219E+00    0.5708954748E-03    0.4226833361E-02
    0.3100000000E+03    0.2118105895E-03    0.2091273852E-04    0.6879133278E+00    0.6126107710E-03    0.4222810356E-02
    0.3300000000E+03    0.2253542413E-03    0.2225962374E-04    0.6883918304E+00    0.6549249787E-03    0.4218710131E-02
    0.3500000000E+03    0.2391177029E-03    0.2362823092E-04    0.6888161938E+00    0.6978643598E-03    0.4214533766E-02
    0.3700000000E+03    0.2531065953E-03    0.2501913146E-04    0.6891951128E+00    0.7414546157E-03    0.4210281719E-02
    0.3900000000E+03    0.2673268933E-03    0.2643293000E-04    0.6895355151E+00    0.7857211139E-03    0.4205953962E-02
    0.4100000000E+03    0.2817848851E-03    0.2787026077E-04    0.6898429882E+00    0.8306890717E-03    0.4201550083E-02
    0.4300000000E+03    0.2964871462E-03    0.2933178527E-04    0.6901220890E+00    0.8763837075E-03    0.4197069362E-02
    0.4500000000E+03    0.3114405241E-03    0.3081819094E-04    0.6903765704E+00    0.9228303680E-03    0.4192510820E-02
    0.4700000000E+03    0.3266521290E-03    0.3233019047E-04    0.6906095517E+00    0.9700546379E-03    0.4187873260E-02
    0.4900000000E+03    0.3421293311E-03    0.3386852157E-04    0.6908236464E+00    0.1018082436E-02    0.4183155299E-02
    0.1000000000E+03    0.8219326808E-04    0.8007592393E-05    0.6717328307E+00    0.1983034329E-03    0.4259800897E-02
    0.3000000000E+03    0.2051195467E-03    0.2024727349E-04    0.6876504306E+00    0.5916799296E-03    0.4224831608E-02
    0.5000000000E+03    0.3499699052E-03    0.3464779889E-04    0.6909243146E+00    0.1042405870E-02    0.4180765690E-02
    0.7000000000E+03    0.5227602118E-03    0.5181887066E-04    0.6923365409E+00    0.1577879270E-02    0.4128292178E-02
    0.9000000000E+03    0.7329718395E-03    0.7270556770E-04    0.6931233244E+00    0.2229220358E-02    0.4065130733E-02
    0.1100000000E+04    0.9941560275E-03    0.9865565741E-04    0.6936247371E+00    0.3039382617E-02    0.3987711064E-02
    0.1300000000E+04    0.1326291316E-02    0.1316551621E-03    0.6939721465E+00    0.4071332357E-02    0.3890750755E-02
    0.1500000000E+04    0.1759779129E-02    0.1747259216E-03    0.6942270211E+00    0.5420910950E-02    0.3766315858E-02
    0.1700000000E+04    0.2342185724E-02    0.2325960716E-03    0.6944219614E+00    0.7238413186E-02    0.3602247245E-02
    0.1900000000E+04    0.3149240946E-02    0.3127939874E-03    0.6945758656E+00    0.9764009861E-02    0.3379745228E-02
    0.2100000000E+04    0.4300034090E-02    0.4271605283E-03    0.6947004438E+00    0.1337759583E-01    0.3070551702E-02
    0.2300000000E+04    0.5964075627E-02    0.5925556208E-03    0.6948033384E+00    0.1862589327E-01    0.2637815281E-02
    0.2500000000E+04    0.8299916932E-02    0.8247668280E-03    0.6948897494E+00    0.2603850075E-01    0.2056900677E-02
    0.2700000000E+04    0.1120356512E-01    0.1113509451E-02    0.6949633377E+00    0.3534060685E-01    0.1381869950E-02
    0.2900000000E+04    0.1405604358E-01    0.1397305208E-02    0.6950267550E+00    0.4462552726E-01    0.7900456406E-03
    0.3100000000E+04    0.1622501736E-01    0.1613287870E-02    0.6950819694E+00    0.5188277771E-01    0.4247786442E-03
    0.3300000000E+04    0.1769573895E-01    0.1759941017E-02    0.6951304723E+00    0.5701448678E-01    0.2550153632E-03
    0.3500000000E+04    0.1875671923E-01    0.1865909296E-02    0.6951734143E+00    0.6089881854E-01    0.1877159232E-03
    0.3700000000E+04    0.1962225662E-01    0.1952482299E-02    0.6952116972E+00    0.6420149422E-01    0.1629096366E-03
    0.3900000000E+04    0.2039472291E-01    0.2029832625E-02    0.6952460382E+00    0.6724314545E-01    0.1541350207E-03
    0.4100000000E+04    0.2111638616E-01    0.2102160459E-02    0.6952770144E+00    0.7015633658E-01    0.1512081008E-03
    0.4300000000E+04    0.2180411631E-01    0.2171141513E-02    0.6953050955E+00    0.7299342733E-01    0.1503898045E-03
    0.4500000000E+04    0.2246485460E-01    0.2237464424E-02    0.6953306680E+00    0.7577520845E-01    0.1503262620E-03
    0.4700000000E+04    0.2310174780E-01    0.2301440567E-02    0.6953540523E+00    0.7851035815E-01    0.1505282868E-03
    0.4900000000E+04    0.2371648922E-01    0.2363236822E-02    0.6953755166E+00    0.8120292497E-01    0.1508189336E-03
    0.1000000000E+04    0.8561311011E-03    0.8494218079E-04    0.6933990371E+00    0.2611101935E-02    0.4028484721E-02
    0.3000000000E+04    0.1524111901E-01    0.1515282265E-02    0.6950552851E+00    0.4855867540E-01    0.5775649607E-03
    0.5000000000E+04    0.2401591532E-01    0.2393353065E-02    0.6953856009E+00    0.8253398100E-01    0.1509754719E-03
    0.7000000000E+04    0.2904363064E-01    0.2901019827E-02    0.6955264189E+00    0.1072714821E+00    0.1538191025E-03
    0.9000000000E+04    0.3262521432E-01    0.3265910650E-02    0.6956041914E+00    0.1290204327E+00    0.1559915069E-03
    0.1100000000E+05    0.3517084749E-01    0.3528157855E-02    0.6956533758E+00    0.1484381239E+00    0.1577464803E-03
    0.1300000000E+05    0.3695790118E-01    0.3714951384E-02    0.6956872071E+00    0.1659903698E+00    0.1592216067E-03
    0.1500000000E+05    0.3817955960E-01    0.3845267959E-02    0.6957118521E+00    0.1820174130E+00    0.1604956436E-03
    0.1700000000E+05    0.3897373704E-01    0.3932685490E-02    0.6957305703E+00    0.1967741473E+00    0.1616179855E-03
    0.1900000000E+05    0.3944098744E-01    0.3987127621E-02    0.6957452453E+00    0.2104557693E+00    0.1626216956E-03
    0.2100000000E+05    0.3965596554E-01    0.4015981125E-02    0.6957570411E+00    0.2232146693E+00    0.1635300152E-03
    0.2300000000E+05    0.3967497290E-01    0.4024832289E-02    0.6957667154E+00    0.2351718690E+00    0.1643599167E-03
    0.2500000000E+05    0.3954105155E-01    0.4017964486E-02    0.6957747824E+00    0.2464249572E+00    0.1651241804E-03
    0.2700000000E+05    0.3928749884E-01    0.3998701896E-02    0.6957816033E+00    0.2570537161E+00    0.1658326745E-03
    0.2900000000E+05    0.3894034097E-01    0.3969651645E-02    0.6957874391E+00    0.2671241879E+00    0.1664931808E-03
    0.3100000000E+05    0.3852010434E-01    0.3932877438E-02    0.6957924831E+00    0.2766916643E+00    0.1671119464E-03
    0.3300000000E+05    0.3804310448E-01    0.3890026046E-02    0.6957968814E+00    0.2858029191E+00    0.1676940636E-03
    0.3500000000E+05    0.3752239731E-01    0.3842420780E-02    0.6958007464E+00    0.2944978988E+00    0.1682437393E-03
    0.3700000000E+05    0.3696849042E-01    0.3791131491E-02    0.6958041663E+00    0.3028110198E+00    0.1687644894E-03
    0.3900000000E+05    0.3638988123E-01    0.3737027598E-02    0.6958072106E+00    0.3107721742E+00    0.1692592835E-03
    0.4100000000E+05    0.3579346867E-01    0.3680818724E-02    0.6958099356E+00    0.3184075195E+00    0.1697306522E-03
    0.4300000000E+05    0.3518487115E-01    0.3623086125E-02    0.6958123867E+00    0.3257401044E+00    0.1701807706E-03
    0.4500000000E+05    0.3456867450E-01    0.3564307248E-02    0.6958146012E+00    0.3327903680E+00    0.1706115214E-03
    0.4700000000E+05    0.3394862684E-01    0.3504875062E-02    0.6958166102E+00    0.3395765441E+00    0.1710245462E-03
    0.4900000000E+05    0.3332779307E-01    0.3445113406E-02    0.6958184393E+00    0.3461149880E+00    0.1714212842E-03
    0.1000000000E+05    0.3400777222E-01    0.3407929669E-02    0.6956312814E+00    0.1389880211E+00    0.1569106531E-03
    0.3000000000E+05    0.3873825160E-01    0.3952118570E-02    0.6957900501E+00    0.2719676996E+00    0.1668074394E-03
    0.5000000000E+05    0.3301788321E-01    0.3415194398E-02    0.6958192934E+00    0.3492959752E+00    0.1716139483E-03
    0.7000000000E+05    0.2718173682E-01    0.2843381315E-02    0.6958307566E+00    0.4028463223E+00    0.1748544567E-03
    0.9000000000E+05    0.2237317668E-01    0.2362844997E-02    0.6958365225E+00    0.4424275014E+00    0.1773143844E-03
    0.1100000000E+06    0.1856909750E-01    0.1977437853E-02    0.6958398029E+00    0.4727727178E+00    0.1793032895E-03
    0.1300000000E+06    0.1557466156E-01    0.1670766685E-02    0.6958418015E+00    0.4966446741E+00    0.1809759439E-03
    0.1500000000E+06    0.1320347730E-01    0.1425731023E-02    0.6958430653E+00    0.5158117826E+00    0.1824211218E-03
    0.1700000000E+06    0.1130754982E-01    0.1228284129E-02    0.6958438760E+00    0.5314670615E+00    0.1836945767E-03
    0.1900000000E+06    0.9775196631E-02    0.1067608560E-02    0.6958443920E+00    0.5444440976E+00    0.1848336652E-03
    0.2100000000E+06    0.8523262466E-02    0.9355330945E-03    0.6958447087E+00    0.5553409909E+00    0.1858646668E-03
    0.2300000000E+06    0.7489798739E-02    0.8259018007E-03    0.6958448863E+00    0.5645963010E+00    0.1868067836E-03
    0.2500000000E+06    0.6628356166E-02    0.7340563227E-03    0.6958449645E+00    0.5725376546E+00    0.1876744816E-03
    0.2700000000E+06    0.5903791220E-02    0.6564445119E-03    0.6958449703E+00    0.5794138615E+00    0.1884789354E-03
    0.2900000000E+06    0.5289246359E-02    0.5903331966E-03    0.6958449226E+00    0.5854166777E+00    0.1892289597E-03
    0.3100000000E+06    0.4763984760E-02    0.5335993084E-03    0.6958448349E+00    0.5906958692E+00    0.1899316324E-03
    0.3300000000E+06    0.4311832975E-02    0.4845779714E-03    0.6958447172E+00    0.5953698332E+00    0.1905927248E-03
    0.3500000000E+06    0.3920053346E-02    0.4419514969E-03    0.6958445768E+00    0.5995332111E+00    0.1912170054E-03
    0.3700000000E+06    0.3578520648E-02    0.4046676926E-03    0.6958444192E+00    0.6032624293E+00    0.1918084606E-03
    0.3900000000E+06    0.3279115318E-02    0.3718792512E-03    0.6958442486E+00    0.6066197851E+00    0.1923704573E-03
    0.4100000000E+06    0.3015272041E-02    0.3428983841E-03    0.6958440682E+00    0.6096565002E+00    0.1929058656E-03
    0.4300000000E+06    0.2781640712E-02    0.3171625657E-03    0.6958438806E+00    0.6124150281E+00    0.1934171523E-03
    0.4500000000E+06    0.2573829465E-02    0.2942084408E-03    0.6958436877E+00    0.6149308176E+00    0.1939064533E-03
    0.4700000000E+06    0.2388208136E-02    0.2736517801E-03    0.6958434910E+00    0.6172336733E+00    0.1943756307E-03
    0.4900000000E+06    0.2221756680E-02    0.2551719549E-03    0.6958432919E+00    0.6193488160E+00    0.1948263175E-03
    0.1000000000E+06    0.2035712343E-01    0.2159162479E-02    0.6958383749E+00    0.4585514296E+00    0.1783558893E-03
    0.3000000000E+06    0.5016557988E-02    0.5609073996E-03    0.6958448831E+00    0.5881386927E+00    0.1895858277E-03
    0.5000000000E+06    0.2144913158E-02    0.2466250114E-03    0.6958431917E+00    0.6203428320E+00    0.1950451838E-03
    0.7000000000E+06    0.1175878635E-02    0.1378041527E-03    0.6958412098E+00    0.6342075538E+00    0.1987266926E-03
    0.9000000000E+06    0.7393567195E-03    0.8790742706E-04    0.6958394045E+00    0.6418146829E+00    0.2015216808E-03
    0.1100000000E+07    0.5068599075E-03    0.6096878228E-04    0.6958378027E+00    0.6465934945E+00    0.2037816200E-03
    0.1300000000E+07    0.3687367378E-03    0.4478759774E-04    0.6958363770E+00    0.6498653663E+00    0.2056822813E-03
    0.1500000000E+07    0.2801221067E-03    0.3430953732E-04    0.6958350972E+00    0.6522426487E+00    0.2073244986E-03
    0.1700000000E+07    0.2199316991E-03    0.2713510301E-04    0.6958339378E+00    0.6540466297E+00    0.2087716055E-03
    0.1900000000E+07    0.1772071928E-03    0.2200640788E-04    0.6958328789E+00    0.6554616577E+00    0.2100660410E-03
    0.2100000000E+07    0.1457992794E-03    0.1821228219E-04    0.6958319047E+00    0.6566009048E+00    0.2112376609E-03
    0.2300000000E+07    0.1220423895E-03    0.1532598336E-04    0.6958310026E+00    0.6575376226E+00    0.2123082819E-03
    0.2500000000E+07    0.1036420892E-03    0.1307880139E-04    0.6958301628E+00    0.6583212848E+00    0.2132943400E-03
    0.2700000000E+07    0.8910304942E-04    0.1129466428E-04    0.6958293771E+00    0.6589864946E+00    0.2142085319E-03
    0.2900000000E+07    0.7741711961E-04    0.9854275731E-05    0.6958286389E+00    0.6595581729E+00    0.2150608733E-03
    0.3100000000E+07    0.6788467244E-04    0.8674469003E-05    0.6958279427E+00    0.6600547184E+00    0.2158594066E-03
    0.3300000000E+07    0.6000792859E-04    0.7695820468E-05    0.6958272838E+00    0.6604900077E+00    0.2166106895E-03
    0.3500000000E+07    0.5342494057E-04    0.6874950656E-05    0.6958266586E+00    0.6608747028E+00    0.2173201406E-03
    0.3700000000E+07    0.4786744870E-04    0.6179589266E-05    0.6958260635E+00    0.6612171296E+00    0.2179922894E-03
    0.3900000000E+07    0.4313323327E-04    0.5585325316E-05    0.6958254958E+00    0.6615238842E+00    0.2186309621E-03
    0.4100000000E+07    0.3906753411E-04    0.5073415278E-05    0.6958249529E+00    0.6618002593E+00    0.2192394199E-03
    0.4300000000E+07    0.3555029247E-04    0.4629273003E-05    0.6958244329E+00    0.6620505508E+00    0.2198204661E-03
    0.4500000000E+07    0.3248722059E-04    0.4241409297E-05    0.6958239337E+00    0.6622782819E+00    0.2203765277E-03
    0.4700000000E+07    0.2980344088E-04    0.3900674351E-05    0.6958234538E+00    0.6624863690E+00    0.2209097207E-03
    0.4900000000E+07    0.2743888352E-04    0.3599708009E-05    0.6958229917E+00    0.6626772469E+00    0.2214219008E-03
    0.1000000000E+07    0.6068257851E-03    0.7259092216E-04    0.6958385796E+00    0.6444501138E+00    0.2027051023E-03
    0.3000000000E+07    0.7241663204E-04    0.9235962876E-05    0.6958282858E+00    0.6598148819E+00    0.2154664259E-03
    0.5000000000E+07    0.2636074008E-04    0.3462225548E-05    0.6958227669E+00    0.6627668856E+00    0.2216706301E-03
    0.7000000000E+07    0.1351169260E-04    0.1808140608E-05    0.6958189516E+00    0.6640167895E+00    0.2258544763E-03
    0.9000000000E+07    0.8200201600E-05    0.1112113105E-05    0.6958160201E+00    0.6647070427E+00    0.2290308513E-03
    0.1100000000E+08    0.5505931519E-05    0.7542889003E-06    0.6958136325E+00    0.6651447273E+00    0.2315991732E-03
    0.1300000000E+08    0.3954549582E-05    0.5460309719E-06    0.6958116145E+00    0.6654470200E+00    0.2337591936E-03
    0.1500000000E+08    0.2980469735E-05    0.4141022700E-06    0.6958098645E+00    0.6656683267E+00    0.2356255043E-03
    0.1700000000E+08    0.2329094278E-05    0.3252106424E-06    0.6958083180E+00    0.6658373479E+00    0.2372700806E-03
    0.1900000000E+08    0.1872117416E-05    0.2624384319E-06    0.6958069315E+00    0.6659706560E+00    0.2387411522E-03
    0.2100000000E+08    0.1539189484E-05    0.2164426376E-06    0.6958056742E+00    0.6660784889E+00    0.2400726489E-03
    0.2300000000E+08    0.1289125245E-05    0.1817186016E-06    0.6958045233E+00    0.6661675129E+00    0.2412893645E-03
    0.2500000000E+08    0.1096514255E-05    0.1548506657E-06    0.6958034619E+00    0.6662422548E+00    0.2424099777E-03
    0.2700000000E+08    0.9449897976E-06    0.1336274691E-06    0.6958024766E+00    0.6663058969E+00    0.2434489179E-03
