  Pressure (Pa) 22mC5-500 (mol/kg) 23mC5-500 (mol/kg) 24mC5-500 (mol/kg) 3mC6-500 (mol/kg) C7-500 (mol/kg)
    0.1000000000E+01    0.1610686369E-04    0.5403317943E-05    0.3666038703E-01    0.3591802666E-05    0.4171742292E-02
    0.3000000000E+01    0.4247065700E-04    0.1423023187E-04    0.9948880743E-01    0.9035720263E-05    0.4212467866E-02
    0.5000000000E+01    0.6332772440E-04    0.2119929629E-04    0.1513736981E+00    0.1400783283E-04    0.4240365170E-02
    0.7000000000E+01    0.8015788391E-04    0.2681197214E-04    0.1949454657E+00    0.1875398759E-04    0.4263090622E-02
    0.9000000000E+01    0.9395271017E-04    0.3140375724E-04    0.2320540296E+00    0.2335638991E-04    0.4282251570E-02
    0.1100000000E+02    0.1054109707E-03    0.3521082541E-04    0.2640383136E+00    0.2785598522E-04    0.4298695943E-02
    0.1300000000E+02    0.1150395743E-03    0.3840433500E-04    0.2918912881E+00    0.3227706761E-04    0.4312985912E-02
    0.1500000000E+02    0.1232146098E-03    0.4111114865E-04    0.3163649269E+00    0.3663560718E-04    0.4325526974E-02
    0.1700000000E+02    0.1302203964E-03    0.4342707835E-04    0.3380391388E+00    0.4094284205E-04    0.4336624336E-02
    0.1900000000E+02    0.1362753768E-03    0.4542566269E-04    0.3573683198E+00    0.4520707582E-04    0.4346513997E-02
    0.2100000000E+02    0.1415497693E-03    0.4716414687E-04    0.3747135675E+00    0.4943467356E-04    0.4355382070E-02
    0.2300000000E+02    0.1461778818E-03    0.4868765219E-04    0.3903654576E+00    0.5363065653E-04    0.4363377650E-02
    0.2500000000E+02    0.1502668755E-03    0.5003214150E-04    0.4045604593E+00    0.5779907853E-04    0.4370621747E-02
    0.2700000000E+02    0.1539031116E-03    0.5122656583E-04    0.4174929687E+00    0.6194327498E-04    0.4377213698E-02
    0.2900000000E+02    0.1571568203E-03    0.5229444246E-04    0.4293242675E+00    0.6606603427E-04    0.4383235866E-02
    0.3100000000E+02    0.1600855843E-03    0.5325503166E-04    0.4401892869E+00    0.7016971913E-04    0.4388757144E-02
    0.3300000000E+02    0.1627369700E-03    0.5412422520E-04    0.4502017773E+00    0.7425635509E-04    0.4393835628E-02
    0.3500000000E+02    0.1651505399E-03    0.5491522511E-04    0.4594583080E+00    0.7832769621E-04    0.4398520666E-02
    0.3700000000E+02    0.1673594063E-03    0.5563906776E-04    0.4680413932E+00    0.8238527508E-04    0.4402854453E-02
    0.3900000000E+02    0.1693914437E-03    0.5630503229E-04    0.4760219587E+00    0.8643044132E-04    0.4406873291E-02
    0.4100000000E+02    0.1712702425E-03    0.5692096200E-04    0.4834613082E+00    0.9046439186E-04    0.4410608589E-02
    0.4300000000E+02    0.1730158670E-03    0.5749351915E-04    0.4904127008E+00    0.9448819489E-04    0.4414087663E-02
    0.4500000000E+02    0.1746454602E-03    0.5802838865E-04    0.4969226291E+00    0.9850280917E-04    0.4417334389E-02
    0.4700000000E+02    0.1761737321E-03    0.5853044201E-04    0.5030318606E+00    0.1025090997E-03    0.4420369725E-02
    0.4900000000E+02    0.1776133549E-03    0.5900387019E-04    0.5087762929E+00    0.1065078507E-03    0.4423212154E-02
    0.1000000000E+02    0.9993858489E-04    0.3339344911E-04    0.2486179876E+00    0.2561726268E-04    0.4290773574E-02
    0.3000000000E+02    0.1586586389E-03    0.5278708463E-04    0.4348700081E+00    0.6812012737E-04    0.4386055258E-02
    0.5000000000E+02    0.1783034065E-03    0.5923100050E-04    0.5115217719E+00    0.1085046244E-03    0.4424566213E-02
    0.7000000000E+02    0.1894493657E-03    0.6292912421E-04    0.5533268361E+00    0.1481888172E-03    0.4444645416E-02
    0.9000000000E+02    0.1983184677E-03    0.6592703464E-04    0.5796486288E+00    0.1876597662E-03    0.4456321857E-02
    0.1100000000E+03    0.2067077206E-03    0.6880437408E-04    0.5977457766E+00    0.2271671221E-03    0.4463411536E-02
    0.1300000000E+03    0.2152283860E-03    0.7175296514E-04    0.6109527338E+00    0.2668648065E-03    0.4467693289E-02
    0.1500000000E+03    0.2241014384E-03    0.7483900244E-04    0.6210159673E+00    0.3068592150E-03    0.4470111810E-02
    0.1700000000E+03    0.2334031996E-03    0.7808311248E-04    0.6289387287E+00    0.3472300540E-03    0.4471216818E-02
    0.1900000000E+03    0.2431530220E-03    0.8148854673E-04    0.6353383983E+00    0.3880407774E-03    0.4471350599E-02
    0.2100000000E+03    0.2533477265E-03    0.8505206453E-04    0.6406157352E+00    0.4293443706E-03    0.4470737674E-02
    0.2300000000E+03    0.2639759726E-03    0.8876836829E-04    0.6450422273E+00    0.4711868098E-03    0.4469531502E-02
    0.2500000000E+03    0.2750244356E-03    0.9263194450E-04    0.6488083264E+00    0.5136092532E-03    0.4467840496E-02
    0.2700000000E+03    0.2864804466E-03    0.9663780562E-04    0.6520515858E+00    0.5566494986E-03    0.4465743344E-02
    0.2900000000E+03    0.2983330511E-03    0.1007817527E-03    0.6548738344E+00    0.6003429913E-03    0.4463298430E-02
    0.3100000000E+03    0.3105733480E-03    0.1050604280E-03    0.6573520675E+00    0.6447235464E-03    0.4460549866E-02
    0.3300000000E+03    0.3231945081E-03    0.1094712802E-03    0.6595455831E+00    0.6898238820E-03    0.4457531472E-02
    0.3500000000E+03    0.3361916549E-03    0.1140124957E-03    0.6615007899E+00    0.7356760243E-03    0.4454269478E-02
    0.3700000000E+03    0.3495616990E-03    0.1186829228E-03    0.6632545294E+00    0.7823116238E-03    0.4450784410E-02
    0.3900000000E+03    0.3633031643E-03    0.1234819995E-03    0.6648364205E+00    0.8297622079E-03    0.4447092427E-02
    0.4100000000E+03    0.3774160257E-03    0.1284096884E-03    0.6662705469E+00    0.8780593879E-03    0.4443206288E-02
    0.4300000000E+03    0.3919015655E-03    0.1334664208E-03    0.6675766922E+00    0.9272350332E-03    0.4439136066E-02
    0.4500000000E+03    0.4067622499E-03    0.1386530498E-03    0.6687712593E+00    0.9773214205E-03    0.4434889684E-02
    0.4700000000E+03    0.4220016241E-03    0.1439708109E-03    0.6698679621E+00    0.1028351365E-02    0.4430473318E-02
    0.4900000000E+03    0.4376242259E-03    0.1494212895E-03    0.6708783557E+00    0.1080358336E-02    0.4425891709E-02
    0.1000000000E+03    0.2025208298E-03    0.6736423967E-04    0.5894638878E+00    0.2073977982E-03    0.4460301147E-02
    0.3000000000E+03    0.3044052124E-03    0.1029044269E-03    0.6561518972E+00    0.6224453207E-03    0.4461959786E-02
    0.5000000000E+03    0.4455809088E-03    0.1521968825E-03    0.6713543096E+00    0.1106738872E-02    0.4423540087E-02
    0.7000000000E+03    0.6266532456E-03    0.2153125054E-03    0.6780904594E+00    0.1694641289E-02    0.4368215014E-02
    0.9000000000E+03    0.8576312616E-03    0.2957446935E-03    0.6818926288E+00    0.2428104518E-02    0.4295961093E-02
    0.1100000000E+04    0.1156628886E-02    0.3998047365E-03    0.6843349713E+00    0.3368056332E-02    0.4202355278E-02
    0.1300000000E+04    0.1552888510E-02    0.5376709580E-03    0.6860363389E+00    0.4608260319E-02    0.4079379761E-02
    0.1500000000E+04    0.2093689146E-02    0.7257939737E-03    0.6872895131E+00    0.6298558064E-02    0.3913986436E-02
    0.1700000000E+04    0.2856519936E-02    0.9911346190E-03    0.6882509712E+00    0.8684335323E-02    0.3685268263E-02
    0.1900000000E+04    0.3966918584E-02    0.1377376506E-02    0.6890119398E+00    0.1216487100E-01    0.3360850913E-02
    0.2100000000E+04    0.5607843553E-02    0.1948205265E-02    0.6896291966E+00    0.1732844292E-01    0.2897787538E-02
    0.2300000000E+04    0.7944048395E-02    0.2761042091E-02    0.6901399291E+00    0.2472612060E-01    0.2270450229E-02
    0.2500000000E+04    0.1081216899E-01    0.3759262786E-02    0.6905695128E+00    0.3390330432E-01    0.1558281280E-02
    0.2700000000E+04    0.1349364151E-01    0.4693062487E-02    0.6909358564E+00    0.4264299189E-01    0.9784318163E-03
    0.2900000000E+04    0.1542640001E-01    0.5366829446E-02    0.6912519601E+00    0.4914910219E-01    0.6571029096E-03
    0.3100000000E+04    0.1672626056E-01    0.5820668017E-02    0.6915274893E+00    0.5373324468E-01    0.5228745468E-03
    0.3300000000E+04    0.1769591875E-01    0.6159779012E-02    0.6917697795E+00    0.5732127114E-01    0.4746217295E-03
    0.3500000000E+04    0.1851624003E-01    0.6447050514E-02    0.6919844988E+00    0.6047492545E-01    0.4587722478E-03
    0.3700000000E+04    0.1926433860E-01    0.6709299970E-02    0.6921760956E+00    0.6343511736E-01    0.4542572246E-03
    0.3900000000E+04    0.1996993204E-01    0.6956860509E-02    0.6923481106E+00    0.6629436907E-01    0.4535939713E-03
    0.4100000000E+04    0.2064446012E-01    0.7193706716E-02    0.6925033965E+00    0.6908749474E-01    0.4542091736E-03
    0.4300000000E+04    0.2129266647E-01    0.7421483338E-02    0.6926442778E+00    0.7182804614E-01    0.4552257860E-03
    0.4500000000E+04    0.2191686174E-01    0.7640988601E-02    0.6927726674E+00    0.7452184424E-01    0.4563462355E-03
    0.4700000000E+04    0.2251845669E-01    0.7852707782E-02    0.6928901537E+00    0.7717188275E-01    0.4574708193E-03
    0.4900000000E+04    0.2309851134E-01    0.8057004355E-02    0.6929980672E+00    0.7978009539E-01    0.4585675233E-03
    0.1000000000E+04    0.9971207386E-03    0.3442965961E-03    0.6832337052E+00    0.2867389987E-02    0.4252234185E-02
    0.3000000000E+04    0.1613466977E-01    0.5614022028E-02    0.6913942925E+00    0.5161839304E-01    0.5739333846E-03
    0.5000000000E+04    0.2338074812E-01    0.8156467444E-02    0.6930487919E+00    0.8106899841E-01    0.4591022500E-03
    0.7000000000E+04    0.2808426067E-01    0.9820932337E-02    0.6937591035E+00    0.1049559660E+00    0.4680730407E-03
    0.9000000000E+04    0.3138875186E-01    0.1100154116E-01    0.6941535073E+00    0.1258728564E+00    0.4748246881E-03
    0.1100000000E+05    0.3370898428E-01    0.1184046525E-01    0.6944041135E+00    0.1445081862E+00    0.4802550352E-03
    0.1300000000E+05    0.3531897116E-01    0.1243181905E-01    0.6945772550E+00    0.1613397660E+00    0.4848063432E-03
    0.1500000000E+05    0.3640587019E-01    0.1284002555E-01    0.6947039210E+00    0.1767105181E+00    0.4887292626E-03
    0.1700000000E+05    0.3710113351E-01    0.1311043964E-01    0.6948005263E+00    0.1908736274E+00    0.4921799130E-03
    0.1900000000E+05    0.3749929780E-01    0.1327576186E-01    0.6948765766E+00    0.2040206240E+00    0.4952622682E-03
    0.2100000000E+05    0.3766973966E-01    0.1336005493E-01    0.6949379562E+00    0.2162994900E+00    0.4980491317E-03
    0.2300000000E+05    0.3766426532E-01    0.1338133956E-01    0.6949885021E+00    0.2278267037E+00    0.5005935074E-03
    0.2500000000E+05    0.3752214739E-01    0.1335331906E-01    0.6950308228E+00    0.2386954687E+00    0.5029352075E-03
    0.2700000000E+05    0.3727354902E-01    0.1328655308E-01    0.6950667531E+00    0.2489814723E+00    0.5051049105E-03
    0.2900000000E+05    0.3694190204E-01    0.1318927385E-01    0.6950976210E+00    0.2587469993E+00    0.5071267671E-03
    0.3100000000E+05    0.3654559033E-01    0.1306796459E-01    0.6951244115E+00    0.2680439264E+00    0.5090201357E-03
    0.3300000000E+05    0.3609916191E-01    0.1292777669E-01    0.6951478700E+00    0.2769159389E+00    0.5108007773E-03
    0.3500000000E+05    0.3561421534E-01    0.1277283505E-01    0.6951685716E+00    0.2854001958E+00    0.5124816974E-03
    0.3700000000E+05    0.3510005681E-01    0.1260646489E-01    0.6951869664E+00    0.2935285983E+00    0.5140737558E-03
    0.3900000000E+05    0.3456419366E-01    0.1243136231E-01    0.6952034121E+00    0.3013287683E+00    0.5155861160E-03
    0.4100000000E+05    0.3401270930E-01    0.1224972407E-01    0.6952181963E+00    0.3088248114E+00    0.5170265818E-03
    0.4300000000E+05    0.3345055096E-01    0.1206334737E-01    0.6952315530E+00    0.3160379181E+00    0.5184018554E-03
    0.4500000000E+05    0.3288175288E-01    0.1187370735E-01    0.6952436743E+00    0.3229868427E+00    0.5197177355E-03
    0.4700000000E+05    0.3230961083E-01    0.1168201786E-01    0.6952547197E+00    0.3296882875E+00    0.5209792739E-03
    0.4900000000E+05    0.3173681974E-01    0.1148927947E-01    0.6952648223E+00    0.3361572139E+00    0.5221908990E-03
    0.1000000000E+05    0.3265225418E-01    0.1145697051E-01    0.6942913974E+00    0.1354419996E+00    0.4776710958E-03
    0.3000000000E+05    0.3675084182E-01    0.1313127382E-01    0.6951114746E+00    0.2634511373E+00    0.5080884543E-03
    0.5000000000E+05    0.3145088610E-01    0.1139278084E-01    0.6952695558E+00    0.3393087457E+00    0.5227792320E-03
    0.7000000000E+05    0.2605390660E-01    0.9543794642E-02    0.6953345181E+00    0.3928130144E+00    0.5326698768E-03
    0.9000000000E+05    0.2157354805E-01    0.7977717820E-02    0.6953689859E+00    0.4329352808E+00    0.5401732083E-03
    0.1100000000E+06    0.1799869343E-01    0.6710671634E-02    0.6953898538E+00    0.4640381492E+00    0.5462375577E-03
    0.1300000000E+06    0.1516239359E-01    0.5694376399E-02    0.6954035448E+00    0.4887132545E+00    0.5513363934E-03
    0.1500000000E+06    0.1290092908E-01    0.4876676618E-02    0.6954130198E+00    0.5086518244E+00    0.5557410497E-03
    0.1700000000E+06    0.1108208544E-01    0.4213872858E-02    0.6954198263E+00    0.5250152855E+00    0.5596218316E-03
    0.1900000000E+06    0.9604702175E-02    0.3671797016E-02    0.6954248486E+00    0.5386277284E+00    0.5630928005E-03
    0.2100000000E+06    0.8392579506E-02    0.3224316629E-02    0.6954286266E+00    0.5500881415E+00    0.5662341680E-03
    0.2300000000E+06    0.7388389246E-02    0.2851538775E-02    0.6954315075E+00    0.5598404892E+00    0.5691045296E-03
    0.2500000000E+06    0.6548784551E-02    0.2538277240E-02    0.6954337240E+00    0.5682194059E+00    0.5717480190E-03
    0.2700000000E+06    0.5840732909E-02    0.2272865197E-02    0.6954354374E+00    0.5754809047E+00    0.5741987221E-03
    0.2900000000E+06    0.5238833692E-02    0.2046268055E-02    0.6954367627E+00    0.5818235011E+00    0.5764835225E-03
    0.3100000000E+06    0.4723369999E-02    0.1851429122E-02    0.6954377840E+00    0.5874030258E+00    0.5786240050E-03
    0.3300000000E+06    0.4278892389E-02    0.1682788131E-02    0.6954385638E+00    0.5923431877E+00    0.5806377668E-03
    0.3500000000E+06    0.3893184047E-02    0.1535925963E-02    0.6954391497E+00    0.5967432183E+00    0.5825393470E-03
    0.3700000000E+06    0.3556499232E-02    0.1407300992E-02    0.6954395783E+00    0.6006834813E+00    0.5843408984E-03
    0.3900000000E+06    0.3260998201E-02    0.1294052050E-02    0.6954398782E+00    0.6042296395E+00    0.5860526852E-03
    0.4100000000E+06    0.3000324315E-02    0.1193850023E-02    0.6954400719E+00    0.6074357881E+00    0.5876834561E-03
    0.4300000000E+06    0.2769284751E-02    0.1104785179E-02    0.6954401777E+00    0.6103468347E+00    0.5892407302E-03
    0.4500000000E+06    0.2563607380E-02    0.1025280915E-02    0.6954402100E+00    0.6130003265E+00    0.5907310177E-03
    0.4700000000E+06    0.2379754052E-02    0.9540272303E-03    0.6954401807E+00    0.6154278664E+00    0.5921599933E-03
    0.4900000000E+06    0.2214776055E-02    0.8899289830E-03    0.6954400996E+00    0.6176562199E+00    0.5935326344E-03
    0.1000000000E+06    0.1968269065E-01    0.7309438344E-02    0.6953805963E+00    0.4494246877E+00    0.5433490692E-03
    0.3000000000E+06    0.4971349328E-02    0.1945256718E-02    0.6954373070E+00    0.5847002640E+00    0.5775706226E-03
    0.5000000000E+06    0.2138576733E-02    0.8602695106E-03    0.6954400422E+00    0.6187029619E+00    0.5941992216E-03
    0.7000000000E+06    0.1175650087E-02    0.4818540734E-03    0.6954375403E+00    0.6332604597E+00    0.6054112325E-03
    0.9000000000E+06    0.7405859922E-03    0.3078362543E-03    0.6954340772E+00    0.6411998942E+00    0.6139227910E-03
    0.1100000000E+07    0.5084947446E-03    0.2137432397E-03    0.6954305343E+00    0.6461625768E+00    0.6208046848E-03
    0.1300000000E+07    0.3704697744E-03    0.1571712748E-03    0.6954271424E+00    0.6495466060E+00    0.6265923485E-03
    0.1500000000E+07    0.2818502015E-03    0.1205140151E-03    0.6954239588E+00    0.6519972831E+00    0.6315929197E-03
    0.1700000000E+07    0.2216185990E-03    0.9540150046E-04    0.6954209866E+00    0.6538519039E+00    0.6359993003E-03
    0.1900000000E+07    0.1788411915E-03    0.7744192913E-04    0.6954182121E+00    0.6553033430E+00    0.6399407456E-03
    0.2100000000E+07    0.1473782827E-03    0.6415069229E-04    0.6954156170E+00    0.6564696501E+00    0.6435081842E-03
    0.2300000000E+07    0.1235681241E-03    0.5403614985E-04    0.6954131828E+00    0.6574270299E+00    0.6467680589E-03
    0.2500000000E+07    0.1051177091E-03    0.4615868754E-04    0.6954108927E+00    0.6582268287E+00    0.6497704251E-03
    0.2700000000E+07    0.9053211056E-04    0.3990242960E-04    0.6954087316E+00    0.6589048836E+00    0.6525539488E-03
    0.2900000000E+07    0.7880313919E-04    0.3484998297E-04    0.6954066864E+00    0.6594869555E+00    0.6551491311E-03
    0.3100000000E+07    0.6923094843E-04    0.3071029714E-04    0.6954047456E+00    0.6599920313E+00    0.6575804638E-03
    0.3300000000E+07    0.6131747756E-04    0.2727537042E-04    0.6954028994E+00    0.6604344090E+00    0.6598679167E-03
    0.3500000000E+07    0.5470048922E-04    0.2439333252E-04    0.6954011390E+00    0.6608250591E+00    0.6620279906E-03
    0.3700000000E+07    0.4911144893E-04    0.2195118660E-04    0.6953994567E+00    0.6611725377E+00    0.6640744791E-03
    0.3900000000E+07    0.4434788635E-04    0.1986344204E-04    0.6953978461E+00    0.6614836155E+00    0.6660190332E-03
    0.4100000000E+07    0.4025481707E-04    0.1806444638E-04    0.6953963011E+00    0.6617637192E+00    0.6678715843E-03
    0.4300000000E+07    0.3671198382E-04    0.1650310162E-04    0.6953948167E+00    0.6620172497E+00    0.6696406682E-03
    0.4500000000E+07    0.3362492385E-04    0.1513915323E-04    0.6953933881E+00    0.6622478124E+00    0.6713336758E-03
    0.4700000000E+07    0.3091860556E-04    0.1394053874E-04    0.6953920113E+00    0.6624583897E+00    0.6729570504E-03
    0.4900000000E+07    0.2853282359E-04    0.1288146343E-04    0.6953906826E+00    0.6626514695E+00    0.6745164428E-03
    0.1000000000E+07    0.6083206771E-03    0.2543507736E-03    0.6954322947E+00    0.6439394528E+00    0.6175265367E-03
    0.3000000000E+07    0.7378238454E-04    0.3268061668E-04    0.6954057036E+00    0.6597481330E+00    0.6563839385E-03
    0.5000000000E+07    0.2744452267E-04    0.1239754948E-04    0.6953900353E+00    0.6627421147E+00    0.6752737264E-03
    0.7000000000E+07    0.1443877678E-04    0.6566217098E-05    0.6953789653E+00    0.6640041806E+00    0.6880117104E-03
    0.9000000000E+07    0.9024789368E-05    0.4102713184E-05    0.6953703726E+00    0.6646996023E+00    0.6976821514E-03
    0.1100000000E+08    0.6256783419E-05    0.2830689514E-05    0.6953633322E+00    0.6651399744E+00    0.7055012392E-03
    0.1300000000E+08    0.4649044790E-05    0.2086831317E-05    0.6953573579E+00    0.6654438531E+00    0.7120771839E-03
    0.1500000000E+08    0.3630054516E-05    0.1613201388E-05    0.6953521624E+00    0.6656661812E+00    0.7177588925E-03
    0.1700000000E+08    0.2941781122E-05    0.1292348534E-05    0.6953475614E+00    0.6658359043E+00    0.7227655107E-03
    0.1900000000E+08    0.2453775469E-05    0.1064482556E-05    0.6953434294E+00    0.6659697193E+00    0.7272438835E-03
    0.2100000000E+08    0.2094271425E-05    0.8965215337E-06    0.6953396773E+00    0.6660779334E+00    0.7312973158E-03
    0.2300000000E+08    0.1821104899E-05    0.7689361356E-06    0.6953362394E+00    0.6661672534E+00    0.7350012958E-03
    0.2500000000E+08    0.1608164271E-05    0.6695835112E-06    0.6953330656E+00    0.6662422319E+00    0.7384126935E-03
    0.2700000000E+08    0.1438565512E-05    0.5905854140E-06    0.6953301172E+00    0.6663060672E+00    0.7415754401E-03
