  Pressure (Pa) 22mC5-500 (mol/kg) 23mC5-500 (mol/kg) 24mC5-500 (mol/kg) 3mC6-500 (mol/kg) C7-500 (mol/kg)
    0.1000000000E+01    0.1495546433E-04    0.2864333984E-05    0.6964808410E-01    0.7346453979E-06    0.4226277624E-02
    0.3000000000E+01    0.3587230981E-04    0.6857678263E-05    0.1740678371E+00    0.1898492087E-05    0.4323337537E-02
    0.5000000000E+01    0.4964299530E-04    0.9476338759E-05    0.2486153112E+00    0.2972199667E-05    0.4392031255E-02
    0.7000000000E+01    0.5921008164E-04    0.1128876039E-04    0.3045054080E+00    0.4001452769E-05    0.4443937250E-02
    0.9000000000E+01    0.6613480922E-04    0.1259592974E-04    0.3479635238E+00    0.5001814841E-05    0.4484691002E-02
    0.1100000000E+02    0.7131653904E-04    0.1357088354E-04    0.3827226087E+00    0.5981119899E-05    0.4517619082E-02
    0.1300000000E+02    0.7530510282E-04    0.1431918930E-04    0.4111570485E+00    0.6944051639E-05    0.4544832128E-02
    0.1500000000E+02    0.7845258277E-04    0.1490830055E-04    0.4348491668E+00    0.7893707596E-05    0.4567738161E-02
    0.1700000000E+02    0.8099299565E-04    0.1538295039E-04    0.4548940801E+00    0.8832278456E-05    0.4587313980E-02
    0.1900000000E+02    0.8308672769E-04    0.1577372543E-04    0.4720738136E+00    0.9761389822E-05    0.4604259211E-02
    0.2100000000E+02    0.8484655751E-04    0.1610208071E-04    0.4869617286E+00    0.1068229245E-04    0.4619088499E-02
    0.2300000000E+02    0.8635353045E-04    0.1638339515E-04    0.4999877668E+00    0.1159597630E-04    0.4632189110E-02
    0.2500000000E+02    0.8766698231E-04    0.1662889819E-04    0.5114806549E+00    0.1250324294E-04    0.4643858208E-02
    0.2700000000E+02    0.8883105907E-04    0.1684692131E-04    0.5216960340E+00    0.1340475361E-04    0.4654327737E-02
    0.2900000000E+02    0.8987906822E-04    0.1704373215E-04    0.5308357017E+00    0.1430106243E-04    0.4663781471E-02
    0.3100000000E+02    0.9083644890E-04    0.1722410300E-04    0.5390610787E+00    0.1519263989E-04    0.4672366965E-02
    0.3300000000E+02    0.9172284026E-04    0.1739170612E-04    0.5465028266E+00    0.1607989011E-04    0.4680204104E-02
    0.3500000000E+02    0.9255354748E-04    0.1754939354E-04    0.5532678413E+00    0.1696316364E-04    0.4687391341E-02
    0.3700000000E+02    0.9334059762E-04    0.1769939821E-04    0.5594444216E+00    0.1784276721E-04    0.4694010306E-02
    0.3900000000E+02    0.9409351088E-04    0.1784348075E-04    0.5651061445E+00    0.1871897130E-04    0.4700129276E-02
    0.4100000000E+02    0.9481987137E-04    0.1798303785E-04    0.5703148111E+00    0.1959201605E-04    0.4705805819E-02
    0.4300000000E+02    0.9552575454E-04    0.1811918329E-04    0.5751227117E+00    0.2046211599E-04    0.4711088827E-02
    0.4500000000E+02    0.9621605063E-04    0.1825280917E-04    0.5795743875E+00    0.2132946381E-04    0.4716020104E-02
    0.4700000000E+02    0.9689471191E-04    0.1838463263E-04    0.5837080150E+00    0.2219423350E-04    0.4720635615E-02
    0.4900000000E+02    0.9756494335E-04    0.1851523180E-04    0.5875565035E+00    0.2305658283E-04    0.4724966480E-02
    0.1000000000E+02    0.6890325676E-04    0.1311719242E-04    0.3662585921E+00    0.5493757841E-05    0.4501980494E-02
    0.3000000000E+02    0.9036774330E-04    0.1713572101E-04    0.5350538817E+00    0.1474741593E-04    0.4668174689E-02
    0.5000000000E+02    0.9789773227E-04    0.1858022194E-04    0.5893828844E+00    0.2348689527E-04    0.4727033770E-02
    0.7000000000E+02    0.1045338991E-03    0.1989049251E-04    0.6161991404E+00    0.3199517229E-04    0.4758462566E-02
    0.9000000000E+02    0.1115388999E-03    0.2128821767E-04    0.6321792124E+00    0.4037011655E-04    0.4778465215E-02
    0.1100000000E+03    0.1190235128E-03    0.2278649404E-04    0.6427872154E+00    0.4866137176E-04    0.4792496620E-02
    0.1300000000E+03    0.1269300300E-03    0.2437049269E-04    0.6503421802E+00    0.5689880621E-04    0.4802959731E-02
    0.1500000000E+03    0.1351858311E-03    0.2602436239E-04    0.6559962550E+00    0.6510230328E-04    0.4811091652E-02
    0.1700000000E+03    0.1437298314E-03    0.2773533008E-04    0.6603866367E+00    0.7328603199E-04    0.4817600390E-02
    0.1900000000E+03    0.1525146294E-03    0.2949369192E-04    0.6638943530E+00    0.8146060144E-04    0.4822923527E-02
    0.2100000000E+03    0.1615041191E-03    0.3129215467E-04    0.6667612394E+00    0.8963426200E-04    0.4827347800E-02
    0.2300000000E+03    0.1706707908E-03    0.3312521504E-04    0.6691481802E+00    0.9781362622E-04    0.4831069946E-02
    0.2500000000E+03    0.1799935454E-03    0.3498868420E-04    0.6711663647E+00    0.1060041266E-03    0.4834230062E-02
    0.2700000000E+03    0.1894560609E-03    0.3687934259E-04    0.6728950995E+00    0.1142103200E-03    0.4836931010E-02
    0.2900000000E+03    0.1990456022E-03    0.3879469238E-04    0.6743924716E+00    0.1224360968E-03    0.4839250279E-02
    0.3100000000E+03    0.2087521546E-03    0.4073277957E-04    0.6757020004E+00    0.1306848304E-03    0.4841247529E-02
    0.3300000000E+03    0.2185677894E-03    0.4269206496E-04    0.6768569350E+00    0.1389594857E-03    0.4842969563E-02
    0.3500000000E+03    0.2284861961E-03    0.4467132954E-04    0.6778831152E+00    0.1472627000E-03    0.4844453700E-02
    0.3700000000E+03    0.2385023326E-03    0.4666960429E-04    0.6788009263E+00    0.1555968446E-03    0.4845730123E-02
    0.3900000000E+03    0.2486121618E-03    0.4868611751E-04    0.6796266662E+00    0.1639640725E-03    0.4846823556E-02
    0.4100000000E+03    0.2588124505E-03    0.5072025479E-04    0.6803735208E+00    0.1723663559E-03    0.4847754478E-02
    0.4300000000E+03    0.2691006144E-03    0.5277152831E-04    0.6810522734E+00    0.1808055155E-03    0.4848540018E-02
    0.4500000000E+03    0.2794745979E-03    0.5483955306E-04    0.6816718273E+00    0.1892832449E-03    0.4849194640E-02
    0.4700000000E+03    0.2899327791E-03    0.5692402817E-04    0.6822395991E+00    0.1978011296E-03    0.4849730650E-02
    0.4900000000E+03    0.3004738953E-03    0.5902472226E-04    0.6827618162E+00    0.2063606635E-03    0.4850158599E-02
    0.1000000000E+03    0.1152238315E-03    0.2202557717E-04    0.6379698876E+00    0.4452403075E-04    0.4786037675E-02
    0.3000000000E+03    0.2038847903E-03    0.3976099848E-04    0.6750684366E+00    0.1265574002E-03    0.4840285976E-02
    0.5000000000E+03    0.3057752427E-03    0.6008109517E-04    0.6830075202E+00    0.2106564939E-03    0.4850334945E-02
    0.7000000000E+03    0.4160386464E-03    0.8204025397E-04    0.6864646998E+00    0.2990739454E-03    0.4849861503E-02
    0.9000000000E+03    0.5345320208E-03    0.1056217785E-03    0.6883987747E+00    0.3929974144E-03    0.4844201571E-02
    0.1100000000E+04    0.6619273729E-03    0.1309645997E-03    0.6896340297E+00    0.4934169574E-03    0.4835092452E-02
    0.1300000000E+04    0.7992059799E-03    0.1582665806E-03    0.6904909252E+00    0.6013151841E-03    0.4823248752E-02
    0.1500000000E+04    0.9475636049E-03    0.1877670560E-03    0.6911199967E+00    0.7177458203E-03    0.4808975286E-02
    0.1700000000E+04    0.1108405615E-02    0.2197464312E-03    0.6916012938E+00    0.8438832278E-03    0.4792371415E-02
    0.1900000000E+04    0.1283372470E-02    0.2545315158E-03    0.6919813084E+00    0.9810648968E-03    0.4773412670E-02
    0.2100000000E+04    0.1474381752E-02    0.2925040176E-03    0.6922888890E+00    0.1130835416E-02    0.4751986141E-02
    0.2300000000E+04    0.1683684240E-02    0.3341117685E-03    0.6925428839E+00    0.1294996645E-02    0.4727905171E-02
    0.2500000000E+04    0.1913935333E-02    0.3798829728E-03    0.6927561278E+00    0.1475667809E-02    0.4700913178E-02
    0.2700000000E+04    0.2168285085E-02    0.4304441412E-03    0.6929376626E+00    0.1675359351E-02    0.4670680641E-02
    0.2900000000E+04    0.2450491642E-02    0.4865426681E-03    0.6930940415E+00    0.1897064944E-02    0.4636796891E-02
    0.3100000000E+04    0.2765064429E-02    0.5490753244E-03    0.6932301300E+00    0.2144377170E-02    0.4598757168E-02
    0.3300000000E+04    0.3117445276E-02    0.6191242915E-03    0.6933496162E+00    0.2421633659E-02    0.4555944729E-02
    0.3500000000E+04    0.3514237677E-02    0.6980027727E-03    0.6934553463E+00    0.2734102196E-02    0.4507607413E-02
    0.3700000000E+04    0.3963496464E-02    0.7873126227E-03    0.6935495520E+00    0.3088214984E-02    0.4452827787E-02
    0.3900000000E+04    0.4475091621E-02    0.8890167343E-03    0.6936340076E+00    0.3491863663E-02    0.4390485951E-02
    0.4100000000E+04    0.5061159470E-02    0.1005528818E-02    0.6937101415E+00    0.3954766550E-02    0.4319214381E-02
    0.4300000000E+04    0.5736648806E-02    0.1139822091E-02    0.6937791165E+00    0.4488915584E-02    0.4237345253E-02
    0.4500000000E+04    0.6519952497E-02    0.1295555012E-02    0.6938418888E+00    0.5109097582E-02    0.4142853330E-02
    0.4700000000E+04    0.7433574193E-02    0.1477204071E-02    0.6938992518E+00    0.5833452882E-02    0.4033303078E-02
    0.4900000000E+04    0.8504692546E-02    0.1690176296E-02    0.6939518695E+00    0.6683966218E-02    0.3905819954E-02
    0.1000000000E+04    0.5970610466E-03    0.1180617019E-03    0.6890777695E+00    0.4423347403E-03    0.4840019986E-02
    0.3000000000E+04    0.2603416419E-02    0.5169419215E-03    0.6931643685E+00    0.2017268544E-02    0.4618332203E-02
    0.5000000000E+04    0.9109139319E-02    0.1810363727E-02    0.6939765773E+00    0.7164511660E-02    0.3834341709E-02
    0.7000000000E+04    0.3244226118E-01    0.6452809907E-02    0.6943204307E+00    0.2609896035E-01    0.1391309618E-02
    0.9000000000E+04    0.4384329656E-01    0.8729551997E-02    0.6945088533E+00    0.3645535344E-01    0.8716875040E-03
    0.1100000000E+05    0.4975869218E-01    0.9917453862E-02    0.6946270196E+00    0.4273637327E-01    0.8735738167E-03
    0.1300000000E+05    0.5475302808E-01    0.1092358027E-01    0.6947075874E+00    0.4850679284E-01    0.8816636637E-03
    0.1500000000E+05    0.5905569496E-01    0.1179312774E-01    0.6947657425E+00    0.5389819712E-01    0.8887388490E-03
    0.1700000000E+05    0.6278586094E-01    0.1254947422E-01    0.6948094929E+00    0.5896537687E-01    0.8949698166E-03
    0.1900000000E+05    0.6603660600E-01    0.1321089186E-01    0.6948434561E+00    0.6375176499E-01    0.9005398443E-03
    0.2100000000E+05    0.6888228594E-01    0.1379198924E-01    0.6948704781E+00    0.6829286189E-01    0.9055788152E-03
    0.2300000000E+05    0.7138298640E-01    0.1430458133E-01    0.6948924072E+00    0.7261801612E-01    0.9101814992E-03
    0.2500000000E+05    0.7358775837E-01    0.1475832156E-01    0.6949104944E+00    0.7675173106E-01    0.9144191927E-03
    0.2700000000E+05    0.7553701578E-01    0.1516117048E-01    0.6949256160E+00    0.8071464837E-01    0.9183469067E-03
    0.2900000000E+05    0.7726433734E-01    0.1551974811E-01    0.6949384037E+00    0.8452429855E-01    0.9220079936E-03
    0.3100000000E+05    0.7879783788E-01    0.1583960220E-01    0.6949493240E+00    0.8819568092E-01    0.9254372368E-03
    0.3300000000E+05    0.8016122414E-01    0.1612541492E-01    0.6949587286E+00    0.9174171692E-01    0.9286629771E-03
    0.3500000000E+05    0.8137461627E-01    0.1638116372E-01    0.6949668873E+00    0.9517360804E-01    0.9317086179E-03
    0.3700000000E+05    0.8245519339E-01    0.1661024779E-01    0.6949740108E+00    0.9850112124E-01    0.9345937131E-03
    0.3900000000E+05    0.8341770535E-01    0.1681558838E-01    0.6949802655E+00    0.1017328185E+00    0.9373347707E-03
    0.4100000000E+05    0.8427488200E-01    0.1699970908E-01    0.6949857849E+00    0.1048762431E+00    0.9399458569E-03
    0.4300000000E+05    0.8503776294E-01    0.1716480051E-01    0.6949906769E+00    0.1079380716E+00    0.9424390565E-03
    0.4500000000E+05    0.8571596513E-01    0.1731277283E-01    0.6949950299E+00    0.1109242393E+00    0.9448248302E-03
    0.4700000000E+05    0.8631790165E-01    0.1744529874E-01    0.6949989167E+00    0.1138400437E+00    0.9471122941E-03
    0.4900000000E+05    0.8685096153E-01    0.1756384879E-01    0.6950023982E+00    0.1166902315E+00    0.9493094415E-03
    0.1000000000E+05    0.4694870178E-01    0.9352673462E-02    0.6945740627E+00    0.3968217695E-01    0.8697356797E-03
    0.3000000000E+05    0.7805374086E-01    0.1568420475E-01    0.6949440731E+00    0.8637642152E-01    0.9237496934E-03
    0.5000000000E+05    0.8709372894E-01    0.1761829446E-01    0.6950040031E+00    0.1180920698E+00    0.9503763820E-03
    0.7000000000E+05    0.8956658450E-01    0.1821971846E-01    0.6950237171E+00    0.1435241067E+00    0.9683184026E-03
    0.9000000000E+05    0.8939828744E-01    0.1827336967E-01    0.6950313129E+00    0.1654213412E+00    0.9819350711E-03
    0.1100000000E+06    0.8799924297E-01    0.1806460168E-01    0.6950339840E+00    0.1849878066E+00    0.9929427827E-03
    0.1300000000E+06    0.8598430934E-01    0.1771948532E-01    0.6950343194E+00    0.2028560708E+00    0.1002199244E-02
    0.1500000000E+06    0.8365674133E-01    0.1730115298E-01    0.6950334445E+00    0.2194001485E+00    0.1010196261E-02
    0.1700000000E+06    0.8117925507E-01    0.1684408024E-01    0.6950319111E+00    0.2348605588E+00    0.1017242634E-02
    0.1900000000E+06    0.7864447151E-01    0.1636830137E-01    0.6950300129E+00    0.2494021351E+00    0.1023545236E-02
    0.2100000000E+06    0.7610730970E-01    0.1588599449E-01    0.6950279160E+00    0.2631436996E+00    0.1029249578E-02
    0.2300000000E+06    0.7360118663E-01    0.1540480075E-01    0.6950257181E+00    0.2761745484E+00    0.1034461975E-02
    0.2500000000E+06    0.7114667251E-01    0.1492961256E-01    0.6950234785E+00    0.2885641899E+00    0.1039262511E-02
    0.2700000000E+06    0.6875636978E-01    0.1446359076E-01    0.6950212340E+00    0.3003683887E+00    0.1043713045E-02
    0.2900000000E+06    0.6643778795E-01    0.1400876975E-01    0.6950190073E+00    0.3116330681E+00    0.1047862370E-02
    0.3100000000E+06    0.6419510211E-01    0.1356643150E-01    0.6950168129E+00    0.3223969155E+00    0.1051749662E-02
    0.3300000000E+06    0.6203026340E-01    0.1313734444E-01    0.6950146593E+00    0.3326931696E+00    0.1055406866E-02
    0.3500000000E+06    0.5994371977E-01    0.1272192041E-01    0.6950125517E+00    0.3425508765E+00    0.1058860374E-02
    0.3700000000E+06    0.5793489520E-01    0.1232032043E-01    0.6950104928E+00    0.3519957895E+00    0.1062132247E-02
    0.3900000000E+06    0.5600251488E-01    0.1193252745E-01    0.6950084838E+00    0.3610510264E+00    0.1065241119E-02
    0.4100000000E+06    0.5414483001E-01    0.1155839757E-01    0.6950065247E+00    0.3697375564E+00    0.1068202875E-02
    0.4300000000E+06    0.5235977550E-01    0.1119769648E-01    0.6950046150E+00    0.3780745667E+00    0.1071031166E-02
    0.4500000000E+06    0.5064508218E-01    0.1085012600E-01    0.6950027537E+00    0.3860797425E+00    0.1073737811E-02
    0.4700000000E+06    0.4899835737E-01    0.1051534346E-01    0.6950009394E+00    0.3937694827E+00    0.1076333115E-02
    0.4900000000E+06    0.4741714331E-01    0.1019297619E-01    0.6949991707E+00    0.4011590696E+00    0.1078826114E-02
    0.1000000000E+06    0.8880364947E-01    0.1819178855E-01    0.6950330499E+00    0.1754480797E+00    0.9876995054E-03
    0.3000000000E+06    0.6530679387E-01    0.1378598236E-01    0.6950179054E+00    0.3170754075E+00    0.1049836626E-02
    0.5000000000E+06    0.4665032768E-01    0.1003632633E-01    0.6949983029E+00    0.4047458096E+00    0.1080036777E-02
    0.7000000000E+06    0.3416734562E-01    0.7457221928E-02    0.6949829561E+00    0.4637762035E+00    0.1100400413E-02
    0.9000000000E+06    0.2574963043E-01    0.5685980044E-02    0.6949705429E+00    0.5048514569E+00    0.1115859588E-02
    0.1100000000E+07    0.1993224338E-01    0.4444900905E-02    0.6949601456E+00    0.5342868048E+00    0.1128358912E-02
    0.1300000000E+07    0.1579977138E-01    0.3553430258E-02    0.6949512020E+00    0.5559826550E+00    0.1138870819E-02
    0.1500000000E+07    0.1278511089E-01    0.2897007568E-02    0.6949433525E+00    0.5723951254E+00    0.1147953140E-02
    0.1700000000E+07    0.1053166477E-01    0.2402375743E-02    0.6949363555E+00    0.5851046810E+00    0.1155956232E-02
    0.1900000000E+07    0.8810049656E-02    0.2021801339E-02    0.6949300413E+00    0.5951531730E+00    0.1163114860E-02
    0.2100000000E+07    0.7469005245E-02    0.1723478800E-02    0.6949242860E+00    0.6032445514E+00    0.1169594175E-02
    0.2300000000E+07    0.6406313507E-02    0.1485726392E-02    0.6949189971E+00    0.6098659478E+00    0.1175514860E-02
    0.2500000000E+07    0.5551279565E-02    0.1293435753E-02    0.6949141030E+00    0.6153620958E+00    0.1180967829E-02
    0.2700000000E+07    0.4853950348E-02    0.1135860588E-02    0.6949095476E+00    0.6199820593E+00    0.1186023313E-02
    0.2900000000E+07    0.4278328117E-02    0.1005211028E-02    0.6949052861E+00    0.6239092257E+00    0.1190736711E-02
    0.3100000000E+07    0.3798002091E-02    0.8957413134E-03    0.6949012820E+00    0.6272809800E+00    0.1195152508E-02
    0.3300000000E+07    0.3393275739E-02    0.8031455402E-03    0.6948975053E+00    0.6302018782E+00    0.1199306976E-02
    0.3500000000E+07    0.3049239208E-02    0.7241496407E-03    0.6948939310E+00    0.6327526428E+00    0.1203230086E-02
    0.3700000000E+07    0.2754451385E-02    0.6562308379E-03    0.6948905378E+00    0.6349964175E+00    0.1206946892E-02
    0.3900000000E+07    0.2500022915E-02    0.5974214530E-03    0.6948873080E+00    0.6369831907E+00    0.1210478555E-02
    0.4100000000E+07    0.2278967790E-02    0.5461695284E-03    0.6948842260E+00    0.6387529725E+00    0.1213843113E-02
    0.4300000000E+07    0.2085737918E-02    0.5012383557E-03    0.6948812787E+00    0.6403381114E+00    0.1217056072E-02
    0.4500000000E+07    0.1915884381E-02    0.4616330591E-03    0.6948784544E+00    0.6417650051E+00    0.1220130854E-02
    0.4700000000E+07    0.1765807682E-02    0.4265462687E-03    0.6948757431E+00    0.6430553801E+00    0.1223079164E-02
    0.4900000000E+07    0.1632571411E-02    0.3953174451E-03    0.6948731358E+00    0.6442272612E+00    0.1225911264E-02
    0.1000000000E+07    0.2258335552E-01    0.5012359488E-02    0.6949651336E+00    0.5207376653E+00    0.1122404934E-02
    0.3000000000E+07    0.4027615263E-02    0.9481260180E-03    0.6949032539E+00    0.6256573468E+00    0.1192979375E-02
    0.5000000000E+07    0.1571496793E-02    0.3809757670E-03    0.6948718686E+00    0.6447735728E+00    0.1227286607E-02
    0.7000000000E+07    0.8263273891E-03    0.2043011626E-03    0.6948504713E+00    0.6520956532E+00    0.1250420469E-02
    0.9000000000E+07    0.5074272699E-03    0.1273208553E-03    0.6948341414E+00    0.6558718562E+00    0.1267982926E-02
    0.1100000000E+08    0.3426288756E-03    0.8699071576E-04    0.6948208966E+00    0.6581538313E+00    0.1282182923E-02
    0.1300000000E+08    0.2466538903E-03    0.6324118598E-04    0.6948097345E+00    0.6596749994E+00    0.1294125130E-02
    0.1500000000E+08    0.1859426551E-03    0.4807697130E-04    0.6948000759E+00    0.6607587939E+00    0.1304443248E-02
    0.1700000000E+08    0.1451369269E-03    0.3780222512E-04    0.6947915552E+00    0.6615689605E+00    0.1313535296E-02
    0.1900000000E+08    0.1164070927E-03    0.3051669188E-04    0.6947839269E+00    0.6621969372E+00    0.1321667974E-02
    0.2100000000E+08    0.9542366590E-04    0.2516177953E-04    0.6947770174E+00    0.6626976680E+00    0.1329028906E-02
    0.2300000000E+08    0.7963558498E-04    0.2110962146E-04    0.6947706998E+00    0.6631061024E+00    0.1335755192E-02
    0.2500000000E+08    0.6746092093E-04    0.1796856789E-04    0.6947648784E+00    0.6634455068E+00    0.1341950119E-02
    0.2700000000E+08    0.5787664151E-04    0.1548397729E-04    0.6947594789E+00    0.6637319572E+00    0.1347693472E-02
