  Pressure (Pa) 22mC5-500 (mol/kg) 23mC5-500 (mol/kg) 24mC5-500 (mol/kg) 3mC6-500 (mol/kg) C7-500 (mol/kg)
    0.1000000000E+01    0.1587394247E-04    0.1520737132E-05    0.3665821491E-01    0.2939644981E-05    0.4229172009E-02
    0.3000000000E+01    0.4195318113E-04    0.4014544386E-05    0.9947274766E-01    0.7601457015E-05    0.4344418806E-02
    0.5000000000E+01    0.6256359990E-04    0.5981302082E-05    0.1513363811E+00    0.1190749904E-04    0.4438441925E-02
    0.7000000000E+01    0.7916441497E-04    0.7562239368E-05    0.1948833548E+00    0.1604006961E-04    0.4517600610E-02
    0.9000000000E+01    0.9274109083E-04    0.8852604762E-05    0.2319657251E+00    0.2006118230E-04    0.4585299613E-02
    0.1100000000E+02    0.1039894925E-03    0.9919587345E-05    0.2639236208E+00    0.2400201459E-04    0.4643919024E-02
    0.1300000000E+02    0.1134148059E-03    0.1081191789E-04    0.2917506895E+00    0.2788118639E-04    0.4695208540E-02
    0.1500000000E+02    0.1213919557E-03    0.1156572695E-04    0.3161992752E+00    0.3171099980E-04    0.4740489957E-02
    0.1700000000E+02    0.1282044082E-03    0.1220830454E-04    0.3378494760E+00    0.3550014747E-04    0.4780782355E-02
    0.1900000000E+02    0.1340699481E-03    0.1276059634E-04    0.3571557698E+00    0.3925507446E-04    0.4816884795E-02
    0.2100000000E+02    0.1391582679E-03    0.1323890596E-04    0.3744792718E+00    0.4298073588E-04    0.4849433005E-02
    0.2300000000E+02    0.1436032455E-03    0.1365608253E-04    0.3901105380E+00    0.4668105096E-04    0.4878939278E-02
    0.2500000000E+02    0.1475116832E-03    0.1402236566E-04    0.4042859964E+00    0.5035919108E-04    0.4905821166E-02
    0.2700000000E+02    0.1509696393E-03    0.1434599706E-04    0.4171999905E+00    0.5401777107E-04    0.4930422497E-02
    0.2900000000E+02    0.1540470851E-03    0.1463367036E-04    0.4290137442E+00    0.5765898092E-04    0.4953029023E-02
    0.3100000000E+02    0.1568013798E-03    0.1489086642E-04    0.4398621293E+00    0.6128467954E-04    0.4973880229E-02
    0.3300000000E+02    0.1592798958E-03    0.1512210657E-04    0.4498588379E+00    0.6489646293E-04    0.4993178369E-02
    0.3500000000E+02    0.1615220256E-03    0.1533114606E-04    0.4591003832E+00    0.6849571518E-04    0.5011095462E-02
    0.3700000000E+02    0.1635607319E-03    0.1552112335E-04    0.4676692257E+00    0.7208364717E-04    0.5027778758E-02
    0.3900000000E+02    0.1654237567E-03    0.1569467659E-04    0.4756362415E+00    0.7566132651E-04    0.5043355061E-02
    0.4100000000E+02    0.1671345727E-03    0.1585403508E-04    0.4830626874E+00    0.7922970103E-04    0.5057934176E-02
    0.4300000000E+02    0.1687131388E-03    0.1600109195E-04    0.4900017791E+00    0.8278961748E-04    0.5071611675E-02
    0.4500000000E+02    0.1701765034E-03    0.1613746215E-04    0.4964999693E+00    0.8634183658E-04    0.5084471145E-02
    0.4700000000E+02    0.1715392912E-03    0.1626452913E-04    0.5025979884E+00    0.8988704522E-04    0.5096586015E-02
    0.4900000000E+02    0.1728140975E-03    0.1638348273E-04    0.5083316997E+00    0.9342586658E-04    0.5108021065E-02
    0.1000000000E+02    0.9862112482E-04    0.9410622282E-05    0.2485164618E+00    0.2204027483E-04    0.4615623015E-02
    0.3000000000E+02    0.1554614576E-03    0.1476577549E-04    0.4345510574E+00    0.5947366389E-04    0.4963660618E-02
    0.5000000000E+02    0.1734219690E-03    0.1644024360E-04    0.5110719925E+00    0.9519306141E-04    0.5113501847E-02
    0.7000000000E+02    0.1829453370E-03    0.1733622377E-04    0.5527926881E+00    0.1303167155E-03    0.5198400704E-02
    0.9000000000E+02    0.1902068383E-03    0.1803357365E-04    0.5790553338E+00    0.1652325940E-03    0.5253585139E-02
    0.1100000000E+03    0.1969808873E-03    0.1869568335E-04    0.5971084036E+00    0.2001399953E-03    0.5292523955E-02
    0.1300000000E+03    0.2038655068E-03    0.1937605699E-04    0.6102810097E+00    0.2351615040E-03    0.5321523788E-02
    0.1500000000E+03    0.2110728029E-03    0.2009273415E-04    0.6203165537E+00    0.2703813414E-03    0.5343949826E-02
    0.1700000000E+03    0.2186725302E-03    0.2085096083E-04    0.6282164020E+00    0.3058620257E-03    0.5361770562E-02
    0.1900000000E+03    0.2266787867E-03    0.2165114754E-04    0.6345967103E+00    0.3416527468E-03    0.5376218973E-02
    0.2100000000E+03    0.2350839303E-03    0.2249192749E-04    0.6398574064E+00    0.3777940231E-03    0.5388109327E-02
    0.2300000000E+03    0.2438726486E-03    0.2337139429E-04    0.6442693926E+00    0.4143204890E-03    0.5398002555E-02
    0.2500000000E+03    0.2530279524E-03    0.2428761005E-04    0.6480226961E+00    0.4512626647E-03    0.5406298609E-02
    0.2700000000E+03    0.2625336987E-03    0.2523880567E-04    0.6512545538E+00    0.4886481316E-03    0.5413290928E-02
    0.2900000000E+03    0.2723755676E-03    0.2622344798E-04    0.6540665539E+00    0.5265023441E-03    0.5419200059E-02
    0.3100000000E+03    0.2825413454E-03    0.2724024927E-04    0.6565355052E+00    0.5648492093E-03    0.5424195203E-02
    0.3300000000E+03    0.2930209007E-03    0.2828815309E-04    0.6587205583E+00    0.6037115126E-03    0.5428408486E-02
    0.3500000000E+03    0.3038060335E-03    0.2936631156E-04    0.6606680044E+00    0.6431112382E-03    0.5431944679E-02
    0.3700000000E+03    0.3148902837E-03    0.3047406124E-04    0.6624145896E+00    0.6830698163E-03    0.5434887981E-02
    0.3900000000E+03    0.3262687364E-03    0.3161090026E-04    0.6639898544E+00    0.7236083184E-03    0.5437306854E-02
    0.4100000000E+03    0.3379378418E-03    0.3277646812E-04    0.6654178178E+00    0.7647476140E-03    0.5439257548E-02
    0.4300000000E+03    0.3498952560E-03    0.3397052807E-04    0.6667182094E+00    0.8065084991E-03    0.5440786694E-02
    0.4500000000E+03    0.3621397023E-03    0.3519295231E-04    0.6679073860E+00    0.8489118040E-03    0.5441933264E-02
    0.4700000000E+03    0.3746708540E-03    0.3644370938E-04    0.6689990231E+00    0.8919784856E-03    0.5442730054E-02
    0.4900000000E+03    0.3874892346E-03    0.3772285370E-04    0.6700046422E+00    0.9357297063E-03    0.5443204832E-02
    0.1000000000E+03    0.1936035152E-03    0.1836440398E-04    0.5888470767E+00    0.1826785054E-03    0.5274593443E-02
    0.3000000000E+03    0.2774186485E-03    0.2672789995E-04    0.6553398649E+00    0.5456127489E-03    0.5421802884E-02
    0.5000000000E+03    0.3940065110E-03    0.3837310939E-04    0.6704783090E+00    0.9578687059E-03    0.5443328995E-02
    0.7000000000E+03    0.5401169257E-03    0.5293769399E-04    0.6771787687E+00    0.1442097369E-02    0.5433101109E-02
    0.9000000000E+03    0.7202217730E-03    0.7086982702E-04    0.6809568079E+00    0.2023176796E-02    0.5403915748E-02
    0.1100000000E+04    0.9435712321E-03    0.9309221992E-04    0.6833811285E+00    0.2734560018E-02    0.5357891065E-02
    0.1300000000E+04    0.1224654372E-02    0.1210471734E-03    0.6850681961E+00    0.3624074537E-02    0.5293296918E-02
    0.1500000000E+04    0.1585550203E-02    0.1569307854E-03    0.6863095546E+00    0.4762721710E-02    0.5205581475E-02
    0.1700000000E+04    0.2060340422E-02    0.2041320539E-03    0.6872609638E+00    0.6259288468E-02    0.5086860826E-02
    0.1900000000E+04    0.2702692336E-02    0.2679872122E-03    0.6880132001E+00    0.8284961881E-02    0.4924426285E-02
    0.2100000000E+04    0.3598034603E-02    0.3569911244E-03    0.6886227411E+00    0.1111298347E-01    0.4698297143E-02
    0.2300000000E+04    0.4879046031E-02    0.4843394424E-03    0.6891265651E+00    0.1517026257E-01    0.4378657407E-02
    0.2500000000E+04    0.6725913625E-02    0.6679599488E-03    0.6895498963E+00    0.2104408052E-01    0.3928700046E-02
    0.2700000000E+04    0.9273957943E-02    0.9213395382E-03    0.6899105304E+00    0.2919944766E-01    0.3332258367E-02
    0.2900000000E+04    0.1231609030E-01    0.1223946495E-02    0.6902213813E+00    0.3903664398E-01    0.2666471718E-02
    0.3100000000E+04    0.1513913258E-01    0.1504917372E-02    0.6904920469E+00    0.4832922637E-01    0.2118769284E-02
    0.3300000000E+04    0.1719165942E-01    0.1709404072E-02    0.6907298093E+00    0.5529730155E-01    0.1801788233E-02
    0.3500000000E+04    0.1856610781E-01    0.1846544458E-02    0.6909402928E+00    0.6018164543E-01    0.1662023227E-02
    0.3700000000E+04    0.1956654875E-01    0.1946539789E-02    0.6911279108E+00    0.6391964416E-01    0.1610096842E-02
    0.3900000000E+04    0.2039191227E-01    0.2029158209E-02    0.6912961741E+00    0.6713471813E-01    0.1593731462E-02
    0.4100000000E+04    0.2113343683E-01    0.2103468184E-02    0.6914479110E+00    0.7011485760E-01    0.1590593698E-02
    0.4300000000E+04    0.2182832819E-01    0.2173167641E-02    0.6915854250E+00    0.7297755626E-01    0.1592170786E-02
    0.4500000000E+04    0.2249142855E-01    0.2239731118E-02    0.6917106111E+00    0.7576912552E-01    0.1595345893E-02
    0.4700000000E+04    0.2312888760E-01    0.2303768769E-02    0.6918250427E+00    0.7850802649E-01    0.1598995272E-02
    0.4900000000E+04    0.2374353259E-01    0.2365560344E-02    0.6919300366E+00    0.8120203694E-01    0.1602718925E-02
    0.1000000000E+04    0.8257273431E-03    0.8136868944E-04    0.6822882980E+00    0.2360010761E-02    0.5383048897E-02
    0.3000000000E+04    0.1380492024E-01    0.1372099782E-02    0.6903612369E+00    0.4390984090E-01    0.2366316773E-02
    0.5000000000E+04    0.2404280883E-01    0.2395664034E-02    0.6919793485E+00    0.8253343702E-01    0.1604560701E-02
    0.7000000000E+04    0.2906681422E-01    0.2902999237E-02    0.6926663392E+00    0.1072715127E+00    0.1635824988E-02
    0.9000000000E+04    0.3264585878E-01    0.3267663530E-02    0.6930435015E+00    0.1290204668E+00    0.1659383585E-02
    0.1100000000E+05    0.3518966127E-01    0.3529748236E-02    0.6932803964E+00    0.1484381610E+00    0.1678331088E-02
    0.1300000000E+05    0.3697531314E-01    0.3716417847E-02    0.6934421381E+00    0.1659904097E+00    0.1694210999E-02
    0.1500000000E+05    0.3819585280E-01    0.3846635869E-02    0.6935590376E+00    0.1820174553E+00    0.1707898069E-02
    0.1700000000E+05    0.3898911000E-01    0.3933972578E-02    0.6936470929E+00    0.1967741920E+00    0.1719937131E-02
    0.1900000000E+05    0.3945558582E-01    0.3988346859E-02    0.6937155352E+00    0.2104558162E+00    0.1730691034E-02
    0.2100000000E+05    0.3966989998E-01    0.4017142341E-02    0.6937700580E+00    0.2232147183E+00    0.1740413839E-02
    0.2300000000E+05    0.3968832983E-01    0.4025943142E-02    0.6938143607E+00    0.2351719199E+00    0.1749290514E-02
    0.2500000000E+05    0.3955389999E-01    0.4019031085E-02    0.6938509488E+00    0.2464250099E+00    0.1757459987E-02
    0.2700000000E+05    0.3929989502E-01    0.3999729201E-02    0.6938815783E+00    0.2570537706E+00    0.1765029315E-02
    0.2900000000E+05    0.3895233136E-01    0.3970643753E-02    0.6939075154E+00    0.2671242441E+00    0.1772082770E-02
    0.3100000000E+05    0.3853172792E-01    0.3933837780E-02    0.6939296957E+00    0.2766917221E+00    0.1778687906E-02
    0.3300000000E+05    0.3805439433E-01    0.3890957526E-02    0.6939488246E+00    0.2858029785E+00    0.1784899717E-02
    0.3500000000E+05    0.3753338177E-01    0.3843325886E-02    0.6939654443E+00    0.2944979598E+00    0.1790763588E-02
    0.3700000000E+05    0.3697919400E-01    0.3792012370E-02    0.6939799774E+00    0.3028110822E+00    0.1796317411E-02
    0.3900000000E+05    0.3640032532E-01    0.3737886122E-02    0.6939927586E+00    0.3107722380E+00    0.1801593161E-02
    0.4100000000E+05    0.3580367204E-01    0.3681656534E-02    0.6940040559E+00    0.3184075848E+00    0.1806618070E-02
    0.4300000000E+05    0.3519485041E-01    0.3623904670E-02    0.6940140864E+00    0.3257401709E+00    0.1811415521E-02
    0.4500000000E+05    0.3457844439E-01    0.3565107816E-02    0.6940230278E+00    0.3327904359E+00    0.1816005750E-02
    0.4700000000E+05    0.3395820057E-01    0.3505658802E-02    0.6940310269E+00    0.3395766133E+00    0.1820406383E-02
    0.4900000000E+05    0.3333718250E-01    0.3445881351E-02    0.6940382059E+00    0.3461150585E+00    0.1824632871E-02
    0.1000000000E+05    0.3402743477E-01    0.3409595300E-02    0.6931741887E+00    0.1389880567E+00    0.1669315311E-02
    0.3000000000E+05    0.3875005412E-01    0.3953094402E-02    0.6939190266E+00    0.2719677566E+00    0.1775437686E-02
    0.5000000000E+05    0.3302718457E-01    0.3415954800E-02    0.6940415205E+00    0.3492960463E+00    0.1826685130E-02
    0.7000000000E+05    0.2718968662E-01    0.2844026408E-02    0.6940826924E+00    0.4028464046E+00    0.1861185195E-02
    0.9000000000E+05    0.2238024638E-01    0.2363415495E-02    0.6940991820E+00    0.4424275932E+00    0.1887356570E-02
    0.1100000000E+06    0.1857553479E-01    0.1977955019E-02    0.6941055563E+00    0.4727728179E+00    0.1908507948E-02
    0.1300000000E+06    0.1558061567E-01    0.1671243269E-02    0.6941070833E+00    0.4966447819E+00    0.1926291178E-02
    0.1500000000E+06    0.1320904642E-01    0.1426175382E-02    0.6941060647E+00    0.5158118973E+00    0.1941652867E-02
    0.1700000000E+06    0.1131280264E-01    0.1228702091E-02    0.6941036358E+00    0.5314671826E+00    0.1955187146E-02
    0.1900000000E+06    0.9780183453E-02    0.1068004383E-02    0.6941004053E+00    0.5444442248E+00    0.1967291922E-02
    0.2100000000E+06    0.8528021460E-02    0.9359099991E-03    0.6940967198E+00    0.5553411237E+00    0.1978247011E-02
    0.2300000000E+06    0.7494359681E-02    0.8262622939E-03    0.6940927854E+00    0.5645964393E+00    0.1988256818E-02
    0.2500000000E+06    0.6632742819E-02    0.7344024016E-03    0.6940887288E+00    0.5725377981E+00    0.1997475298E-02
    0.2700000000E+06    0.5908022917E-02    0.6567777980E-03    0.6940846293E+00    0.5794140098E+00    0.2006021350E-02
    0.2900000000E+06    0.5293339079E-02    0.5906550279E-03    0.6940805376E+00    0.5854168307E+00    0.2013988752E-02
    0.3100000000E+06    0.4767951891E-02    0.5339108044E-03    0.6940764859E+00    0.5906960268E+00    0.2021452795E-02
    0.3300000000E+06    0.4315685873E-02    0.4848800799E-03    0.6940724948E+00    0.5953699951E+00    0.2028474863E-02
    0.3500000000E+06    0.3923801738E-02    0.4422450287E-03    0.6940685769E+00    0.5995333773E+00    0.2035105668E-02
    0.3700000000E+06    0.3582172944E-02    0.4049533482E-03    0.6940647398E+00    0.6032625996E+00    0.2041387600E-02
    0.3900000000E+06    0.3282678852E-02    0.3721576401E-03    0.6940609876E+00    0.6066199594E+00    0.2047356462E-02
    0.4100000000E+06    0.3018753250E-02    0.3431700411E-03    0.6940573221E+00    0.6096566783E+00    0.2053042769E-02
    0.4300000000E+06    0.2785045285E-02    0.3174279627E-03    0.6940537432E+00    0.6124152100E+00    0.2058472747E-02
    0.4500000000E+06    0.2577162460E-02    0.2944679970E-03    0.6940502501E+00    0.6149310032E+00    0.2063669103E-02
    0.4700000000E+06    0.2391474074E-02    0.2739058698E-03    0.6940468412E+00    0.6172338624E+00    0.2068651631E-02
    0.4900000000E+06    0.2224959622E-02    0.2554209139E-03    0.6940435142E+00    0.6193490087E+00    0.2073437691E-02
    0.1000000000E+06    0.2036385372E-01    0.2159704324E-02    0.6941031985E+00    0.4585515257E+00    0.1898433509E-02
    0.3000000000E+06    0.5020586378E-02    0.5612239350E-03    0.6940785053E+00    0.5881388481E+00    0.2017779574E-02
    0.5000000000E+06    0.2148085998E-02    0.2468715205E-03    0.6940418807E+00    0.6203430264E+00    0.2075761901E-02
    0.7000000000E+06    0.1178589740E-02    0.1380132265E-03    0.6940128876E+00    0.6342077791E+00    0.2114853709E-02
    0.9000000000E+06    0.7417673361E-03    0.8809229760E-04    0.6939893343E+00    0.6418149346E+00    0.2144528285E-02
    0.1100000000E+07    0.5090546801E-03    0.6113635441E-04    0.6939695588E+00    0.6465937695E+00    0.2168520061E-02
    0.1300000000E+07    0.3707666381E-03    0.4494201026E-04    0.6939525222E+00    0.6498656622E+00    0.2188696311E-02
    0.1500000000E+07    0.2820206577E-03    0.3445350191E-04    0.6939375541E+00    0.6522429638E+00    0.2206128103E-02
    0.1700000000E+07    0.2217223512E-03    0.2727051044E-04    0.6939242009E+00    0.6540469628E+00    0.2221488115E-02
    0.1900000000E+07    0.1789071169E-03    0.2213463874E-04    0.6939121432E+00    0.6554620075E+00    0.2235227067E-02
    0.2100000000E+07    0.1474214996E-03    0.1833438104E-04    0.6939011475E+00    0.6566012703E+00    0.2247662026E-02
    0.2300000000E+07    0.1235970654E-03    0.1544276320E-04    0.6938910385E+00    0.6575380031E+00    0.2259024670E-02
    0.2500000000E+07    0.1051373289E-03    0.1319090976E-04    0.6938816810E+00    0.6583216795E+00    0.2269489534E-02
    0.2700000000E+07    0.9054544789E-04    0.1140262687E-04    0.6938729686E+00    0.6589869030E+00    0.2279191436E-02
    0.2900000000E+07    0.7881212764E-04    0.9958526296E-05    0.6938648163E+00    0.6595585943E+00    0.2288236725E-02
    0.3100000000E+07    0.6923685732E-04    0.8775370416E-05    0.6938571546E+00    0.6600551524E+00    0.2296710796E-02
    0.3300000000E+07    0.6132116297E-04    0.7793679956E-05    0.6938499265E+00    0.6604904539E+00    0.2304683275E-02
    0.3500000000E+07    0.5470254234E-04    0.6970031070E-05    0.6938430844E+00    0.6608751607E+00    0.2312211693E-02
    0.3700000000E+07    0.4911228653E-04    0.6272117573E-05    0.6938365883E+00    0.6612175989E+00    0.2319344141E-02
    0.3900000000E+07    0.4434780770E-04    0.5675499110E-05    0.6938304038E+00    0.6615243644E+00    0.2326121241E-02
    0.4100000000E+07    0.4025404058E-04    0.5161407847E-05    0.6938245018E+00    0.6618007502E+00    0.2332577617E-02
    0.4300000000E+07    0.3671067123E-04    0.4715237319E-05    0.6938188568E+00    0.6620510522E+00    0.2338743029E-02
    0.4500000000E+07    0.3362319650E-04    0.4325481207E-05    0.6938134470E+00    0.6622787934E+00    0.2344643244E-02
    0.4700000000E+07    0.3091655556E-04    0.3982975149E-05    0.6938082529E+00    0.6624868904E+00    0.2350300725E-02
    0.4900000000E+07    0.2853052159E-04    0.3680346531E-05    0.6938032576E+00    0.6626777780E+00    0.2355735172E-02
    0.1000000000E+07    0.6091205533E-03    0.7276649870E-04    0.6939790503E+00    0.6444503775E+00    0.2157091854E-02
    0.3000000000E+07    0.7378970476E-04    0.9338497288E-05    0.6938609279E+00    0.6598153096E+00    0.2292540490E-02
    0.5000000000E+07    0.2744211601E-04    0.3542070332E-05    0.6938008297E+00    0.6627674214E+00    0.2358374269E-02
    0.7000000000E+07    0.1443566384E-04    0.1875857438E-05    0.6937598170E+00    0.6640174111E+00    0.2402763633E-02
    0.9000000000E+07    0.9021744219E-05    0.1171989339E-05    0.6937285003E+00    0.6647077372E+00    0.2436460821E-02
    0.1100000000E+08    0.6253901704E-05    0.8085615834E-06    0.6937030908E+00    0.6651454861E+00    0.2463705355E-02
    0.1300000000E+08    0.4646323157E-05    0.5960409279E-06    0.6936816709E+00    0.6654478369E+00    0.2486617282E-02
    0.1500000000E+08    0.3627474001E-05    0.4607279531E-06    0.6936631321E+00    0.6656691969E+00    0.2506412739E-02
    0.1700000000E+08    0.2939322712E-05    0.3690645549E-06    0.6936467746E+00    0.6658382675E+00    0.2523855543E-02
    0.1900000000E+08    0.2451422931E-05    0.3039677956E-06    0.6936321277E+00    0.6659716218E+00    0.2539457497E-02
    0.2100000000E+08    0.2092011397E-05    0.2559858174E-06    0.6936188593E+00    0.6660794984E+00    0.2553578642E-02
    0.2300000000E+08    0.1818926433E-05    0.2195389483E-06    0.6936067261E+00    0.6661685637E+00    0.2566482065E-02
    0.2500000000E+08    0.1606058343E-05    0.1911579265E-06    0.6935955445E+00    0.6662433451E+00    0.2578365960E-02
    0.2700000000E+08    0.1436524616E-05    0.1685919280E-06    0.6935851724E+00    0.6663070249E+00    0.2589383428E-02
