  Pressure (Pa) 22mC5-500 (mol/kg) 23mC5-500 (mol/kg) 24mC5-500 (mol/kg) 3mC6-500 (mol/kg) C7-500 (mol/kg)
    0.1000000000E+01    0.1126754368E-04    0.5388131944E-06    0.2142810397E+00    0.2693269024E-05    0.4167028697E-02
    0.3000000000E+01    0.1928253219E-04    0.9187671244E-06    0.3978499799E+00    0.6772897427E-05    0.4187928189E-02
    0.5000000000E+01    0.2235701369E-04    0.1063682874E-05    0.4801103630E+00    0.1049643207E-04    0.4194923082E-02
    0.7000000000E+01    0.2409281571E-04    0.1145904545E-05    0.5267910864E+00    0.1404850841E-04    0.4198553806E-02
    0.9000000000E+01    0.2535922092E-04    0.1206593303E-05    0.5568714763E+00    0.1749090241E-04    0.4200740421E-02
    0.1100000000E+02    0.2644233472E-04    0.1259133900E-05    0.5778698030E+00    0.2085439917E-04    0.4202161310E-02
    0.1300000000E+02    0.2745354384E-04    0.1308660793E-05    0.5933597893E+00    0.2415727255E-04    0.4203123911E-02
    0.1500000000E+02    0.2844067154E-04    0.1357336089E-05    0.6052575849E+00    0.2741154009E-04    0.4203789209E-02
    0.1700000000E+02    0.2942533459E-04    0.1406110383E-05    0.6146829363E+00    0.3062566173E-04    0.4204250114E-02
    0.1900000000E+02    0.3041739394E-04    0.1455398339E-05    0.6223340006E+00    0.3380589044E-04    0.4204564179E-02
    0.2100000000E+02    0.3142113169E-04    0.1505364800E-05    0.6286686898E+00    0.3695702086E-04    0.4204769044E-02
    0.2300000000E+02    0.3243809192E-04    0.1556054943E-05    0.6339998244E+00    0.4008283637E-04    0.4204890403E-02
    0.2500000000E+02    0.3346845987E-04    0.1607456640E-05    0.6385483822E+00    0.4318639205E-04    0.4204946417E-02
    0.2700000000E+02    0.3451175793E-04    0.1659531419E-05    0.6424748991E+00    0.4627020207E-04    0.4204950301E-02
    0.2900000000E+02    0.3556720612E-04    0.1712230163E-05    0.6458988116E+00    0.4933636848E-04    0.4204911909E-02
    0.3100000000E+02    0.3663391094E-04    0.1765501087E-05    0.6489108185E+00    0.5238667265E-04    0.4204838743E-02
    0.3300000000E+02    0.3771096397E-04    0.1819293732E-05    0.6515810334E+00    0.5542264172E-04    0.4204736617E-02
    0.3500000000E+02    0.3879749193E-04    0.1873560842E-05    0.6539645116E+00    0.5844559819E-04    0.4204610113E-02
    0.3700000000E+02    0.3989268027E-04    0.1928259126E-05    0.6561050864E+00    0.6145669746E-04    0.4204462886E-02
    0.3900000000E+02    0.4099578241E-04    0.1983349428E-05    0.6580380899E+00    0.6445695691E-04    0.4204297896E-02
    0.4100000000E+02    0.4210612116E-04    0.2038796596E-05    0.6597923187E+00    0.6744727862E-04    0.4204117558E-02
    0.4300000000E+02    0.4322308614E-04    0.2094569212E-05    0.6613914778E+00    0.7042846750E-04    0.4203923868E-02
    0.4500000000E+02    0.4434612918E-04    0.2150639256E-05    0.6628552591E+00    0.7340124580E-04    0.4203718490E-02
    0.4700000000E+02    0.4547475896E-04    0.2206981764E-05    0.6642001553E+00    0.7636626492E-04    0.4203502818E-02
    0.4900000000E+02    0.4660853552E-04    0.2263574501E-05    0.6654400849E+00    0.7932411512E-04    0.4203278035E-02
    0.1000000000E+02    0.2591451660E-04    0.1233457455E-05    0.5682278309E+00    0.1918117741E-04    0.4201522458E-02
    0.3000000000E+02    0.3609920863E-04    0.1738797317E-05    0.6474515135E+00    0.5086340259E-04    0.4204879276E-02
    0.5000000000E+02    0.4717722908E-04    0.2291958425E-05    0.6660244539E+00    0.8080052162E-04    0.4203162547E-02
    0.7000000000E+02    0.5874534656E-04    0.2868981227E-05    0.6743148445E+00    0.1100609093E-03    0.4200554902E-02
    0.9000000000E+02    0.7056443035E-04    0.3457956464E-05    0.6790105277E+00    0.1390098771E-03    0.4197627141E-02
    0.1100000000E+03    0.8254803363E-04    0.4054716209E-05    0.6820329368E+00    0.1678326118E-03    0.4194544727E-02
    0.1300000000E+03    0.9466261588E-04    0.4657694611E-05    0.6841412040E+00    0.1966412917E-03    0.4191372093E-02
    0.1500000000E+03    0.1068955062E-03    0.5266332495E-05    0.6856955770E+00    0.2255116104E-03    0.4188138631E-02
    0.1700000000E+03    0.1192431819E-03    0.5880504062E-05    0.6868889912E+00    0.2544985949E-03    0.4184859031E-02
    0.1900000000E+03    0.1317064305E-03    0.6500283597E-05    0.6878340977E+00    0.2836445369E-03    0.4181540997E-02
    0.2100000000E+03    0.1442881638E-03    0.7125841534E-05    0.6886010883E+00    0.3129833927E-03    0.4178188602E-02
    0.2300000000E+03    0.1569923654E-03    0.7757395084E-05    0.6892359772E+00    0.3425434123E-03    0.4174803906E-02
    0.2500000000E+03    0.1698235589E-03    0.8395183762E-05    0.6897701856E+00    0.3723488030E-03    0.4171387797E-02
    0.2700000000E+03    0.1827865326E-03    0.9039456974E-05    0.6902259017E+00    0.4024208318E-03    0.4167940450E-02
    0.2900000000E+03    0.1958861952E-03    0.9690467724E-05    0.6906192402E+00    0.4327785836E-03    0.4164461597E-02
    0.3100000000E+03    0.2091275019E-03    0.1034846952E-04    0.6909621869E+00    0.4634394997E-03    0.4160950682E-02
    0.3300000000E+03    0.2225154176E-03    0.1101371500E-04    0.6912638420E+00    0.4944197709E-03    0.4157406959E-02
    0.3500000000E+03    0.2360549023E-03    0.1168645550E-04    0.6915312388E+00    0.5257346307E-03    0.4153829557E-02
    0.3700000000E+03    0.2497509075E-03    0.1236694110E-04    0.6917698991E+00    0.5573985797E-03    0.4150217517E-02
    0.3900000000E+03    0.2636083798E-03    0.1305542100E-04    0.6919842185E+00    0.5894255595E-03    0.4146569818E-02
    0.4100000000E+03    0.2776322674E-03    0.1375214393E-04    0.6921777397E+00    0.6218290909E-03    0.4142885393E-02
    0.4300000000E+03    0.2918275288E-03    0.1445735872E-04    0.6923533498E+00    0.6546223846E-03    0.4139163142E-02
    0.4500000000E+03    0.3061991423E-03    0.1517131483E-04    0.6925134249E+00    0.6878184318E-03    0.4135401938E-02
    0.4700000000E+03    0.3207521158E-03    0.1589426289E-04    0.6926599389E+00    0.7214300796E-03    0.4131600630E-02
    0.4900000000E+03    0.3354914961E-03    0.1662645523E-04    0.6927945448E+00    0.7554700938E-03    0.4127758049E-02
    0.1000000000E+03    0.7653847231E-04    0.3755495552E-05    0.6806695253E+00    0.1534288834E-03    0.4196100018E-02
    0.3000000000E+03    0.2024888327E-03    0.1001857892E-04    0.6907963873E+00    0.4480701087E-03    0.4162710191E-02
    0.5000000000E+03    0.3429326790E-03    0.1699609746E-04    0.6928578268E+00    0.7726547189E-03    0.4125820910E-02
    0.7000000000E+03    0.5028342566E-03    0.2493869602E-04    0.6937449051E+00    0.1142005296E-02    0.4084608899E-02
    0.9000000000E+03    0.6878595968E-03    0.3412871364E-04    0.6942385951E+00    0.1569848711E-02    0.4037758563E-02
    0.1100000000E+04    0.9050831164E-03    0.4491793289E-04    0.6945530468E+00    0.2072902580E-02    0.3983656637E-02
    0.1300000000E+04    0.1163830649E-02    0.5776985212E-04    0.6947708508E+00    0.2673117204E-02    0.3920223934E-02
    0.1500000000E+04    0.1476789570E-02    0.7331495734E-04    0.6949306140E+00    0.3400361569E-02    0.3844684820E-02
    0.1700000000E+04    0.1861633555E-02    0.9243151459E-04    0.6950527983E+00    0.4296303345E-02    0.3753239975E-02
    0.1900000000E+04    0.2343476432E-02    0.1163675666E-03    0.6951492596E+00    0.5420271965E-02    0.3640588949E-02
    0.2100000000E+04    0.2958567163E-02    0.1469246486E-03    0.6952273417E+00    0.6858126787E-02    0.3499242547E-02
    0.2300000000E+04    0.3759606349E-02    0.1867221910E-03    0.6952918363E+00    0.8735123837E-02    0.3318603543E-02
    0.2500000000E+04    0.4822315534E-02    0.2395244176E-03    0.6953460026E+00    0.1123211104E-01    0.3084016139E-02
    0.2700000000E+04    0.6249502161E-02    0.3104432817E-03    0.6953921351E+00    0.1459656516E-01    0.2776800054E-02
    0.2900000000E+04    0.8158176763E-02    0.4053000132E-03    0.6954318955E+00    0.1911486555E-01    0.2378556108E-02
    0.3100000000E+04    0.1061459682E-01    0.5273994648E-03    0.6954665170E+00    0.2496242519E-01    0.1886665810E-02
    0.3300000000E+04    0.1349038153E-01    0.6703795598E-03    0.6954969339E+00    0.3186345668E-01    0.1343348449E-02
    0.3500000000E+04    0.1637084311E-01    0.8136469737E-03    0.6955238669E+00    0.3886078098E-01    0.8453526276E-03
    0.3700000000E+04    0.1879232266E-01    0.9341585340E-03    0.6955478813E+00    0.4485660290E-01    0.4826519440E-03
    0.3900000000E+04    0.2060191298E-01    0.1024300037E-02    0.6955694260E+00    0.4946611652E-01    0.2682852729E-03
    0.4100000000E+04    0.2193316850E-01    0.1090693648E-02    0.6955888627E+00    0.5298235249E-01    0.1585986321E-03
    0.4300000000E+04    0.2297417927E-01    0.1142678649E-02    0.6956064856E+00    0.5583786474E-01    0.1068269505E-03
    0.4500000000E+04    0.2385599283E-01    0.1186764478E-02    0.6956225367E+00    0.5833790147E-01    0.8334638979E-04
    0.4700000000E+04    0.2465053627E-01    0.1226524597E-02    0.6956372167E+00    0.6065108998E-01    0.7290653680E-04
    0.4900000000E+04    0.2539363814E-01    0.1263739119E-02    0.6956506937E+00    0.6286161931E-01    0.6833039262E-04
    0.1000000000E+04    0.7919276230E-03    0.3929762784E-04    0.6944115187E+00    0.1810752396E-02    0.4011730736E-02
    0.3000000000E+04    0.9319330468E-02    0.4630135320E-03    0.6954497844E+00    0.2187423182E-01    0.2143097240E-02
    0.5000000000E+04    0.2575171167E-01    0.1281680570E-02    0.6956570262E+00    0.6394200846E-01    0.6713935086E-04
    0.7000000000E+04    0.3184963057E-01    0.1588125741E-02    0.6957455285E+00    0.8390175773E-01    0.6580265341E-04
    0.9000000000E+04    0.3648197390E-01    0.1822361951E-02    0.6957945020E+00    0.1016683468E+00    0.6672940353E-04
    0.1100000000E+05    0.4002965651E-01    0.2003023204E-02    0.6958255371E+00    0.1177160281E+00    0.6747921377E-04
    0.1300000000E+05    0.4275060100E-01    0.2142735504E-02    0.6958469300E+00    0.1323645993E+00    0.6810961304E-04
    0.1500000000E+05    0.4483125948E-01    0.2250639843E-02    0.6958625484E+00    0.1458540596E+00    0.6865416839E-04
    0.1700000000E+05    0.4640928913E-01    0.2333495701E-02    0.6958744376E+00    0.1583683379E+00    0.6913394536E-04
    0.1900000000E+05    0.4758819709E-01    0.2396394189E-02    0.6958837804E+00    0.1700509928E+00    0.6956305086E-04
    0.2100000000E+05    0.4844706807E-01    0.2443232059E-02    0.6958913080E+00    0.1810158957E+00    0.6995140442E-04
    0.2300000000E+05    0.4904718509E-01    0.2477034544E-02    0.6958974966E+00    0.1913546769E+00    0.7030625192E-04
    0.2500000000E+05    0.4943663397E-01    0.2500180058E-02    0.6959026699E+00    0.2011420246E+00    0.7063305059E-04
    0.2700000000E+05    0.4965356764E-01    0.2514559608E-02    0.6959070551E+00    0.2104395296E+00    0.7093601506E-04
    0.2900000000E+05    0.4972856068E-01    0.2521691875E-02    0.6959108166E+00    0.2192985211E+00    0.7121846930E-04
    0.3100000000E+05    0.4968633428E-01    0.2522807595E-02    0.6959140763E+00    0.2277621908E+00    0.7148308202E-04
    0.3300000000E+05    0.4954703787E-01    0.2518912299E-02    0.6959169262E+00    0.2358672060E+00    0.7173202889E-04
    0.3500000000E+05    0.4932721366E-01    0.2510833583E-02    0.6959194375E+00    0.2436449501E+00    0.7196710743E-04
    0.3700000000E+05    0.4904053122E-01    0.2499257134E-02    0.6959216656E+00    0.2511224875E+00    0.7218982012E-04
    0.3900000000E+05    0.4869835281E-01    0.2484754485E-02    0.6959236547E+00    0.2583233223E+00    0.7240143591E-04
    0.4100000000E+05    0.4831017300E-01    0.2467804622E-02    0.6959254402E+00    0.2652680004E+00    0.7260303641E-04
    0.4300000000E+05    0.4788396355E-01    0.2448810943E-02    0.6959270509E+00    0.2719745918E+00    0.7279555116E-04
    0.4500000000E+05    0.4742644627E-01    0.2428114704E-02    0.6959285105E+00    0.2784590800E+00    0.7297978499E-04
    0.4700000000E+05    0.4694331073E-01    0.2406005744E-02    0.6959298386E+00    0.2847356793E+00    0.7315643945E-04
    0.4900000000E+05    0.4643938912E-01    0.2382731117E-02    0.6959310516E+00    0.2908170940E+00    0.7332612985E-04
    0.1000000000E+05    0.3837326221E-01    0.1918502084E-02    0.6958115876E+00    0.1098848412E+00    0.6712208015E-04
    0.3000000000E+05    0.4972074603E-01    0.2522934297E-02    0.6959125028E+00    0.2235773426E+00    0.7135285984E-04
    0.5000000000E+05    0.4618094454E-01    0.2370723934E-02    0.6959316193E+00    0.2937882179E+00    0.7340853563E-04
    0.7000000000E+05    0.4064790447E-01    0.2107007049E-02    0.6959393566E+00    0.3452156066E+00    0.7479461222E-04
    0.9000000000E+05    0.3532617728E-01    0.1846519005E-02    0.6959433983E+00    0.3853263302E+00    0.7584686306E-04
    0.1100000000E+06    0.3066840636E-01    0.1614900877E-02    0.6959458045E+00    0.4176155297E+00    0.7669765684E-04
    0.1300000000E+06    0.2670873292E-01    0.1415691354E-02    0.6959473541E+00    0.4441291318E+00    0.7741318248E-04
    0.1500000000E+06    0.2337234498E-01    0.1246254119E-02    0.6959484043E+00    0.4662185433E+00    0.7803140746E-04
    0.1700000000E+06    0.2056356921E-01    0.1102471938E-02    0.6959491409E+00    0.4848389150E+00    0.7857617780E-04
    0.1900000000E+06    0.1819248164E-01    0.9802504480E-03    0.6959496695E+00    0.5006931501E+00    0.7906347182E-04
    0.2100000000E+06    0.1618197628E-01    0.8759749179E-03    0.6959500542E+00    0.5143122885E+00    0.7950452996E-04
    0.2300000000E+06    0.1446831002E-01    0.7865997090E-03    0.6959503361E+00    0.5261051255E+00    0.7990756585E-04
    0.2500000000E+06    0.1299959136E-01    0.7096106107E-03    0.6959505426E+00    0.5363909697E+00    0.8027876731E-04
    0.2700000000E+06    0.1173381365E-01    0.6429498453E-03    0.6959506925E+00    0.5454222635E+00    0.8062291426E-04
    0.2900000000E+06    0.1063699275E-01    0.5849374668E-03    0.6959507992E+00    0.5534006911E+00    0.8094377728E-04
    0.3100000000E+06    0.9681576550E-02    0.5342009204E-03    0.6959508725E+00    0.5604889053E+00    0.8124438409E-04
    0.3300000000E+06    0.8845145874E-02    0.4896158130E-03    0.6959509194E+00    0.5668192115E+00    0.8152720341E-04
    0.3500000000E+06    0.8109375970E-02    0.4502575952E-03    0.6959509456E+00    0.5725000862E+00    0.8179427508E-04
    0.3700000000E+06    0.7459214446E-02    0.4153627315E-03    0.6959509551E+00    0.5776211276E+00    0.8204730436E-04
    0.3900000000E+06    0.6882233027E-02    0.3842977122E-03    0.6959509511E+00    0.5822568536E+00    0.8228773156E-04
    0.4100000000E+06    0.6368116549E-02    0.3565343819E-03    0.6959509362E+00    0.5864696431E+00    0.8251678444E-04
    0.4300000000E+06    0.5908259389E-02    0.3316302925E-03    0.6959509124E+00    0.5903120331E+00    0.8273551824E-04
    0.4500000000E+06    0.5495445747E-02    0.3092130246E-03    0.6959508814E+00    0.5938285260E+00    0.8294484670E-04
    0.4700000000E+06    0.5123595382E-02    0.2889676383E-03    0.6959508443E+00    0.5970570239E+00    0.8314556631E-04
    0.4900000000E+06    0.4787560491E-02    0.2706265923E-03    0.6959508024E+00    0.6000299731E+00    0.8333837571E-04
    0.1000000000E+06    0.3290777965E-01    0.1726639352E-02    0.6959447423E+00    0.4022991565E+00    0.7629238499E-04
    0.3000000000E+06    0.1014311723E-01    0.5587351888E-03    0.6959508395E+00    0.5570471798E+00    0.8109644705E-04
    0.5000000000E+06    0.4631579334E-02    0.2620975162E-03    0.6959507798E+00    0.6014294948E+00    0.8343200950E-04
    0.7000000000E+06    0.2614186375E-02    0.1507168846E-03    0.6959502166E+00    0.6210717170E+00    0.8500701440E-04
    0.9000000000E+06    0.1670291734E-02    0.9767846960E-04    0.6959496022E+00    0.6318933433E+00    0.8620276185E-04
    0.1100000000E+07    0.1156592709E-02    0.6842044529E-04    0.6959490173E+00    0.6386778657E+00    0.8716961078E-04
    0.1300000000E+07    0.8471609963E-03    0.5060190064E-04    0.6959484767E+00    0.6433059574E+00    0.8798275649E-04
    0.1500000000E+07    0.6467307650E-03    0.3895276280E-04    0.6959479799E+00    0.6466553968E+00    0.8868533643E-04
    0.1700000000E+07    0.5096338815E-03    0.3092049997E-04    0.6959475226E+00    0.6491875280E+00    0.8930444520E-04
    0.1900000000E+07    0.4117987296E-03    0.2514789380E-04    0.6959471000E+00    0.6511668646E+00    0.8985823863E-04
    0.2100000000E+07    0.3395752770E-03    0.2085947653E-04    0.6959467078E+00    0.6527554868E+00    0.9035948939E-04
    0.2300000000E+07    0.2847607357E-03    0.1758611471E-04    0.6959463420E+00    0.6540580516E+00    0.9081753095E-04
    0.2500000000E+07    0.2421875019E-03    0.1503048483E-04    0.6959459996E+00    0.6551450607E+00    0.9123939490E-04
    0.2700000000E+07    0.2084700669E-03    0.1299673550E-04    0.6959456778E+00    0.6560656961E+00    0.9163051305E-04
    0.2900000000E+07    0.1813159901E-03    0.1135158738E-04    0.6959453743E+00    0.6568552880E+00    0.9199517023E-04
    0.3100000000E+07    0.1591285556E-03    0.1000178245E-04    0.6959450871E+00    0.6575398563E+00    0.9233680718E-04
    0.3300000000E+07    0.1407681607E-03    0.8880476824E-05    0.6959448145E+00    0.6581389799E+00    0.9265822937E-04
    0.3500000000E+07    0.1254039363E-03    0.7938741493E-05    0.6959445552E+00    0.6586676692E+00    0.9296175493E-04
    0.3700000000E+07    0.1124186301E-03    0.7140091519E-05    0.6959443079E+00    0.6591376217E+00    0.9324932176E-04
    0.3900000000E+07    0.1013459826E-03    0.6456870200E-05    0.6959440715E+00    0.6595580863E+00    0.9352256669E-04
    0.4100000000E+07    0.9182850843E-04    0.5867802618E-05    0.6959438451E+00    0.6599364712E+00    0.9378288499E-04
    0.4300000000E+07    0.8358842710E-04    0.5356305420E-05    0.6959436279E+00    0.6602787791E+00    0.9403147590E-04
    0.4500000000E+07    0.7640726510E-04    0.4909296945E-05    0.6959434190E+00    0.6605899247E+00    0.9426937781E-04
    0.4700000000E+07    0.7011129483E-04    0.4516345271E-05    0.6959432180E+00    0.6608739705E+00    0.9449749594E-04
    0.4900000000E+07    0.6456097812E-04    0.4169048752E-05    0.6959430242E+00    0.6611343034E+00    0.9471662422E-04
    0.1000000000E+07    0.1378501675E-02    0.8110214530E-04    0.6959493045E+00    0.6356376279E+00    0.8670905358E-04
    0.3000000000E+07    0.1696813151E-03    0.1064444566E-04    0.6959452288E+00    0.6572093511E+00    0.9216867797E-04
    0.5000000000E+07    0.6202922919E-04    0.4010335881E-05    0.6959429299E+00    0.6612564848E+00    0.9482303926E-04
    0.7000000000E+07    0.3180320493E-04    0.2097260279E-05    0.6959413223E+00    0.6629550482E+00    0.9661303996E-04
    0.9000000000E+07    0.1927732390E-04    0.1290040015E-05    0.6959400806E+00    0.6638887908E+00    0.9797201584E-04
    0.1100000000E+08    0.1291656712E-04    0.8744702980E-06    0.6959390660E+00    0.6644792057E+00    0.9907084794E-04
    0.1300000000E+08    0.9252505154E-05    0.6324207097E-06    0.6959382067E+00    0.6648862044E+00    0.9999499545E-04
    0.1500000000E+08    0.6951921301E-05    0.4790256887E-06    0.6959374604E+00    0.6651837523E+00    0.1007934841E-03
    0.1700000000E+08    0.5413920212E-05    0.3756542669E-06    0.6959368002E+00    0.6654107623E+00    0.1014971071E-03
    0.1900000000E+08    0.4335430224E-05    0.3026573107E-06    0.6959362076E+00    0.6655896576E+00    0.1021264985E-03
    0.2100000000E+08    0.3550188574E-05    0.2491760100E-06    0.6959356699E+00    0.6657342686E+00    0.1026961747E-03
    0.2300000000E+08    0.2960825325E-05    0.2088094925E-06    0.6959351774E+00    0.6658535888E+00    0.1032167431E-03
    0.2500000000E+08    0.2507252847E-05    0.1775845701E-06    0.6959347229E+00    0.6659537194E+00    0.1036961953E-03
    0.2700000000E+08    0.2150765198E-05    0.1529282560E-06    0.6959343008E+00    0.6660389452E+00    0.1041407046E-03
