  Pressure (Pa) 22mC5-500 (mol/kg) 23mC5-500 (mol/kg) 24mC5-500 (mol/kg) 3mC6-500 (mol/kg) C7-500 (mol/kg)
    0.1000000000E+01    0.1411159017E-04    0.1350771289E-05    0.9949327198E-01    0.7205520742E-06    0.4232439590E-02
    0.3000000000E+01    0.3120838690E-04    0.2980006268E-05    0.2320765331E+00    0.1866638956E-05    0.4326631244E-02
    0.5000000000E+01    0.4089731228E-04    0.3898065237E-05    0.3164038821E+00    0.2925032063E-05    0.4386528964E-02
    0.7000000000E+01    0.4693910295E-04    0.4467602782E-05    0.3747646869E+00    0.3940087887E-05    0.4428551953E-02
    0.9000000000E+01    0.5098128018E-04    0.4846999395E-05    0.4175525417E+00    0.4926942143E-05    0.4459829418E-02
    0.1100000000E+02    0.5384439123E-04    0.5114881389E-05    0.4502670073E+00    0.5893220244E-05    0.4484110917E-02
    0.1300000000E+02    0.5597505332E-04    0.5313898107E-05    0.4760908059E+00    0.6843484002E-05    0.4503570151E-02
    0.1500000000E+02    0.5763287163E-04    0.5468750497E-05    0.4969936137E+00    0.7780751811E-05    0.4519557618E-02
    0.1700000000E+02    0.5897657843E-04    0.5594483461E-05    0.5142597048E+00    0.8707159255E-05    0.4532958078E-02
    0.1900000000E+02    0.6010719013E-04    0.5700632115E-05    0.5287622232E+00    0.9624291603E-05    0.4544376170E-02
    0.2100000000E+02    0.6109109923E-04    0.5793435684E-05    0.5411155095E+00    0.1053336895E-04    0.4554239607E-02
    0.2300000000E+02    0.6197310531E-04    0.5877084098E-05    0.5517643743E+00    0.1143535727E-04    0.4562859779E-02
    0.2500000000E+02    0.6278409906E-04    0.5954451410E-05    0.5610388028E+00    0.1233103889E-04    0.4570468976E-02
    0.2700000000E+02    0.6354576397E-04    0.6027543501E-05    0.5691887607E+00    0.1322105934E-04    0.4577244147E-02
    0.2900000000E+02    0.6427354516E-04    0.6097780089E-05    0.5764070633E+00    0.1410595967E-04    0.4583322552E-02
    0.3100000000E+02    0.6497857551E-04    0.6166177225E-05    0.5828448257E+00    0.1498619939E-04    0.4588812370E-02
    0.3300000000E+02    0.6566895524E-04    0.6233468199E-05    0.5886221576E+00    0.1586217324E-04    0.4593800069E-02
    0.3500000000E+02    0.6635061949E-04    0.6300185306E-05    0.5938357276E+00    0.1673422371E-04    0.4598355633E-02
    0.3700000000E+02    0.6702793760E-04    0.6366716139E-05    0.5985642154E+00    0.1760265051E-04    0.4602536342E-02
    0.3900000000E+02    0.6770413361E-04    0.6433342986E-05    0.6028723107E+00    0.1846771797E-04    0.4606389554E-02
    0.4100000000E+02    0.6838158565E-04    0.6500270781E-05    0.6068136900E+00    0.1932966081E-04    0.4609954784E-02
    0.4300000000E+02    0.6906204187E-04    0.6567647196E-05    0.6104332648E+00    0.2018868875E-04    0.4613265280E-02
    0.4500000000E+02    0.6974677795E-04    0.6635577238E-05    0.6137689004E+00    0.2104499017E-04    0.4616349227E-02
    0.4700000000E+02    0.7043671310E-04    0.6704133976E-05    0.6168527456E+00    0.2189873519E-04    0.4619230688E-02
    0.4900000000E+02    0.7113249648E-04    0.6773366474E-05    0.6197122725E+00    0.2275007812E-04    0.4621930339E-02
    0.1000000000E+02    0.5252644669E-04    0.4991651292E-05    0.4349327070E+00    0.5412320504E-05    0.4472683482E-02
    0.3000000000E+02    0.6462833860E-04    0.6132157240E-05    0.5797153794E+00    0.1454663608E-04    0.4586135191E-02
    0.5000000000E+02    0.7148272654E-04    0.6808246393E-05    0.6210654283E+00    0.2317489320E-04    0.4623217666E-02
    0.7000000000E+02    0.7883826666E-04    0.7543364091E-05    0.6406495433E+00    0.3157354642E-04    0.4642704906E-02
    0.9000000000E+02    0.8679481287E-04    0.8340234468E-05    0.6520725261E+00    0.3983834123E-04    0.4655048874E-02
    0.1100000000E+03    0.9520091193E-04    0.9182013865E-05    0.6595559252E+00    0.4801787376E-04    0.4663683461E-02
    0.1300000000E+03    0.1039363074E-03    0.1005622523E-04    0.6648378951E+00    0.5614138734E-04    0.4670099164E-02
    0.1500000000E+03    0.1129197818E-03    0.1095465052E-04    0.6687651902E+00    0.6422834604E-04    0.4675059045E-02
    0.1700000000E+03    0.1220969876E-03    0.1187186993E-04    0.6717996615E+00    0.7229261326E-04    0.4678999358E-02
    0.1900000000E+03    0.1314309242E-03    0.1280423173E-04    0.6742146422E+00    0.8034456091E-04    0.4682190113E-02
    0.2100000000E+03    0.1408958535E-03    0.1374921701E-04    0.6761822274E+00    0.8839224603E-04    0.4684808743E-02
    0.2300000000E+03    0.1504735075E-03    0.1470505108E-04    0.6778161725E+00    0.9644211710E-04    0.4686977430E-02
    0.2500000000E+03    0.1601506941E-03    0.1567046122E-04    0.6791946828E+00    0.1044994630E-03    0.4688783531E-02
    0.2700000000E+03    0.1699177519E-03    0.1664452169E-04    0.6803732943E+00    0.1125687110E-03    0.4690291462E-02
    0.2900000000E+03    0.1797675292E-03    0.1762655202E-04    0.6813925328E+00    0.1206536329E-03    0.4691549960E-02
    0.3100000000E+03    0.1896946922E-03    0.1861604860E-04    0.6822826634E+00    0.1287574907E-03    0.4692596710E-02
    0.3300000000E+03    0.1996952481E-03    0.1961263762E-04    0.6830667451E+00    0.1368831436E-03    0.4693461401E-02
    0.3500000000E+03    0.2097662080E-03    0.2061604211E-04    0.6837626547E+00    0.1450331273E-03    0.4694167806E-02
    0.3700000000E+03    0.2199053459E-03    0.2162605831E-04    0.6843844650E+00    0.1532097146E-03    0.4694735229E-02
    0.3900000000E+03    0.2301110223E-03    0.2264253861E-04    0.6849434056E+00    0.1614149624E-03    0.4695179542E-02
    0.4100000000E+03    0.2403820546E-03    0.2366537890E-04    0.6854485466E+00    0.1696507476E-03    0.4695513940E-02
    0.4300000000E+03    0.2507176193E-03    0.2469450916E-04    0.6859072935E+00    0.1779187974E-03    0.4695749503E-02
    0.4500000000E+03    0.2611171785E-03    0.2572988637E-04    0.6863257524E+00    0.1862207119E-03    0.4695895613E-02
    0.4700000000E+03    0.2715804228E-03    0.2677148907E-04    0.6867090031E+00    0.1945579834E-03    0.4695960282E-02
    0.4900000000E+03    0.2821072279E-03    0.2781931317E-04    0.6870613061E+00    0.2029320127E-03    0.4695950397E-02
    0.1000000000E+03    0.9095023398E-04    0.8756408710E-05    0.6561672913E+00    0.4393663623E-04    0.4659711943E-02
    0.3000000000E+03    0.1847217140E-03    0.1812039299E-04    0.6818521541E+00    0.1247030077E-03    0.4692097788E-02
    0.5000000000E+03    0.2873944689E-03    0.2834556089E-04    0.6872269994E+00    0.2071332273E-03    0.4695919392E-02
    0.7000000000E+03    0.3965397384E-03    0.3920488223E-04    0.6895538517E+00    0.2933781774E-03    0.4692485840E-02
    0.9000000000E+03    0.5125636778E-03    0.5074336072E-04    0.6908517598E+00    0.3845253084E-03    0.4685310873E-02
    0.1100000000E+04    0.6362460230E-03    0.6304040004E-04    0.6916791724E+00    0.4814486964E-03    0.4675558877E-02
    0.1300000000E+04    0.7685121732E-03    0.7618892711E-04    0.6922523868E+00    0.5849924760E-03    0.4663709459E-02
    0.1500000000E+04    0.9104105096E-03    0.9029368202E-04    0.6926727667E+00    0.6960432021E-03    0.4649962802E-02
    0.1700000000E+04    0.1063127270E-02    0.1054729054E-03    0.6929941238E+00    0.8155721295E-03    0.4634377071E-02
    0.1900000000E+04    0.1228013076E-02    0.1218610690E-03    0.6932476721E+00    0.9446687101E-03    0.4616924065E-02
    0.2100000000E+04    0.1406616606E-02    0.1396122694E-03    0.6934527610E+00    0.1084573162E-02    0.4597513717E-02
    0.2300000000E+04    0.1600725507E-02    0.1589043214E-03    0.6936220224E+00    0.1236712047E-02    0.4576004578E-02
    0.2500000000E+04    0.1812416086E-02    0.1799437139E-03    0.6937640521E+00    0.1402739597E-02    0.4552206965E-02
    0.2700000000E+04    0.2044114065E-02    0.2029716590E-03    0.6938849023E+00    0.1584587268E-02    0.4525881587E-02
    0.2900000000E+04    0.2298669374E-02    0.2282715365E-03    0.6939889573E+00    0.1784524271E-02    0.4496734833E-02
    0.3100000000E+04    0.2579448796E-02    0.2561781104E-03    0.6940794707E+00    0.2005232287E-02    0.4464411127E-02
    0.3300000000E+04    0.2890451231E-02    0.2870889943E-03    0.6941589078E+00    0.2249898372E-02    0.4428482316E-02
    0.3500000000E+04    0.3236451584E-02    0.3214789648E-03    0.6942291705E+00    0.2522330976E-02    0.4388433789E-02
    0.3700000000E+04    0.3623180663E-02    0.3599178553E-03    0.6942917495E+00    0.2827105189E-02    0.4343646806E-02
    0.3900000000E+04    0.4057549932E-02    0.4030929133E-03    0.6943478299E+00    0.3169744546E-02    0.4293376388E-02
    0.4100000000E+04    0.4547931194E-02    0.4518366238E-03    0.6943983650E+00    0.3556947841E-02    0.4236724061E-02
    0.4300000000E+04    0.5104501487E-02    0.5071610236E-03    0.6944441311E+00    0.3996869763E-02    0.4172604871E-02
    0.4500000000E+04    0.5739661147E-02    0.5702992998E-03    0.6944857662E+00    0.4499462604E-02    0.4099708577E-02
    0.4700000000E+04    0.6468524896E-02    0.6427546668E-03    0.6945237995E+00    0.5076880301E-02    0.4016456187E-02
    0.4900000000E+04    0.7309465993E-02    0.7263545399E-03    0.6945586740E+00    0.5743930858E-02    0.3920955658E-02
    0.1000000000E+04    0.5733925519E-03    0.5679152117E-04    0.6913067266E+00    0.4322125917E-03    0.4680717867E-02
    0.3000000000E+04    0.2435547485E-02    0.2418757608E-03    0.6940357372E+00    0.1892095789E-02    0.4480995012E-02
    0.5000000000E+04    0.7778731894E-02    0.7730067009E-03    0.6945750456E+00    0.6116534797E-02    0.3867926200E-02
    0.7000000000E+04    0.2854108426E-01    0.2838050378E-02    0.6948025136E+00    0.2285250874E-01    0.1718261534E-02
    0.9000000000E+04    0.4455757051E-01    0.4434929117E-02    0.6949267269E+00    0.3678159159E-01    0.6986348028E-03
    0.1100000000E+05    0.5091600335E-01    0.5072760833E-02    0.6950043560E+00    0.4336296366E-01    0.6813502706E-03
    0.1300000000E+05    0.5617063846E-01    0.5601569183E-02    0.6950570986E+00    0.4929368608E-01    0.6873203765E-03
    0.1500000000E+05    0.6071775163E-01    0.6060556975E-02    0.6950950314E+00    0.5484199913E-01    0.6928180103E-03
    0.1700000000E+05    0.6467790408E-01    0.6461549805E-02    0.6951234619E+00    0.6006384162E-01    0.6976666691E-03
    0.1900000000E+05    0.6814349651E-01    0.6813612649E-02    0.6951454468E+00    0.6500166405E-01    0.7020021730E-03
    0.2100000000E+05    0.7118887419E-01    0.7124044770E-02    0.6951628683E+00    0.6969034908E-01    0.7059250616E-03
    0.2300000000E+05    0.7387454577E-01    0.7398791679E-02    0.6951769470E+00    0.7415890851E-01    0.7095088422E-03
    0.2500000000E+05    0.7625022947E-01    0.7642742583E-02    0.6951885085E+00    0.7843169563E-01    0.7128088464E-03
    0.2700000000E+05    0.7835713160E-01    0.7859952969E-02    0.6951981303E+00    0.8252932500E-01    0.7158677850E-03
    0.2900000000E+05    0.8022967429E-01    0.8053813447E-02    0.6952062283E+00    0.8646938018E-01    0.7187193294E-03
    0.3100000000E+05    0.8189682131E-01    0.8227179377E-02    0.6952131092E+00    0.9026696474E-01    0.7213905030E-03
    0.3300000000E+05    0.8338310645E-01    0.8382471458E-02    0.6952190040E+00    0.9393513591E-01    0.7239033302E-03
    0.3500000000E+05    0.8470943934E-01    0.8521754582E-02    0.6952240899E+00    0.9748524912E-01    0.7262760023E-03
    0.3700000000E+05    0.8589374259E-01    0.8646800213E-02    0.6952285048E+00    0.1009272343E+00    0.7285237214E-03
    0.3900000000E+05    0.8695146002E-01    0.8759136166E-02    0.6952323577E+00    0.1042698193E+00    0.7306593239E-03
    0.4100000000E+05    0.8789596523E-01    0.8860086638E-02    0.6952357359E+00    0.1075207120E+00    0.7326937490E-03
    0.4300000000E+05    0.8873889247E-01    0.8950804655E-02    0.6952387099E+00    0.1106867497E+00    0.7346363967E-03
    0.4500000000E+05    0.8949040652E-01    0.9032298529E-02    0.6952413373E+00    0.1137740228E+00    0.7364954042E-03
    0.4700000000E+05    0.9015942416E-01    0.9105453602E-02    0.6952436657E+00    0.1167879773E+00    0.7382778640E-03
    0.4900000000E+05    0.9075379707E-01    0.9171050196E-02    0.6952457344E+00    0.1197335011E+00    0.7399899954E-03
    0.1000000000E+05    0.4795236935E-01    0.4775177209E-02    0.6949695994E+00    0.4021269867E-01    0.6804979459E-03
    0.3000000000E+05    0.8108729544E-01    0.8142897765E-02    0.6952098050E+00    0.8838512166E-01    0.7200759844E-03
    0.5000000000E+05    0.9102519209E-01    0.9201232924E-02    0.6952466820E+00    0.1211819942E+00    0.7408214276E-03
    0.7000000000E+05    0.9385368939E-01    0.9539575848E-02    0.6952577779E+00    0.1474279785E+00    0.7548044746E-03
    0.9000000000E+05    0.9377891068E-01    0.9577759703E-02    0.6952613009E+00    0.1699684716E+00    0.7654180048E-03
    0.1100000000E+06    0.9233786136E-01    0.9470940088E-02    0.6952618432E+00    0.1900605169E+00    0.7739986568E-03
    0.1300000000E+06    0.9020786717E-01    0.9288361969E-02    0.6952610299E+00    0.2083671017E+00    0.7812145628E-03
    0.1500000000E+06    0.8772556342E-01    0.9064940956E-02    0.6952595538E+00    0.2252810269E+00    0.7874488955E-03
    0.1700000000E+06    0.8507263075E-01    0.8819838241E-02    0.6952577470E+00    0.2410552434E+00    0.7929422760E-03
    0.1900000000E+06    0.8235295925E-01    0.8564228241E-02    0.6952557816E+00    0.2558633300E+00    0.7978559178E-03
    0.2100000000E+06    0.7962837460E-01    0.8304919949E-02    0.6952537513E+00    0.2698305992E+00    0.8023032218E-03
    0.2300000000E+06    0.7693660377E-01    0.8046191508E-02    0.6952517091E+00    0.2830513894E+00    0.8063670471E-03
    0.2500000000E+06    0.7430091935E-01    0.7790782850E-02    0.6952496856E+00    0.2955992825E+00    0.8101098126E-03
    0.2700000000E+06    0.7173559867E-01    0.7540462353E-02    0.6952476981E+00    0.3075334402E+00    0.8135797335E-03
    0.2900000000E+06    0.6924915290E-01    0.7296365090E-02    0.6952457563E+00    0.3189026931E+00    0.8168148417E-03
    0.3100000000E+06    0.6684630918E-01    0.7059202520E-02    0.6952438653E+00    0.3297482666E+00    0.8198456758E-03
    0.3300000000E+06    0.6452926651E-01    0.6829396762E-02    0.6952420273E+00    0.3401056498E+00    0.8226971350E-03
    0.3500000000E+06    0.6229851343E-01    0.6607169052E-02    0.6952402426E+00    0.3500059065E+00    0.8253897926E-03
    0.3700000000E+06    0.6015337321E-01    0.6392599460E-02    0.6952385107E+00    0.3594766148E+00    0.8279408469E-03
    0.3900000000E+06    0.5809237482E-01    0.6185668093E-02    0.6952368301E+00    0.3685425522E+00    0.8303648236E-03
    0.4100000000E+06    0.5611350983E-01    0.5986284070E-02    0.6952351993E+00    0.3772262034E+00    0.8326741049E-03
    0.4300000000E+06    0.5421441308E-01    0.5794306233E-02    0.6952336162E+00    0.3855481432E+00    0.8348793329E-03
    0.4500000000E+06    0.5239249123E-01    0.5609558170E-02    0.6952320788E+00    0.3935273287E+00    0.8369897221E-03
    0.4700000000E+06    0.5064501520E-01    0.5431839238E-02    0.6952305852E+00    0.4011813261E+00    0.8390133050E-03
    0.4900000000E+06    0.4896918706E-01    0.5260932743E-02    0.6952291333E+00    0.4085264886E+00    0.8409571270E-03
    0.1000000000E+06    0.9317536254E-01    0.9536994857E-02    0.6952618096E+00    0.1802704463E+00    0.7699113889E-03
    0.3000000000E+06    0.6803709532E-01    0.7176885014E-02    0.6952448043E+00    0.3243886048E+00    0.8183541222E-03
    0.5000000000E+06    0.4815726004E-01    0.5177963589E-02    0.6952284224E+00    0.4120880710E+00    0.8419010983E-03
    0.7000000000E+06    0.3501762952E-01    0.3820136132E-02    0.6952159682E+00    0.4703566452E+00    0.8577791240E-03
    0.9000000000E+06    0.2624981922E-01    0.2897487614E-02    0.6952060102E+00    0.5105047918E+00    0.8698332562E-03
    0.1100000000E+07    0.2023976552E-01    0.2256300873E-02    0.6951977209E+00    0.5390767686E+00    0.8795796038E-03
    0.1300000000E+07    0.1599682447E-01    0.1798599221E-02    0.6951906182E+00    0.5600360285E+00    0.8877763451E-03
    0.1500000000E+07    0.1291614286E-01    0.1463170943E-02    0.6951844011E+00    0.5758403744E+00    0.8948584109E-03
    0.1700000000E+07    0.1062168043E-01    0.1211335902E-02    0.6951788701E+00    0.5880531296E+00    0.9010989742E-03
    0.1900000000E+07    0.8873673703E-02    0.1018120532E-02    0.6951738861E+00    0.5976959154E+00    0.9066810815E-03
    0.2100000000E+07    0.7515107337E-02    0.8670029677E-03    0.6951693488E+00    0.6054545006E+00    0.9117335043E-03
    0.2300000000E+07    0.6440453864E-02    0.7467836346E-03    0.6951651830E+00    0.6118010815E+00    0.9163503393E-03
    0.2500000000E+07    0.5577049397E-02    0.6496935061E-03    0.6951613313E+00    0.6170685581E+00    0.9206024757E-03
    0.2700000000E+07    0.4873732225E-02    0.5702267706E-03    0.6951577486E+00    0.6214967477E+00    0.9245446734E-03
    0.2900000000E+07    0.4293741348E-02    0.5044042632E-03    0.6951543989E+00    0.6252618371E+00    0.9282201293E-03
    0.3100000000E+07    0.3810171398E-02    0.4492982558E-03    0.6951512531E+00    0.6284955924E+00    0.9316635299E-03
    0.3300000000E+07    0.3402997781E-02    0.4027192495E-03    0.6951482871E+00    0.6312981635E+00    0.9349031575E-03
    0.3500000000E+07    0.3057088371E-02    0.3630053448E-03    0.6951454811E+00    0.6337467955E+00    0.9379623813E-03
    0.3700000000E+07    0.2760848522E-02    0.3288779103E-03    0.6951428183E+00    0.6359018684E+00    0.9408607369E-03
    0.3900000000E+07    0.2505280941E-02    0.2993409398E-03    0.6951402844E+00    0.6378111577E+00    0.9436147251E-03
    0.4100000000E+07    0.2283322505E-02    0.2736097319E-03    0.6951378672E+00    0.6395128889E+00    0.9462384114E-03
    0.4300000000E+07    0.2089369211E-02    0.2510595873E-03    0.6951355561E+00    0.6410379604E+00    0.9487438848E-03
    0.4500000000E+07    0.1918931043E-02    0.2311883898E-03    0.6951333420E+00    0.6424115835E+00    0.9511416131E-03
    0.4700000000E+07    0.1768377918E-02    0.2135889625E-03    0.6951312168E+00    0.6436545081E+00    0.9534407213E-03
    0.4900000000E+07    0.1634750396E-02    0.1979283987E-03    0.6951291736E+00    0.6447839489E+00    0.9556492130E-03
    0.1000000000E+07    0.2297343843E-01    0.2548907288E-02    0.6952016927E+00    0.5259451684E+00    0.8749369764E-03
    0.3000000000E+07    0.4041289489E-02    0.4756629808E-03    0.6951528021E+00    0.6269382491E+00    0.9299689386E-03
    0.5000000000E+07    0.1573506444E-02    0.1907375404E-03    0.6951281807E+00    0.6453107037E+00    0.9567217163E-03
    0.7000000000E+07    0.8267852213E-03    0.1022146926E-03    0.6951114258E+00    0.6523882593E+00    0.9747618233E-03
    0.9000000000E+07    0.5075189207E-03    0.6367940486E-04    0.6950986503E+00    0.6560556471E+00    0.9884574389E-03
    0.1100000000E+08    0.3426050488E-03    0.4349954526E-04    0.6950882940E+00    0.6582799798E+00    0.9995310341E-03
    0.1300000000E+08    0.2465875536E-03    0.3161901389E-04    0.6950795693E+00    0.6597669735E+00    0.1008844007E-02
    0.1500000000E+08    0.1858596817E-03    0.2403441925E-04    0.6950720216E+00    0.6608288480E+00    0.1016890508E-02
    0.1700000000E+08    0.1450477540E-03    0.1889592361E-04    0.6950653646E+00    0.6616241140E+00    0.1023980908E-02
    0.1900000000E+08    0.1163162979E-03    0.1525265892E-04    0.6950594056E+00    0.6622414990E+00    0.1030323179E-02
    0.2100000000E+08    0.9533335403E-04    0.1257500995E-04    0.6950540088E+00    0.6627344298E+00    0.1036063629E-02
    0.2300000000E+08    0.7954673408E-04    0.1054889396E-04    0.6950490748E+00    0.6631369528E+00    0.1041309170E-02
    0.2500000000E+08    0.6737396606E-04    0.8978411529E-05    0.6950445287E+00    0.6634717690E+00    0.1046140344E-02
    0.2700000000E+08    0.5779174632E-04    0.7736202908E-05    0.6950403125E+00    0.6637545861E+00    0.1050619370E-02
