  Pressure (Pa) 22mC5-500 (mol/kg) 23mC5-500 (mol/kg) 24mC5-500 (mol/kg) 3mC6-500 (mol/kg) C7-500 (mol/kg)
    0.1000000000E+01    0.1609694304E-04    0.1321647804E-05    0.1266339494E+00    0.6125876435E-05    0.4146427469E-02
    0.3000000000E+01    0.3328475022E-04    0.2725330884E-05    0.2785310811E+00    0.1512251198E-04    0.4173440827E-02
    0.5000000000E+01    0.4209520650E-04    0.3440689199E-05    0.3664408747E+00    0.2328366088E-04    0.4181720836E-02
    0.7000000000E+01    0.4735379620E-04    0.3866068143E-05    0.4237618730E+00    0.3105211875E-04    0.4186017324E-02
    0.9000000000E+01    0.5086575387E-04    0.4149842737E-05    0.4640937752E+00    0.3857410528E-04    0.4188572073E-02
    0.1100000000E+02    0.5343532826E-04    0.4357814113E-05    0.4940149165E+00    0.4592194930E-04    0.4190171532E-02
    0.1300000000E+02    0.5546401188E-04    0.4522671059E-05    0.5170955869E+00    0.5313835434E-04    0.4191181853E-02
    0.1500000000E+02    0.5716906673E-04    0.4662009734E-05    0.5354409971E+00    0.6025128452E-04    0.4191800826E-02
    0.1700000000E+02    0.5867531172E-04    0.4785881494E-05    0.5503728605E+00    0.6728035670E-04    0.4192145862E-02
    0.1900000000E+02    0.6005781012E-04    0.4900292970E-05    0.5627628619E+00    0.7424002769E-04    0.4192291447E-02
    0.2100000000E+02    0.6136333336E-04    0.5008960604E-05    0.5732091712E+00    0.8114135494E-04    0.4192287256E-02
    0.2300000000E+02    0.6262184150E-04    0.5114246117E-05    0.5821359189E+00    0.8799304532E-04    0.4192167741E-02
    0.2500000000E+02    0.6385293985E-04    0.5217680864E-05    0.5898522019E+00    0.9480211705E-04    0.4191957570E-02
    0.2700000000E+02    0.6506966405E-04    0.5320272142E-05    0.5965886067E+00    0.1015743371E-03    0.4191674873E-02
    0.2900000000E+02    0.6628077773E-04    0.5422688433E-05    0.6025206483E+00    0.1083145213E-03    0.4191333275E-02
    0.3100000000E+02    0.6749220901E-04    0.5525374774E-05    0.6077842851E+00    0.1150267469E-03    0.4190943214E-02
    0.3300000000E+02    0.6870797179E-04    0.5628626421E-05    0.6124864685E+00    0.1217145067E-03    0.4190512817E-02
    0.3500000000E+02    0.6993076952E-04    0.5732636916E-05    0.6167124870E+00    0.1283808239E-03    0.4190048503E-02
    0.3700000000E+02    0.7116239843E-04    0.5837530031E-05    0.6205311868E+00    0.1350283394E-03    0.4189555409E-02
    0.3900000000E+02    0.7240402132E-04    0.5943381345E-05    0.6239987519E+00    0.1416593781E-03    0.4189037691E-02
    0.4100000000E+02    0.7365635611E-04    0.6050233009E-05    0.6271614872E+00    0.1482760021E-03    0.4188498745E-02
    0.4300000000E+02    0.7491980720E-04    0.6158103977E-05    0.6300578983E+00    0.1548800520E-03    0.4187941375E-02
    0.4500000000E+02    0.7619455806E-04    0.6266997160E-05    0.6327202676E+00    0.1614731805E-03    0.4187367909E-02
    0.4700000000E+02    0.7748063697E-04    0.6376904469E-05    0.6351758625E+00    0.1680568793E-03    0.4186780300E-02
    0.4900000000E+02    0.7877796409E-04    0.6487810389E-05    0.6374478727E+00    0.1746325016E-03    0.4186180195E-02
    0.1000000000E+02    0.5223729705E-04    0.4260772780E-05    0.4800863656E+00    0.4226666964E-04    0.4189462736E-02
    0.3000000000E+02    0.6688616621E-04    0.5473976543E-05    0.6052287515E+00    0.1116738984E-03    0.4191143749E-02
    0.5000000000E+02    0.7943079976E-04    0.6543631593E-05    0.6385213495E+00    0.1779176736E-03    0.4185875902E-02
    0.7000000000E+02    0.9302362318E-04    0.7706603299E-05    0.6539394786E+00    0.2434473544E-03    0.4179382527E-02
    0.9000000000E+02    0.1074730840E-03    0.8942765611E-05    0.6628319412E+00    0.3091098219E-03    0.4172443020E-02
    0.1100000000E+03    0.1226029315E-03    0.1023638089E-04    0.6686181982E+00    0.3753496451E-03    0.4165265511E-02
    0.1300000000E+03    0.1383137098E-03    0.1157886634E-04    0.6726838518E+00    0.4424515999E-03    0.4157920318E-02
    0.1500000000E+03    0.1545525582E-03    0.1296575463E-04    0.6756970571E+00    0.5106226617E-03    0.4150432366E-02
    0.1700000000E+03    0.1712933076E-03    0.1439488371E-04    0.6780196616E+00    0.5800273174E-03    0.4142808689E-02
    0.1900000000E+03    0.1885256397E-03    0.1586544176E-04    0.6798646869E+00    0.6508052327E-03    0.4135048382E-02
    0.2100000000E+03    0.2062491541E-03    0.1737745379E-04    0.6813657099E+00    0.7230810725E-03    0.4127146702E-02
    0.2300000000E+03    0.2244700146E-03    0.1893149466E-04    0.6826107400E+00    0.7969704167E-03    0.4119096900E-02
    0.2500000000E+03    0.2431989887E-03    0.2052852300E-04    0.6836601231E+00    0.8725835635E-03    0.4110891102E-02
    0.2700000000E+03    0.2624502689E-03    0.2216978208E-04    0.6845566191E+00    0.9500281197E-03    0.4102520737E-02
    0.2900000000E+03    0.2822407504E-03    0.2385673956E-04    0.6853313730E+00    0.1029410855E-02    0.4093976746E-02
    0.3100000000E+03    0.3025895868E-03    0.2559105074E-04    0.6860076080E+00    0.1110839099E-02    0.4085249682E-02
    0.3300000000E+03    0.3235179189E-03    0.2737453634E-04    0.6866029937E+00    0.1194421839E-02    0.4076329748E-02
    0.3500000000E+03    0.3450487173E-03    0.2920916975E-04    0.6871312122E+00    0.1280270624E-02    0.4067206804E-02
    0.3700000000E+03    0.3672067005E-03    0.3109707068E-04    0.6876030234E+00    0.1368500344E-02    0.4057870350E-02
    0.3900000000E+03    0.3900183065E-03    0.3304050320E-04    0.6880270053E+00    0.1459229927E-02    0.4048309502E-02
    0.4100000000E+03    0.4135117032E-03    0.3504187690E-04    0.6884100804E+00    0.1552582976E-02    0.4038512961E-02
    0.4300000000E+03    0.4377168273E-03    0.3710375058E-04    0.6887578967E+00    0.1648688385E-02    0.4028468975E-02
    0.4500000000E+03    0.4626654471E-03    0.3922883781E-04    0.6890751082E+00    0.1747680939E-02    0.4018165296E-02
    0.4700000000E+03    0.4883912441E-03    0.4142001405E-04    0.6893655845E+00    0.1849701909E-02    0.4007589141E-02
    0.4900000000E+03    0.5149299119E-03    0.4368032524E-04    0.6896325688E+00    0.1954899664E-02    0.3996727142E-02
    0.1000000000E+03    0.1149605861E-03    0.9583054145E-05    0.6660018847E+00    0.3421373294E-03    0.4168878008E-02
    0.3000000000E+03    0.2923440972E-03    0.2471786584E-04    0.6856805922E+00    0.1069862527E-02    0.4089636702E-02
    0.5000000000E+03    0.5285158043E-03    0.4483740729E-04    0.6897581245E+00    0.2008738296E-02    0.3991184603E-02
    0.7000000000E+03    0.8536881338E-03    0.7252761103E-04    0.6915208359E+00    0.3296295458E-02    0.3861428980E-02
    0.9000000000E+03    0.1324457382E-02    0.1126117482E-03    0.6925041267E+00    0.5161986254E-02    0.3680461387E-02
    0.1100000000E+04    0.2047448701E-02    0.1741724441E-03    0.6931313579E+00    0.8035167973E-02    0.3412748376E-02
    0.1300000000E+04    0.3228341292E-02    0.2747314696E-03    0.6935662785E+00    0.1274792566E-01    0.2993735624E-02
    0.1500000000E+04    0.5218827037E-02    0.4442613052E-03    0.6938855735E+00    0.2074201691E-01    0.2325821311E-02
    0.1700000000E+04    0.8238908016E-02    0.7015639590E-03    0.6941299393E+00    0.3300019043E-01    0.1396873418E-02
    0.1900000000E+04    0.1138184407E-01    0.9695059376E-03    0.6943229791E+00    0.4602356608E-01    0.5783538679E-03
    0.2100000000E+04    0.1347765168E-01    0.1148418948E-02    0.6944793244E+00    0.5508153774E-01    0.2032165427E-03
    0.2300000000E+04    0.1479332462E-01    0.1260964490E-02    0.6946085281E+00    0.6112865339E-01    0.9441034338E-04
    0.2500000000E+04    0.1581093309E-01    0.1348172282E-02    0.6947170918E+00    0.6605975166E-01    0.6796780636E-04
    0.2700000000E+04    0.1671620988E-01    0.1425855882E-02    0.6948095942E+00    0.7061383758E-01    0.6194088377E-04
    0.2900000000E+04    0.1756187683E-01    0.1498503038E-02    0.6948893529E+00    0.7499956266E-01    0.6070733499E-04
    0.3100000000E+04    0.1836290476E-01    0.1567385929E-02    0.6949588307E+00    0.7927332443E-01    0.6058514093E-04
    0.3300000000E+04    0.1912454509E-01    0.1632948748E-02    0.6950198943E+00    0.8345211227E-01    0.6071513160E-04
    0.3500000000E+04    0.1984953564E-01    0.1695421669E-02    0.6950739842E+00    0.8754284093E-01    0.6089643062E-04
    0.3700000000E+04    0.2053990273E-01    0.1754974422E-02    0.6951222299E+00    0.9154975089E-01    0.6108227200E-04
    0.3900000000E+04    0.2119741428E-01    0.1811754922E-02    0.6951655295E+00    0.9547627362E-01    0.6126221641E-04
    0.4100000000E+04    0.2182369843E-01    0.1865899359E-02    0.6952046060E+00    0.9932550966E-01    0.6143440308E-04
    0.4300000000E+04    0.2242027844E-01    0.1917535164E-02    0.6952400481E+00    0.1031003579E+00    0.6159895492E-04
    0.4500000000E+04    0.2298858640E-01    0.1966782166E-02    0.6952723399E+00    0.1068035562E+00    0.6175640403E-04
    0.4700000000E+04    0.2352997114E-01    0.2013753253E-02    0.6953018832E+00    0.1104376989E+00    0.6190732023E-04
    0.4900000000E+04    0.2404570436E-01    0.2058554881E-02    0.6953290144E+00    0.1140052475E+00    0.6205222957E-04
    0.1000000000E+04    0.1644666259E-02    0.1398762320E-03    0.6928489592E+00    0.6433292628E-02    0.3560613318E-02
    0.3000000000E+04    0.1796754343E-01    0.1533378820E-02    0.6949252486E+00    0.7714897665E-01    0.6058793555E-04
    0.5000000000E+04    0.2429432929E-01    0.2080173768E-02    0.6953417658E+00    0.1157647844E+00    0.6212258075E-04
    0.7000000000E+04    0.2817814360E-01    0.2420271933E-02    0.6955202412E+00    0.1479695243E+00    0.6330415168E-04
    0.9000000000E+04    0.3051673492E-01    0.2628939303E-02    0.6956193090E+00    0.1755709670E+00    0.6419940108E-04
    0.1100000000E+05    0.3184244927E-01    0.2750934853E-02    0.6956822782E+00    0.1997161683E+00    0.6492244294E-04
    0.1300000000E+05    0.3248696847E-01    0.2814237071E-02    0.6957258130E+00    0.2211724860E+00    0.6553008944E-04
    0.1500000000E+05    0.3266509191E-01    0.2837031344E-02    0.6957576909E+00    0.2404751261E+00    0.6605484155E-04
    0.1700000000E+05    0.3252033320E-01    0.2831517364E-02    0.6957820295E+00    0.2580106884E+00    0.6651707454E-04
    0.1900000000E+05    0.3215103958E-01    0.2806093178E-02    0.6958012121E+00    0.2740669156E+00    0.6693042295E-04
    0.2100000000E+05    0.3162601070E-01    0.2766663183E-02    0.6958167140E+00    0.2888635926E+00    0.6730446876E-04
    0.2300000000E+05    0.3099418504E-01    0.2717450703E-02    0.6958294971E+00    0.3025724409E+00    0.6764620818E-04
    0.2500000000E+05    0.3029083863E-01    0.2661518937E-02    0.6958402151E+00    0.3153303304E+00    0.6796090855E-04
    0.2700000000E+05    0.2954166090E-01    0.2601114198E-02    0.6958493282E+00    0.3272482935E+00    0.6825263660E-04
    0.2900000000E+05    0.2876549905E-01    0.2537897540E-02    0.6958571693E+00    0.3384178237E+00    0.6852459894E-04
    0.3100000000E+05    0.2797624491E-01    0.2473104377E-02    0.6958639853E+00    0.3489153723E+00    0.6877936948E-04
    0.3300000000E+05    0.2718415614E-01    0.2407656553E-02    0.6958699633E+00    0.3588056196E+00    0.6901904624E-04
    0.3500000000E+05    0.2639679664E-01    0.2342242328E-02    0.6958752474E+00    0.3681438967E+00    0.6924536231E-04
    0.3700000000E+05    0.2561971565E-01    0.2277374318E-02    0.6958799507E+00    0.3769780070E+00    0.6945976613E-04
    0.3900000000E+05    0.2485694448E-01    0.2213432006E-02    0.6958841628E+00    0.3853496164E+00    0.6966348088E-04
    0.4100000000E+05    0.2411136391E-01    0.2150693308E-02    0.6958879561E+00    0.3932953288E+00    0.6985754900E-04
    0.4300000000E+05    0.2338497887E-01    0.2089358247E-02    0.6958913892E+00    0.4008475281E+00    0.7004286633E-04
    0.4500000000E+05    0.2267912550E-01    0.2029566886E-02    0.6958945105E+00    0.4080350460E+00    0.7022020842E-04
    0.4700000000E+05    0.2199462849E-01    0.1971413006E-02    0.6958973600E+00    0.4148836966E+00    0.7039025129E-04
    0.4900000000E+05    0.2133192151E-01    0.1914954627E-02    0.6958999711E+00    0.4214167095E+00    0.7055358775E-04
    0.1000000000E+05    0.3128200320E-01    0.2698732041E-02    0.6956539520E+00    0.1880208861E+00    0.6457810329E-04
    0.3000000000E+05    0.2837179477E-01    0.2505634122E-02    0.6958606926E+00    0.3437463091E+00    0.6865399238E-04
    0.5000000000E+05    0.2100879116E-01    0.1887371645E-02    0.6959011963E+00    0.4245714929E+00    0.7063290690E-04
    0.7000000000E+05    0.1563147463E-01    0.1423346963E-02    0.6959181684E+00    0.4752856155E+00    0.7196698141E-04
    0.9000000000E+05    0.1192243239E-01    0.1097744189E-02    0.6959273734E+00    0.5097868282E+00    0.7297967054E-04
    0.1100000000E+06    0.9329007843E-02    0.8671020359E-03    0.6959330842E+00    0.5345303324E+00    0.7379843841E-04
    0.1300000000E+06    0.7468766905E-02    0.6999093505E-03    0.6959369339E+00    0.5529955805E+00    0.7448700929E-04
    0.1500000000E+06    0.6099044672E-02    0.5756997171E-03    0.6959396792E+00    0.5672186183E+00    0.7508193261E-04
    0.1700000000E+06    0.5065912323E-02    0.4812848895E-03    0.6959417183E+00    0.5784613653E+00    0.7560616194E-04
    0.1900000000E+06    0.4269764151E-02    0.4080279368E-03    0.6959432797E+00    0.5875419581E+00    0.7607507674E-04
    0.2100000000E+06    0.3644528910E-02    0.3501436179E-03    0.6959445042E+00    0.5950108739E+00    0.7649949572E-04
    0.2300000000E+06    0.3145273502E-02    0.3036650005E-03    0.6959454828E+00    0.6012503190E+00    0.7688732405E-04
    0.2500000000E+06    0.2740713813E-02    0.2658103224E-03    0.6959462768E+00    0.6065329355E+00    0.7724451702E-04
    0.2700000000E+06    0.2408593177E-02    0.2345879647E-03    0.6959469292E+00    0.6110578346E+00    0.7757567485E-04
    0.2900000000E+06    0.2132763187E-02    0.2085446625E-03    0.6959474707E+00    0.6149734568E+00    0.7788442625E-04
    0.3100000000E+06    0.1901296706E-02    0.1866014861E-03    0.6959479241E+00    0.6183925020E+00    0.7817368503E-04
    0.3300000000E+06    0.1705240989E-02    0.1679447306E-03    0.6959483063E+00    0.6214019337E+00    0.7844582696E-04
    0.3500000000E+06    0.1537776699E-02    0.1519518813E-03    0.6959486305E+00    0.6240698355E+00    0.7870281509E-04
    0.3700000000E+06    0.1393639780E-02    0.1381404472E-03    0.6959489066E+00    0.6264502102E+00    0.7894629043E-04
    0.3900000000E+06    0.1268717011E-02    0.1261319888E-03    0.6959491428E+00    0.6285863996E+00    0.7917763903E-04
    0.4100000000E+06    0.1159758433E-02    0.1156264268E-03    0.6959493454E+00    0.6305135624E+00    0.7939804241E-04
    0.4300000000E+06    0.1064169817E-02    0.1063834240E-03    0.6959495195E+00    0.6322604994E+00    0.7960851603E-04
    0.4500000000E+06    0.9798608058E-03    0.9820870954E-04    0.6959496693E+00    0.6338510133E+00    0.7980993918E-04
    0.4700000000E+06    0.9051323863E-03    0.9094390774E-04    0.6959497983E+00    0.6353049386E+00    0.8000307834E-04
    0.4900000000E+06    0.8385924985E-03    0.8445888499E-04    0.6959499092E+00    0.6366389274E+00    0.8018860579E-04
    0.1000000000E+06    0.1051413077E-01    0.9728282869E-03    0.6959305327E+00    0.5231153994E+00    0.7340842565E-04
    0.3000000000E+06    0.2012102351E-02    0.1971166284E-03    0.6959477073E+00    0.6167391056E+00    0.7803133279E-04
    0.5000000000E+06    0.8080260988E-03    0.8147438475E-04    0.6959499587E+00    0.6372654317E+00    0.8027870318E-04
    0.7000000000E+06    0.4312324896E-03    0.4433042910E-04    0.6959504179E+00    0.6459921190E+00    0.8179421621E-04
    0.9000000000E+06    0.2672180845E-03    0.2787137801E-04    0.6959503872E+00    0.6507898161E+00    0.8294479093E-04
    0.1100000000E+07    0.1815460193E-03    0.1915629833E-04    0.6959501828E+00    0.6538172665E+00    0.8387511154E-04
    0.1300000000E+07    0.1312816838E-03    0.1398641994E-04    0.6959499115E+00    0.6558994933E+00    0.8465753443E-04
    0.1500000000E+07    0.9931262385E-04    0.1066764943E-04    0.6959496162E+00    0.6574186002E+00    0.8533356809E-04
    0.1700000000E+07    0.7773562821E-04    0.8409705891E-05    0.6959493159E+00    0.6585754735E+00    0.8592928387E-04
    0.1900000000E+07    0.6249375824E-04    0.6803447089E-05    0.6959490196E+00    0.6594857131E+00    0.8646215185E-04
    0.2100000000E+07    0.5133151709E-04    0.5619713816E-05    0.6959487312E+00    0.6602205085E+00    0.8694446223E-04
    0.2300000000E+07    0.4291409668E-04    0.4721995401E-05    0.6959484526E+00    0.6608260794E+00    0.8738519591E-04
    0.2500000000E+07    0.3641079675E-04    0.4024833496E-05    0.6959481846E+00    0.6613337334E+00    0.8779111884E-04
    0.2700000000E+07    0.3128278275E-04    0.3472497721E-05    0.6959479270E+00    0.6617654268E+00    0.8816745764E-04
    0.2900000000E+07    0.2716819657E-04    0.3027377890E-05    0.6959476795E+00    0.6621370121E+00    0.8851833527E-04
    0.3100000000E+07    0.2381675080E-04    0.2663342065E-05    0.6959474418E+00    0.6624602197E+00    0.8884706246E-04
    0.3300000000E+07    0.2105087234E-04    0.2361772216E-05    0.6959472133E+00    0.6627439156E+00    0.8915633871E-04
    0.3500000000E+07    0.1874175963E-04    0.2109110848E-05    0.6959469934E+00    0.6629949249E+00    0.8944839454E-04
    0.3700000000E+07    0.1679415449E-04    0.1895294321E-05    0.6959467817E+00    0.6632185870E+00    0.8972509465E-04
    0.3900000000E+07    0.1513638417E-04    0.1712724501E-05    0.6959465775E+00    0.6634191387E+00    0.8998801402E-04
    0.4100000000E+07    0.1371368823E-04    0.1555577187E-05    0.6959463805E+00    0.6635999851E+00    0.9023849521E-04
    0.4300000000E+07    0.1248364788E-04    0.1419326862E-05    0.6959461902E+00    0.6637638936E+00    0.9047769214E-04
    0.4500000000E+07    0.1141299384E-04    0.1300413716E-05    0.6959460062E+00    0.6639131368E+00    0.9070660396E-04
    0.4700000000E+07    0.1047533721E-04    0.1196006244E-05    0.6959458281E+00    0.6640495983E+00    0.9092610169E-04
    0.4900000000E+07    0.9649530557E-05    0.1103829300E-05    0.6959456555E+00    0.6641748523E+00    0.9113694929E-04
    0.1000000000E+07    0.2182265343E-03    0.2290041447E-04    0.6959502977E+00    0.6524576552E+00    0.8343195483E-04
    0.3000000000E+07    0.2540954934E-04    0.2836529998E-05    0.6959475595E+00    0.6623040531E+00    0.8868528653E-04
    0.5000000000E+07    0.9273093281E-05    0.1061736619E-05    0.6959455712E+00    0.6642336993E+00    0.9123934298E-04
    0.7000000000E+07    0.4790735622E-05    0.5559979935E-06    0.6959441090E+00    0.6650560390E+00    0.9296170009E-04
    0.9000000000E+07    0.2938366255E-05    0.3435165871E-06    0.6959429528E+00    0.6655116654E+00    0.9426931989E-04
    0.1100000000E+08    0.1997470513E-05    0.2342945189E-06    0.6959419949E+00    0.6658011556E+00    0.9532662639E-04
    0.1300000000E+08    0.1454453624E-05    0.1706866539E-06    0.6959411758E+00    0.6660013697E+00    0.9621584943E-04
    0.1500000000E+08    0.1112506733E-05    0.1303483139E-06    0.6959404593E+00    0.6661480920E+00    0.9698416218E-04
    0.1700000000E+08    0.8830645610E-06    0.1031307333E-06    0.6959398218E+00    0.6662602363E+00    0.9766119414E-04
    0.1900000000E+08    0.7214865328E-06    0.8387888972E-07    0.6959392472E+00    0.6663487398E+00    0.9826679977E-04
    0.2100000000E+08    0.6032839696E-06    0.6974621457E-07    0.6959387237E+00    0.6664203668E+00    0.9881494676E-04
    0.2300000000E+08    0.5141094958E-06    0.5905545059E-07    0.6959382426E+00    0.6664795257E+00    0.9931584181E-04
    0.2500000000E+08    0.4451026734E-06    0.5076561222E-07    0.6959377974E+00    0.6665292124E+00    0.9977717441E-04
    0.2700000000E+08    0.3905502205E-06    0.4420250839E-07    0.6959373828E+00    0.6665715341E+00    0.1002048846E-03
