  Pressure (Pa) 22mC5-500 (mol/kg) 23mC5-500 (mol/kg) 24mC5-500 (mol/kg) 3mC6-500 (mol/kg) C7-500 (mol/kg)
    0.1000000000E+01    0.1655088695E-04    0.6790936457E-06    0.9949654595E-01    0.3091471988E-05    0.4204312990E-02
    0.3000000000E+01    0.3660974591E-04    0.1498487944E-05    0.2320945176E+00    0.7941616443E-05    0.4264868002E-02
    0.5000000000E+01    0.4801278159E-04    0.1961729173E-05    0.3164375889E+00    0.1240939036E-04    0.4302242932E-02
    0.7000000000E+01    0.5515511367E-04    0.2250467655E-05    0.3748123223E+00    0.1669161389E-04    0.4328224758E-02
    0.9000000000E+01    0.5996141906E-04    0.2444002793E-05    0.4176120642E+00    0.2085495715E-04    0.4347428580E-02
    0.1100000000E+02    0.6339031893E-04    0.2581703587E-05    0.4503366340E+00    0.2493285879E-04    0.4362238098E-02
    0.1300000000E+02    0.6596365750E-04    0.2684928224E-05    0.4761690710E+00    0.2894525483E-04    0.4374025910E-02
    0.1500000000E+02    0.6798482646E-04    0.2766049156E-05    0.4970793284E+00    0.3290529917E-04    0.4383641862E-02
    0.1700000000E+02    0.6963937462E-04    0.2832604117E-05    0.5143519032E+00    0.3682227602E-04    0.4391641543E-02
    0.1900000000E+02    0.7104541678E-04    0.2889371761E-05    0.5288601148E+00    0.4070306264E-04    0.4398404072E-02
    0.2100000000E+02    0.7228060787E-04    0.2939480032E-05    0.5412184414E+00    0.4455294220E-04    0.4404197332E-02
    0.2300000000E+02    0.7339736612E-04    0.2985030322E-05    0.5518718020E+00    0.4837609046E-04    0.4409216164E-02
    0.2500000000E+02    0.7443185072E-04    0.3027464731E-05    0.5611502681E+00    0.5217588430E-04    0.4413605803E-02
    0.2700000000E+02    0.7540945566E-04    0.3067790281E-05    0.5693038745E+00    0.5595510645E-04    0.4417476801E-02
    0.2900000000E+02    0.7634827927E-04    0.3106720170E-05    0.5765254925E+00    0.5971608642E-04    0.4420914855E-02
    0.3100000000E+02    0.7726137556E-04    0.3144765196E-05    0.5829662829E+00    0.6346080062E-04    0.4423987466E-02
    0.3300000000E+02    0.7815824992E-04    0.3182294337E-05    0.5887463932E+00    0.6719094530E-04    0.4426748553E-02
    0.3500000000E+02    0.7904587365E-04    0.3219575721E-05    0.5939625232E+00    0.7090799094E-04    0.4429241730E-02
    0.3700000000E+02    0.7992938467E-04    0.3256804852E-05    0.5986933792E+00    0.7461322360E-04    0.4431502675E-02
    0.3900000000E+02    0.8081257936E-04    0.3294124353E-05    0.6030036727E+00    0.7830777681E-04    0.4433560869E-02
    0.4100000000E+02    0.8169826286E-04    0.3331637986E-05    0.6069470994E+00    0.8199265669E-04    0.4435440896E-02
    0.4300000000E+02    0.8258850173E-04    0.3369420730E-05    0.6105685866E+00    0.8566876182E-04    0.4437163429E-02
    0.4500000000E+02    0.8348480827E-04    0.3407526104E-05    0.6139060137E+00    0.8933689932E-04    0.4438745984E-02
    0.4700000000E+02    0.8438827642E-04    0.3445991551E-05    0.6169915416E+00    0.9299779786E-04    0.4440203508E-02
    0.4900000000E+02    0.8529968290E-04    0.3484842424E-05    0.6198526525E+00    0.9665211836E-04    0.4441548834E-02
    0.1000000000E+02    0.6180858595E-04    0.2518215822E-05    0.4349974841E+00    0.2290313280E-04    0.4355280716E-02
    0.3000000000E+02    0.7680737982E-04    0.3125827462E-05    0.5798353561E+00    0.6159036487E-04    0.4422493197E-02
    0.5000000000E+02    0.8575853805E-04    0.3504417759E-05    0.6212065663E+00    0.9847700209E-04    0.4442182947E-02
    0.7000000000E+02    0.9540717547E-04    0.3917330292E-05    0.6408023743E+00    0.1347513495E-03    0.4451011080E-02
    0.9000000000E+02    0.1058819586E-03    0.4366442166E-05    0.6522330172E+00    0.1708247340E-03    0.4455450905E-02
    0.1100000000E+03    0.1170130715E-03    0.4843623250E-05    0.6597219471E+00    0.2069084614E-03    0.4457615130E-02
    0.1300000000E+03    0.1286653930E-03    0.5342854922E-05    0.6650081684E+00    0.2431326963E-03    0.4458414302E-02
    0.1500000000E+03    0.1407487102E-03    0.5860221219E-05    0.6689388770E+00    0.2795871115E-03    0.4458310969E-02
    0.1700000000E+03    0.1532039295E-03    0.6393195678E-05    0.6719761776E+00    0.3163385233E-03    0.4457567310E-02
    0.1900000000E+03    0.1659921513E-03    0.6940134066E-05    0.6743935612E+00    0.3534397482E-03    0.4456344031E-02
    0.2100000000E+03    0.1790876638E-03    0.7499960663E-05    0.6763632264E+00    0.3909345232E-03    0.4454745584E-02
    0.2300000000E+03    0.1924735705E-03    0.8071976155E-05    0.6779989998E+00    0.4288604509E-03    0.4452842995E-02
    0.2500000000E+03    0.2061390281E-03    0.8655737814E-05    0.6793791375E+00    0.4672508679E-03    0.4450686307E-02
    0.2700000000E+03    0.2200774644E-03    0.9250982882E-05    0.6805592129E+00    0.5061360863E-03    0.4448311793E-02
    0.2900000000E+03    0.2342854012E-03    0.9857578336E-05    0.6815797797E+00    0.5455442521E-03    0.4445746351E-02
    0.3100000000E+03    0.2487616598E-03    0.1047548717E-04    0.6824711250E+00    0.5855019582E-03    0.4443010285E-02
    0.3300000000E+03    0.2635068133E-03    0.1110474527E-04    0.6832563247E+00    0.6260346960E-03    0.4440119142E-02
    0.3500000000E+03    0.2785228029E-03    0.1174544534E-04    0.6839532691E+00    0.6671671955E-03    0.4437084951E-02
    0.3700000000E+03    0.2938126647E-03    0.1239772540E-04    0.6845760421E+00    0.7089236897E-03    0.4433917087E-02
    0.3900000000E+03    0.3093803326E-03    0.1306176065E-04    0.6851358824E+00    0.7513281233E-03    0.4430622881E-02
    0.4100000000E+03    0.3252304949E-03    0.1373775746E-04    0.6856418673E+00    0.7944043218E-03    0.4427208063E-02
    0.4300000000E+03    0.3413684896E-03    0.1442594909E-04    0.6861014086E+00    0.8381761313E-03    0.4423677097E-02
    0.4500000000E+03    0.3578002266E-03    0.1512659247E-04    0.6865206179E+00    0.8826675365E-03    0.4420033418E-02
    0.4700000000E+03    0.3745321315E-03    0.1583996591E-04    0.6869045793E+00    0.9279027622E-03    0.4416279623E-02
    0.4900000000E+03    0.3915711039E-03    0.1656636737E-04    0.6872575573E+00    0.9739063623E-03    0.4412417613E-02
    0.1000000000E+03    0.1113751212E-03    0.4601958455E-05    0.6563307471E+00    0.1888559153E-03    0.4456745298E-02
    0.3000000000E+03    0.2414899904E-03    0.1016511783E-04    0.6820400214E+00    0.5654527980E-03    0.4444398579E-02
    0.5000000000E+03    0.4002080187E-03    0.1693455182E-04    0.6874235757E+00    0.9972040858E-03    0.4410446459E-02
    0.7000000000E+03    0.5911125227E-03    0.2507003450E-04    0.6897556664E+00    0.1509966741E-02    0.4365422114E-02
    0.9000000000E+03    0.8240310433E-03    0.3499245830E-04    0.6910573112E+00    0.2133279770E-02    0.4308818659E-02
    0.1100000000E+04    0.1113714300E-02    0.4733106715E-04    0.6918876274E+00    0.2907968929E-02    0.4237816146E-02
    0.1300000000E+04    0.1482163898E-02    0.6302352173E-04    0.6924632168E+00    0.3893941370E-02    0.4147639566E-02
    0.1500000000E+04    0.1963027939E-02    0.8350347012E-04    0.6928856070E+00    0.5182551067E-02    0.4030831406E-02
    0.1700000000E+04    0.2609214165E-02    0.1110250947E-03    0.6932087075E+00    0.6917603014E-02    0.3875757451E-02
    0.1900000000E+04    0.3505656098E-02    0.1492073261E-03    0.6934637956E+00    0.9330673811E-02    0.3664155935E-02
    0.2100000000E+04    0.4788103201E-02    0.2038352054E-03    0.6936702637E+00    0.1279386237E-01    0.3367945922E-02
    0.2300000000E+04    0.6656746817E-02    0.2834426015E-03    0.6938407745E+00    0.1786134923E-01    0.2948680712E-02
    0.2500000000E+04    0.9319643814E-02    0.3969067186E-03    0.6939839466E+00    0.2512573676E-01    0.2375127168E-02
    0.2700000000E+04    0.1270684466E-01    0.5412736372E-03    0.6941058491E+00    0.3445118050E-01    0.1689890193E-02
    0.2900000000E+04    0.1610585118E-01    0.6862143778E-03    0.6942108799E+00    0.4395608374E-01    0.1072015969E-02
    0.3100000000E+04    0.1869963850E-01    0.7969158419E-03    0.6943023030E+00    0.5141142946E-01    0.6858276368E-03
    0.3300000000E+04    0.2043194897E-01    0.8709544866E-03    0.6943825923E+00    0.5660991865E-01    0.5078622184E-03
    0.3500000000E+04    0.2165945554E-01    0.9235080803E-03    0.6944536566E+00    0.6048438875E-01    0.4390207626E-03
    0.3700000000E+04    0.2265064571E-01    0.9660091920E-03    0.6945169926E+00    0.6375231322E-01    0.4146698527E-03
    0.3900000000E+04    0.2353169821E-01    0.1003832012E-02    0.6945737898E+00    0.6675373673E-01    0.4067250322E-03
    0.4100000000E+04    0.2435355330E-01    0.1039146212E-02    0.6946250061E+00    0.6962613644E-01    0.4046121787E-03
    0.4300000000E+04    0.2513610127E-01    0.1072798626E-02    0.6946714209E+00    0.7242261270E-01    0.4045372335E-03
    0.4500000000E+04    0.2588738256E-01    0.1105131139E-02    0.6947136753E+00    0.7516384218E-01    0.4051578561E-03
    0.4700000000E+04    0.2661101027E-01    0.1136296964E-02    0.6947523012E+00    0.7785834176E-01    0.4060006648E-03
    0.4900000000E+04    0.2730893579E-01    0.1166378509E-02    0.6947877437E+00    0.8051007800E-01    0.4068992427E-03
    0.1000000000E+04    0.9606115980E-03    0.4081005932E-04    0.6915138101E+00    0.2498519667E-02    0.4275364871E-02
    0.3000000000E+04    0.1752577034E-01    0.7467998288E-03    0.6942581223E+00    0.4800405437E-01    0.8473914040E-03
    0.5000000000E+04    0.2764868222E-01    0.1181030432E-02    0.6948043908E+00    0.8182064351E-01    0.4073494803E-03
    0.7000000000E+04    0.3333281643E-01    0.1427152468E-02    0.6950364577E+00    0.1061433507E+00    0.4150965846E-03
    0.9000000000E+04    0.3735607213E-01    0.1602971230E-02    0.6951641258E+00    0.1274868691E+00    0.4209765006E-03
    0.1100000000E+05    0.4020004979E-01    0.1728690156E-02    0.6952445298E+00    0.1465242966E+00    0.4257232438E-03
    0.1300000000E+05    0.4218659386E-01    0.1817837270E-02    0.6952995956E+00    0.1637275327E+00    0.4297112504E-03
    0.1500000000E+05    0.4353769172E-01    0.1879763185E-02    0.6953395288E+00    0.1794381985E+00    0.4331545060E-03
    0.1700000000E+05    0.4441054582E-01    0.1921104820E-02    0.6953697174E+00    0.1939103250E+00    0.4361870654E-03
    0.1900000000E+05    0.4491900279E-01    0.1946680509E-02    0.6953932715E+00    0.2073372328E+00    0.4388985876E-03
    0.2100000000E+05    0.4514710922E-01    0.1960056764E-02    0.6954121109E+00    0.2198690449E+00    0.4413520573E-03
    0.2300000000E+05    0.4515794840E-01    0.1963918094E-02    0.6954274833E+00    0.2316244379E+00    0.4435934484E-03
    0.2500000000E+05    0.4499955395E-01    0.1960314758E-02    0.6954402348E+00    0.2426987311E+00    0.4456573647E-03
    0.2700000000E+05    0.4470895988E-01    0.1950832626E-02    0.6954509586E+00    0.2531695834E+00    0.4475705173E-03
    0.2900000000E+05    0.4431503173E-01    0.1936712058E-02    0.6954600831E+00    0.2631010865E+00    0.4493539641E-03
    0.3100000000E+05    0.4384048244E-01    0.1918932652E-02    0.6954679249E+00    0.2725467581E+00    0.4510246055E-03
    0.3300000000E+05    0.4330333126E-01    0.1898274659E-02    0.6954747230E+00    0.2815517676E+00    0.4525962156E-03
    0.3500000000E+05    0.4271797570E-01    0.1875364164E-02    0.6954806613E+00    0.2901546139E+00    0.4540801711E-03
    0.3700000000E+05    0.4209598960E-01    0.1850706778E-02    0.6954858833E+00    0.2983884085E+00    0.4554859794E-03
    0.3900000000E+05    0.4144672479E-01    0.1824713067E-02    0.6954905027E+00    0.3062818671E+00    0.4568216685E-03
    0.4100000000E+05    0.4077776974E-01    0.1797717978E-02    0.6954946108E+00    0.3138600860E+00    0.4580940797E-03
    0.4300000000E+05    0.4009530281E-01    0.1769995813E-02    0.6954982814E+00    0.3211451545E+00    0.4593090919E-03
    0.4500000000E+05    0.3940436690E-01    0.1741771904E-02    0.6955015752E+00    0.3281566443E+00    0.4604717941E-03
    0.4700000000E+05    0.3870908491E-01    0.1713231774E-02    0.6955045422E+00    0.3349120028E+00    0.4615866219E-03
    0.4900000000E+05    0.3801283003E-01    0.1684528408E-02    0.6955072242E+00    0.3414268717E+00    0.4626574651E-03
    0.1000000000E+05    0.3890247296E-01    0.1671127149E-02    0.6952084532E+00    0.1372606471E+00    0.4234628741E-03
    0.3000000000E+05    0.4408661265E-01    0.1928226867E-02    0.6954641479E+00    0.2678816544E+00    0.4502024611E-03
    0.5000000000E+05    0.3766522087E-01    0.1670155870E-02    0.6955084696E+00    0.3445985822E+00    0.4631774804E-03
    0.7000000000E+05    0.3110742016E-01    0.1394931876E-02    0.6955245664E+00    0.3982142066E+00    0.4719231706E-03
    0.9000000000E+05    0.2568006771E-01    0.1162563291E-02    0.6955318781E+00    0.4381173097E+00    0.4785614739E-03
    0.1100000000E+06    0.2136689960E-01    0.9753284323E-03    0.6955354794E+00    0.4688643559E+00    0.4839283479E-03
    0.1300000000E+06    0.1795809268E-01    0.8257372737E-03    0.6955372362E+00    0.4931415903E+00    0.4884416579E-03
    0.1500000000E+06    0.1524961792E-01    0.7058008310E-03    0.6955379790E+00    0.5126859480E+00    0.4923410509E-03
    0.1700000000E+06    0.1307786851E-01    0.6088810707E-03    0.6955381263E+00    0.5286796434E+00    0.4957770188E-03
    0.1900000000E+06    0.1131844812E-01    0.5298235775E-03    0.6955379077E+00    0.5419548279E+00    0.4988503900E-03
    0.2100000000E+06    0.9878171715E-02    0.4647094489E-03    0.6955374579E+00    0.5531121693E+00    0.5016320897E-03
    0.2300000000E+06    0.8687271155E-02    0.4105706880E-03    0.6955368594E+00    0.5625942530E+00    0.5041739412E-03
    0.2500000000E+06    0.7693215831E-02    0.3651515140E-03    0.6955361651E+00    0.5707330085E+00    0.5065149841E-03
    0.2700000000E+06    0.6856121726E-02    0.3267255349E-03    0.6955354095E+00    0.5777813086E+00    0.5086853741E-03
    0.2900000000E+06    0.6145417953E-02    0.2939602967E-03    0.6955346160E+00    0.5839345355E+00    0.5107088982E-03
    0.3100000000E+06    0.5537440771E-02    0.2658180631E-03    0.6955338005E+00    0.5893455995E+00    0.5126046567E-03
    0.3300000000E+06    0.5013693739E-02    0.2414832289E-03    0.6955329741E+00    0.5941355818E+00    0.5143882229E-03
    0.3500000000E+06    0.4559582279E-02    0.2203090204E-03    0.6955321446E+00    0.5984013973E+00    0.5160724641E-03
    0.3700000000E+06    0.4163486120E-02    0.2017781109E-03    0.6955313174E+00    0.6022213905E+00    0.5176681373E-03
    0.3900000000E+06    0.3816073483E-02    0.1854732964E-03    0.6955304964E+00    0.6056594755E+00    0.5191843275E-03
    0.4100000000E+06    0.3509789398E-02    0.1710554815E-03    0.6955296843E+00    0.6087682381E+00    0.5206287794E-03
    0.4300000000E+06    0.3238470469E-02    0.1582470125E-03    0.6955288829E+00    0.6115912843E+00    0.5220081489E-03
    0.4500000000E+06    0.2997052224E-02    0.1468189546E-03    0.6955280935E+00    0.6141650392E+00    0.5233281995E-03
    0.4700000000E+06    0.2781344890E-02    0.1365812970E-03    0.6955273170E+00    0.6165201370E+00    0.5245939552E-03
    0.4900000000E+06    0.2587860134E-02    0.1273753540E-03    0.6955265539E+00    0.6186825059E+00    0.5258098225E-03
    0.1000000000E+06    0.2339652610E-01    0.1063714385E-02    0.6955339892E+00    0.4544384240E+00    0.4813719107E-03
    0.3000000000E+06    0.5829848912E-02    0.2793667821E-03    0.6955342102E+00    0.5867246260E+00    0.5116717031E-03
    0.5000000000E+06    0.2498519085E-02    0.1231167622E-03    0.6955261774E+00    0.6196984464E+00    0.5264002805E-03
    0.7000000000E+06    0.1370931752E-02    0.6884977092E-04    0.6955193464E+00    0.6338464981E+00    0.5363321315E-03
    0.9000000000E+06    0.8623999034E-03    0.4393858332E-04    0.6955136539E+00    0.6415855900E+00    0.5438722009E-03
    0.1100000000E+07    0.5913957715E-03    0.3048179815E-04    0.6955088116E+00    0.6464358300E+00    0.5499687733E-03
    0.1300000000E+07    0.4303427053E-03    0.2239614803E-04    0.6955046066E+00    0.6497505087E+00    0.5550960733E-03
    0.1500000000E+07    0.3269947101E-03    0.1715924543E-04    0.6955008922E+00    0.6521553919E+00    0.5595261432E-03
    0.1700000000E+07    0.2567858774E-03    0.1357297277E-04    0.6954975658E+00    0.6539781748E+00    0.5634298494E-03
    0.1900000000E+07    0.2069440148E-03    0.1100902650E-04    0.6954945533E+00    0.6554065707E+00    0.5669216861E-03
    0.2100000000E+07    0.1703002649E-03    0.9112100005E-05    0.6954917999E+00    0.6565556530E+00    0.5700821993E-03
    0.2300000000E+07    0.1425805788E-03    0.7668952774E-05    0.6954892639E+00    0.6574998126E+00    0.5729702461E-03
    0.2500000000E+07    0.1211093017E-03    0.6545295078E-05    0.6954869129E+00    0.6582892385E+00    0.5756301680E-03
    0.2700000000E+07    0.1041424769E-03    0.5653124979E-05    0.6954847213E+00    0.6589590013E+00    0.5780962173E-03
    0.2900000000E+07    0.9050423151E-04    0.4932812715E-05    0.6954826683E+00    0.6595343374E+00    0.5803954140E-03
    0.3100000000E+07    0.7937848709E-04    0.4342785035E-05    0.6954807371E+00    0.6600338651E+00    0.5825494547E-03
    0.3300000000E+07    0.7018457601E-04    0.3853335752E-05    0.6954789138E+00    0.6604716171E+00    0.5845760304E-03
    0.3500000000E+07    0.6250025876E-04    0.3442778233E-05    0.6954771866E+00    0.6608583690E+00    0.5864897585E-03
    0.3700000000E+07    0.5601257543E-04    0.3094978987E-05    0.6954755458E+00    0.6612025310E+00    0.5883028591E-03
    0.3900000000E+07    0.5048560050E-04    0.2797733340E-05    0.6954739828E+00    0.6615107627E+00    0.5900256534E-03
    0.4100000000E+07    0.4573877155E-04    0.2541669861E-05    0.6954724904E+00    0.6617884054E+00    0.5916669398E-03
    0.4300000000E+07    0.4163200813E-04    0.2319495517E-05    0.6954710624E+00    0.6620397927E+00    0.5932342800E-03
    0.4500000000E+07    0.3805529477E-04    0.2125465591E-05    0.6954696933E+00    0.6622684775E+00    0.5947342220E-03
    0.4700000000E+07    0.3492126109E-04    0.1955004971E-05    0.6954683783E+00    0.6624773995E+00    0.5961724736E-03
    0.4900000000E+07    0.3215981286E-04    0.1804433324E-05    0.6954671132E+00    0.6626690126E+00    0.5975540412E-03
    0.1000000000E+07    0.7079319745E-03    0.3628811289E-04    0.6955111417E+00    0.6442616398E+00    0.5470646924E-03
    0.3000000000E+07    0.8466803226E-04    0.4623594492E-05    0.6954816884E+00    0.6597926110E+00    0.5814893917E-03
    0.5000000000E+07    0.3090063584E-04    0.1735649522E-05    0.6954664982E+00    0.6627589864E+00    0.5982249689E-03
    0.7000000000E+07    0.1588913925E-04    0.9079382282E-06    0.6954560961E+00    0.6640128735E+00    0.6095104484E-03
    0.9000000000E+07    0.9678576250E-05    0.5594814505E-06    0.6954481398E+00    0.6647047673E+00    0.6180782399E-03
    0.1100000000E+08    0.6525290955E-05    0.3802504641E-06    0.6954416775E+00    0.6651432838E+00    0.6250058110E-03
    0.1300000000E+08    0.4707717759E-05    0.2758782468E-06    0.6954362258E+00    0.6654460571E+00    0.6308320030E-03
    0.1500000000E+08    0.3565210258E-05    0.2097205239E-06    0.6954315047E+00    0.6656676674E+00    0.6358659313E-03
    0.1700000000E+08    0.2800275055E-05    0.1651162290E-06    0.6954273373E+00    0.6658368936E+00    0.6403017491E-03
    0.1900000000E+08    0.2262932590E-05    0.1335971621E-06    0.6954236043E+00    0.6659703474E+00    0.6442695558E-03
    0.2100000000E+08    0.1870916736E-05    0.1104856304E-06    0.6954202215E+00    0.6660782882E+00    0.6478608757E-03
    0.2300000000E+08    0.1576045616E-05    0.9302502933E-07    0.6954171273E+00    0.6661673948E+00    0.6511425886E-03
    0.2500000000E+08    0.1348578805E-05    0.7950447109E-07    0.6954142751E+00    0.6662422019E+00    0.6541650797E-03
    0.2700000000E+08    0.1169351762E-05    0.6881602151E-07    0.6954116288E+00    0.6663058965E+00    0.6569672707E-03
