  Pressure (Pa) 22mC5-500 (mol/kg) 23mC5-500 (mol/kg) 24mC5-500 (mol/kg) 3mC6-500 (mol/kg) C7-500 (mol/kg)
    0.1000000000E+01    0.1755776671E-04    0.7207405638E-06    0.6965065394E-01    0.4802266840E-05    0.4195725743E-02
    0.3000000000E+01    0.4210206889E-04    0.1725071569E-05    0.1740839555E+00    0.1228438751E-04    0.4253399460E-02
    0.5000000000E+01    0.5829404841E-04    0.2385088119E-05    0.2486483155E+00    0.1916937068E-04    0.4292472591E-02
    0.7000000000E+01    0.6957579279E-04    0.2843288915E-05    0.3045550903E+00    0.2576777019E-04    0.4321656057E-02
    0.9000000000E+01    0.7777166811E-04    0.3175044921E-05    0.3480286063E+00    0.3218437834E-04    0.4344386533E-02
    0.1100000000E+02    0.8393242489E-04    0.3423678947E-05    0.3828015778E+00    0.3847163282E-04    0.4362618648E-02
    0.1300000000E+02    0.8870045384E-04    0.3615621961E-05    0.4112484420E+00    0.4466074281E-04    0.4377576807E-02
    0.1500000000E+02    0.9248713913E-04    0.3767763706E-05    0.4349516654E+00    0.5077227171E-04    0.4390072923E-02
    0.1700000000E+02    0.9556594454E-04    0.3891306279E-05    0.4550065250E+00    0.5682071694E-04    0.4400668327E-02
    0.1900000000E+02    0.9812431741E-04    0.3993910297E-05    0.4721951980E+00    0.6281680722E-04    0.4409764180E-02
    0.2100000000E+02    0.1002940854E-03    0.4080950209E-05    0.4870911802E+00    0.6876877798E-04    0.4417655106E-02
    0.2300000000E+02    0.1021699992E-03    0.4156279102E-05    0.5001245293E+00    0.7468313435E-04    0.4424562537E-02
    0.2500000000E+02    0.1038214419E-03    0.4222711013E-05    0.5116240707E+00    0.8056513431E-04    0.4430656216E-02
    0.2700000000E+02    0.1053000457E-03    0.4282334238E-05    0.5218455293E+00    0.8641910915E-04    0.4436068518E-02
    0.2900000000E+02    0.1066447751E-03    0.4336720152E-05    0.5309907736E+00    0.9224868391E-04    0.4440904245E-02
    0.3100000000E+02    0.1078853976E-03    0.4387065563E-05    0.5392212845E+00    0.9805693378E-04    0.4445247485E-02
    0.3300000000E+02    0.1090449003E-03    0.4434291694E-05    0.5466677750E+00    0.1038464981E-03    0.4449166514E-02
    0.3500000000E+02    0.1101412033E-03    0.4479114251E-05    0.5534371850E+00    0.1096196652E-03    0.4452717364E-02
    0.3700000000E+02    0.1111883935E-03    0.4522093806E-05    0.5596178508E+00    0.1153784369E-03    0.4455946467E-02
    0.3900000000E+02    0.1121976259E-03    0.4563672545E-05    0.5652833821E+00    0.1211245784E-03    0.4458892636E-02
    0.4100000000E+02    0.1131777910E-03    0.4604201430E-05    0.5704956082E+00    0.1268596569E-03    0.4461588577E-02
    0.4300000000E+02    0.1141360146E-03    0.4643960492E-05    0.5753068437E+00    0.1325850735E-03    0.4464062051E-02
    0.4500000000E+02    0.1150780355E-03    0.4683174179E-05    0.5797616515E+00    0.1383020870E-03    0.4466336780E-02
    0.4700000000E+02    0.1160084951E-03    0.4722023055E-05    0.5838982266E+00    0.1440118353E-03    0.4468433163E-02
    0.4900000000E+02    0.1169311599E-03    0.4760652813E-05    0.5877494951E+00    0.1497153513E-03    0.4470368837E-02
    0.1000000000E+02    0.8105936228E-04    0.3307814061E-05    0.3663308074E+00    0.3534189539E-04    0.4353976054E-02
    0.3000000000E+02    0.1072765269E-03    0.4362334821E-05    0.5352115725E+00    0.9515530039E-04    0.4443132836E-02
    0.5000000000E+02    0.1173905507E-03    0.4779923273E-05    0.5895772077E+00    0.1525650697E-03    0.4471281281E-02
    0.7000000000E+02    0.1266677758E-03    0.5172733461E-05    0.6164140730E+00    0.2094237052E-03    0.4483937536E-02
    0.9000000000E+02    0.1365995946E-03    0.5596959846E-05    0.6324076195E+00    0.2663794619E-03    0.4490151267E-02
    0.1100000000E+03    0.1473270661E-03    0.6056377483E-05    0.6430252737E+00    0.3237735375E-03    0.4492985887E-02
    0.1300000000E+03    0.1587929407E-03    0.6547707120E-05    0.6505875845E+00    0.3818239145E-03    0.4493780437E-02
    0.1500000000E+03    0.1709221783E-03    0.7067397724E-05    0.6562474980E+00    0.4406879956E-03    0.4493218043E-02
    0.1700000000E+03    0.1836533027E-03    0.7612672566E-05    0.6606426723E+00    0.5004897187E-03    0.4491685419E-02
    0.1900000000E+03    0.1969411286E-03    0.8181536278E-05    0.6641544214E+00    0.5613331696E-03    0.4489418400E-02
    0.2100000000E+03    0.2107540901E-03    0.8772615021E-05    0.6670247688E+00    0.6233101589E-03    0.4486568988E-02
    0.2300000000E+03    0.2250711618E-03    0.9385004266E-05    0.6694147278E+00    0.6865047837E-03    0.4483239334E-02
    0.2500000000E+03    0.2398793577E-03    0.1001815201E-04    0.6714355794E+00    0.7509963507E-03    0.4479500298E-02
    0.2700000000E+03    0.2551718672E-03    0.1067177421E-04    0.6731666970E+00    0.8168613527E-03    0.4475402203E-02
    0.2900000000E+03    0.2709467026E-03    0.1134579445E-04    0.6746662180E+00    0.8841748693E-03    0.4470981379E-02
    0.3100000000E+03    0.2872057252E-03    0.1204030105E-04    0.6759777005E+00    0.9530116035E-03    0.4466264297E-02
    0.3300000000E+03    0.3039539422E-03    0.1275551635E-04    0.6771344237E+00    0.1023446682E-02    0.4461270292E-02
    0.3500000000E+03    0.3211989999E-03    0.1349177474E-04    0.6781622514E+00    0.1095556298E-02    0.4456013383E-02
    0.3700000000E+03    0.3389508174E-03    0.1424950690E-04    0.6790815881E+00    0.1169418245E-02    0.4450503544E-02
    0.3900000000E+03    0.3572213226E-03    0.1502922843E-04    0.6799087476E+00    0.1245112385E-02    0.4444747593E-02
    0.4100000000E+03    0.3760242653E-03    0.1583153194E-04    0.6806569287E+00    0.1322721060E-02    0.4438749836E-02
    0.4300000000E+03    0.3953750872E-03    0.1665708147E-04    0.6813369255E+00    0.1402329477E-02    0.4432512527E-02
    0.4500000000E+03    0.4152908353E-03    0.1750660889E-04    0.6819576505E+00    0.1484026070E-02    0.4426036220E-02
    0.4700000000E+03    0.4357901102E-03    0.1838091172E-04    0.6825265280E+00    0.1567902857E-02    0.4419320023E-02
    0.4900000000E+03    0.4568930415E-03    0.1928085212E-04    0.6830497919E+00    0.1654055787E-02    0.4412361787E-02
    0.1000000000E+03    0.1418662318E-03    0.5822439798E-05    0.6382034792E+00    0.2950061965E-03    0.4491885040E-02
    0.3000000000E+03    0.2790154445E-03    0.1169047591E-04    0.6753431822E+00    0.9183981568E-03    0.4468658519E-02
    0.5000000000E+03    0.4676775857E-03    0.1974072347E-04    0.6832959990E+00    0.1698016953E-02    0.4408790927E-02
    0.7000000000E+03    0.7213387240E-03    0.3055240215E-04    0.6867611946E+00    0.2724475592E-02    0.4323323981E-02
    0.9000000000E+03    0.1072821243E-02    0.4552635003E-04    0.6887008939E+00    0.4137981954E-02    0.4203933907E-02
    0.1100000000E+04    0.1582269703E-02    0.6722569572E-04    0.6899404749E+00    0.6184629960E-02    0.4032464185E-02
    0.1300000000E+04    0.2362753404E-02    0.1004677979E-03    0.6908008851E+00    0.9324957524E-02    0.3774828651E-02
    0.1500000000E+04    0.3630545708E-02    0.1544679575E-03    0.6914329174E+00    0.1444375267E-01    0.3368521333E-02
    0.1700000000E+04    0.5750674337E-02    0.2447860294E-03    0.6919167734E+00    0.2305413286E-01    0.2718630468E-02
    0.1900000000E+04    0.8945328975E-02    0.3809206209E-03    0.6922990422E+00    0.3616205209E-01    0.1809278809E-02
    0.2100000000E+04    0.1226076218E-01    0.5222918386E-03    0.6926086380E+00    0.5004592149E-01    0.9935728065E-03
    0.2300000000E+04    0.1444188103E-01    0.6154232613E-03    0.6928644556E+00    0.5957785325E-01    0.6100038602E-03
    0.2500000000E+04    0.1576305043E-01    0.6719601504E-03    0.6930793638E+00    0.6574296595E-01    0.4970602586E-03
    0.2700000000E+04    0.1675522825E-01    0.7145051618E-03    0.6932624303E+00    0.7065035696E-01    0.4702772166E-03
    0.2900000000E+04    0.1762742367E-01    0.7519591366E-03    0.6934202284E+00    0.7514116742E-01    0.4652578424E-03
    0.3100000000E+04    0.1843947229E-01    0.7868699038E-03    0.6935576391E+00    0.7945567273E-01    0.4653777361E-03
    0.3300000000E+04    0.1920821742E-01    0.8199536917E-03    0.6936783633E+00    0.8365894503E-01    0.4666466491E-03
    0.3500000000E+04    0.1993931551E-01    0.8514500558E-03    0.6937852574E+00    0.8777016984E-01    0.4681223711E-03
    0.3700000000E+04    0.2063551641E-01    0.8814747409E-03    0.6938805618E+00    0.9179668950E-01    0.4695864959E-03
    0.3900000000E+04    0.2129875916E-01    0.9101090173E-03    0.6939660577E+00    0.9574269950E-01    0.4709924897E-03
    0.4100000000E+04    0.2193070462E-01    0.9374223870E-03    0.6940431797E+00    0.9961146808E-01    0.4723343699E-03
    0.4300000000E+04    0.2253287503E-01    0.9634785306E-03    0.6941130956E+00    0.1034059108E+00    0.4736152914E-03
    0.4500000000E+04    0.2310669416E-01    0.9883370129E-03    0.6941767660E+00    0.1071287456E+00    0.4748400419E-03
    0.4700000000E+04    0.2365350183E-01    0.1012053898E-02    0.6942349882E+00    0.1107825397E+00    0.4760133022E-03
    0.4900000000E+04    0.2417456166E-01    0.1034682071E-02    0.6942884295E+00    0.1143697278E+00    0.4771392977E-03
    0.1000000000E+04    0.1302419801E-02    0.5530612980E-04    0.6893821758E+00    0.5060259056E-02    0.4126348186E-02
    0.3000000000E+04    0.1803946820E-01    0.7696686771E-03    0.6934912278E+00    0.7731456508E-01    0.4650488087E-03
    0.5000000000E+04    0.2442581156E-01    0.1045603607E-02    0.6943135366E+00    0.1161390720E+00    0.4776857606E-03
    0.7000000000E+04    0.2835594608E-01    0.1217637423E-02    0.6946640552E+00    0.1485345154E+00    0.4868477775E-03
    0.9000000000E+04    0.3072849516E-01    0.1323438644E-02    0.6948574850E+00    0.1763090893E+00    0.4937734974E-03
    0.1100000000E+05    0.3207707129E-01    0.1385436892E-02    0.6949796744E+00    0.2006058310E+00    0.4993594544E-03
    0.1300000000E+05    0.3273548977E-01    0.1417709060E-02    0.6950636116E+00    0.2221922300E+00    0.5040497733E-03
    0.1500000000E+05    0.3292060594E-01    0.1429433128E-02    0.6951246690E+00    0.2416051508E+00    0.5080977363E-03
    0.1700000000E+05    0.3277765993E-01    0.1426781009E-02    0.6951709711E+00    0.2592333069E+00    0.5116617887E-03
    0.1900000000E+05    0.3240637217E-01    0.1414009348E-02    0.6952072126E+00    0.2753665715E+00    0.5148477913E-03
    0.2100000000E+05    0.3187660672E-01    0.1394115233E-02    0.6952362938E+00    0.2902267068E+00    0.5177300511E-03
    0.2300000000E+05    0.3123811619E-01    0.1369244837E-02    0.6952601022E+00    0.3039872034E+00    0.5203627715E-03
    0.2500000000E+05    0.3052679423E-01    0.1340956082E-02    0.6952799185E+00    0.3167864872E+00    0.5227867304E-03
    0.2700000000E+05    0.2976879606E-01    0.1310392092E-02    0.6952966419E+00    0.3287369477E+00    0.5250333913E-03
    0.2900000000E+05    0.2898331830E-01    0.1278398468E-02    0.6953109219E+00    0.3399312586E+00    0.5271275497E-03
    0.3100000000E+05    0.2818451319E-01    0.1245604236E-02    0.6953232393E+00    0.3504468964E+00    0.5290891001E-03
    0.3300000000E+05    0.2738283090E-01    0.1212478754E-02    0.6953339575E+00    0.3603494319E+00    0.5309342522E-03
    0.3500000000E+05    0.2658597605E-01    0.1179372382E-02    0.6953433561E+00    0.3696949710E+00    0.5326763919E-03
    0.3700000000E+05    0.2579959915E-01    0.1146545966E-02    0.6953516538E+00    0.3785319921E+00    0.5343267031E-03
    0.3900000000E+05    0.2502780265E-01    0.1114192490E-02    0.6953590237E+00    0.3869027501E+00    0.5358946278E-03
    0.4100000000E+05    0.2427351568E-01    0.1082453166E-02    0.6953656051E+00    0.3948443631E+00    0.5373882113E-03
    0.4300000000E+05    0.2353877415E-01    0.1051429502E-02    0.6953715109E+00    0.4023896652E+00    0.5388143658E-03
    0.4500000000E+05    0.2282493208E-01    0.1021192449E-02    0.6953768338E+00    0.4095678822E+00    0.5401790744E-03
    0.4700000000E+05    0.2213282224E-01    0.9917893817E-03    0.6953816504E+00    0.4164051736E+00    0.5414875513E-03
    0.4900000000E+05    0.2146287907E-01    0.9632494689E-03    0.6953860247E+00    0.4229250723E+00    0.5427443684E-03
    0.1000000000E+05    0.3150645198E-01    0.1358888347E-02    0.6949248036E+00    0.1888375247E+00    0.4966999463E-03
    0.3000000000E+05    0.2858485451E-01    0.1262068892E-02    0.6953173009E+00    0.3452695665E+00    0.5281238129E-03
    0.5000000000E+05    0.2113627057E-01    0.9493083734E-03    0.6953880632E+00    0.4260727248E+00    0.5433546831E-03
    0.7000000000E+05    0.1570659214E-01    0.7150231378E-03    0.6954150617E+00    0.4766013709E+00    0.5536180420E-03
    0.9000000000E+05    0.1196843810E-01    0.5509386504E-03    0.6954281799E+00    0.5109033759E+00    0.5614073075E-03
    0.1100000000E+06    0.9358545960E-02    0.4348832992E-03    0.6954353119E+00    0.5354719931E+00    0.5677042324E-03
    0.1300000000E+06    0.7488623422E-02    0.3508512567E-03    0.6954393965E+00    0.5537924824E+00    0.5729994190E-03
    0.1500000000E+06    0.6112970049E-02    0.2884775151E-03    0.6954417593E+00    0.5678977970E+00    0.5775741792E-03
    0.1700000000E+06    0.5076060564E-02    0.2410977972E-03    0.6954430777E+00    0.5790450002E+00    0.5816051483E-03
    0.1900000000E+06    0.4277420946E-02    0.2043551112E-03    0.6954437295E+00    0.5880476963E+00    0.5852106602E-03
    0.2100000000E+06    0.3650489719E-02    0.1753349106E-03    0.6954439400E+00    0.5954526362E+00    0.5884739484E-03
    0.2300000000E+06    0.3150046807E-02    0.1520408050E-03    0.6954438500E+00    0.6016390979E+00    0.5914558265E-03
    0.2500000000E+06    0.2744634348E-02    0.1330740417E-03    0.6954435513E+00    0.6068774580E+00    0.5942021046E-03
    0.2700000000E+06    0.2411887197E-02    0.1174338706E-03    0.6954431059E+00    0.6113650805E+00    0.5967481671E-03
    0.2900000000E+06    0.2135587310E-02    0.1043904727E-03    0.6954425563E+00    0.6152490546E+00    0.5991219247E-03
    0.3100000000E+06    0.1903761700E-02    0.9340227672E-04    0.6954419328E+00    0.6186410290E+00    0.6013457882E-03
    0.3300000000E+06    0.1707426739E-02    0.8406100584E-04    0.6954412570E+00    0.6216271427E+00    0.6034380297E-03
    0.3500000000E+06    0.1539741850E-02    0.7605442007E-04    0.6954405446E+00    0.6242748285E+00    0.6054137465E-03
    0.3700000000E+06    0.1395428090E-02    0.6914058309E-04    0.6954398074E+00    0.6266375703E+00    0.6072855589E-03
    0.3900000000E+06    0.1270361619E-02    0.6312978124E-04    0.6954390541E+00    0.6287582932E+00    0.6090641263E-03
    0.4100000000E+06    0.1161284787E-02    0.5787161626E-04    0.6954382912E+00    0.6306718191E+00    0.6107585346E-03
    0.4300000000E+06    0.1065597706E-02    0.5324565530E-04    0.6954375236E+00    0.6324066737E+00    0.6123765929E-03
    0.4500000000E+06    0.9812058066E-03    0.4915456574E-04    0.6954367552E+00    0.6339864343E+00    0.6139250629E-03
    0.4700000000E+06    0.9064068918E-03    0.4551901067E-04    0.6954359888E+00    0.6354307485E+00    0.6154098387E-03
    0.4900000000E+06    0.8398064728E-03    0.4227380938E-04    0.6954352265E+00    0.6367561133E+00    0.6168360899E-03
    0.1000000000E+06    0.1055077678E-01    0.4880642749E-03    0.6954322533E+00    0.5241407441E+00    0.5647048236E-03
    0.3000000000E+06    0.2014735270E-02    0.9866761099E-04    0.6954422523E+00    0.6170006520E+00    0.6002513671E-03
    0.5000000000E+06    0.8092129407E-03    0.4078036009E-04    0.6954348475E+00    0.6373786344E+00    0.6175287148E-03
    0.7000000000E+06    0.4321112303E-03    0.2219522825E-04    0.6954277182E+00    0.6460549323E+00    0.6291789621E-03
    0.9000000000E+06    0.2679644327E-03    0.1396048857E-04    0.6954215396E+00    0.6508297609E+00    0.6380234873E-03
    0.1100000000E+07    0.1822134108E-03    0.9600016245E-05    0.6954161807E+00    0.6538449435E+00    0.6451747260E-03
    0.1300000000E+07    0.1318938701E-03    0.7013100852E-05    0.6954114727E+00    0.6559198343E+00    0.6511889786E-03
    0.1500000000E+07    0.9988278320E-04    0.5352245140E-05    0.6954072816E+00    0.6574342072E+00    0.6563853660E-03
    0.1700000000E+07    0.7827211949E-04    0.4222112583E-05    0.6954035073E+00    0.6585878484E+00    0.6609643221E-03
    0.1900000000E+07    0.6300235416E-04    0.3418030961E-05    0.6954000749E+00    0.6594957834E+00    0.6650601525E-03
    0.2100000000E+07    0.5181643967E-04    0.2825361948E-05    0.6953969274E+00    0.6602288780E+00    0.6687673396E-03
    0.2300000000E+07    0.4337856273E-04    0.2375813073E-05    0.6953940207E+00    0.6608331581E+00    0.6721549244E-03
    0.2500000000E+07    0.3685733348E-04    0.2026630158E-05    0.6953913202E+00    0.6613398093E+00    0.6752749196E-03
    0.2700000000E+07    0.3171342355E-04    0.1749930363E-05    0.6953887982E+00    0.6617707085E+00    0.6781675040E-03
    0.2900000000E+07    0.2758460919E-04    0.1526895675E-05    0.6953864321E+00    0.6621416541E+00    0.6808643721E-03
    0.3100000000E+07    0.2422032491E-04    0.1344450381E-05    0.6953842035E+00    0.6624643391E+00    0.6833909742E-03
    0.3300000000E+07    0.2144278145E-04    0.1193277945E-05    0.6953820968E+00    0.6627476026E+00    0.6857680617E-03
    0.3500000000E+07    0.1912300600E-04    0.1066593697E-05    0.6953800992E+00    0.6629982503E+00    0.6880127810E-03
    0.3700000000E+07    0.1716560263E-04    0.9593610727E-06    0.6953781997E+00    0.6632216070E+00    0.6901394661E-03
    0.3900000000E+07    0.1549878627E-04    0.8677771528E-06    0.6953763888E+00    0.6634218985E+00    0.6921602238E-03
    0.4100000000E+07    0.1406770372E-04    0.7889266668E-06    0.6953746586E+00    0.6636025215E+00    0.6940853745E-03
    0.4300000000E+07    0.1282985890E-04    0.7205442200E-06    0.6953730018E+00    0.6637662368E+00    0.6959237881E-03
    0.4500000000E+07    0.1175191740E-04    0.6608476930E-06    0.6953714125E+00    0.6639153120E+00    0.6976831453E-03
    0.4700000000E+07    0.1080743505E-04    0.6084194585E-06    0.6953698851E+00    0.6640516264E+00    0.6993701412E-03
    0.4900000000E+07    0.9975217136E-05    0.5621203412E-06    0.6953684150E+00    0.6641767511E+00    0.7009906483E-03
    0.1000000000E+07    0.2189293329E-03    0.1147337295E-04    0.6954187689E+00    0.6524906172E+00    0.6417682646E-03
    0.3000000000E+07    0.2581938373E-04    0.1431252627E-05    0.6953853017E+00    0.6623084211E+00    0.6821475639E-03
    0.5000000000E+07    0.9595716700E-05    0.5409734356E-06    0.6953677000E+00    0.6642355392E+00    0.7017776111E-03
    0.7000000000E+07    0.5066392953E-05    0.2865685411E-06    0.6953555853E+00    0.6650571868E+00    0.7150148397E-03
    0.9000000000E+07    0.3183470890E-05    0.1793356704E-06    0.6953462955E+00    0.6655125427E+00    0.7250643184E-03
    0.1100000000E+08    0.2220631366E-05    0.1240156581E-06    0.6953387383E+00    0.6658019088E+00    0.7331898876E-03
    0.1300000000E+08    0.1660853451E-05    0.9167241698E-07    0.6953323560E+00    0.6660020622E+00    0.7400235907E-03
    0.1500000000E+08    0.1305553742E-05    0.7107508232E-07    0.6953268244E+00    0.6661487551E+00    0.7459280083E-03
    0.1700000000E+08    0.1065142749E-05    0.5711561753E-07    0.6953219384E+00    0.6662608872E+00    0.7511308745E-03
    0.1900000000E+08    0.8943414792E-06    0.4719559950E-07    0.6953175593E+00    0.6663493883E+00    0.7557847899E-03
    0.2100000000E+08    0.7682396627E-06    0.3987797205E-07    0.6953135893E+00    0.6664210190E+00    0.7599971083E-03
    0.2300000000E+08    0.6721987153E-06    0.3431461650E-07    0.6953099565E+00    0.6664801853E+00    0.7638462765E-03
    0.2500000000E+08    0.5971496584E-06    0.2997825879E-07    0.6953066067E+00    0.6665298818E+00    0.7673913939E-03
    0.2700000000E+08    0.5372253831E-06    0.2652681106E-07    0.6953034977E+00    0.6665722149E+00    0.7706781134E-03
