  Pressure (Pa) 22mC5-500 (mol/kg) 23mC5-500 (mol/kg) 24mC5-500 (mol/kg) 3mC6-500 (mol/kg) C7-500 (mol/kg)
    0.1000000000E+01    0.1568392470E-04    0.1929877400E-05    0.1266280549E+00    0.7725806052E-06    0.4202766843E-02
    0.3000000000E+01    0.3239074071E-04    0.3974156305E-05    0.2785024172E+00    0.1983399743E-05    0.4255894499E-02
    0.5000000000E+01    0.4079139052E-04    0.4995011780E-05    0.3663910401E+00    0.3097360438E-05    0.4285813473E-02
    0.7000000000E+01    0.4567092078E-04    0.5584810751E-05    0.4236949636E+00    0.4163783714E-05    0.4305527374E-02
    0.9000000000E+01    0.4882169374E-04    0.5964476646E-05    0.4640132355E+00    0.5199399725E-05    0.4319604274E-02
    0.1100000000E+02    0.5104172380E-04    0.6231917587E-05    0.4939233572E+00    0.6212609586E-05    0.4330210315E-02
    0.1300000000E+02    0.5272889417E-04    0.6435707442E-05    0.5169949678E+00    0.7208427503E-05    0.4338517848E-02
    0.1500000000E+02    0.5409814785E-04    0.6601945375E-05    0.5353328069E+00    0.8190165226E-05    0.4345219751E-02
    0.1700000000E+02    0.5527270610E-04    0.6745505157E-05    0.5502582493E+00    0.9160162424E-05    0.4350752967E-02
    0.1900000000E+02    0.5632647449E-04    0.6875249450E-05    0.5626427336E+00    0.1012015369E-04    0.4355407247E-02
    0.2100000000E+02    0.5730535265E-04    0.6996642009E-05    0.5730842479E+00    0.1107147260E-04    0.4359382629E-02
    0.2300000000E+02    0.5823862386E-04    0.7113139319E-05    0.5820067861E+00    0.1201517393E-04    0.4362821857E-02
    0.2500000000E+02    0.5914535489E-04    0.7226969901E-05    0.5897193407E+00    0.1295211123E-04    0.4365829644E-02
    0.2700000000E+02    0.6003814399E-04    0.7339589052E-05    0.5964524172E+00    0.1388298823E-04    0.4368484633E-02
    0.2900000000E+02    0.6092539329E-04    0.7451953509E-05    0.6023814667E+00    0.1480839433E-04    0.4370847088E-02
    0.3100000000E+02    0.6181272772E-04    0.7564692249E-05    0.6076423969E+00    0.1572882980E-04    0.4372964014E-02
    0.3300000000E+02    0.6270390353E-04    0.7678215375E-05    0.6123421179E+00    0.1664472413E-04    0.4374872637E-02
    0.3500000000E+02    0.6360140273E-04    0.7792785026E-05    0.6165658850E+00    0.1755644973E-04    0.4376602849E-02
    0.3700000000E+02    0.6450682932E-04    0.7908562401E-05    0.6203825166E+00    0.1846433234E-04    0.4378178944E-02
    0.3900000000E+02    0.6542117771E-04    0.8025639436E-05    0.6238481739E+00    0.1936865912E-04    0.4379620884E-02
    0.4100000000E+02    0.6634501707E-04    0.8144060433E-05    0.6270091425E+00    0.2026968492E-04    0.4380945232E-02
    0.4300000000E+02    0.6727861949E-04    0.8263836981E-05    0.6299039120E+00    0.2116763735E-04    0.4382165856E-02
    0.4500000000E+02    0.6822204988E-04    0.8384958360E-05    0.6325647507E+00    0.2206272079E-04    0.4383294460E-02
    0.4700000000E+02    0.6917522968E-04    0.8507398836E-05    0.6350189143E+00    0.2295511975E-04    0.4384340998E-02
    0.4900000000E+02    0.7013798219E-04    0.8631122810E-05    0.6372895825E+00    0.2384500148E-04    0.4385313992E-02
    0.1000000000E+02    0.5001727544E-04    0.6108462484E-05    0.4800000351E+00    0.5708439495E-05    0.4325252742E-02
    0.3000000000E+02    0.6136877945E-04    0.7508246306E-05    0.6050881837E+00    0.1526920507E-04    0.4371933719E-02
    0.5000000000E+02    0.7062287435E-04    0.8693453206E-05    0.6383624190E+00    0.2428904652E-04    0.4385775244E-02
    0.7000000000E+02    0.8075086197E-04    0.9996333762E-05    0.6537708026E+00    0.3306861894E-04    0.4392482478E-02
    0.9000000000E+02    0.9149941050E-04    0.1137883290E-04    0.6626569907E+00    0.4171157934E-04    0.4396328474E-02
    0.1100000000E+03    0.1026573393E-03    0.1281289385E-04    0.6684387515E+00    0.5027042784E-04    0.4398692193E-02
    0.1300000000E+03    0.1140999081E-03    0.1428241903E-04    0.6725009580E+00    0.5877672884E-04    0.4400168155E-02
    0.1500000000E+03    0.1257531045E-03    0.1577800967E-04    0.6755113952E+00    0.6725149245E-04    0.4401059899E-02
    0.1700000000E+03    0.1375714585E-03    0.1729395999E-04    0.6778317011E+00    0.7570969667E-04    0.4401540784E-02
    0.1900000000E+03    0.1495260895E-03    0.1882668328E-04    0.6796747690E+00    0.8416256630E-04    0.4401718064E-02
    0.2100000000E+03    0.1615981623E-03    0.2037386384E-04    0.6811740922E+00    0.9261884227E-04    0.4401662202E-02
    0.2300000000E+03    0.1737751621E-03    0.2193397930E-04    0.6824176228E+00    0.1010855428E-03    0.4401421705E-02
    0.2500000000E+03    0.1860486857E-03    0.2350601991E-04    0.6834656663E+00    0.1095684467E-03    0.4401031238E-02
    0.2700000000E+03    0.1984130832E-03    0.2508931690E-04    0.6843609527E+00    0.1180724135E-03    0.4400516339E-02
    0.2900000000E+03    0.2108645946E-03    0.2668343417E-04    0.6851346048E+00    0.1266016051E-03    0.4399896305E-02
    0.3100000000E+03    0.2234007853E-03    0.2828809785E-04    0.6858098287E+00    0.1351596422E-03    0.4399186034E-02
    0.3300000000E+03    0.2360201683E-03    0.2990314925E-04    0.6864042803E+00    0.1437497188E-03    0.4398397239E-02
    0.3500000000E+03    0.2487219445E-03    0.3152851288E-04    0.6869316313E+00    0.1523746874E-03    0.4397539273E-02
    0.3700000000E+03    0.2615058222E-03    0.3316417420E-04    0.6874026326E+00    0.1610371240E-03    0.4396619707E-02
    0.3900000000E+03    0.2743718885E-03    0.3481016386E-04    0.6878258552E+00    0.1697393777E-03    0.4395644747E-02
    0.4100000000E+03    0.2873205172E-03    0.3646654649E-04    0.6882082156E+00    0.1784836105E-03    0.4394619525E-02
    0.4300000000E+03    0.3003523006E-03    0.3813341244E-04    0.6885553571E+00    0.1872718283E-03    0.4393548334E-02
    0.4500000000E+03    0.3134680004E-03    0.3981087186E-04    0.6888719294E+00    0.1961059060E-03    0.4392434787E-02
    0.4700000000E+03    0.3266685104E-03    0.4149905019E-04    0.6891617984E+00    0.2049876079E-03    0.4391281950E-02
    0.4900000000E+03    0.3399548282E-03    0.4319808482E-04    0.6894282046E+00    0.2139186049E-03    0.4390092441E-02
    0.1000000000E+03    0.9703654631E-04    0.1209063082E-04    0.6658245216E+00    0.4599921930E-04    0.4397648545E-02
    0.3000000000E+03    0.2171222167E-03    0.2748445990E-04    0.6854833081E+00    0.1308768095E-03    0.4399551654E-02
    0.5000000000E+03    0.3466305000E-03    0.4405171884E-04    0.6895534812E+00    0.2184030890E-03    0.4389484650E-02
    0.7000000000E+03    0.4849440810E-03    0.6173376261E-04    0.6913116428E+00    0.3110382179E-03    0.4375810354E-02
    0.9000000000E+03    0.6333486044E-03    0.8070029456E-04    0.6922916253E+00    0.4101523144E-03    0.4359796796E-02
    0.1100000000E+04    0.7933743110E-03    0.1011489711E-03    0.6929162492E+00    0.5169409252E-03    0.4341766531E-02
    0.1300000000E+04    0.9667366645E-03    0.1233000279E-03    0.6933490138E+00    0.6326313577E-03    0.4321754991E-02
    0.1500000000E+04    0.1155384385E-02    0.1474030553E-03    0.6936664681E+00    0.7585746103E-03    0.4299666086E-02
    0.1700000000E+04    0.1361565745E-02    0.1737457078E-03    0.6939092262E+00    0.8963099944E-03    0.4275320556E-02
    0.1900000000E+04    0.1587907041E-02    0.2026638372E-03    0.6941008375E+00    0.1047626379E-02    0.4248470895E-02
    0.2100000000E+04    0.1837507083E-02    0.2345536213E-03    0.6942558969E+00    0.1214630194E-02    0.4218802476E-02
    0.2300000000E+04    0.2114053704E-02    0.2698864848E-03    0.6943839305E+00    0.1399826816E-02    0.4185927168E-02
    0.2500000000E+04    0.2421969863E-02    0.3092277931E-03    0.6944914204E+00    0.1606221513E-02    0.4149371408E-02
    0.2700000000E+04    0.2766598880E-02    0.3532605424E-03    0.6945829302E+00    0.1837446972E-02    0.4108559047E-02
    0.2900000000E+04    0.3154440893E-02    0.4028155982E-03    0.6946617659E+00    0.2097926003E-02    0.4062788447E-02
    0.3100000000E+04    0.3593455831E-02    0.4589104375E-03    0.6947303807E+00    0.2393080241E-02    0.4011202769E-02
    0.3300000000E+04    0.4093451701E-02    0.5227988030E-03    0.6947906340E+00    0.2729598123E-02    0.3952752069E-02
    0.3500000000E+04    0.4666580018E-02    0.5960340620E-03    0.6948439599E+00    0.3115777778E-02    0.3886145676E-02
    0.3700000000E+04    0.5327960659E-02    0.6805491265E-03    0.6948914828E+00    0.3561961150E-02    0.3809793649E-02
    0.3900000000E+04    0.6096451400E-02    0.7787548959E-03    0.6949340964E+00    0.4081071562E-02    0.3721737544E-02
    0.4100000000E+04    0.6995552511E-02    0.8936560054E-03    0.6949725202E+00    0.4689250987E-02    0.3619574330E-02
    0.4300000000E+04    0.8054372373E-02    0.1028974446E-02    0.6950073395E+00    0.5406550913E-02    0.3500385695E-02
    0.4500000000E+04    0.9308435402E-02    0.1189253134E-02    0.6950390359E+00    0.6257534021E-02    0.3360702256E-02
    0.4700000000E+04    0.1079981838E-01    0.1379873780E-02    0.6950680089E+00    0.7271444665E-02    0.3196565393E-02
    0.4900000000E+04    0.1257556277E-01    0.1606854603E-02    0.6950945924E+00    0.8481238933E-02    0.3003806117E-02
    0.1000000000E+04    0.7118063631E-03    0.9072619457E-04    0.6926350860E+00    0.4625126486E-03    0.4351027486E-02
    0.3000000000E+04    0.3366987286E-02    0.4299733918E-03    0.6946972231E+00    0.2240783997E-02    0.4037783082E-02
    0.5000000000E+04    0.1358496850E-01    0.1735886750E-02    0.6951070781E+00    0.9170151281E-02    0.2895490840E-02
    0.7000000000E+04    0.4067033690E-01    0.5201490051E-02    0.6952810945E+00    0.2822782886E-01    0.4897756626E-03
    0.9000000000E+04    0.5002106406E-01    0.6404412803E-02    0.6953767880E+00    0.3595850125E-01    0.3226483760E-03
    0.1100000000E+05    0.5650800822E-01    0.7242622095E-02    0.6954370337E+00    0.4201243493E-01    0.3245254106E-03
    0.1300000000E+05    0.6200687788E-01    0.7955487249E-02    0.6954782805E+00    0.4760570570E-01    0.3275410229E-03
    0.1500000000E+05    0.6671878982E-01    0.8568396824E-02    0.6955081830E+00    0.5282264019E-01    0.3301627218E-03
    0.1700000000E+05    0.7078355628E-01    0.9098989507E-02    0.6955307816E+00    0.5771889380E-01    0.3324723239E-03
    0.1900000000E+05    0.7431017706E-01    0.9561028411E-02    0.6955484085E+00    0.6233888032E-01    0.3345376638E-03
    0.2100000000E+05    0.7738495794E-01    0.9965420864E-02    0.6955625027E+00    0.6671863654E-01    0.3364066163E-03
    0.2300000000E+05    0.8007707912E-01    0.1032091778E-01    0.6955739997E+00    0.7088775264E-01    0.3381141406E-03
    0.2500000000E+05    0.8244260611E-01    0.1063461763E-01    0.6955835335E+00    0.7487078515E-01    0.3396865571E-03
    0.2700000000E+05    0.8452742913E-01    0.1091233600E-01    0.6955915488E+00    0.7868830966E-01    0.3411441865E-03
    0.2900000000E+05    0.8636944969E-01    0.1115888059E-01    0.6955983665E+00    0.8235771694E-01    0.3425030518E-03
    0.3100000000E+05    0.8800022943E-01    0.1137825871E-01    0.6956042238E+00    0.8589382287E-01    0.3437760145E-03
    0.3300000000E+05    0.8944624894E-01    0.1157383579E-01    0.6956092998E+00    0.8930934155E-01    0.3449735579E-03
    0.3500000000E+05    0.9072987972E-01    0.1174845780E-01    0.6956137323E+00    0.9261525637E-01    0.3461043419E-03
    0.3700000000E+05    0.9187014254E-01    0.1190454682E-01    0.6956176288E+00    0.9582111393E-01    0.3471756041E-03
    0.3900000000E+05    0.9288330480E-01    0.1204417642E-01    0.6956210744E+00    0.9893525917E-01    0.3481934565E-03
    0.4100000000E+05    0.9378335525E-01    0.1216913148E-01    0.6956241373E+00    0.1019650250E+00    0.3491631079E-03
    0.4300000000E+05    0.9458238447E-01    0.1228095628E-01    0.6956268731E+00    0.1049168867E+00    0.3500890345E-03
    0.4500000000E+05    0.9529089195E-01    0.1238099327E-01    0.6956293271E+00    0.1077965879E+00    0.3509751118E-03
    0.4700000000E+05    0.9591803597E-01    0.1247041462E-01    0.6956315367E+00    0.1106092454E+00    0.3518247174E-03
    0.4900000000E+05    0.9647183799E-01    0.1255024809E-01    0.6956335332E+00    0.1133594354E+00    0.3526408136E-03
    0.1000000000E+05    0.5340699779E-01    0.6841584280E-02    0.6954100044E+00    0.3905210950E-01    0.3229700699E-03
    0.3000000000E+05    0.8720948312E-01    0.1127174166E-01    0.6956014028E+00    0.8414159346E-01    0.3431495674E-03
    0.5000000000E+05    0.9672347371E-01    0.1258685638E-01    0.6956344599E+00    0.1147124053E+00    0.3530371242E-03
    0.7000000000E+05    0.9923563385E-01    0.1298660223E-01    0.6956464118E+00    0.1392987329E+00    0.3597026523E-03
    0.9000000000E+05    0.9897244582E-01    0.1301507732E-01    0.6956518060E+00    0.1605364507E+00    0.3647623593E-03
    0.1100000000E+06    0.9742610756E-01    0.1286682080E-01    0.6956544358E+00    0.1795699256E+00    0.3688531373E-03
    0.1300000000E+06    0.9524049943E-01    0.1262696688E-01    0.6956556943E+00    0.1969980506E+00    0.3722933905E-03
    0.1500000000E+06    0.9273110911E-01    0.1233790191E-01    0.6956562010E+00    0.2131742265E+00    0.3752657401E-03
    0.1700000000E+06    0.9006649572E-01    0.1202269332E-01    0.6956562674E+00    0.2283254081E+00    0.3778848741E-03
    0.1900000000E+06    0.8734236217E-01    0.1169472409E-01    0.6956560645E+00    0.2426069302E+00    0.3802276360E-03
    0.2100000000E+06    0.8461539649E-01    0.1136212884E-01    0.6956556921E+00    0.2561305989E+00    0.3823480810E-03
    0.2300000000E+06    0.8192011043E-01    0.1103001955E-01    0.6956552114E+00    0.2689802866E+00    0.3842857069E-03
    0.2500000000E+06    0.7927779939E-01    0.1070168039E-01    0.6956546616E+00    0.2812211460E+00    0.3860702691E-03
    0.2700000000E+06    0.7670157575E-01    0.1037924528E-01    0.6956540681E+00    0.2929053311E+00    0.3877247519E-03
    0.2900000000E+06    0.7419932618E-01    0.1006410010E-01    0.6956534480E+00    0.3040756954E+00    0.3892672860E-03
    0.3100000000E+06    0.7177551589E-01    0.9757130748E-02    0.6956528132E+00    0.3147682629E+00    0.3907124298E-03
    0.3300000000E+06    0.6943232564E-01    0.9458881332E-02    0.6956521717E+00    0.3250139252E+00    0.3920720535E-03
    0.3500000000E+06    0.6717038839E-01    0.9169657956E-02    0.6956515291E+00    0.3348396353E+00    0.3933559652E-03
    0.3700000000E+06    0.6498927833E-01    0.8889598607E-02    0.6956508894E+00    0.3442692635E+00    0.3945723639E-03
    0.3900000000E+06    0.6288784259E-01    0.8618721249E-02    0.6956502554E+00    0.3533242225E+00    0.3957281750E-03
    0.4100000000E+06    0.6086443033E-01    0.8356957607E-02    0.6956496290E+00    0.3620239310E+00    0.3968293014E-03
    0.4300000000E+06    0.5891705364E-01    0.8104177310E-02    0.6956490114E+00    0.3703861616E+00    0.3978808169E-03
    0.4500000000E+06    0.5704350213E-01    0.7860205430E-02    0.6956484036E+00    0.3784273065E+00    0.3988871146E-03
    0.4700000000E+06    0.5524142550E-01    0.7624835391E-02    0.6956478062E+00    0.3861625816E+00    0.3998520240E-03
    0.4900000000E+06    0.5350839355E-01    0.7397838587E-02    0.6956472195E+00    0.3936061866E+00    0.4007789042E-03
    0.1000000000E+06    0.9830829336E-01    0.1295627515E-01    0.6956533518E+00    0.1702833923E+00    0.3669045360E-03
    0.3000000000E+06    0.7297743641E-01    0.9909552847E-02    0.6956531319E+00    0.3094796687E+00    0.3900012351E-03
    0.5000000000E+06    0.5266699913E-01    0.7287404506E-02    0.6956469301E+00    0.3972228037E+00    0.4012290228E-03
    0.7000000000E+06    0.3887540444E-01    0.5456369975E-02    0.6956416906E+00    0.4570978792E+00    0.4088003309E-03
    0.9000000000E+06    0.2946401609E-01    0.4183639640E-02    0.6956373347E+00    0.4991618112E+00    0.4145483768E-03
    0.1100000000E+07    0.2290128748E-01    0.3283746207E-02    0.6956336340E+00    0.5295041372E+00    0.4191960274E-03
    0.1300000000E+07    0.1820803353E-01    0.2632975534E-02    0.6956304229E+00    0.5519663012E+00    0.4231047840E-03
    0.1500000000E+07    0.1476702914E-01    0.2151359109E-02    0.6956275881E+00    0.5690064430E+00    0.4264820263E-03
    0.1700000000E+07    0.1218504589E-01    0.1787050948E-02    0.6956250505E+00    0.5822251270E+00    0.4294580078E-03
    0.1900000000E+07    0.1020660622E-01    0.1505916585E-02    0.6956227532E+00    0.5926866336E+00    0.4321200092E-03
    0.2100000000E+07    0.8661945779E-02    0.1285030281E-02    0.6956206540E+00    0.6011146683E+00    0.4345294323E-03
    0.2300000000E+07    0.7435652338E-02    0.1108666691E-02    0.6956187211E+00    0.6080124018E+00    0.4367311451E-03
    0.2500000000E+07    0.6447525638E-02    0.9658142931E-03    0.6956169295E+00    0.6137371687E+00    0.4387589501E-03
    0.2700000000E+07    0.5640679288E-02    0.8486100151E-03    0.6956152596E+00    0.6185478101E+00    0.4406389590E-03
    0.2900000000E+07    0.4973991582E-02    0.7513358045E-03    0.6956136957E+00    0.6226352809E+00    0.4423917696E-03
    0.3100000000E+07    0.4417215090E-02    0.6697629889E-03    0.6956122247E+00    0.6261428382E+00    0.4440339221E-03
    0.3300000000E+07    0.3947743918E-02    0.6007156612E-03    0.6956108361E+00    0.6291796189E+00    0.4455789027E-03
    0.3500000000E+07    0.3548435248E-02    0.5417745436E-03    0.6956095209E+00    0.6318299432E+00    0.4470378549E-03
    0.3700000000E+07    0.3206114533E-02    0.4910726109E-03    0.6956082715E+00    0.6341598009E+00    0.4484200943E-03
    0.3900000000E+07    0.2910532333E-02    0.4471517186E-03    0.6956070815E+00    0.6362214489E+00    0.4497334892E-03
    0.4100000000E+07    0.2653624784E-02    0.4088604815E-03    0.6956059454E+00    0.6380567197E+00    0.4509847469E-03
    0.4300000000E+07    0.2428981605E-02    0.3752804897E-03    0.6956048585E+00    0.6396994360E+00    0.4521796321E-03
    0.4500000000E+07    0.2231458168E-02    0.3456722887E-03    0.6956038164E+00    0.6411771968E+00    0.4533231365E-03
    0.4700000000E+07    0.2056889029E-02    0.3194353377E-03    0.6956028156E+00    0.6425127146E+00    0.4544196113E-03
    0.4900000000E+07    0.1901873869E-02    0.2960779857E-03    0.6956018529E+00    0.6437248280E+00    0.4554728731E-03
    0.1000000000E+07    0.2589829268E-01    0.3696065598E-02    0.6956354143E+00    0.5155176449E+00    0.4169821320E-03
    0.3000000000E+07    0.4683426815E-02    0.7088058774E-03    0.6956129493E+00    0.6244540536E+00    0.4432257732E-03
    0.5000000000E+07    0.1830805022E-02    0.2853495770E-03    0.6956013849E+00    0.6442896304E+00    0.4559843667E-03
    0.7000000000E+07    0.9631453905E-03    0.1531015709E-03    0.6955934718E+00    0.6518397016E+00    0.4645880871E-03
    0.9000000000E+07    0.5915184455E-03    0.9543043600E-04    0.6955874223E+00    0.6557146951E+00    0.4711199651E-03
    0.1100000000E+08    0.3994042074E-03    0.6520525913E-04    0.6955825106E+00    0.6580479180E+00    0.4764014059E-03
    0.1300000000E+08    0.2875017995E-03    0.4740297465E-04    0.6955783685E+00    0.6595989492E+00    0.4808431965E-03
    0.1500000000E+08    0.2167092406E-03    0.3603494401E-04    0.6955747825E+00    0.6607016179E+00    0.4846809924E-03
    0.1700000000E+08    0.1691257420E-03    0.2833192155E-04    0.6955716178E+00    0.6615244507E+00    0.4880628082E-03
    0.1900000000E+08    0.1356235878E-03    0.2286976100E-04    0.6955687837E+00    0.6621613281E+00    0.4910878262E-03
    0.2100000000E+08    0.1111548042E-03    0.1885498686E-04    0.6955662160E+00    0.6626685462E+00    0.4938258212E-03
    0.2300000000E+08    0.9274470742E-04    0.1581693093E-04    0.6955638679E+00    0.6630818511E+00    0.4963277801E-03
    0.2500000000E+08    0.7854856435E-04    0.1346198017E-04    0.6955617037E+00    0.6634250030E+00    0.4986321146E-03
    0.2700000000E+08    0.6737333787E-04    0.1159922486E-04    0.6955596962E+00    0.6637143969E+00    0.5007684975E-03
