  Pressure (Pa) 22mC5-500 (mol/kg) 23mC5-500 (mol/kg) 24mC5-500 (mol/kg) 3mC6-500 (mol/kg) C7-500 (mol/kg)
    0.1000000000E+01    0.1439397706E-04    0.5903008069E-06    0.1741106406E+00    0.3591657537E-05    0.4167953705E-02
    0.3000000000E+01    0.2671394834E-04    0.1091873716E-05    0.3481332018E+00    0.9034798515E-05    0.4191710194E-02
    0.5000000000E+01    0.3197240808E-04    0.1304436157E-05    0.4351125798E+00    0.1400572091E-04    0.4200704681E-02
    0.7000000000E+01    0.3488763276E-04    0.1422107733E-05    0.4872905572E+00    0.1875035773E-04    0.4205679797E-02
    0.9000000000E+01    0.3684108219E-04    0.1501319020E-05    0.5220721099E+00    0.2335094565E-04    0.4208806088E-02
    0.1100000000E+02    0.3835209904E-04    0.1563118313E-05    0.5469143637E+00    0.2784844491E-04    0.4210908312E-02
    0.1300000000E+02    0.3964719539E-04    0.1616604718E-05    0.5655451924E+00    0.3226715785E-04    0.4212379079E-02
    0.1500000000E+02    0.4083523856E-04    0.1666106561E-05    0.5800353717E+00    0.3662305978E-04    0.4213431276E-02
    0.1700000000E+02    0.4197210611E-04    0.1713817962E-05    0.5916272511E+00    0.4092739244E-04    0.4214190985E-02
    0.1900000000E+02    0.4308775743E-04    0.1760897120E-05    0.6011113610E+00    0.4518846207E-04    0.4214737877E-02
    0.2100000000E+02    0.4419867378E-04    0.1807968201E-05    0.6090146926E+00    0.4941263576E-04    0.4215124875E-02
    0.2300000000E+02    0.4531399657E-04    0.1855367482E-05    0.6157020705E+00    0.5360493644E-04    0.4215388564E-02
    0.2500000000E+02    0.4643873029E-04    0.1903270937E-05    0.6214340744E+00    0.5776941922E-04    0.4215555075E-02
    0.2700000000E+02    0.4757548983E-04    0.1951763310E-05    0.6264017909E+00    0.6190942065E-04    0.4215643584E-02
    0.2900000000E+02    0.4872548835E-04    0.2000876845E-05    0.6307485312E+00    0.6602773002E-04    0.4215668496E-02
    0.3100000000E+02    0.4988911187E-04    0.2050613586E-05    0.6345838845E+00    0.7012671085E-04    0.4215640844E-02
    0.3300000000E+02    0.5106626112E-04    0.2100958489E-05    0.6379930853E+00    0.7420838930E-04    0.4215569228E-02
    0.3500000000E+02    0.5225655820E-04    0.2151887241E-05    0.6410434231E+00    0.7827451999E-04    0.4215460454E-02
    0.3700000000E+02    0.5345947304E-04    0.2203370965E-05    0.6437887288E+00    0.8232663592E-04    0.4215319978E-02
    0.3900000000E+02    0.5467440112E-04    0.2255379039E-05    0.6462725794E+00    0.8636608709E-04    0.4215152227E-02
    0.4100000000E+02    0.5590071118E-04    0.2307880783E-05    0.6485306286E+00    0.9039407069E-04    0.4214960832E-02
    0.4300000000E+02    0.5713777423E-04    0.2360846438E-05    0.6505923293E+00    0.9441165510E-04    0.4214748800E-02
    0.4500000000E+02    0.5838498071E-04    0.2414247708E-05    0.6524822252E+00    0.9841979924E-04    0.4214518643E-02
    0.4700000000E+02    0.5964175025E-04    0.2468058032E-05    0.6542209331E+00    0.1024193682E-03    0.4214272474E-02
    0.4900000000E+02    0.6090753660E-04    0.2522252693E-05    0.6558258979E+00    0.1064111461E-03    0.4214012086E-02
    0.1000000000E+02    0.3763377427E-04    0.1533665371E-05    0.5354488776E+00    0.2561080499E-04    0.4209954741E-02
    0.3000000000E+02    0.4930559473E-04    0.2025667966E-05    0.6327243198E+00    0.6807950282E-04    0.4215660654E-02
    0.5000000000E+02    0.6154365025E-04    0.2549486931E-05    0.6565829581E+00    0.1084043390E-03    0.4213877047E-02
    0.7000000000E+02    0.7463449587E-04    0.3109709923E-05    0.6673686032E+00    0.1480036818E-03    0.4210705085E-02
    0.9000000000E+02    0.8824153965E-04    0.3691489260E-05    0.6735154214E+00    0.1873643395E-03    0.4207015659E-02
    0.1100000000E+03    0.1022125757E-03    0.4288363932E-05    0.6774864666E+00    0.2267354267E-03    0.4203065092E-02
    0.1300000000E+03    0.1164774471E-03    0.4897421347E-05    0.6802632662E+00    0.2662701425E-03    0.4198954323E-02
    0.1500000000E+03    0.1310028518E-03    0.5517310037E-05    0.6823141373E+00    0.3060740199E-03    0.4194729891E-02
    0.1700000000E+03    0.1457735029E-03    0.6147430917E-05    0.6838908381E+00    0.3462257886E-03    0.4190415305E-02
    0.1900000000E+03    0.1607836135E-03    0.6787577035E-05    0.6851407736E+00    0.3867878241E-03    0.4186023012E-02
    0.2100000000E+03    0.1760327345E-03    0.7437759418E-05    0.6861559866E+00    0.4278119413E-03    0.4181559639E-02
    0.2300000000E+03    0.1915235851E-03    0.8098117144E-05    0.6869969183E+00    0.4693428568E-03    0.4177028538E-02
    0.2500000000E+03    0.2072608611E-03    0.8768868422E-05    0.6877048985E+00    0.5114203819E-03    0.4172431102E-02
    0.2700000000E+03    0.2232505540E-03    0.9450282887E-05    0.6883091461E+00    0.5540808807E-03    0.4167767512E-02
    0.2900000000E+03    0.2394995500E-03    0.1014266543E-04    0.6888309023E+00    0.5973582766E-03    0.4163037155E-02
    0.3100000000E+03    0.2560153879E-03    0.1084634657E-04    0.6892859796E+00    0.6412847728E-03    0.4158238885E-02
    0.3300000000E+03    0.2728061118E-03    0.1156167669E-04    0.6896863918E+00    0.6858913824E-03    0.4153371184E-02
    0.3500000000E+03    0.2898801818E-03    0.1228902252E-04    0.6900414300E+00    0.7312083306E-03    0.4148432259E-02
    0.3700000000E+03    0.3072464200E-03    0.1302876521E-04    0.6903583927E+00    0.7772653666E-03    0.4143420115E-02
    0.3900000000E+03    0.3249139803E-03    0.1378129918E-04    0.6906430927E+00    0.8240920119E-03    0.4138332590E-02
    0.4100000000E+03    0.3428923333E-03    0.1454703165E-04    0.6909002171E+00    0.8717177628E-03    0.4133167391E-02
    0.4300000000E+03    0.3611912608E-03    0.1532638254E-04    0.6911335867E+00    0.9201722589E-03    0.4127922105E-02
    0.4500000000E+03    0.3798208582E-03    0.1611978466E-04    0.6913463478E+00    0.9694854263E-03    0.4122594217E-02
    0.4700000000E+03    0.3987915413E-03    0.1692768411E-04    0.6915411145E+00    0.1019687603E-02    0.4117181112E-02
    0.4900000000E+03    0.4181140567E-03    0.1775054072E-04    0.6917200768E+00    0.1070809647E-02    0.4111680081E-02
    0.1000000000E+03    0.9518714578E-04    0.3988272947E-05    0.6756937028E+00    0.2070375258E-03    0.4205064819E-02
    0.3000000000E+03    0.2477236215E-03    0.1049307219E-04    0.6890659506E+00    0.6192384262E-03    0.4160646597E-02
    0.5000000000E+03    0.4279107035E-03    0.1816772557E-04    0.6918042204E+00    0.1096725432E-02    0.4108895722E-02
    0.7000000000E+03    0.6452658833E-03    0.2742270903E-04    0.6929843126E+00    0.1671559857E-02    0.4047848249E-02
    0.9000000000E+03    0.9136037123E-03    0.3884749100E-04    0.6936415545E+00    0.2381770035E-02    0.3974052659E-02
    0.1100000000E+04    0.1252992860E-02    0.5329716495E-04    0.6940603666E+00    0.3281494120E-02    0.3882595707E-02
    0.1300000000E+04    0.1693795417E-02    0.7206503635E-04    0.6943505458E+00    0.4452460774E-02    0.3766210276E-02
    0.1500000000E+04    0.2283519839E-02    0.9717473460E-04    0.6945634469E+00    0.6022758027E-02    0.3613792965E-02
    0.1700000000E+04    0.3098380423E-02    0.1318728617E-03    0.6947263002E+00    0.8198533010E-02    0.3408041867E-02
    0.1900000000E+04    0.4260999681E-02    0.1813837025E-03    0.6948548880E+00    0.1131313843E-01    0.3122244508E-02
    0.2100000000E+04    0.5956981718E-02    0.2536170043E-03    0.6949589888E+00    0.1587562976E-01    0.2718786727E-02
    0.2300000000E+04    0.8399747227E-02    0.3576744490E-03    0.6950449837E+00    0.2248474166E-01    0.2162422920E-02
    0.2500000000E+04    0.1159627250E-01    0.4938767942E-03    0.6951172145E+00    0.3120791637E-01    0.1479481347E-02
    0.2700000000E+04    0.1495417680E-01    0.6370193039E-03    0.6951787375E+00    0.4050359260E-01    0.8339807243E-03
    0.2900000000E+04    0.1762902841E-01    0.7511347944E-03    0.6952317669E+00    0.4809617279E-01    0.4100064893E-03
    0.3100000000E+04    0.1945010731E-01    0.8289268678E-03    0.6952779457E+00    0.5347519647E-01    0.2079212279E-03
    0.3300000000E+04    0.2073930093E-01    0.8840870848E-03    0.6953185191E+00    0.5747053030E-01    0.1281265359E-03
    0.3500000000E+04    0.2177411523E-01    0.9284287278E-03    0.6953544476E+00    0.6081702436E-01    0.9915229453E-04
    0.3700000000E+04    0.2269028337E-01    0.9677314749E-03    0.6953864845E+00    0.6387748902E-01    0.8901494506E-04
    0.3900000000E+04    0.2354328222E-01    0.1004357672E-02    0.6954152284E+00    0.6680051026E-01    0.8558642121E-04
    0.4100000000E+04    0.2435480770E-01    0.1039230838E-02    0.6954411612E+00    0.6964361970E-01    0.8451890736E-04
    0.4300000000E+04    0.2513359587E-01    0.1072722381E-02    0.6954646753E+00    0.7242916726E-01    0.8427887725E-04
    0.4500000000E+04    0.2588354166E-01    0.1104997446E-02    0.6954860931E+00    0.7516630814E-01    0.8432659474E-04
    0.4700000000E+04    0.2660672786E-01    0.1136143987E-02    0.6955056824E+00    0.7785927149E-01    0.8447166571E-04
    0.4900000000E+04    0.2730454089E-01    0.1166220310E-02    0.6955236671E+00    0.8051042754E-01    0.8464679123E-04
    0.1000000000E+04    0.1072823133E-02    0.4562632643E-04    0.6938718495E+00    0.2803653586E-02    0.3930917039E-02
    0.3000000000E+04    0.1862910491E-01    0.7938408355E-03    0.6952556270E+00    0.5101914438E-01    0.2873297188E-03
    0.5000000000E+04    0.2764428262E-01    0.1180871830E-02    0.6955321180E+00    0.8182085679E-01    0.8473744144E-04
    0.7000000000E+04    0.3332898865E-01    0.1427015077E-02    0.6956502479E+00    0.1061433418E+00    0.8633672308E-04
    0.9000000000E+04    0.3735266648E-01    0.1602849667E-02    0.6957156393E+00    0.1274868592E+00    0.8755521751E-04
    0.1100000000E+05    0.4019694782E-01    0.1728579923E-02    0.6957570909E+00    0.1465242858E+00    0.8853974227E-04
    0.1300000000E+05    0.4218372408E-01    0.1817735664E-02    0.6957856720E+00    0.1637275211E+00    0.8936736615E-04
    0.1500000000E+05    0.4353500706E-01    0.1879668433E-02    0.6958065437E+00    0.1794381862E+00    0.9008222316E-04
    0.1700000000E+05    0.4440801331E-01    0.1921015685E-02    0.6958224358E+00    0.1939103120E+00    0.9071200042E-04
    0.1900000000E+05    0.4491659826E-01    0.1946596087E-02    0.6958349270E+00    0.2073372191E+00    0.9127523464E-04
    0.2100000000E+05    0.4514481434E-01    0.1959976370E-02    0.6958449936E+00    0.2198690307E+00    0.9178495783E-04
    0.2300000000E+05    0.4515574887E-01    0.1963841195E-02    0.6958532715E+00    0.2316244231E+00    0.9225068806E-04
    0.2500000000E+05    0.4499743834E-01    0.1960240929E-02    0.6958601928E+00    0.2426987157E+00    0.9267959304E-04
    0.2700000000E+05    0.4470691888E-01    0.1950761522E-02    0.6958660610E+00    0.2531695675E+00    0.9307720783E-04
    0.2900000000E+05    0.4431305768E-01    0.1936643395E-02    0.6958710957E+00    0.2631010701E+00    0.9344789751E-04
    0.3100000000E+05    0.4383856888E-01    0.1918866191E-02    0.6958754597E+00    0.2725467413E+00    0.9379516638E-04
    0.3300000000E+05    0.4330147273E-01    0.1898210198E-02    0.6958792759E+00    0.2815517503E+00    0.9412187119E-04
    0.3500000000E+05    0.4271616751E-01    0.1875301531E-02    0.6958826393E+00    0.2901545961E+00    0.9443037200E-04
    0.3700000000E+05    0.4209422771E-01    0.1850645823E-02    0.6958856241E+00    0.2983883903E+00    0.9472264145E-04
    0.3900000000E+05    0.4144500567E-01    0.1824653661E-02    0.6958882893E+00    0.3062818485E+00    0.9500034549E-04
    0.4100000000E+05    0.4077609030E-01    0.1797660007E-02    0.6958906822E+00    0.3138600670E+00    0.9526490408E-04
    0.4300000000E+05    0.4009366030E-01    0.1769939177E-02    0.6958928413E+00    0.3211451351E+00    0.9551753750E-04
    0.4500000000E+05    0.3940275889E-01    0.1741716513E-02    0.6958947983E+00    0.3281566245E+00    0.9575930227E-04
    0.4700000000E+05    0.3870750921E-01    0.1713177549E-02    0.6958965793E+00    0.3349119826E+00    0.9599111934E-04
    0.4900000000E+05    0.3801128470E-01    0.1684475276E-02    0.6958982062E+00    0.3414268511E+00    0.9621379639E-04
    0.1000000000E+05    0.3889923025E-01    0.1671011671E-02    0.6957384580E+00    0.1372606368E+00    0.8807083437E-04
    0.3000000000E+05    0.4408466958E-01    0.1928159332E-02    0.6958733531E+00    0.2678816378E+00    0.9362426784E-04
    0.5000000000E+05    0.3766369004E-01    0.1670103261E-02    0.6958989678E+00    0.3445985614E+00    0.9632193332E-04
    0.7000000000E+05    0.3110611193E-01    0.1394887249E-02    0.6959093582E+00    0.3982141825E+00    0.9814077329E-04
    0.9000000000E+05    0.2567890437E-01    0.1162523827E-02    0.6959147982E+00    0.4381172829E+00    0.9952152174E-04
    0.1100000000E+06    0.2136584036E-01    0.9752926586E-03    0.6959180450E+00    0.4688643266E+00    0.1006379035E-03
    0.1300000000E+06    0.1795711295E-01    0.8257043077E-03    0.6959201418E+00    0.4931415588E+00    0.1015767815E-03
    0.1500000000E+06    0.1524870155E-01    0.7057700943E-03    0.6959215675E+00    0.5126859144E+00    0.1023879805E-03
    0.1700000000E+06    0.1307700419E-01    0.6088521599E-03    0.6959225713E+00    0.5286796079E+00    0.1031027928E-03
    0.1900000000E+06    0.1131762757E-01    0.5297961981E-03    0.6959232947E+00    0.5419547907E+00    0.1037421858E-03
    0.2100000000E+06    0.9877388652E-02    0.4646833782E-03    0.6959238242E+00    0.5531121304E+00    0.1043209095E-03
    0.2300000000E+06    0.8686520678E-02    0.4105457524E-03    0.6959242148E+00    0.5625942125E+00    0.1048497417E-03
    0.2500000000E+06    0.7692494030E-02    0.3651275753E-03    0.6959245033E+00    0.5707329665E+00    0.1053368023E-03
    0.2700000000E+06    0.6855425420E-02    0.3267024811E-03    0.6959247153E+00    0.5777812651E+00    0.1057883633E-03
    0.2900000000E+06    0.6144744513E-02    0.2939380351E-03    0.6959248686E+00    0.5839344907E+00    0.1062093723E-03
    0.3100000000E+06    0.5536787992E-02    0.2657965163E-03    0.6959249764E+00    0.5893455533E+00    0.1066038024E-03
    0.3300000000E+06    0.5013059754E-02    0.2414623314E-03    0.6959250485E+00    0.5941355343E+00    0.1069748928E-03
    0.3500000000E+06    0.4558965488E-02    0.2202887160E-03    0.6959250921E+00    0.5984013486E+00    0.1073253201E-03
    0.3700000000E+06    0.4162885138E-02    0.2017583512E-03    0.6959251129E+00    0.6022213406E+00    0.1076573220E-03
    0.3900000000E+06    0.3815487104E-02    0.1854540394E-03    0.6959251153E+00    0.6056594245E+00    0.1079727883E-03
    0.4100000000E+06    0.3509216564E-02    0.1710366900E-03    0.6959251027E+00    0.6087681859E+00    0.1082733301E-03
    0.4300000000E+06    0.3237910242E-02    0.1582286540E-03    0.6959250779E+00    0.6115912309E+00    0.1085603319E-03
    0.4500000000E+06    0.2996503773E-02    0.1468010000E-03    0.6959250430E+00    0.6141649848E+00    0.1088349928E-03
    0.4700000000E+06    0.2780807471E-02    0.1365637204E-03    0.6959249998E+00    0.6165200816E+00    0.1090983577E-03
    0.4900000000E+06    0.2587333079E-02    0.1273581323E-03    0.6959249498E+00    0.6186824494E+00    0.1093513436E-03
    0.1000000000E+06    0.2339541863E-01    0.1063676904E-02    0.6959166106E+00    0.4544383959E+00    0.1001061217E-03
    0.3000000000E+06    0.5829186055E-02    0.2793448867E-03    0.6959249275E+00    0.5867245805E+00    0.1064096923E-03
    0.5000000000E+06    0.2497996982E-02    0.1230997099E-03    0.6959249226E+00    0.6196983895E+00    0.1094742007E-03
    0.7000000000E+06    0.1370485611E-02    0.6883530764E-04    0.6959242176E+00    0.6338464321E+00    0.1115407646E-03
    0.9000000000E+06    0.8620031978E-03    0.4392579393E-04    0.6959234316E+00    0.6415855162E+00    0.1131097003E-03
    0.1100000000E+07    0.5910345760E-03    0.3047020512E-04    0.6959226774E+00    0.6464357494E+00    0.1143782968E-03
    0.1300000000E+07    0.4300086345E-03    0.2238546515E-04    0.6959219776E+00    0.6497504219E+00    0.1154452188E-03
    0.1500000000E+07    0.3266822490E-03    0.1714928514E-04    0.6959213329E+00    0.6521552994E+00    0.1163670674E-03
    0.1700000000E+07    0.2564911683E-03    0.1356360432E-04    0.6959207384E+00    0.6539780771E+00    0.1171793935E-03
    0.1900000000E+07    0.2066642328E-03    0.1100015442E-04    0.6959201884E+00    0.6554064680E+00    0.1179060196E-03
    0.2100000000E+07    0.1700332673E-03    0.9103652042E-05    0.6959196774E+00    0.6565555458E+00    0.1185637046E-03
    0.2300000000E+07    0.1423246942E-03    0.7660872704E-05    0.6959192005E+00    0.6574997010E+00    0.1191646950E-03
    0.2500000000E+07    0.1208631962E-03    0.6537538117E-05    0.6959187538E+00    0.6582891227E+00    0.1197182170E-03
    0.2700000000E+07    0.1039050655E-03    0.5645654770E-05    0.6959183337E+00    0.6589588814E+00    0.1202313976E-03
    0.2900000000E+07    0.9027461745E-04    0.4925599259E-05    0.6959179373E+00    0.6595342137E+00    0.1207098589E-03
    0.3100000000E+07    0.7915591897E-04    0.4335803235E-05    0.6959175620E+00    0.6600337377E+00    0.1211581156E-03
    0.3300000000E+07    0.6996841669E-04    0.3846564359E-05    0.6959172058E+00    0.6604714862E+00    0.1215798487E-03
    0.3500000000E+07    0.6228996237E-04    0.3436199068E-05    0.6959168668E+00    0.6608582347E+00    0.1219780997E-03
    0.3700000000E+07    0.5580767000E-04    0.3088576351E-05    0.6959165434E+00    0.6612023933E+00    0.1223554114E-03
    0.3900000000E+07    0.5028567465E-04    0.2791493569E-05    0.6959162342E+00    0.6615106217E+00    0.1227139315E-03
    0.4100000000E+07    0.4554346407E-04    0.2535580968E-05    0.6959159379E+00    0.6617882613E+00    0.1230554907E-03
    0.4300000000E+07    0.4144099978E-04    0.2313546921E-05    0.6959156536E+00    0.6620396456E+00    0.1233816625E-03
    0.4500000000E+07    0.3786830177E-04    0.2119647898E-05    0.6959153803E+00    0.6622683273E+00    0.1236938094E-03
    0.4700000000E+07    0.3473802981E-04    0.1949309790E-05    0.6959151172E+00    0.6624772465E+00    0.1239931191E-03
    0.4900000000E+07    0.3198011549E-04    0.1798853128E-05    0.6959148634E+00    0.6626688567E+00    0.1242806333E-03
    0.1000000000E+07    0.7075543279E-03    0.3627596628E-04    0.6959230482E+00    0.6442615625E+00    0.1137740028E-03
    0.3000000000E+07    0.8444202733E-04    0.4616499739E-05    0.6959177472E+00    0.6597924854E+00    0.1209375158E-03
    0.5000000000E+07    0.3072262707E-04    0.1730124232E-05    0.6959147399E+00    0.6627588291E+00    0.1244202585E-03
    0.7000000000E+07    0.1573703169E-04    0.9032518946E-06    0.6959126335E+00    0.6640126910E+00    0.1267688832E-03
    0.9000000000E+07    0.9543324271E-05    0.5553375193E-06    0.6959110049E+00    0.6647045634E+00    0.1285519661E-03
    0.1100000000E+08    0.6402146457E-05    0.3764941942E-06    0.6959096735E+00    0.6651430610E+00    0.1299937183E-03
    0.1300000000E+08    0.4593821567E-05    0.2724168874E-06    0.6959085453E+00    0.6654458172E+00    0.1312062698E-03
    0.1500000000E+08    0.3458681971E-05    0.2064933068E-06    0.6959075651E+00    0.6656674119E+00    0.1322539465E-03
    0.1700000000E+08    0.2699799287E-05    0.1620807826E-06    0.6959066975E+00    0.6658366236E+00    0.1331771517E-03
    0.1900000000E+08    0.2167546183E-05    0.1307225479E-06    0.6959059188E+00    0.6659700638E+00    0.1340029591E-03
    0.2100000000E+08    0.1779889140E-05    0.1077484399E-06    0.6959052120E+00    0.6660779918E+00    0.1347504154E-03
    0.2300000000E+08    0.1488806956E-05    0.9040704355E-07    0.6959045644E+00    0.6661670862E+00    0.1354334384E-03
    0.2500000000E+08    0.1264674275E-05    0.7699117903E-07    0.6959039667E+00    0.6662418817E+00    0.1360625137E-03
    0.2700000000E+08    0.1088411432E-05    0.6639564223E-07    0.6959034116E+00    0.6663055653E+00    0.1366457411E-03
