  Pressure (Pa) 22mC5-500 (mol/kg) 23mC5-500 (mol/kg) 24mC5-500 (mol/kg) 3mC6-500 (mol/kg) C7-500 (mol/kg)
    0.1000000000E+01    0.1459742800E-04    0.2395747621E-05    0.1741119525E+00    0.2040776500E-05    0.4146535888E-02
    0.3000000000E+01    0.2714208621E-04    0.4440189695E-05    0.3481386864E+00    0.5032914395E-05    0.4172115571E-02
    0.5000000000E+01    0.3258609908E-04    0.5321945069E-05    0.4351214419E+00    0.7741830444E-05    0.4179169198E-02
    0.7000000000E+01    0.3566860071E-04    0.5821033778E-05    0.4873019747E+00    0.1031559900E-04    0.4182629092E-02
    0.9000000000E+01    0.3777761773E-04    0.6164293068E-05    0.5220855081E+00    0.1280321114E-04    0.4184643504E-02
    0.1100000000E+02    0.3943566065E-04    0.6436453932E-05    0.5469293439E+00    0.1522893983E-04    0.4185913108E-02
    0.1300000000E+02    0.4087107926E-04    0.6674224779E-05    0.5655614698E+00    0.1760713651E-04    0.4186744234E-02
    0.1500000000E+02    0.4219392814E-04    0.6895120465E-05    0.5800527360E+00    0.1994721099E-04    0.4187294196E-02
    0.1700000000E+02    0.4346090865E-04    0.7108057326E-05    0.5916455425E+00    0.2225577156E-04    0.4187652678E-02
    0.1900000000E+02    0.4470258177E-04    0.7317770284E-05    0.6011304550E+00    0.2453769290E-04    0.4187874756E-02
    0.2100000000E+02    0.4593588525E-04    0.7526833494E-05    0.6090344904E+00    0.2679670636E-04    0.4187996200E-02
    0.2300000000E+02    0.4717031743E-04    0.7736652662E-05    0.6157224919E+00    0.2903575197E-04    0.4188041287E-02
    0.2500000000E+02    0.4841116862E-04    0.7947980203E-05    0.6214550533E+00    0.3125720063E-04    0.4188027088E-02
    0.2700000000E+02    0.4966128719E-04    0.8161194736E-05    0.6264232723E+00    0.3346300114E-04    0.4187965959E-02
    0.2900000000E+02    0.5092208010E-04    0.8376458138E-05    0.6307704687E+00    0.3565478111E-04    0.4187867073E-02
    0.3100000000E+02    0.5219409657E-04    0.8593806282E-05    0.6346062384E+00    0.3783391844E-04    0.4187737379E-02
    0.3300000000E+02    0.5347737629E-04    0.8813202587E-05    0.6380158214E+00    0.4000159329E-04    0.4187582239E-02
    0.3500000000E+02    0.5477166099E-04    0.9034570113E-05    0.6410665118E+00    0.4215882677E-04    0.4187405856E-02
    0.3700000000E+02    0.5607652443E-04    0.9257810977E-05    0.6438121442E+00    0.4430651025E-04    0.4187211572E-02
    0.3900000000E+02    0.5739145300E-04    0.9482818124E-05    0.6462962988E+00    0.4644542799E-04    0.4187002074E-02
    0.4100000000E+02    0.5871589554E-04    0.9709482434E-05    0.6485546317E+00    0.4857627487E-04    0.4186779551E-02
    0.4300000000E+02    0.6004929409E-04    0.9937696927E-05    0.6506165980E+00    0.5069967044E-04    0.4186545799E-02
    0.4500000000E+02    0.6139110243E-04    0.1016735917E-04    0.6525067435E+00    0.5281617023E-04    0.4186302307E-02
    0.4700000000E+02    0.6274079692E-04    0.1039837256E-04    0.6542456864E+00    0.5492627495E-04    0.4186050320E-02
    0.4900000000E+02    0.6409788240E-04    0.1063064690E-04    0.6558508731E+00    0.5703043802E-04    0.4185790887E-02
    0.1000000000E+02    0.3864475541E-04    0.6306318685E-05    0.5354631084E+00    0.1402276097E-04    0.4185347214E-02
    0.3000000000E+02    0.5155667395E-04    0.8484872660E-05    0.6327464700E+00    0.3674585222E-04    0.4187805711E-02
    0.5000000000E+02    0.6477905054E-04    0.1074723052E-04    0.6566080397E+00    0.5808042174E-04    0.4185658661E-02
    0.7000000000E+02    0.7869482070E-04    0.1312810491E-04    0.6673953514E+00    0.7885143257E-04    0.4182780946E-02
    0.9000000000E+02    0.9299772778E-04    0.1557325445E-04    0.6735432942E+00    0.9933859088E-04    0.4179669326E-02
    0.1100000000E+03    0.1075492902E-03    0.1805916410E-04    0.6775151727E+00    0.1196826979E-03    0.4176458939E-02
    0.1300000000E+03    0.1222862954E-03    0.2057536119E-04    0.6802926266E+00    0.1399683901E-03    0.4173198636E-02
    0.1500000000E+03    0.1371789215E-03    0.2311702926E-04    0.6823440327E+00    0.1602522657E-03    0.4169908700E-02
    0.1700000000E+03    0.1522133256E-03    0.2568201558E-04    0.6839211839E+00    0.1805750412E-03    0.4166598038E-02
    0.1900000000E+03    0.1673838419E-03    0.2826951125E-04    0.6851715069E+00    0.2009676369E-03    0.4163270462E-02
    0.2100000000E+03    0.1826892133E-03    0.3087942134E-04    0.6861870591E+00    0.2214545492E-03    0.4159927313E-02
    0.2300000000E+03    0.1981306543E-03    0.3351204484E-04    0.6870282919E+00    0.2420558624E-03    0.4156568679E-02
    0.2500000000E+03    0.2137108049E-03    0.3616790356E-04    0.6877365423E+00    0.2627885208E-03    0.4153193985E-02
    0.2700000000E+03    0.2294331441E-03    0.3884764733E-04    0.6883410348E+00    0.2836671703E-03    0.4149802314E-02
    0.2900000000E+03    0.2453016505E-03    0.4155199992E-04    0.6888630148E+00    0.3047047364E-03    0.4146392563E-02
    0.3100000000E+03    0.2613206029E-03    0.4428172758E-04    0.6893182979E+00    0.3259128337E-03    0.4142963548E-02
    0.3300000000E+03    0.2774944604E-03    0.4703762073E-04    0.6897189004E+00    0.3473020646E-03    0.4139514044E-02
    0.3500000000E+03    0.2938277922E-03    0.4982048322E-04    0.6900741156E+00    0.3688822412E-03    0.4136042823E-02
    0.3700000000E+03    0.3103252348E-03    0.5263112630E-04    0.6903912437E+00    0.3906625542E-03    0.4132548664E-02
    0.3900000000E+03    0.3269914684E-03    0.5547036534E-04    0.6906760989E+00    0.4126517040E-03    0.4129030364E-02
    0.4100000000E+03    0.3438312043E-03    0.5833901827E-04    0.6909333693E+00    0.4348580030E-03    0.4125486738E-02
    0.4300000000E+03    0.3608491792E-03    0.6123790519E-04    0.6911668768E+00    0.4572894585E-03    0.4121916625E-02
    0.4500000000E+03    0.3780501542E-03    0.6416784853E-04    0.6913797685E+00    0.4799538389E-03    0.4118318881E-02
    0.4700000000E+03    0.3954389167E-03    0.6712967366E-04    0.6915746593E+00    0.5028587281E-03    0.4114692381E-02
    0.4900000000E+03    0.4130202839E-03    0.7012420979E-04    0.6917537397E+00    0.5260115716E-03    0.4111036017E-02
    0.1000000000E+03    0.1002474742E-03    0.1681195573E-04    0.6757220199E+00    0.1095223682E-03    0.4178072413E-02
    0.3000000000E+03    0.2532920455E-03    0.4291364288E-04    0.6890981681E+00    0.3152867852E-03    0.4144680540E-02
    0.5000000000E+03    0.4218847090E-03    0.7163400489E-04    0.6918379403E+00    0.5376832743E-03    0.4109196294E-02
    0.7000000000E+03    0.6105033158E-03    0.1037561925E-03    0.6930189580E+00    0.7859178028E-03    0.4070570063E-02
    0.9000000000E+03    0.8243963561E-03    0.1401787747E-03    0.6936768670E+00    0.1067490033E-02    0.4027715865E-02
    0.1100000000E+04    0.1069816826E-02    0.1819684949E-03    0.6940962003E+00    0.1390895171E-02    0.3979463762E-02
    0.1300000000E+04    0.1354613728E-02    0.2304630646E-03    0.6943868070E+00    0.1766681094E-02    0.3924420131E-02
    0.1500000000E+04    0.1688939899E-02    0.2873923076E-03    0.6946000706E+00    0.2208462325E-02    0.3860837508E-02
    0.1700000000E+04    0.2086202183E-02    0.3550402558E-03    0.6947632384E+00    0.2734223614E-02    0.3786459296E-02
    0.1900000000E+04    0.2564396621E-02    0.4364727584E-03    0.6948921042E+00    0.3368138331E-02    0.3698314342E-02
    0.2100000000E+04    0.3148003882E-02    0.5358605563E-03    0.6949964539E+00    0.4143153134E-02    0.3592438527E-02
    0.2300000000E+04    0.3870638563E-02    0.6589308993E-03    0.6950826743E+00    0.5104618200E-02    0.3463506155E-02
    0.2500000000E+04    0.4778552886E-02    0.8135649657E-03    0.6951551112E+00    0.6315131718E-02    0.3304383647E-02
    0.2700000000E+04    0.5934605563E-02    0.1010475025E-02    0.6952168241E+00    0.7860137929E-02    0.3105722502E-02
    0.2900000000E+04    0.7420672478E-02    0.1263617069E-02    0.6952700293E+00    0.9851666152E-02    0.2856008310E-02
    0.3100000000E+04    0.9332157977E-02    0.1589259152E-02    0.6953163721E+00    0.1242182447E-01    0.2543193241E-02
    0.3300000000E+04    0.1175002060E-01    0.2001220547E-02    0.6953570990E+00    0.1568643471E-01    0.2160207315E-02
    0.3500000000E+04    0.1467109535E-01    0.2499004777E-02    0.6953931720E+00    0.1965221915E-01    0.1716672880E-02
    0.3700000000E+04    0.1791167414E-01    0.3051366442E-02    0.6954253451E+00    0.2408536025E-01    0.1252321298E-02
    0.3900000000E+04    0.2109840226E-01    0.3594735076E-02    0.6954542180E+00    0.2849280713E-01    0.8323552358E-03
    0.4100000000E+04    0.2385873618E-01    0.4065636218E-02    0.6954802733E+00    0.3237184011E-01    0.5115661260E-03
    0.4300000000E+04    0.2604333859E-01    0.4438586748E-02    0.6955039039E+00    0.3551109823E-01    0.3016861563E-03
    0.4500000000E+04    0.2772616005E-01    0.4726140352E-02    0.6955254331E+00    0.3799873619E-01    0.1793000660E-03
    0.4700000000E+04    0.2906038350E-01    0.4954364484E-02    0.6955451288E+00    0.4003342426E-01    0.1129136629E-03
    0.4900000000E+04    0.3017816664E-01    0.5145759576E-02    0.6955632155E+00    0.4178934109E-01    0.7832585280E-04
    0.1000000000E+04    0.9427199325E-03    0.1603267608E-03    0.6939074368E+00    0.1223363386E-02    0.4004344941E-02
    0.3000000000E+04    0.8317264175E-02    0.1416356569E-02    0.6952939728E+00    0.1105603828E-01    0.2708151458E-02
    0.5000000000E+04    0.3068464048E-01    0.5232541681E-02    0.6955717159E+00    0.4260092850E-01    0.6801570552E-04
    0.7000000000E+04    0.3856101610E-01    0.6586062223E-02    0.6956906700E+00    0.5630916293E-01    0.4320362071E-04
    0.9000000000E+04    0.4463801351E-01    0.7635486443E-02    0.6957566788E+00    0.6837195617E-01    0.4378010197E-04
    0.1100000000E+05    0.4949293623E-01    0.8478160105E-02    0.6957986253E+00    0.7932516470E-01    0.4427235853E-04
    0.1300000000E+05    0.5340564429E-01    0.9161088924E-02    0.6958276199E+00    0.8937777199E-01    0.4468621841E-04
    0.1500000000E+05    0.5657897423E-01    0.9718382561E-02    0.6958488473E+00    0.9868622431E-01    0.4504368877E-04
    0.1700000000E+05    0.5916335851E-01    0.1017537009E-01    0.6958650515E+00    0.1073704085E+00    0.4535861450E-04
    0.1900000000E+05    0.6127251045E-01    0.1055122286E-01    0.6958778211E+00    0.1155239135E+00    0.4564026497E-04
    0.2100000000E+05    0.6299383287E-01    0.1086069621E-01    0.6958881391E+00    0.1232209944E+00    0.4589515690E-04
    0.2300000000E+05    0.6439550207E-01    0.1111531551E-01    0.6958966462E+00    0.1305214168E+00    0.4612804987E-04
    0.2500000000E+05    0.6553139762E-01    0.1132420218E-01    0.6959037781E+00    0.1374739015E+00    0.4634252811E-04
    0.2700000000E+05    0.6644460176E-01    0.1149466041E-01    0.6959098413E+00    0.1441186219E+00    0.4654135947E-04
    0.2900000000E+05    0.6716992761E-01    0.1163260129E-01    0.6959150575E+00    0.1504890460E+00    0.4672672673E-04
    0.3100000000E+05    0.6773577523E-01    0.1174285451E-01    0.6959195913E+00    0.1566133163E+00    0.4690038224E-04
    0.3300000000E+05    0.6816551391E-01    0.1182940052E-01    0.6959235671E+00    0.1625152991E+00    0.4706375454E-04
    0.3500000000E+05    0.6847852523E-01    0.1189554598E-01    0.6959270811E+00    0.1682153913E+00    0.4721802378E-04
    0.3700000000E+05    0.6869099964E-01    0.1194405778E-01    0.6959302084E+00    0.1737311494E+00    0.4736417640E-04
    0.3900000000E+05    0.6881655146E-01    0.1197726658E-01    0.6959330089E+00    0.1790777845E+00    0.4750304547E-04
    0.4100000000E+05    0.6886669855E-01    0.1199714767E-01    0.6959355305E+00    0.1842685554E+00    0.4763534105E-04
    0.4300000000E+05    0.6885123992E-01    0.1200538464E-01    0.6959378126E+00    0.1893150845E+00    0.4776167335E-04
    0.4500000000E+05    0.6877855553E-01    0.1200341999E-01    0.6959398870E+00    0.1942276131E+00    0.4788257068E-04
    0.4700000000E+05    0.6865584631E-01    0.1199249570E-01    0.6959417807E+00    0.1990152097E+00    0.4799849359E-04
    0.4900000000E+05    0.6848932764E-01    0.1197368588E-01    0.6959435158E+00    0.2036859413E+00    0.4810984594E-04
    0.1000000000E+05    0.4719856100E-01    0.8079364005E-02    0.6957797571E+00    0.7397271844E-01    0.4403788047E-04
    0.3000000000E+05    0.6747122133E-01    0.1169092247E-01    0.6959174012E+00    0.1535803690E+00    0.4681492259E-04
    0.5000000000E+05    0.6839135188E-01    0.1196162033E-01    0.6959443298E+00    0.2059797651E+00    0.4816392114E-04
    0.7000000000E+05    0.6512058551E-01    0.1147826896E-01    0.6959556009E+00    0.2471254544E+00    0.4907345531E-04
    0.9000000000E+05    0.6075499627E-01    0.1078088948E-01    0.6959617075E+00    0.2816073166E+00    0.4976391753E-04
    0.1100000000E+06    0.5622935359E-01    0.1003741405E-01    0.6959654921E+00    0.3114048794E+00    0.5032218040E-04
    0.1300000000E+06    0.5187601565E-01    0.9310223441E-02    0.6959680406E+00    0.3375904660E+00    0.5079168054E-04
    0.1500000000E+06    0.4781576735E-01    0.8623801586E-02    0.6959698561E+00    0.3608396105E+00    0.5119733330E-04
    0.1700000000E+06    0.4408438326E-01    0.7986960350E-02    0.6959712030E+00    0.3816248926E+00    0.5155478671E-04
    0.1900000000E+06    0.4068094483E-01    0.7401470951E-02    0.6959722332E+00    0.4003018322E+00    0.5187452574E-04
    0.2100000000E+06    0.3758848186E-01    0.6865829493E-02    0.6959730402E+00    0.4171515092E+00    0.5216392628E-04
    0.2300000000E+06    0.3478348972E-01    0.6377039512E-02    0.6959736842E+00    0.4324037407E+00    0.5242837798E-04
    0.2500000000E+06    0.3224052557E-01    0.5931502986E-02    0.6959742061E+00    0.4462507334E+00    0.5267194116E-04
    0.2700000000E+06    0.2993446408E-01    0.5525479057E-02    0.6959746343E+00    0.4588557315E+00    0.5289775229E-04
    0.2900000000E+06    0.2784157899E-01    0.5155320772E-02    0.6959749892E+00    0.4703588636E+00    0.5310828551E-04
    0.3100000000E+06    0.2594001431E-01    0.4817593014E-02    0.6959752858E+00    0.4808813303E+00    0.5330552751E-04
    0.3300000000E+06    0.2420993247E-01    0.4509125135E-02    0.6959755354E+00    0.4905285478E+00    0.5349109818E-04
    0.3500000000E+06    0.2263349227E-01    0.4227027344E-02    0.6959757467E+00    0.4993925990E+00    0.5366633599E-04
    0.3700000000E+06    0.2119474010E-01    0.3968687103E-02    0.6959759264E+00    0.5075542007E+00    0.5383235986E-04
    0.3900000000E+06    0.1987946104E-01    0.3731754910E-02    0.6959760797E+00    0.5150843154E+00    0.5399011487E-04
    0.4100000000E+06    0.1867501593E-01    0.3514124905E-02    0.6959762108E+00    0.5220454927E+00    0.5414040663E-04
    0.4300000000E+06    0.1757017885E-01    0.3313913474E-02    0.6959763232E+00    0.5284929977E+00    0.5428392753E-04
    0.4500000000E+06    0.1655498258E-01    0.3129437688E-02    0.6959764196E+00    0.5344757687E+00    0.5442127713E-04
    0.4700000000E+06    0.1562057598E-01    0.2959194600E-02    0.6959765023E+00    0.5400372338E+00    0.5455297805E-04
    0.4900000000E+06    0.1475909454E-01    0.2801841934E-02    0.6959765732E+00    0.5452160103E+00    0.5467948871E-04
    0.1000000000E+06    0.5848398546E-01    0.1040969655E-01    0.6959638017E+00    0.2970117672E+00    0.5005625511E-04
    0.3000000000E+06    0.2686816907E-01    0.4982607761E-02    0.6959751440E+00    0.4757357532E+00    0.5320845921E-04
    0.5000000000E+06    0.1435348411E-01    0.2727619598E-02    0.6959766047E+00    0.5476727929E+00    0.5474092592E-04
    0.7000000000E+06    0.8735757985E-02    0.1689376186E-02    0.6959768873E+00    0.5833286864E+00    0.5577435455E-04
    0.9000000000E+06    0.5822758019E-02    0.1141478212E-02    0.6959768508E+00    0.6037053490E+00    0.5655893560E-04
    0.1100000000E+07    0.4140068167E-02    0.8206932141E-03    0.6959767026E+00    0.6165872724E+00    0.5719332652E-04
    0.1300000000E+07    0.3087126451E-02    0.6177515725E-03    0.6959765124E+00    0.6253485451E+00    0.5772686628E-04
    0.1500000000E+07    0.2387042092E-02    0.4815667393E-03    0.6959763081E+00    0.6316411496E+00    0.5818785920E-04
    0.1700000000E+07    0.1899045928E-02    0.3858771040E-03    0.6959761017E+00    0.6363539481E+00    0.5859408322E-04
    0.1900000000E+07    0.1545817995E-02    0.3161242309E-03    0.6959758989E+00    0.6400019641E+00    0.5895745112E-04
    0.2100000000E+07    0.1282165536E-02    0.2637311659E-03    0.6959757021E+00    0.6429018142E+00    0.5928634359E-04
    0.2300000000E+07    0.1080296644E-02    0.2233866064E-03    0.6959755125E+00    0.6452577549E+00    0.5958688471E-04
    0.2500000000E+07    0.9223830516E-03    0.1916622232E-03    0.6959753304E+00    0.6472069200E+00    0.5986368819E-04
    0.2700000000E+07    0.7965736194E-03    0.1662662901E-03    0.6959751557E+00    0.6488445157E+00    0.6012031807E-04
    0.2900000000E+07    0.6947473705E-03    0.1456203756E-03    0.6959749881E+00    0.6502385500E+00    0.6035958580E-04
    0.3100000000E+07    0.6111915415E-03    0.1286089016E-03    0.6959748272E+00    0.6514388076E+00    0.6058374898E-04
    0.3300000000E+07    0.5417945384E-03    0.1144254712E-03    0.6959746728E+00    0.6524825173E+00    0.6079464842E-04
    0.3500000000E+07    0.4835371119E-03    0.1024755291E-03    0.6959745243E+00    0.6533980424E+00    0.6099380513E-04
    0.3700000000E+07    0.4341623484E-03    0.9231295664E-04    0.6959743814E+00    0.6542073505E+00    0.6118249064E-04
    0.3900000000E+07    0.3919562056E-03    0.8359773784E-04    0.6959742438E+00    0.6549277065E+00    0.6136177894E-04
    0.4100000000E+07    0.3555982698E-03    0.7606706192E-04    0.6959741110E+00    0.6555728581E+00    0.6153258554E-04
    0.4300000000E+07    0.3240582139E-03    0.6951520471E-04    0.6959739829E+00    0.6561538818E+00    0.6169569729E-04
    0.4500000000E+07    0.2965226528E-03    0.6377926916E-04    0.6959738591E+00    0.6566797976E+00    0.6185179554E-04
    0.4700000000E+07    0.2723426214E-03    0.5872891384E-04    0.6959737392E+00    0.6571580220E+00    0.6200147423E-04
    0.4900000000E+07    0.2509952936E-03    0.5425884451E-04    0.6959736232E+00    0.6575947070E+00    0.6214525430E-04
    0.1000000000E+07    0.4876363833E-02    0.9615287171E-03    0.6959767847E+00    0.6108137583E+00    0.5689113524E-04
    0.3000000000E+07    0.6509730998E-03    0.1367166320E-03    0.6959749068E+00    0.6508603304E+00    0.6047343193E-04
    0.5000000000E+07    0.2412478857E-03    0.5221396200E-04    0.6959735665E+00    0.6577991136E+00    0.6221507808E-04
    0.7000000000E+07    0.1243473480E-03    0.2745331085E-04    0.6959725860E+00    0.6606029553E+00    0.6338958032E-04
    0.9000000000E+07    0.7557138669E-04    0.1693399047E-04    0.6959718132E+00    0.6621120925E+00    0.6428126840E-04
    0.1100000000E+08    0.5070912765E-04    0.1149789809E-04    0.6959711747E+00    0.6630535726E+00    0.6500226465E-04
    0.1300000000E+08    0.3635354262E-04    0.8324006361E-05    0.6959706298E+00    0.6636965402E+00    0.6560864253E-04
    0.1500000000E+08    0.2732554275E-04    0.6309276005E-05    0.6959701540E+00    0.6641633828E+00    0.6613256995E-04
    0.1700000000E+08    0.2128321206E-04    0.4949941643E-05    0.6959697314E+00    0.6645176844E+00    0.6659425165E-04
    0.1900000000E+08    0.1704262035E-04    0.3989166742E-05    0.6959693511E+00    0.6647957320E+00    0.6700722664E-04
    0.2100000000E+08    0.1395314628E-04    0.3284764241E-05    0.6959690050E+00    0.6650197357E+00    0.6738101967E-04
    0.2300000000E+08    0.1163324969E-04    0.2752805367E-05    0.6959686874E+00    0.6652040483E+00    0.6772259084E-04
    0.2500000000E+08    0.9847228812E-05    0.2341136427E-05    0.6959683938E+00    0.6653583556E+00    0.6803718372E-04
    0.2700000000E+08    0.8443123292E-05    0.2015953233E-05    0.6959681208E+00    0.6654894306E+00    0.6832884888E-04
