  Pressure (Pa) 22mC5-500 (mol/kg) 23mC5-500 (mol/kg) 24mC5-500 (mol/kg) 3mC6-500 (mol/kg) C7-500 (mol/kg)
    0.1000000000E+01    0.1459790814E-04    0.1197914544E-05    0.1741122897E+00    0.4082684204E-05    0.4146165600E-02
    0.3000000000E+01    0.2714519006E-04    0.2220358435E-05    0.3481399203E+00    0.1007342641E-04    0.4171344078E-02
    0.5000000000E+01    0.3259357189E-04    0.2661607485E-05    0.4351232315E+00    0.1550227996E-04    0.4178064975E-02
    0.7000000000E+01    0.3568201742E-04    0.2911657225E-05    0.4873040800E+00    0.2066493244E-04    0.4181222508E-02
    0.9000000000E+01    0.3779846427E-04    0.3083918690E-05    0.5220877926E+00    0.2565911821E-04    0.4182953157E-02
    0.1100000000E+02    0.3946536252E-04    0.3220752230E-05    0.5469317284E+00    0.3053322036E-04    0.4183951977E-02
    0.1300000000E+02    0.4091101712E-04    0.3340508225E-05    0.5655639066E+00    0.3531582414E-04    0.4184522065E-02
    0.1500000000E+02    0.4224544767E-04    0.3451941132E-05    0.5800551955E+00    0.4002565941E-04    0.4184818658E-02
    0.1700000000E+02    0.4352532750E-04    0.3559506730E-05    0.5916480059E+00    0.4467587168E-04    0.4184930005E-02
    0.1900000000E+02    0.4478119457E-04    0.3665570524E-05    0.6011329102E+00    0.4927615250E-04    0.4184910141E-02
    0.2100000000E+02    0.4602996743E-04    0.3771417958E-05    0.6090369294E+00    0.5383391678E-04    0.4184794050E-02
    0.2300000000E+02    0.4728112820E-04    0.3877750508E-05    0.6157249095E+00    0.5835500439E-04    0.4184605392E-02
    0.2500000000E+02    0.4853995338E-04    0.3984943205E-05    0.6214574464E+00    0.6284412304E-04    0.4184360749E-02
    0.2700000000E+02    0.4980927943E-04    0.4093184348E-05    0.6264256386E+00    0.6730514113E-04    0.4184072081E-02
    0.2900000000E+02    0.5109050303E-04    0.4202554002E-05    0.6307728072E+00    0.7174128873E-04    0.4183748227E-02
    0.3100000000E+02    0.5238416445E-04    0.4313069344E-05    0.6346085484E+00    0.7615529988E-04    0.4183395859E-02
    0.3300000000E+02    0.5369029560E-04    0.4424711422E-05    0.6380181029E+00    0.8054951604E-04    0.4183020104E-02
    0.3500000000E+02    0.5500863139E-04    0.4537441187E-05    0.6410687647E+00    0.8492596300E-04    0.4182624961E-02
    0.3700000000E+02    0.5633873964E-04    0.4651209192E-05    0.6438143689E+00    0.8928640921E-04    0.4182213597E-02
    0.3900000000E+02    0.5768010153E-04    0.4765961469E-05    0.6462984957E+00    0.9363241078E-04    0.4181788544E-02
    0.4100000000E+02    0.5903216133E-04    0.4881643069E-05    0.6485568014E+00    0.9796534667E-04    0.4181351856E-02
    0.4300000000E+02    0.6039435713E-04    0.4998200168E-05    0.6506187412E+00    0.1022864467E-03    0.4180905207E-02
    0.4500000000E+02    0.6176613926E-04    0.5115581256E-05    0.6525088607E+00    0.1065968138E-03    0.4180449980E-02
    0.4700000000E+02    0.6314698110E-04    0.5233737777E-05    0.6542477783E+00    0.1108974427E-03    0.4179987325E-02
    0.4900000000E+02    0.6453638492E-04    0.5352624414E-05    0.6558529404E+00    0.1151892343E-03    0.4179518200E-02
    0.1000000000E+02    0.3866985452E-04    0.3155293154E-05    0.5354654504E+00    0.2810908800E-04    0.4183520090E-02
    0.3000000000E+02    0.5173576808E-04    0.4257669027E-05    0.6327487943E+00    0.7395090683E-04    0.4183575256E-02
    0.5000000000E+02    0.6523415065E-04    0.5412328268E-05    0.6566100950E+00    0.1173320753E-03    0.4179281470E-02
    0.7000000000E+02    0.7954299878E-04    0.6636207903E-05    0.6673971982E+00    0.1598907517E-03    0.4174349231E-02
    0.9000000000E+02    0.9435536454E-04    0.7902129082E-05    0.6735449823E+00    0.2021852197E-03    0.4169222415E-02
    0.1100000000E+03    0.1095338451E-03    0.9198426581E-05    0.6775167360E+00    0.2445003932E-03    0.4164010129E-02
    0.1300000000E+03    0.1250173156E-03    0.1052004213E-04    0.6802940892E+00    0.2870114011E-03    0.4158745667E-02
    0.1500000000E+03    0.1407787236E-03    0.1186480355E-04    0.6823454117E+00    0.3298390276E-03    0.4153438840E-02
    0.1700000000E+03    0.1568075121E-03    0.1323191444E-04    0.6839224921E+00    0.3730736130E-03    0.4148090883E-02
    0.1900000000E+03    0.1731017257E-03    0.1462128642E-04    0.6851727543E+00    0.4167869973E-03    0.4142699618E-02
    0.2100000000E+03    0.1896641881E-03    0.1603321963E-04    0.6861882535E+00    0.4610391306E-03    0.4137261467E-02
    0.2300000000E+03    0.2065005325E-03    0.1746823989E-04    0.6870294395E+00    0.5058820191E-03    0.4131772304E-02
    0.2500000000E+03    0.2236181374E-03    0.1892701167E-04    0.6877376483E+00    0.5513622229E-03    0.4126227827E-02
    0.2700000000E+03    0.2410255288E-03    0.2041028971E-04    0.6883421035E+00    0.5975225155E-03    0.4120623719E-02
    0.2900000000E+03    0.2587320375E-03    0.2191889166E-04    0.6888640496E+00    0.6444030315E-03    0.4114955717E-02
    0.3100000000E+03    0.2767475987E-03    0.2345368237E-04    0.6893193020E+00    0.6920420875E-03    0.4109219628E-02
    0.3300000000E+03    0.2950826364E-03    0.2501556498E-04    0.6897198764E+00    0.7404767897E-03    0.4103411329E-02
    0.3500000000E+03    0.3137479982E-03    0.2660547608E-04    0.6900750657E+00    0.7897434945E-03    0.4097526758E-02
    0.3700000000E+03    0.3327549209E-03    0.2822438334E-04    0.6903921699E+00    0.8398781691E-03    0.4091561896E-02
    0.3900000000E+03    0.3521150164E-03    0.2987328472E-04    0.6906770029E+00    0.8909166797E-03    0.4085512752E-02
    0.4100000000E+03    0.3718402705E-03    0.3155320865E-04    0.6909342527E+00    0.9428950281E-03    0.4079375342E-02
    0.4300000000E+03    0.3919430501E-03    0.3326521492E-04    0.6911677409E+00    0.9958495516E-03    0.4073145680E-02
    0.4500000000E+03    0.4124361162E-03    0.3501039596E-04    0.6913806146E+00    0.1049817094E-02    0.4066819756E-02
    0.4700000000E+03    0.4333326410E-03    0.3678987850E-04    0.6915754884E+00    0.1104835157E-02    0.4060393526E-02
    0.4900000000E+03    0.4546462289E-03    0.3860482539E-04    0.6917545528E+00    0.1160942036E-02    0.4053862895E-02
    0.1000000000E+03    0.1019037758E-03    0.8546891985E-05    0.6757236421E+00    0.2233275844E-03    0.4166624022E-02
    0.3000000000E+03    0.2677005455E-03    0.2268295780E-04    0.6890991872E+00    0.6681254005E-03    0.4112096443E-02
    0.5000000000E+03    0.4654637963E-03    0.3952597173E-04    0.6918387457E+00    0.1189415997E-02    0.4050557133E-02
    0.7000000000E+03    0.7074707548E-03    0.6013167514E-04    0.6930196452E+00    0.1826395702E-02    0.3977886663E-02
    0.9000000000E+03    0.1011507064E-02    0.8601699034E-04    0.6936774766E+00    0.2627494981E-02    0.3889177232E-02
    0.1100000000E+04    0.1404088333E-02    0.1194409173E-03    0.6940967539E+00    0.3663844510E-02    0.3777571201E-02
    0.1300000000E+04    0.1926456183E-02    0.1639163691E-03    0.6943873176E+00    0.5046003137E-02    0.3632783642E-02
    0.1500000000E+04    0.2644775515E-02    0.2250793352E-03    0.6946005469E+00    0.6951790696E-02    0.3438850466E-02
    0.1700000000E+04    0.3666544695E-02    0.3120877233E-03    0.6947636866E+00    0.9671398147E-02    0.3170882364E-02
    0.1900000000E+04    0.5160053748E-02    0.4392816278E-03    0.6948925286E+00    0.1366256818E-01    0.2792406775E-02
    0.2100000000E+04    0.7342190032E-02    0.6251519695E-03    0.6949968580E+00    0.1952532422E-01    0.2263272848E-02
    0.2300000000E+04    0.1030620474E-01    0.8776822656E-03    0.6950830608E+00    0.2755180828E-01    0.1588298182E-02
    0.2500000000E+04    0.1361510139E-01    0.1159708737E-02    0.6951554821E+00    0.3662827989E-01    0.9070778040E-03
    0.2700000000E+04    0.1640432543E-01    0.1397610182E-02    0.6952171812E+00    0.4445284534E-01    0.4278936264E-03
    0.2900000000E+04    0.1834353644E-01    0.1563206789E-02    0.6952703741E+00    0.5009574530E-01    0.1897733372E-03
    0.3100000000E+04    0.1970434808E-01    0.1679591005E-02    0.6953167056E+00    0.5424331111E-01    0.9456979314E-04
    0.3300000000E+04    0.2078180417E-01    0.1771876152E-02    0.6953574223E+00    0.5767033997E-01    0.6007567996E-04
    0.3500000000E+04    0.2172804661E-01    0.1853016301E-02    0.6953934860E+00    0.6078073999E-01    0.4804825493E-04
    0.3700000000E+04    0.2260583940E-01    0.1928355799E-02    0.6954256506E+00    0.6374162157E-01    0.4394051771E-04
    0.3900000000E+04    0.2343957909E-01    0.1999971312E-02    0.6954545155E+00    0.6661737165E-01    0.4258526442E-04
    0.4100000000E+04    0.2423896648E-01    0.2068687622E-02    0.6954805635E+00    0.6943273662E-01    0.4218402932E-04
    0.4300000000E+04    0.2500826029E-01    0.2134865870E-02    0.6955041873E+00    0.7219771995E-01    0.4211288429E-04
    0.4500000000E+04    0.2574970503E-01    0.2198695617E-02    0.6955257101E+00    0.7491688125E-01    0.4215482187E-04
    0.4700000000E+04    0.2646478055E-01    0.2260301334E-02    0.6955453998E+00    0.7759275017E-01    0.4223407990E-04
    0.4900000000E+04    0.2715465673E-01    0.2319781157E-02    0.6955634810E+00    0.8022707550E-01    0.4232415964E-04
    0.1000000000E+04    0.1194590620E-02    0.1016044297E-03    0.6939080163E+00    0.3110532920E-02    0.3836777232E-02
    0.3000000000E+04    0.1907432560E-01    0.1625685234E-02    0.6952943118E+00    0.5229916594E-01    0.1306502346E-03
    0.5000000000E+04    0.2749046946E-01    0.2348751037E-02    0.6955719786E+00    0.8152911209E-01    0.4237007320E-04
    0.7000000000E+04    0.3310101706E-01    0.2834735472E-02    0.6956908917E+00    0.1056826343E+00    0.4317073554E-04
    0.9000000000E+04    0.3706122760E-01    0.3180985639E-02    0.6957568737E+00    0.1268610513E+00    0.4378005101E-04
    0.1100000000E+05    0.3985387911E-01    0.3428013426E-02    0.6957988009E+00    0.1457433412E+00    0.4427236913E-04
    0.1300000000E+05    0.4180011621E-01    0.3602821094E-02    0.6958277808E+00    0.1628037238E+00    0.4468622839E-04
    0.1500000000E+05    0.4312057083E-01    0.3723999643E-02    0.6958489964E+00    0.1783843109E+00    0.4504369809E-04
    0.1700000000E+05    0.4397097506E-01    0.3804701899E-02    0.6958651910E+00    0.1927387686E+00    0.4535862328E-04
    0.1900000000E+05    0.4446380175E-01    0.3854450760E-02    0.6958779524E+00    0.2060596753E+00    0.4564027329E-04
    0.2100000000E+05    0.4468189110E-01    0.3880278891E-02    0.6958882633E+00    0.2184962727E+00    0.4589516483E-04
    0.2300000000E+05    0.4468729859E-01    0.3887469491E-02    0.6958967644E+00    0.2301663335E+00    0.4612805744E-04
    0.2500000000E+05    0.4452719596E-01    0.3880050870E-02    0.6959038909E+00    0.2411643082E+00    0.4634253537E-04
    0.2700000000E+05    0.4423790061E-01    0.3861134531E-02    0.6959099493E+00    0.2515670465E+00    0.4654136646E-04
    0.2900000000E+05    0.4384768497E-01    0.3833151177E-02    0.6959151612E+00    0.2614378986E+00    0.4672673347E-04
    0.3100000000E+05    0.4337877211E-01    0.3798018558E-02    0.6959196910E+00    0.2708297092E+00    0.4690038875E-04
    0.3300000000E+05    0.4284877719E-01    0.3757262867E-02    0.6959236633E+00    0.2797870396E+00    0.4706376084E-04
    0.3500000000E+05    0.4227176449E-01    0.3712107886E-02    0.6959271740E+00    0.2883478406E+00    0.4721802989E-04
    0.3700000000E+05    0.4165903309E-01    0.3663541337E-02    0.6959302983E+00    0.2965447288E+00    0.4736418233E-04
    0.3900000000E+05    0.4101970836E-01    0.3612364910E-02    0.6959330959E+00    0.3044059740E+00    0.4750305124E-04
    0.4100000000E+05    0.4036119216E-01    0.3559232409E-02    0.6959356150E+00    0.3119562688E+00    0.4763534666E-04
    0.4300000000E+05    0.3968950922E-01    0.3504679134E-02    0.6959378945E+00    0.3192173375E+00    0.4776167881E-04
    0.4500000000E+05    0.3900957616E-01    0.3449144750E-02    0.6959399667E+00    0.3262084206E+00    0.4788257601E-04
    0.4700000000E+05    0.3832541224E-01    0.3392991240E-02    0.6959418582E+00    0.3329466642E+00    0.4799849879E-04
    0.4900000000E+05    0.3764030586E-01    0.3336517102E-02    0.6959435913E+00    0.3394474360E+00    0.4810985102E-04
    0.1000000000E+05    0.3858051886E-01    0.3314971481E-02    0.6957799416E+00    0.1365558105E+00    0.4403788856E-04
    0.3000000000E+05    0.4362187068E-01    0.3816375136E-02    0.6959175028E+00    0.2661907267E+00    0.4681492921E-04
    0.5000000000E+05    0.3729826021E-01    0.3308238557E-02    0.6959444044E+00    0.3426131505E+00    0.4816392616E-04
    0.7000000000E+05    0.3084240840E-01    0.2766444675E-02    0.6959556604E+00    0.3962169227E+00    0.4907345941E-04
    0.9000000000E+05    0.2549137739E-01    0.2308296814E-02    0.6959617568E+00    0.4362256444E+00    0.4976392100E-04
    0.1100000000E+06    0.2123162119E-01    0.1938495239E-02    0.6959655338E+00    0.4671221921E+00    0.5032218338E-04
    0.1300000000E+06    0.1785973271E-01    0.1642571542E-02    0.6959680764E+00    0.4915585930E+00    0.5079168314E-04
    0.1500000000E+06    0.1517692028E-01    0.1404982718E-02    0.6959698870E+00    0.5112562197E+00    0.5119733558E-04
    0.1700000000E+06    0.1302323277E-01    0.1212762467E-02    0.6959712297E+00    0.5273908431E+00    0.5155478871E-04
    0.1900000000E+06    0.1127671665E-01    0.1055811782E-02    0.6959722564E+00    0.5407926189E+00    0.5187452751E-04
    0.2100000000E+06    0.9845804459E-02    0.9264332628E-03    0.6959730602E+00    0.5520623235E+00    0.5216392783E-04
    0.2300000000E+06    0.8661804090E-02    0.8187851211E-03    0.6959737014E+00    0.5616435763E+00    0.5242837934E-04
    0.2500000000E+06    0.7672908314E-02    0.7284195930E-03    0.6959742208E+00    0.5698696763E+00    0.5267194235E-04
    0.2700000000E+06    0.6839725842E-02    0.6519276297E-03    0.6959746466E+00    0.5769949152E+00    0.5289775332E-04
    0.2900000000E+06    0.6132026166E-02    0.5866747089E-03    0.6959749994E+00    0.5832160124E+00    0.5310828638E-04
    0.3100000000E+06    0.5526384038E-02    0.5306067583E-03    0.6959752940E+00    0.5886870811E+00    0.5330552824E-04
    0.3300000000E+06    0.5004472461E-02    0.4821078434E-03    0.6959755418E+00    0.5935302579E+00    0.5349109879E-04
    0.3500000000E+06    0.4551818854E-02    0.4398954632E-03    0.6959757514E+00    0.5978433710E+00    0.5366633648E-04
    0.3700000000E+06    0.4156891909E-02    0.4029430516E-03    0.6959759295E+00    0.6017055488E+00    0.5383236023E-04
    0.3900000000E+06    0.3810425500E-02    0.3704221913E-03    0.6959760812E+00    0.6051813763E+00    0.5399011514E-04
    0.4100000000E+06    0.3504913668E-02    0.3416591783E-03    0.6959762110E+00    0.6083240120E+00    0.5414040679E-04
    0.4300000000E+06    0.3234229984E-02    0.3161021019E-03    0.6959763220E+00    0.6111775518E+00    0.5428392759E-04
    0.4500000000E+06    0.2993338154E-02    0.2932956881E-03    0.6959764171E+00    0.6137788396E+00    0.5442127709E-04
    0.4700000000E+06    0.2778070076E-02    0.2728619183E-03    0.6959764986E+00    0.6161588685E+00    0.5455297793E-04
    0.4900000000E+06    0.2584954241E-02    0.2544849801E-03    0.6959765683E+00    0.6183438750E+00    0.5467948850E-04
    0.1000000000E+06    0.2323699475E-01    0.2113141223E-02    0.6959638469E+00    0.4526187635E+00    0.5005625832E-04
    0.3000000000E+06    0.5817696371E-02    0.5576024954E-03    0.6959751532E+00    0.5860370190E+00    0.5320846001E-04
    0.5000000000E+06    0.2495775508E-02    0.2459831889E-03    0.6959765992E+00    0.6193703590E+00    0.5474092566E-04
    0.7000000000E+06    0.1369797494E-02    0.1376023388E-03    0.6959768721E+00    0.6336569515E+00    0.5577435358E-04
    0.9000000000E+06    0.8617256129E-03    0.8782364146E-04    0.6959768282E+00    0.6414624977E+00    0.5655893406E-04
    0.1100000000E+07    0.5909021551E-03    0.6092692112E-04    0.6959766740E+00    0.6463495044E+00    0.5719332450E-04
    0.1300000000E+07    0.4299377204E-03    0.4476363508E-04    0.6959764787E+00    0.6496866065E+00    0.5772686385E-04
    0.1500000000E+07    0.3266409266E-03    0.3429428299E-04    0.6959762698E+00    0.6521061605E+00    0.5818785641E-04
    0.1700000000E+07    0.2564654891E-03    0.2712452432E-04    0.6959760594E+00    0.6539390634E+00    0.5859408009E-04
    0.1900000000E+07    0.2066474462E-03    0.2199854224E-04    0.6959758528E+00    0.6553747337E+00    0.5895744769E-04
    0.2100000000E+07    0.1700218364E-03    0.1820609371E-04    0.6959756526E+00    0.6565292206E+00    0.5928633987E-04
    0.2300000000E+07    0.1423166440E-03    0.1532088817E-04    0.6959754599E+00    0.6574775055E+00    0.5958688072E-04
    0.2500000000E+07    0.1208573648E-03    0.1307445200E-04    0.6959752747E+00    0.6582701518E+00    0.5986368395E-04
    0.2700000000E+07    0.1039007392E-03    0.1129084412E-04    0.6959750972E+00    0.6589424770E+00    0.6012031358E-04
    0.2900000000E+07    0.9027134112E-04    0.9850844384E-05    0.6959749269E+00    0.6595198855E+00    0.6035958108E-04
    0.3100000000E+07    0.7915339316E-04    0.8671332219E-05    0.6959747635E+00    0.6600211131E+00    0.6058374405E-04
    0.3300000000E+07    0.6996643886E-04    0.7692913023E-05    0.6959746065E+00    0.6604602768E+00    0.6079464327E-04
    0.3500000000E+07    0.6228839219E-04    0.6872226161E-05    0.6959744557E+00    0.6608482140E+00    0.6099379977E-04
    0.3700000000E+07    0.5580640813E-04    0.6177013913E-05    0.6959743106E+00    0.6611933808E+00    0.6118248509E-04
    0.3900000000E+07    0.5028464945E-04    0.5582873905E-05    0.6959741707E+00    0.6615024716E+00    0.6136177320E-04
    0.4100000000E+07    0.4554262297E-04    0.5071068647E-05    0.6959740359E+00    0.6617808548E+00    0.6153257961E-04
    0.4300000000E+07    0.4144030363E-04    0.4627016305E-05    0.6959739057E+00    0.6620328848E+00    0.6169569119E-04
    0.4500000000E+07    0.3786772099E-04    0.4239230832E-05    0.6959737799E+00    0.6622621309E+00    0.6185178926E-04
    0.4700000000E+07    0.3473754178E-04    0.3898564754E-05    0.6959736581E+00    0.6624715461E+00    0.6200146778E-04
    0.4900000000E+07    0.3197970270E-04    0.3597659675E-05    0.6959735402E+00    0.6626635948E+00    0.6214524768E-04
    0.1000000000E+07    0.7073658441E-03    0.7253283952E-04    0.6959767591E+00    0.6441593695E+00    0.5689113345E-04
    0.3000000000E+07    0.8443915661E-04    0.9232688477E-05    0.6959748443E+00    0.6597790497E+00    0.6047342710E-04
    0.5000000000E+07    0.3072224657E-04    0.3460205428E-05    0.6959734827E+00    0.6627537675E+00    0.6221507138E-04
    0.7000000000E+07    0.1573693789E-04    0.1806492541E-05    0.6959724858E+00    0.6640100447E+00    0.6338957214E-04
    0.9000000000E+07    0.9543295301E-05    0.1110671148E-05    0.6959716995E+00    0.6647029362E+00    0.6428125898E-04
    0.1100000000E+08    0.6402138015E-05    0.7529868832E-06    0.6959710491E+00    0.6651419584E+00    0.6500225413E-04
    0.1300000000E+08    0.4593821043E-05    0.5448332165E-06    0.6959704936E+00    0.6654450201E+00    0.6560863101E-04
    0.1500000000E+08    0.3458684897E-05    0.4129864841E-06    0.6959700082E+00    0.6656668084E+00    0.6613255751E-04
    0.1700000000E+08    0.2699803831E-05    0.3241616480E-06    0.6959695768E+00    0.6658361506E+00    0.6659423835E-04
    0.1900000000E+08    0.2167551507E-05    0.2614452901E-06    0.6959691881E+00    0.6659696829E+00    0.6700721254E-04
    0.2100000000E+08    0.1779894832E-05    0.2154971348E-06    0.6959688342E+00    0.6660776784E+00    0.6738100480E-04
    0.2300000000E+08    0.1488812802E-05    0.1808143754E-06    0.6959685092E+00    0.6661668237E+00    0.6772257525E-04
    0.2500000000E+08    0.1264680160E-05    0.1539826643E-06    0.6959682086E+00    0.6662416586E+00    0.6803716744E-04
    0.2700000000E+08    0.1088417293E-05    0.1327915997E-06    0.6959679289E+00    0.6663053733E+00    0.6832883194E-04
