  Pressure (Pa) 22mC5-500 (mol/kg) 23mC5-500 (mol/kg) 24mC5-500 (mol/kg) 3mC6-500 (mol/kg) C7-500 (mol/kg)
    0.1000000000E+01    0.1531163418E-04    0.1885221630E-05    0.1514057425E+00    0.4082734611E-05    0.4146467541E-02
    0.3000000000E+01    0.2990381509E-04    0.3670682108E-05    0.3165001111E+00    0.1007374222E-04    0.4172647153E-02
    0.5000000000E+01    0.3672048955E-04    0.4499543478E-05    0.4047752753E+00    0.1550302003E-04    0.4180168064E-02
    0.7000000000E+01    0.4063822494E-04    0.4974714855E-05    0.4597287643E+00    0.2066623725E-04    0.4183914227E-02
    0.9000000000E+01    0.4325733010E-04    0.5292928562E-05    0.4972324923E+00    0.2566112064E-04    0.4186087081E-02
    0.1100000000E+02    0.4522880845E-04    0.5533730345E-05    0.5244592653E+00    0.3053604856E-04    0.4187428213E-02
    0.1300000000E+02    0.4685532799E-04    0.5733858399E-05    0.5451243743E+00    0.3531960286E-04    0.4188270590E-02
    0.1500000000E+02    0.4829102282E-04    0.5911884301E-05    0.5613448384E+00    0.4003051076E-04    0.4188788806E-02
    0.1700000000E+02    0.4961966526E-04    0.6077817882E-05    0.5744153990E+00    0.4468191565E-04    0.4189084030E-02
    0.1900000000E+02    0.5088900089E-04    0.6237309374E-05    0.5851724164E+00    0.4928350732E-04    0.4189219194E-02
    0.2100000000E+02    0.5212719726E-04    0.6393654145E-05    0.5941802288E+00    0.5384269926E-04    0.4189235591E-02
    0.2300000000E+02    0.5335127514E-04    0.6548815747E-05    0.6018334296E+00    0.5836533009E-04    0.4189161473E-02
    0.2500000000E+02    0.5457167018E-04    0.6703976812E-05    0.6084162252E+00    0.6285610650E-04    0.4189016837E-02
    0.2700000000E+02    0.5579481204E-04    0.6859848932E-05    0.6141385130E+00    0.6731889599E-04    0.4188816238E-02
    0.2900000000E+02    0.5702463650E-04    0.7016853337E-05    0.6191586776E+00    0.7175692790E-04    0.4188570523E-02
    0.3100000000E+02    0.5826349923E-04    0.7175229412E-05    0.6235984804E+00    0.7617293561E-04    0.4188287938E-02
    0.3300000000E+02    0.5951274214E-04    0.7335101501E-05    0.6275530663E+00    0.8056926004E-04    0.4187974865E-02
    0.3500000000E+02    0.6077305173E-04    0.7496520866E-05    0.6310978602E+00    0.8494792651E-04    0.4187636315E-02
    0.3700000000E+02    0.6204469003E-04    0.7659492484E-05    0.6342934241E+00    0.8931070308E-04    0.4187276279E-02
    0.3900000000E+02    0.6332764538E-04    0.7823992383E-05    0.6371889462E+00    0.9365914552E-04    0.4186897971E-02
    0.4100000000E+02    0.6462173203E-04    0.7989978953E-05    0.6398247914E+00    0.9799463251E-04    0.4186504006E-02
    0.4300000000E+02    0.6592665649E-04    0.8157400386E-05    0.6422343950E+00    0.1023183936E-03    0.4186096537E-02
    0.4500000000E+02    0.6724206190E-04    0.8326199562E-05    0.6444456880E+00    0.1066315317E-03    0.4185677344E-02
    0.4700000000E+02    0.6856755781E-04    0.8496317265E-05    0.6464821855E+00    0.1109350412E-03    0.4185247918E-02
    0.4900000000E+02    0.6990274001E-04    0.8667694264E-05    0.6483638262E+00    0.1152298230E-03    0.4184809512E-02
    0.1000000000E+02    0.4430019775E-04    0.5420108427E-05    0.5118470575E+00    0.2811148752E-04    0.4186835481E-02
    0.3000000000E+02    0.5764283543E-04    0.7095860032E-05    0.6214446467E+00    0.7396753028E-04    0.4188433403E-02
    0.5000000000E+02    0.7057383673E-04    0.8753836828E-05    0.6492519923E+00    0.1173742001E-03    0.4184587279E-02
    0.7000000000E+02    0.8441338237E-04    0.1053017042E-04    0.6619473095E+00    0.1599693510E-03    0.4179859141E-02
    0.9000000000E+02    0.9886421532E-04    0.1238382793E-04    0.6692176897E+00    0.2023113271E-03    0.4174839078E-02
    0.1100000000E+03    0.1137616402E-03    0.1429343764E-04    0.6739283273E+00    0.2446852640E-03    0.4169683052E-02
    0.1300000000E+03    0.1290234926E-03    0.1624860273E-04    0.6772287547E+00    0.2872666094E-03    0.4164444296E-02
    0.1500000000E+03    0.1446084707E-03    0.1824420468E-04    0.6796698041E+00    0.3301765354E-03    0.4159142646E-02
    0.1700000000E+03    0.1604963670E-03    0.2027780506E-04    0.6815484760E+00    0.3735058254E-03    0.4153784961E-02
    0.1900000000E+03    0.1766785511E-03    0.2234841839E-04    0.6830390480E+00    0.4173268106E-03    0.4148372473E-02
    0.2100000000E+03    0.1931531221E-03    0.2445589523E-04    0.6842505284E+00    0.4616999767E-03    0.4142903790E-02
    0.2300000000E+03    0.2099223024E-03    0.2660059378E-04    0.6852545955E+00    0.5066779074E-03    0.4137376245E-02
    0.2500000000E+03    0.2269909687E-03    0.2878319648E-04    0.6861003175E+00    0.5523077818E-03    0.4131786542E-02
    0.2700000000E+03    0.2443657931E-03    0.3100460364E-04    0.6868224159E+00    0.5986330341E-03    0.4126131072E-02
    0.2900000000E+03    0.2620547248E-03    0.3326586985E-04    0.6874461520E+00    0.6456945011E-03    0.4120406070E-02
    0.3100000000E+03    0.2800666713E-03    0.3556816513E-04    0.6879903430E+00    0.6935312456E-03    0.4114607701E-02
    0.3300000000E+03    0.2984112991E-03    0.3791275104E-04    0.6884692943E+00    0.7421811641E-03    0.4108732094E-02
    0.3500000000E+03    0.3170989098E-03    0.4030096589E-04    0.6888940747E+00    0.7916814500E-03    0.4102775357E-02
    0.3700000000E+03    0.3361403625E-03    0.4273421574E-04    0.6892733830E+00    0.8420689557E-03    0.4096733580E-02
    0.3900000000E+03    0.3555470292E-03    0.4521396932E-04    0.6896141503E+00    0.8933804836E-03    0.4090602835E-02
    0.4100000000E+03    0.3753307697E-03    0.4774175537E-04    0.6899219670E+00    0.9456530248E-03    0.4084379162E-02
    0.4300000000E+03    0.3955039216E-03    0.5031916174E-04    0.6902013920E+00    0.9989239621E-03    0.4078058563E-02
    0.4500000000E+03    0.4160793002E-03    0.5294783576E-04    0.6904561805E+00    0.1053231243E-02    0.4071636992E-02
    0.4700000000E+03    0.4370702062E-03    0.5562948540E-04    0.6906894533E+00    0.1108613537E-02    0.4065110343E-02
    0.4900000000E+03    0.4584904383E-03    0.5836588115E-04    0.6909038255E+00    0.1165110371E-02    0.4058474439E-02
    0.1000000000E+03    0.1062635395E-03    0.1333245781E-04    0.6718003264E+00    0.2234816485E-03    0.4172273541E-02
    0.3000000000E+03    0.2710197331E-03    0.3441181194E-04    0.6877272082E+00    0.6695135738E-03    0.4117516298E-02
    0.5000000000E+03    0.4693660041E-03    0.5975517976E-04    0.6910046274E+00    0.1193789360E-02    0.4055114189E-02
    0.7000000000E+03    0.7132712749E-03    0.9090898370E-04    0.6924190267E+00    0.1836587809E-02    0.3981064441E-02
    0.9000000000E+03    0.1021090621E-02    0.1302221192E-03    0.6932073758E+00    0.2648228801E-02    0.3890262818E-02
    0.1100000000E+04    0.1420543535E-02    0.1812372067E-03    0.6937100114E+00    0.3703192428E-02    0.3775469022E-02
    0.1300000000E+04    0.1955109394E-02    0.2495096828E-03    0.6940584244E+00    0.5118103283E-02    0.3625728728E-02
    0.1500000000E+04    0.2695049348E-02    0.3440170565E-03    0.6943141499E+00    0.7081863613E-02    0.3423926681E-02
    0.1700000000E+04    0.3755038574E-02    0.4794135524E-03    0.6945098290E+00    0.9904202287E-02    0.3143307632E-02
    0.1900000000E+04    0.5313665503E-02    0.6785264087E-03    0.6946643861E+00    0.1407140565E-01    0.2745079269E-02
    0.2100000000E+04    0.7591102823E-02    0.9695154412E-03    0.6947895492E+00    0.2019482646E-01    0.2189514894E-02
    0.2300000000E+04    0.1063753510E-01    0.1358859938E-02    0.6948929739E+00    0.2845534109E-01    0.1494636598E-02
    0.2500000000E+04    0.1391501600E-01    0.1777916116E-02    0.6949798696E+00    0.3746798685E-01    0.8250723870E-03
    0.2700000000E+04    0.1656482263E-01    0.2116982191E-02    0.6950539042E+00    0.4493631091E-01    0.3824127711E-03
    0.2900000000E+04    0.1837893628E-01    0.2349409282E-02    0.6951177354E+00    0.5025385181E-01    0.1737223856E-03
    0.3100000000E+04    0.1967014167E-01    0.2515101479E-02    0.6951733356E+00    0.5422101657E-01    0.9303524513E-04
    0.3300000000E+04    0.2071347003E-01    0.2649176300E-02    0.6952221998E+00    0.5756187285E-01    0.6440704490E-04
    0.3500000000E+04    0.2164155564E-01    0.2768573852E-02    0.6952654816E+00    0.6062888533E-01    0.5459136203E-04
    0.3700000000E+04    0.2250757585E-01    0.2880085999E-02    0.6953040853E+00    0.6356353921E-01    0.5130693567E-04
    0.3900000000E+04    0.2333198863E-01    0.2986324437E-02    0.6953387300E+00    0.6641958163E-01    0.5026513771E-04
    0.4100000000E+04    0.2412297510E-01    0.3088332083E-02    0.6953699947E+00    0.6921760834E-01    0.4999157594E-04
    0.4300000000E+04    0.2488422508E-01    0.3186577894E-02    0.6953983506E+00    0.7196604738E-01    0.4998009841E-04
    0.4500000000E+04    0.2561777663E-01    0.3281319799E-02    0.6954241852E+00    0.7466887412E-01    0.5005640978E-04
    0.4700000000E+04    0.2632503939E-01    0.3372735510E-02    0.6954478203E+00    0.7732841084E-01    0.5016029287E-04
    0.4900000000E+04    0.2700716365E-01    0.3460969713E-02    0.6954695250E+00    0.7994634103E-01    0.5027095167E-04
    0.1000000000E+04    0.1207115606E-02    0.1539797718E-03    0.6934837333E+00    0.3139269924E-02    0.3836439175E-02
    0.3000000000E+04    0.1906887636E-01    0.2437912819E-02    0.6951464616E+00    0.5235109231E-01    0.1233786423E-03
    0.5000000000E+04    0.2733912251E-01    0.3503934423E-02    0.6954797258E+00    0.8124015164E-01    0.5032636564E-04
    0.7000000000E+04    0.3287684161E-01    0.4223628125E-02    0.6956224871E+00    0.1052274823E+00    0.5127969946E-04
    0.9000000000E+04    0.3677495777E-01    0.4735050520E-02    0.6957017166E+00    0.1262438580E+00    0.5200403042E-04
    0.1100000000E+05    0.3951725799E-01    0.5099107156E-02    0.6957520694E+00    0.1449741671E+00    0.5258918125E-04
    0.1300000000E+05    0.4142406359E-01    0.5356205647E-02    0.6957868776E+00    0.1618947796E+00    0.5308102542E-04
    0.1500000000E+05    0.4271460048E-01    0.5534060969E-02    0.6958123629E+00    0.1773481969E+00    0.5350582215E-04
    0.1700000000E+05    0.4354311736E-01    0.5652219266E-02    0.6958318189E+00    0.1915876659E+00    0.5388004051E-04
    0.1900000000E+05    0.4402071916E-01    0.5724794986E-02    0.6958471520E+00    0.2048049981E+00    0.5421470442E-04
    0.2100000000E+05    0.4422905433E-01    0.5762188446E-02    0.6958595420E+00    0.2171485468E+00    0.5451756301E-04
    0.2300000000E+05    0.4422916858E-01    0.5772197993E-02    0.6958697581E+00    0.2287351860E+00    0.5479427524E-04
    0.2500000000E+05    0.4406739029E-01    0.5760760120E-02    0.6958783232E+00    0.2396585083E+00    0.5504910227E-04
    0.2700000000E+05    0.4377933780E-01    0.5732453954E-02    0.6958856052E+00    0.2499945684E+00    0.5528533442E-04
    0.2900000000E+05    0.4339270631E-01    0.5690852539E-02    0.6958918704E+00    0.2598059914E+00    0.5550556632E-04
    0.3100000000E+05    0.4292924309E-01    0.5638772122E-02    0.6958973161E+00    0.2691449662E+00    0.5571188086E-04
    0.3300000000E+05    0.4240617135E-01    0.5578452087E-02    0.6959020919E+00    0.2780554626E+00    0.5590597593E-04
    0.3500000000E+05    0.4183723251E-01    0.5511686845E-02    0.6959063131E+00    0.2865748990E+00    0.5608925418E-04
    0.3700000000E+05    0.4123345972E-01    0.5439923871E-02    0.6959100700E+00    0.2947354129E+00    0.5626288796E-04
    0.3900000000E+05    0.4060375924E-01    0.5364337489E-02    0.6959134344E+00    0.3025648419E+00    0.5642786731E-04
    0.4100000000E+05    0.3995535251E-01    0.5285885067E-02    0.6959164641E+00    0.3100874889E+00    0.5658503608E-04
    0.4300000000E+05    0.3929411574E-01    0.5205350262E-02    0.6959192059E+00    0.3173247251E+00    0.5673511941E-04
    0.4500000000E+05    0.3862484343E-01    0.5123376635E-02    0.6959216985E+00    0.3242954712E+00    0.5687874513E-04
    0.4700000000E+05    0.3795145464E-01    0.5040494002E-02    0.6959239739E+00    0.3310165826E+00    0.5701646050E-04
    0.4900000000E+05    0.3727715577E-01    0.4957139282E-02    0.6959260589E+00    0.3375031623E+00    0.5714874546E-04
    0.1000000000E+05    0.3826763389E-01    0.4932606304E-02    0.6957294194E+00    0.1358611773E+00    0.5231049594E-04
    0.3000000000E+05    0.4316940994E-01    0.5665970464E-02    0.6958946854E+00    0.2645316159E+00    0.5561034931E-04
    0.5000000000E+05    0.3694050459E-01    0.4915400182E-02    0.6959270371E+00    0.3406628071E+00    0.5721298577E-04
    0.7000000000E+05    0.3058365505E-01    0.4115318902E-02    0.6959405845E+00    0.3942509076E+00    0.5829347678E-04
    0.9000000000E+05    0.2530696993E-01    0.3437728302E-02    0.6959479276E+00    0.4343597775E+00    0.5911370049E-04
    0.1100000000E+06    0.2109939386E-01    0.2889869303E-02    0.6959524805E+00    0.4654006531E+00    0.5977687158E-04
    0.1300000000E+06    0.1776366072E-01    0.2450772915E-02    0.6959555477E+00    0.4899918953E+00    0.6033459516E-04
    0.1500000000E+06    0.1510602937E-01    0.2097753486E-02    0.6959577337E+00    0.5098393517E+00    0.6081647107E-04
    0.1700000000E+06    0.1297009154E-01    0.1811811742E-02    0.6959593562E+00    0.5261122255E+00    0.6124108906E-04
    0.1900000000E+06    0.1123627026E-01    0.1578105339E-02    0.6959605979E+00    0.5396385230E+00    0.6162090502E-04
    0.2100000000E+06    0.9814576727E-02    0.1385293708E-02    0.6959615709E+00    0.5510189917E+00    0.6196468120E-04
    0.2300000000E+06    0.8637371700E-02    0.1224752438E-02    0.6959623479E+00    0.5606981731E+00    0.6227882025E-04
    0.2500000000E+06    0.7653557273E-02    0.1089903730E-02    0.6959629779E+00    0.5690106496E+00    0.6256814558E-04
    0.2700000000E+06    0.6824226166E-02    0.9756984640E-03    0.6959634950E+00    0.5762120668E+00    0.6283638310E-04
    0.2900000000E+06    0.6119482711E-02    0.8782297046E-03    0.6959639239E+00    0.5825004324E+00    0.6308647193E-04
    0.3100000000E+06    0.5516136564E-02    0.7944479703E-03    0.6959642826E+00    0.5880310256E+00    0.6332077210E-04
    0.3300000000E+06    0.4996027778E-02    0.7219519593E-03    0.6959645848E+00    0.5929270111E+00    0.6354120791E-04
    0.3500000000E+06    0.4544804152E-02    0.6588342766E-03    0.6959648407E+00    0.5972871094E+00    0.6374936935E-04
    0.3700000000E+06    0.4151022211E-02    0.6035670570E-03    0.6959650584E+00    0.6011912171E+00    0.6394658560E-04
    0.3900000000E+06    0.3805480686E-02    0.5549165567E-03    0.6959652444E+00    0.6047045780E+00    0.6413397932E-04
    0.4100000000E+06    0.3500722043E-02    0.5118788758E-03    0.6959654037E+00    0.6078809143E+00    0.6431250750E-04
    0.4300000000E+06    0.3230656400E-02    0.4736311882E-03    0.6959655404E+00    0.6107648043E+00    0.6448299265E-04
    0.4500000000E+06    0.2990275315E-02    0.4394944361E-03    0.6959656578E+00    0.6133935049E+00    0.6464614697E-04
    0.4700000000E+06    0.2775432113E-02    0.4089045651E-03    0.6959657586E+00    0.6157983641E+00    0.6480259131E-04
    0.4900000000E+06    0.2582671914E-02    0.3813901703E-03    0.6959658452E+00    0.6180059232E+00    0.6495287019E-04
    0.1000000000E+06    0.2308105647E-01    0.3148719401E-02    0.6959504466E+00    0.4508222244E+00    0.5946097469E-04
    0.3000000000E+06    0.5806371695E-02    0.8347911979E-03    0.6959641111E+00    0.5853521017E+00    0.6320546647E-04
    0.5000000000E+06    0.2493649217E-02    0.3686599094E-03    0.6959658837E+00    0.6190429130E+00    0.6502584990E-04
    0.7000000000E+06    0.1369187750E-02    0.2063087032E-03    0.6959662341E+00    0.6334676729E+00    0.6625343214E-04
    0.9000000000E+06    0.8615172357E-03    0.1317002013E-03    0.6959661977E+00    0.6413395740E+00    0.6718541316E-04
    0.1100000000E+07    0.5908326332E-03    0.9137616692E-04    0.6959660254E+00    0.6462633159E+00    0.6793898679E-04
    0.1300000000E+07    0.4299249473E-03    0.6714005104E-04    0.6959658014E+00    0.6496228316E+00    0.6857276188E-04
    0.1500000000E+07    0.3266539721E-03    0.5144015808E-04    0.6959655594E+00    0.6520570548E+00    0.6912036051E-04
    0.1700000000E+07    0.2564910840E-03    0.4068761687E-04    0.6959653144E+00    0.6539000795E+00    0.6960290069E-04
    0.1900000000E+07    0.2066793346E-03    0.3299976267E-04    0.6959650732E+00    0.6553430277E+00    0.7003453332E-04
    0.2100000000E+07    0.1700568553E-03    0.2731170421E-04    0.6959648390E+00    0.6565029234E+00    0.7042521360E-04
    0.2300000000E+07    0.1423531098E-03    0.2298423482E-04    0.6959646130E+00    0.6574553378E+00    0.7078221614E-04
    0.2500000000E+07    0.1208943482E-03    0.1961476254E-04    0.6959643958E+00    0.6582512090E+00    0.7111102147E-04
    0.2700000000E+07    0.1039377151E-03    0.1693944028E-04    0.6959641872E+00    0.6589261011E+00    0.7141586320E-04
    0.2900000000E+07    0.9030801056E-04    0.1477947452E-04    0.6959639870E+00    0.6595055863E+00    0.7170008097E-04
    0.3100000000E+07    0.7918958743E-04    0.1301020602E-04    0.6959637948E+00    0.6600085181E+00    0.7196635654E-04
    0.3300000000E+07    0.7000206626E-04    0.1154255600E-04    0.6959636102E+00    0.6604490978E+00    0.7221687652E-04
    0.3500000000E+07    0.6232340735E-04    0.1031149165E-04    0.6959634326E+00    0.6608382243E+00    0.7245344768E-04
    0.3700000000E+07    0.5584079383E-04    0.9268631555E-05    0.6959632617E+00    0.6611843999E+00    0.7267758044E-04
    0.3900000000E+07    0.5031840561E-04    0.8377375466E-05    0.6959630969E+00    0.6614943538E+00    0.7289055057E-04
    0.4100000000E+07    0.4557575986E-04    0.7609619295E-05    0.6959629380E+00    0.6617734813E+00    0.7309344556E-04
    0.4300000000E+07    0.4147283763E-04    0.6943491690E-05    0.6959627846E+00    0.6620261576E+00    0.7328720009E-04
    0.4500000000E+07    0.3789967189E-04    0.6361764494E-05    0.6959626362E+00    0.6622559686E+00    0.7347262352E-04
    0.4700000000E+07    0.3476893106E-04    0.5850717082E-05    0.6959624926E+00    0.6624658806E+00    0.7365042136E-04
    0.4900000000E+07    0.3201055250E-04    0.5399312235E-05    0.6959623536E+00    0.6626583683E+00    0.7382121243E-04
    0.1000000000E+07    0.7072431662E-03    0.1087769324E-03    0.6959661215E+00    0.6440572476E+00    0.6758002308E-04
    0.3000000000E+07    0.8447560382E-04    0.1385224383E-04    0.6959638900E+00    0.6597656433E+00    0.7183531480E-04
    0.5000000000E+07    0.3075283493E-04    0.5193107726E-05    0.6959622857E+00    0.6627487417E+00    0.7390415352E-04
    0.7000000000E+07    0.1576330736E-04    0.2712151236E-05    0.6959611090E+00    0.6640074397E+00    0.7529930085E-04
    0.9000000000E+07    0.9566797482E-05    0.1668149047E-05    0.6959601802E+00    0.6647013552E+00    0.7635850298E-04
    0.1100000000E+08    0.6423554538E-05    0.1131425295E-05    0.6959594117E+00    0.6651409063E+00    0.7721494632E-04
    0.1300000000E+08    0.4613636657E-05    0.8190433553E-06    0.6959587551E+00    0.6654442775E+00    0.7793523860E-04
    0.1500000000E+08    0.3477222237E-05    0.6211525364E-06    0.6959581813E+00    0.6656662629E+00    0.7855759097E-04
    0.1700000000E+08    0.2717289879E-05    0.4878161991E-06    0.6959576712E+00    0.6658357389E+00    0.7910600394E-04
    0.1900000000E+08    0.2184152974E-05    0.3936584637E-06    0.6959572117E+00    0.6659693663E+00    0.7959656003E-04
    0.2100000000E+08    0.1795738390E-05    0.3246650890E-06    0.6959567933E+00    0.6660774322E+00    0.8004057332E-04
    0.2300000000E+08    0.1503997372E-05    0.2725792107E-06    0.6959564091E+00    0.6661666313E+00    0.8044631149E-04
    0.2500000000E+08    0.1279284743E-05    0.2322774032E-06    0.6959560537E+00    0.6662415082E+00    0.8082000317E-04
    0.2700000000E+08    0.1102506179E-05    0.2004426585E-06    0.6959557229E+00    0.6663052564E+00    0.8116645990E-04
