  Pressure (Pa) 22mC5-500 (mol/kg) 23mC5-500 (mol/kg) 24mC5-500 (mol/kg) 3mC6-500 (mol/kg) C7-500 (mol/kg)
    0.1000000000E+01    0.2128995542E-04    0.1529999340E-05    0.3665933505E-01    0.4001534155E-05    0.4197642653E-02
    0.3000000000E+01    0.5622060294E-04    0.4035559835E-05    0.9948105609E-01    0.1023451220E-04    0.4266034932E-02
    0.5000000000E+01    0.8384112015E-04    0.6012700971E-05    0.1513557450E+00    0.1596826718E-04    0.4319863646E-02
    0.7000000000E+01    0.1061075259E-03    0.7603426725E-05    0.1949156759E+00    0.2146171040E-04    0.4364882306E-02
    0.9000000000E+01    0.1243367732E-03    0.8903209948E-05    0.2320117998E+00    0.2680223317E-04    0.4403260412E-02
    0.1100000000E+02    0.1394580887E-03    0.9979345074E-05    0.2639836157E+00    0.3203357759E-04    0.4436415170E-02
    0.1300000000E+02    0.1521458905E-03    0.1088062555E-04    0.2918244120E+00    0.3718178398E-04    0.4465366649E-02
    0.1500000000E+02    0.1629006505E-03    0.1164322476E-04    0.3162863321E+00    0.4226401385E-04    0.4490878704E-02
    0.1700000000E+02    0.1721007497E-03    0.1229446459E-04    0.3379493675E+00    0.4729236842E-04    0.4513537676E-02
    0.1900000000E+02    0.1800369021E-03    0.1285531563E-04    0.3572679463E+00    0.5227580445E-04    0.4533802176E-02
    0.2100000000E+02    0.1869356359E-03    0.1334210172E-04    0.3746031681E+00    0.5722119794E-04    0.4552036509E-02
    0.2300000000E+02    0.1929756797E-03    0.1376768875E-04    0.3902455935E+00    0.6213398051E-04    0.4568533947E-02
    0.2500000000E+02    0.1982996271E-03    0.1414233044E-04    0.4044316670E+00    0.6701854257E-04    0.4583533353E-02
    0.2700000000E+02    0.2030223844E-03    0.1447428055E-04    0.4173557555E+00    0.7187850068E-04    0.4597231310E-02
    0.2900000000E+02    0.2072373867E-03    0.1477024310E-04    0.4291791095E+00    0.7671688146E-04    0.4609791130E-02
    0.3100000000E+02    0.2110212346E-03    0.1503570795E-04    0.4400366288E+00    0.8153625224E-04    0.4621349634E-02
    0.3300000000E+02    0.2144371980E-03    0.1527520435E-04    0.4500420335E+00    0.8633881609E-04    0.4632022344E-02
    0.3500000000E+02    0.2175378942E-03    0.1549249447E-04    0.4592918637E+00    0.9112648279E-04    0.4641907488E-02
    0.3700000000E+02    0.2203673566E-03    0.1569072296E-04    0.4678686062E+00    0.9590092259E-04    0.4651089133E-02
    0.3900000000E+02    0.2229626485E-03    0.1587253341E-04    0.4758431617E+00    0.1006636078E-03    0.4659639658E-02
    0.4100000000E+02    0.2253551334E-03    0.1604016005E-04    0.4832768100E+00    0.1054158455E-03    0.4667621731E-02
    0.4300000000E+02    0.2275714823E-03    0.1619550041E-04    0.4902227885E+00    0.1101588032E-03    0.4675089887E-02
    0.4500000000E+02    0.2296344807E-03    0.1634017339E-04    0.4967275698E+00    0.1148935302E-03    0.4682091814E-02
    0.4700000000E+02    0.2315636766E-03    0.1647556606E-04    0.5028319031E+00    0.1196209738E-03    0.4688669401E-02
    0.4900000000E+02    0.2333759082E-03    0.1660287151E-04    0.5085716686E+00    0.1243419940E-03    0.4694859596E-02
    0.1000000000E+02    0.1322389270E-03    0.9465832357E-05    0.2485695029E+00    0.2942965092E-04    0.4420419739E-02
    0.3000000000E+02    0.2091789730E-03    0.1490648466E-04    0.4347210464E+00    0.7912879780E-04    0.4615687879E-02
    0.5000000000E+02    0.2342427903E-03    0.1666381906E-04    0.5113148963E+00    0.1267003429E-03    0.4697819794E-02
    0.7000000000E+02    0.2480946473E-03    0.1764551338E-04    0.5530839329E+00    0.1736891584E-03    0.4742942348E-02
    0.9000000000E+02    0.2589960393E-03    0.1843347552E-04    0.5793812200E+00    0.2206327734E-03    0.4771137173E-02
    0.1100000000E+03    0.2693276645E-03    0.1919218825E-04    0.5974605698E+00    0.2678111059E-03    0.4790071158E-02
    0.1300000000E+03    0.2798968270E-03    0.1997588997E-04    0.6106539612E+00    0.3154002927E-03    0.4803328631E-02
    0.1500000000E+03    0.2909941575E-03    0.2080319923E-04    0.6207064694E+00    0.3635251392E-03    0.4812818674E-02
    0.1700000000E+03    0.3027195012E-03    0.2167986909E-04    0.6286205055E+00    0.4122818304E-03    0.4819655587E-02
    0.1900000000E+03    0.3150980501E-03    0.2260678480E-04    0.6350129123E+00    0.4617493260E-03    0.4824535475E-02
    0.2100000000E+03    0.3281258467E-03    0.2358304273E-04    0.6402840901E+00    0.5119956925E-03    0.4827916575E-02
    0.2300000000E+03    0.3417887090E-03    0.2460720020E-04    0.6447052771E+00    0.5630819020E-03    0.4830113307E-02
    0.2500000000E+03    0.3560703258E-03    0.2567779113E-04    0.6484667465E+00    0.6150642524E-03    0.4831348762E-02
    0.2700000000E+03    0.3709556902E-03    0.2679353157E-04    0.6517059203E+00    0.6679959895E-03    0.4831785635E-02
    0.2900000000E+03    0.3864324549E-03    0.2795339065E-04    0.6545245284E+00    0.7219284409E-03    0.4831545293E-02
    0.3100000000E+03    0.4024913516E-03    0.2915660319E-04    0.6569994904E+00    0.7769118409E-03    0.4830719990E-02
    0.3300000000E+03    0.4191261929E-03    0.3040265808E-04    0.6591900450E+00    0.8329959518E-03    0.4829380946E-02
    0.3500000000E+03    0.4363337044E-03    0.3169127796E-04    0.6611425539E+00    0.8902305486E-03    0.4827583843E-02
    0.3700000000E+03    0.4541132978E-03    0.3302239725E-04    0.6628938210E+00    0.9486658093E-03    0.4825372656E-02
    0.3900000000E+03    0.4724668409E-03    0.3439614148E-04    0.6644734346E+00    0.1008352639E-02    0.4822782378E-02
    0.4100000000E+03    0.4913984463E-03    0.3581280919E-04    0.6659054531E+00    0.1069342949E-02    0.4819841003E-02
    0.4300000000E+03    0.5109142882E-03    0.3727285658E-04    0.6672096395E+00    0.1131689901E-02    0.4816570981E-02
    0.4500000000E+03    0.5310224486E-03    0.3877688485E-04    0.6684023788E+00    0.1195448131E-02    0.4812990315E-02
    0.4700000000E+03    0.5517327919E-03    0.4032563007E-04    0.6694973705E+00    0.1260673954E-02    0.4809113387E-02
    0.4900000000E+03    0.5730568656E-03    0.4191995513E-04    0.6705061569E+00    0.1327425565E-02    0.4804951599E-02
    0.1000000000E+03    0.2641640095E-03    0.1881180751E-04    0.5891869310E+00    0.2441799950E-03    0.4781482122E-02
    0.3000000000E+03    0.3943895942E-03    0.2854961542E-04    0.6558009135E+00    0.7492856574E-03    0.4831200892E-02
    0.5000000000E+03    0.5839531009E-03    0.4273451289E-04    0.6709813428E+00    0.1361392287E-02    0.4802766752E-02
    0.7000000000E+03    0.8382288360E-03    0.6172743696E-04    0.6777056462E+00    0.2137140905E-02    0.4745281441E-02
    0.9000000000E+03    0.1179671867E-02    0.8720567908E-04    0.6814999177E+00    0.3156017415E-02    0.4660117419E-02
    0.1100000000E+04    0.1649933475E-02    0.1222771274E-03    0.6839363909E+00    0.4546147059E-02    0.4539041804E-02
    0.1300000000E+04    0.2322363815E-02    0.1724117660E-03    0.6856331041E+00    0.6526991453E-02    0.4365011102E-02
    0.1500000000E+04    0.3328475034E-02    0.2474157791E-03    0.6868824260E+00    0.9490472730E-02    0.4107253418E-02
    0.1700000000E+04    0.4902404864E-02    0.3647497829E-03    0.6878405985E+00    0.1413742916E-01    0.3713189226E-02
    0.1900000000E+04    0.7400178966E-02    0.5509756560E-03    0.6885987020E+00    0.2154868750E-01    0.3111537860E-02
    0.2100000000E+04    0.1100583010E-01    0.8198708297E-03    0.6892134178E+00    0.3234400069E-01    0.2297939935E-02
    0.2300000000E+04    0.1485866445E-01    0.1107353377E-02    0.6897218662E+00    0.4407989354E-01    0.1528978808E-02
    0.2500000000E+04    0.1763104451E-01    0.1314444739E-02    0.6901493749E+00    0.5281928559E-01    0.1102827783E-02
    0.2700000000E+04    0.1934703530E-01    0.1442865219E-02    0.6905138165E+00    0.5853989265E-01    0.9501593407E-03
    0.2900000000E+04    0.2057252712E-01    0.1534763421E-02    0.6908281639E+00    0.6286988923E-01    0.9070671968E-03
    0.3100000000E+04    0.2160788946E-01    0.1612523096E-02    0.6911020612E+00    0.6668861011E-01    0.8974036091E-03
    0.3300000000E+04    0.2255734372E-01    0.1683911816E-02    0.6913428270E+00    0.7030260964E-01    0.8970426473E-03
    0.3500000000E+04    0.2345382464E-01    0.1751383079E-02    0.6915561155E+00    0.7380758424E-01    0.8991346662E-03
    0.3700000000E+04    0.2430830963E-01    0.1815753160E-02    0.6917463642E+00    0.7723372294E-01    0.9017912784E-03
    0.3900000000E+04    0.2512524575E-01    0.1877351371E-02    0.6919171043E+00    0.8059166890E-01    0.9045001751E-03
    0.4100000000E+04    0.2590710553E-01    0.1936359861E-02    0.6920711806E+00    0.8388622127E-01    0.9071285531E-03
    0.4300000000E+04    0.2665571868E-01    0.1992912954E-02    0.6922109112E+00    0.8712037096E-01    0.9096479568E-03
    0.4500000000E+04    0.2737266458E-01    0.2047126432E-02    0.6923382031E+00    0.9029649347E-01    0.9120580687E-03
    0.4700000000E+04    0.2805939127E-01    0.2099106407E-02    0.6924546402E+00    0.9341670651E-01    0.9143655518E-03
    0.4900000000E+04    0.2871725424E-01    0.2148952212E-02    0.6925615484E+00    0.9648298099E-01    0.9165782275E-03
    0.1000000000E+04    0.1395084810E-02    0.1032725914E-03    0.6828378705E+00    0.3793802208E-02    0.4604890514E-02
    0.3000000000E+04    0.2110479734E-01    0.1574726584E-02    0.6909696659E+00    0.6481614716E-01    0.9002252311E-03
    0.5000000000E+04    0.2903576399E-01    0.2173104275E-02    0.6926117857E+00    0.9799647683E-01    0.9176513673E-03
    0.7000000000E+04    0.3416644413E-01    0.2564326251E-02    0.6933139729E+00    0.1258410247E+00    0.9355801091E-03
    0.9000000000E+04    0.3750709374E-01    0.2822568131E-02    0.6937022732E+00    0.1499336724E+00    0.9490678113E-03
    0.1100000000E+05    0.3964066972E-01    0.2990697878E-02    0.6939479688E+00    0.1711983025E+00    0.9599157458E-03
    0.1300000000E+05    0.4093715880E-01    0.3095994146E-02    0.6941169909E+00    0.1902573731E+00    0.9690075206E-03
    0.1500000000E+05    0.4164058021E-01    0.3156500365E-02    0.6942401023E+00    0.2075471864E+00    0.9768439086E-03
    0.1700000000E+05    0.4191703778E-01    0.3184537723E-02    0.6943335776E+00    0.2233838678E+00    0.9837368160E-03
    0.1900000000E+05    0.4188260239E-01    0.3188745940E-02    0.6944068289E+00    0.2380030341E+00    0.9898939660E-03
    0.2100000000E+05    0.4162018121E-01    0.3175319505E-02    0.6944656752E+00    0.2515846420E+00    0.9954608069E-03
    0.2300000000E+05    0.4119009453E-01    0.3148783829E-02    0.6945139061E+00    0.2642691111E+00    0.1000543230E-02
    0.2500000000E+05    0.4063691473E-01    0.3112497830E-02    0.6945540942E+00    0.2761681032E+00    0.1005220770E-02
    0.2700000000E+05    0.3999400851E-01    0.3068988258E-02    0.6945880469E+00    0.2873719227E+00    0.1009554718E-02
    0.2900000000E+05    0.3928662569E-01    0.3020177411E-02    0.6946170706E+00    0.2979547154E+00    0.1013593319E-02
    0.3100000000E+05    0.3853404389E-01    0.2967541524E-02    0.6946421327E+00    0.3079781951E+00    0.1017375247E-02
    0.3300000000E+05    0.3775108549E-01    0.2912223017E-02    0.6946639647E+00    0.3174943667E+00    0.1020931987E-02
    0.3500000000E+05    0.3694920861E-01    0.2855111376E-02    0.6946831299E+00    0.3265475458E+00    0.1024289522E-02
    0.3700000000E+05    0.3613730355E-01    0.2796902320E-02    0.6947000686E+00    0.3351758818E+00    0.1027469545E-02
    0.3900000000E+05    0.3532228197E-01    0.2738141685E-02    0.6947151303E+00    0.3434125207E+00    0.1030490363E-02
    0.4100000000E+05    0.3450951820E-01    0.2679258354E-02    0.6947285956E+00    0.3512865045E+00    0.1033367566E-02
    0.4300000000E+05    0.3370318342E-01    0.2620589263E-02    0.6947406924E+00    0.3588234744E+00    0.1036114541E-02
    0.4500000000E+05    0.3290650119E-01    0.2562398585E-02    0.6947516077E+00    0.3660462276E+00    0.1038742874E-02
    0.4700000000E+05    0.3212194477E-01    0.2504892561E-02    0.6947614963E+00    0.3729751613E+00    0.1041262655E-02
    0.4900000000E+05    0.3135139058E-01    0.2448231100E-02    0.6947704874E+00    0.3796286306E+00    0.1043682731E-02
    0.1000000000E+05    0.3869792619E-01    0.2915919887E-02    0.6938375898E+00    0.1608751930E+00    0.9547539624E-03
    0.3000000000E+05    0.3891496833E-01    0.2994259445E-02    0.6946300465E+00    0.3030329180E+00    0.1015514253E-02
    0.5000000000E+05    0.3097181770E-01    0.2420256664E-02    0.6947746811E+00    0.3828573165E+00    0.1044857853E-02
    0.7000000000E+05    0.2429096021E-01    0.1921857089E-02    0.6948305514E+00    0.4362974857E+00    0.1064612884E-02
    0.9000000000E+05    0.1926936398E-01    0.1540413413E-02    0.6948581026E+00    0.4745123467E+00    0.1079599256E-02
    0.1100000000E+06    0.1553527469E-01    0.1252981241E-02    0.6948733694E+00    0.5029582471E+00    0.1091711324E-02
    0.1300000000E+06    0.1272959990E-01    0.1034699961E-02    0.6948823440E+00    0.5247787993E+00    0.1101894855E-02
    0.1500000000E+06    0.1058795309E-01    0.8665803166E-03    0.6948877396E+00    0.5419319679E+00    0.1110691837E-02
    0.1700000000E+06    0.8925746316E-02    0.7350815621E-03    0.6948909485E+00    0.5556972817E+00    0.1118442449E-02
    0.1900000000E+06    0.7614899313E-02    0.6306677146E-03    0.6948927504E+00    0.5669411217E+00    0.1125374521E-02
    0.2100000000E+06    0.6565761437E-02    0.5465868518E-03    0.6948936117E+00    0.5762673358E+00    0.1131648271E-02
    0.2300000000E+06    0.5714698796E-02    0.4780011494E-03    0.6948938259E+00    0.5841073319E+00    0.1137380738E-02
    0.2500000000E+06    0.5015835986E-02    0.4213949089E-03    0.6948935852E+00    0.5907760731E+00    0.1142660073E-02
    0.2700000000E+06    0.4435579168E-02    0.3741756742E-03    0.6948930194E+00    0.5965079740E+00    0.1147554359E-02
    0.2900000000E+06    0.3948955153E-02    0.3344043337E-03    0.6948922189E+00    0.6014805286E+00    0.1152117293E-02
    0.3100000000E+06    0.3537133884E-02    0.3006106533E-03    0.6948912479E+00    0.6058302288E+00    0.1156391987E-02
    0.3300000000E+06    0.3185727954E-02    0.2716656064E-03    0.6948901527E+00    0.6096635166E+00    0.1160413588E-02
    0.3500000000E+06    0.2883608343E-02    0.2466918212E-03    0.6948889674E+00    0.6130644602E+00    0.1164211136E-02
    0.3700000000E+06    0.2622067770E-02    0.2249999132E-03    0.6948877175E+00    0.6161002302E+00    0.1167808904E-02
    0.3900000000E+06    0.2394221391E-02    0.2060426210E-03    0.6948864220E+00    0.6188250662E+00    0.1171227392E-02
    0.4100000000E+06    0.2194571847E-02    0.1893813498E-03    0.6948850956E+00    0.6212831925E+00    0.1174484074E-02
    0.4300000000E+06    0.2018689645E-02    0.1746614711E-03    0.6948837493E+00    0.6235109902E+00    0.1177593969E-02
    0.4500000000E+06    0.1862975524E-02    0.1615938797E-03    0.6948823917E+00    0.6255386350E+00    0.1180570079E-02
    0.4700000000E+06    0.1724481836E-02    0.1499410748E-03    0.6948810294E+00    0.6273913463E+00    0.1183423737E-02
    0.4900000000E+06    0.1600776882E-02    0.1395065508E-03    0.6948796676E+00    0.6290903497E+00    0.1186164886E-02
    0.1000000000E+06    0.1726599555E-01    0.1386621137E-02    0.6948667810E+00    0.4897235558E+00    0.1085942294E-02
    0.3000000000E+06    0.3734681602E-02    0.3168376470E-03    0.6948917515E+00    0.6037259814E+00    0.1154288311E-02
    0.5000000000E+06    0.1543825245E-02    0.1346938969E-03    0.6948789882E+00    0.6298879400E+00    0.1187496049E-02
    0.7000000000E+06    0.8347089764E-03    0.7419628363E-04    0.6948660155E+00    0.6409625403E+00    0.1209885892E-02
    0.9000000000E+06    0.5213310750E-03    0.4698473596E-04    0.6948545942E+00    0.6470079422E+00    0.1226882618E-02
    0.1100000000E+07    0.3562126133E-03    0.3245300600E-04    0.6948446115E+00    0.6507993555E+00    0.1240624790E-02
    0.1300000000E+07    0.2587804070E-03    0.2378466041E-04    0.6948358005E+00    0.6533940807E+00    0.1252181745E-02
    0.1500000000E+07    0.1965546655E-03    0.1819804000E-04    0.6948279324E+00    0.6552794886E+00    0.1262166873E-02
    0.1700000000E+07    0.1544218791E-03    0.1438574399E-04    0.6948208308E+00    0.6567106059E+00    0.1270965414E-02
    0.1900000000E+07    0.1245820450E-03    0.1166727339E-04    0.6948143613E+00    0.6578335596E+00    0.1278835499E-02
    0.2100000000E+07    0.1026810206E-03    0.9659944425E-05    0.6948084209E+00    0.6587379964E+00    0.1285958716E-02
    0.2300000000E+07    0.8613376557E-04    0.8135071729E-05    0.6948029291E+00    0.6594819245E+00    0.1292467752E-02
    0.2500000000E+07    0.7332733285E-04    0.6949129155E-05    0.6947978223E+00    0.6601045203E+00    0.1298462569E-02
    0.2700000000E+07    0.6321321739E-04    0.6008321132E-05    0.6947930493E+00    0.6606331869E+00    0.1304020381E-02
    0.2900000000E+07    0.5508599074E-04    0.5249236267E-05    0.6947885685E+00    0.6610876631E+00    0.1309202099E-02
    0.3100000000E+07    0.4845694796E-04    0.4627748407E-05    0.6947843456E+00    0.6614825250E+00    0.1314056632E-02
    0.3300000000E+07    0.4297887677E-04    0.4112377469E-05    0.6947803519E+00    0.6618287685E+00    0.1318623859E-02
    0.3500000000E+07    0.3839961289E-04    0.3680172985E-05    0.6947765633E+00    0.6621348445E+00    0.1322936730E-02
    0.3700000000E+07    0.3453245105E-04    0.3314081088E-05    0.6947729593E+00    0.6624073540E+00    0.1327022790E-02
    0.3900000000E+07    0.3123676796E-04    0.3001213781E-05    0.6947695224E+00    0.6626515278E+00    0.1330905307E-02
    0.4100000000E+07    0.2840502016E-04    0.2731683509E-05    0.6947662375E+00    0.6628715641E+00    0.1334604110E-02
    0.4300000000E+07    0.2595382812E-04    0.2497801378E-05    0.6947630912E+00    0.6630708716E+00    0.1338136247E-02
    0.4500000000E+07    0.2381774258E-04    0.2293514820E-05    0.6947600722E+00    0.6632522460E+00    0.1341516475E-02
    0.4700000000E+07    0.2194480917E-04    0.2114006300E-05    0.6947571703E+00    0.6634180025E+00    0.1344757661E-02
    0.4900000000E+07    0.2029336202E-04    0.1955402408E-05    0.6947543764E+00    0.6635700741E+00    0.1347871089E-02
    0.1000000000E+07    0.4270435441E-03    0.3870766516E-04    0.6948494400E+00    0.6490992180E+00    0.1234078821E-02
    0.3000000000E+07    0.5160856516E-04    0.4923499237E-05    0.6947864267E+00    0.6612917888E+00    0.1311667587E-02
    0.5000000000E+07    0.1953989654E-04    0.1882933575E-05    0.6947530175E+00    0.6636414967E+00    0.1349383050E-02
    0.7000000000E+07    0.1052109888E-04    0.1009322771E-05    0.6947299741E+00    0.6646379624E+00    0.1374814739E-02
    0.9000000000E+07    0.6746961760E-05    0.6394799191E-06    0.6947122866E+00    0.6651887502E+00    0.1394121443E-02
    0.1100000000E+08    0.4804057838E-05    0.4478833854E-06    0.6946978896E+00    0.6655382096E+00    0.1409731629E-02
    0.1300000000E+08    0.3666602937E-05    0.3353920350E-06    0.6946857265E+00    0.6657796753E+00    0.1422859734E-02
    0.1500000000E+08    0.2939413486E-05    0.2634439282E-06    0.6946751824E+00    0.6659565133E+00    0.1434202421E-02
    0.1700000000E+08    0.2443688238E-05    0.2144660884E-06    0.6946658672E+00    0.6660916121E+00    0.1444197251E-02
    0.1900000000E+08    0.2088799048E-05    0.1795025931E-06    0.6946575177E+00    0.6661981932E+00    0.1453137422E-02
    0.2100000000E+08    0.1824741005E-05    0.1535912912E-06    0.6946499476E+00    0.6662844270E+00    0.1461229195E-02
    0.2300000000E+08    0.1622041034E-05    0.1337982685E-06    0.6946430202E+00    0.6663556351E+00    0.1468623291E-02
    0.2500000000E+08    0.1462384232E-05    0.1182961529E-06    0.6946366322E+00    0.6664154318E+00    0.1475433254E-02
    0.2700000000E+08    0.1333885052E-05    0.1058971616E-06    0.6946307035E+00    0.6664663583E+00    0.1481746796E-02
