  Pressure (Pa) 22mC5-500 (mol/kg) 23mC5-500 (mol/kg) 24mC5-500 (mol/kg) 3mC6-500 (mol/kg) C7-500 (mol/kg)
    0.1000000000E+01    0.1792446116E-04    0.1286583251E-05    0.1266277202E+00    0.7725963101E-06    0.4202747042E-02
    0.3000000000E+01    0.3701796062E-04    0.2649435959E-05    0.2785008910E+00    0.1983508689E-05    0.4255850244E-02
    0.5000000000E+01    0.4661886790E-04    0.3330018913E-05    0.3663885315E+00    0.3097630966E-05    0.4285748365E-02
    0.7000000000E+01    0.5219579697E-04    0.3723242553E-05    0.4236917601E+00    0.4164277680E-05    0.4305443140E-02
    0.9000000000E+01    0.5579713830E-04    0.3976387436E-05    0.4640095499E+00    0.5200175399E-05    0.4319502006E-02
    0.1100000000E+02    0.5833489169E-04    0.4154724427E-05    0.4939193365E+00    0.6213722822E-05    0.4330090790E-02
    0.1300000000E+02    0.6026376994E-04    0.4290635312E-05    0.5169907136E+00    0.7209932373E-05    0.4338381655E-02
    0.1500000000E+02    0.6182941498E-04    0.4401519009E-05    0.5353283904E+00    0.8192114413E-05    0.4345067357E-02
    0.1700000000E+02    0.6317264614E-04    0.4497291004E-05    0.5502537211E+00    0.9162607487E-05    0.4350584755E-02
    0.1900000000E+02    0.6437792338E-04    0.4583859481E-05    0.5626381305E+00    0.1012314525E-04    0.4355223539E-02
    0.2100000000E+02    0.6549770080E-04    0.4664866751E-05    0.5730795967E+00    0.1107506049E-04    0.4359183699E-02
    0.2300000000E+02    0.6656544300E-04    0.4742616993E-05    0.5820021070E+00    0.1201940730E-04    0.4362607944E-02
    0.2500000000E+02    0.6760293897E-04    0.4818595769E-05    0.5897146487E+00    0.1295703863E-04    0.4365600957E-02
    0.2700000000E+02    0.6862458543E-04    0.4893773184E-05    0.5964477236E+00    0.1388865769E-04    0.4368241357E-02
    0.2900000000E+02    0.6963998372E-04    0.4968786983E-05    0.6023767802E+00    0.1481485342E-04    0.4370589390E-02
    0.3100000000E+02    0.7065556144E-04    0.5044056418E-05    0.6076377241E+00    0.1573612567E-04    0.4372692043E-02
    0.3300000000E+02    0.7167561066E-04    0.5119854833E-05    0.6123374639E+00    0.1665290356E-04    0.4374586530E-02
    0.3500000000E+02    0.7270296728E-04    0.5196356939E-05    0.6165612536E+00    0.1756555915E-04    0.4376302730E-02
    0.3700000000E+02    0.7373946386E-04    0.5273670155E-05    0.6203779107E+00    0.1847441789E-04    0.4377864926E-02
    0.3900000000E+02    0.7478623631E-04    0.5351855736E-05    0.6238435958E+00    0.1937976665E-04    0.4379293072E-02
    0.4100000000E+02    0.7584393465E-04    0.5430943177E-05    0.6270045937E+00    0.2028186003E-04    0.4380603722E-02
    0.4300000000E+02    0.7691286939E-04    0.5510940175E-05    0.6298993937E+00    0.2118092541E-04    0.4381810738E-02
    0.4500000000E+02    0.7799311433E-04    0.5591839554E-05    0.6325602638E+00    0.2207716696E-04    0.4382925819E-02
    0.4700000000E+02    0.7908457933E-04    0.5673624131E-05    0.6350144594E+00    0.2297076897E-04    0.4383958910E-02
    0.4900000000E+02    0.8018706213E-04    0.5756270149E-05    0.6372851598E+00    0.2386189853E-04    0.4384918530E-02
    0.1000000000E+02    0.5716379148E-04    0.4072398474E-05    0.4799961668E+00    0.5709377091E-05    0.4325141762E-02
    0.3000000000E+02    0.7014744116E-04    0.5006369891E-05    0.6050835034E+00    0.1527607668E-04    0.4371668867E-02
    0.5000000000E+02    0.8074235069E-04    0.5797907590E-05    0.6383580125E+00    0.2430658422E-04    0.4385373121E-02
    0.7000000000E+02    0.9234372521E-04    0.6668470162E-05    0.6537667099E+00    0.3310128573E-04    0.4391950018E-02
    0.9000000000E+02    0.1046618382E-03    0.7592672406E-05    0.6626531696E+00    0.4176372432E-04    0.4395669522E-02
    0.1100000000E+03    0.1174552480E-03    0.8551802947E-05    0.6684351586E+00    0.5034634971E-04    0.4397909086E-02
    0.1300000000E+03    0.1305813617E-03    0.9535127641E-05    0.6724975577E+00    0.5888071053E-04    0.4399262341E-02
    0.1500000000E+03    0.1439555984E-03    0.1053638102E-04    0.6755081595E+00    0.6738782299E-04    0.4400032248E-02
    0.1700000000E+03    0.1575260238E-03    0.1155176159E-04    0.6778286078E+00    0.7588268637E-04    0.4400391757E-02
    0.1900000000E+03    0.1712596825E-03    0.1257888202E-04    0.6796718005E+00    0.8437655793E-04    0.4400447815E-02
    0.2100000000E+03    0.1851351151E-03    0.1361620346E-04    0.6811712340E+00    0.9287821987E-04    0.4400270653E-02
    0.2300000000E+03    0.1991380979E-03    0.1466271689E-04    0.6824148630E+00    0.1013947389E-03    0.4399908589E-02
    0.2500000000E+03    0.2132591167E-03    0.1571775582E-04    0.6834629949E+00    0.1099319480E-03    0.4399396130E-02
    0.2700000000E+03    0.2274918130E-03    0.1678088176E-04    0.6843583615E+00    0.1184947665E-03    0.4398758686E-02
    0.2900000000E+03    0.2418319962E-03    0.1785181192E-04    0.6851320866E+00    0.1270874204E-03    0.4398015440E-02
    0.3100000000E+03    0.2562769980E-03    0.1893037223E-04    0.6858073774E+00    0.1357135986E-03    0.4397181193E-02
    0.3300000000E+03    0.2708252394E-03    0.2001646587E-04    0.6864018907E+00    0.1443765675E-03    0.4396267570E-02
    0.3500000000E+03    0.2854759340E-03    0.2111005198E-04    0.6869292985E+00    0.1530792551E-03    0.4395283845E-02
    0.3700000000E+03    0.3002288810E-03    0.2221113074E-04    0.6874003527E+00    0.1618243164E-03    0.4394237520E-02
    0.3900000000E+03    0.3150843182E-03    0.2331973291E-04    0.6878236246E+00    0.1706141832E-03    0.4393134733E-02
    0.4100000000E+03    0.3300428163E-03    0.2443591227E-04    0.6882060311E+00    0.1794511026E-03    0.4391980556E-02
    0.4300000000E+03    0.3451052013E-03    0.2555974016E-04    0.6885532157E+00    0.1883371690E-03    0.4390779224E-02
    0.4500000000E+03    0.3602724976E-03    0.2669130148E-04    0.6888698286E+00    0.1972743486E-03    0.4389534295E-02
    0.4700000000E+03    0.3755458854E-03    0.2783069171E-04    0.6891597358E+00    0.2062645004E-03    0.4388248784E-02
    0.4900000000E+03    0.3909266689E-03    0.2897801467E-04    0.6894261781E+00    0.2153093921E-03    0.4386925259E-02
    0.1000000000E+03    0.1110098130E-03    0.8068680312E-05    0.6658208195E+00    0.4606271699E-04    0.4396927288E-02
    0.3000000000E+03    0.2490415150E-03    0.1839014588E-04    0.6854808241E+00    0.1313961060E-03    0.4397608902E-02
    0.5000000000E+03    0.3986577695E-03    0.2955468524E-04    0.6895514720E+00    0.2198528967E-03    0.4386249941E-02
    0.7000000000E+03    0.5592997851E-03    0.4153414026E-04    0.6913099044E+00    0.3139805441E-03    0.4371143572E-02
    0.9000000000E+03    0.7326360389E-03    0.5445649387E-04    0.6922900678E+00    0.4152670547E-03    0.4353513581E-02
    0.1100000000E+04    0.9206698984E-03    0.6847249014E-04    0.6929148239E+00    0.5250584787E-03    0.4333639084E-02
    0.1300000000E+04    0.1125683349E-02    0.8375291562E-04    0.6933476906E+00    0.6447722339E-03    0.4311506739E-02
    0.1500000000E+04    0.1350309058E-02    0.1004943968E-03    0.6936652268E+00    0.7759993082E-03    0.4286962767E-02
    0.1700000000E+04    0.1597629499E-02    0.1189269478E-03    0.6939080526E+00    0.9205828360E-03    0.4259757973E-02
    0.1900000000E+04    0.1871297875E-02    0.1393230556E-03    0.6940997212E+00    0.1080698016E-02    0.4229558822E-02
    0.2100000000E+04    0.2175687826E-02    0.1620088773E-03    0.6942548298E+00    0.1258945081E-02    0.4195943767E-02
    0.2300000000E+04    0.2516082429E-02    0.1873783516E-03    0.6943829064E+00    0.1458464143E-02    0.4158390685E-02
    0.2500000000E+04    0.2898916091E-02    0.2159112488E-03    0.6944904342E+00    0.1683081116E-02    0.4116256874E-02
    0.2700000000E+04    0.3332086896E-02    0.2481964714E-03    0.6945819778E+00    0.1937495786E-02    0.4068751322E-02
    0.2900000000E+04    0.3825361911E-02    0.2849622874E-03    0.6946608437E+00    0.2227525986E-02    0.4014897950E-02
    0.3100000000E+04    0.4390903631E-02    0.3271156008E-03    0.6947294861E+00    0.2560425320E-02    0.3953487931E-02
    0.3300000000E+04    0.5043950920E-02    0.3757927500E-03    0.6947897644E+00    0.2945295295E-02    0.3883018918E-02
    0.3500000000E+04    0.5803689001E-02    0.4324244161E-03    0.6948431132E+00    0.3393613944E-02    0.3801619456E-02
    0.3700000000E+04    0.6694332023E-02    0.4988164062E-03    0.6948906573E+00    0.3919897445E-02    0.3706958860E-02
    0.3900000000E+04    0.7746399764E-02    0.5772449508E-03    0.6949332904E+00    0.4542487622E-02    0.3596148610E-02
    0.4100000000E+04    0.8998057320E-02    0.6705567609E-03    0.6949717323E+00    0.5284393277E-02    0.3465654693E-02
    0.4300000000E+04    0.1049612556E-01    0.7822446327E-03    0.6950065686E+00    0.6173960474E-02    0.3311269084E-02
    0.4500000000E+04    0.1229582787E-01    0.9164289681E-03    0.6950382808E+00    0.7244826137E-02    0.3128244384E-02
    0.4700000000E+04    0.1445735402E-01    0.1077602145E-02    0.6950672685E+00    0.8534020289E-02    0.2911789976E-02
    0.4900000000E+04    0.1703592049E-01    0.1269888113E-02    0.6950938661E+00    0.1007622996E-01    0.2658246382E-02
    0.1000000000E+04    0.8246803378E-03    0.6131763880E-04    0.6926335992E+00    0.4690141462E-03    0.4343853507E-02
    0.3000000000E+04    0.4098228299E-02    0.3053005489E-03    0.6946963150E+00    0.2388097051E-02    0.3985223728E-02
    0.5000000000E+04    0.1849267667E-01    0.1378527724E-02    0.6951063584E+00    0.1094958985E-01    0.2517249394E-02
    0.7000000000E+04    0.4672636033E-01    0.3486742508E-02    0.6952804773E+00    0.2856960035E-01    0.3853389960E-03
    0.9000000000E+04    0.5587705895E-01    0.4174359729E-02    0.6953762378E+00    0.3544127891E-01    0.3214446556E-03
    0.1100000000E+05    0.6291332020E-01    0.4705177272E-02    0.6954365319E+00    0.4132105036E-01    0.3245099084E-03
    0.1300000000E+05    0.6885440512E-01    0.5154920210E-02    0.6954778157E+00    0.4675009422E-01    0.3275405730E-03
    0.1500000000E+05    0.7391871983E-01    0.5539662330E-02    0.6955077477E+00    0.5180557673E-01    0.3301625184E-03
    0.1700000000E+05    0.7826720794E-01    0.5871253664E-02    0.6955303706E+00    0.5654442487E-01    0.3324721348E-03
    0.1900000000E+05    0.8202432684E-01    0.6158866340E-02    0.6955480180E+00    0.6101181177E-01    0.3345374831E-03
    0.2100000000E+05    0.8528779976E-01    0.6409709102E-02    0.6955621297E+00    0.6524413252E-01    0.3364064427E-03
    0.2300000000E+05    0.8813537452E-01    0.6629522691E-02    0.6955736420E+00    0.6927108571E-01    0.3381139734E-03
    0.2500000000E+05    0.9062963867E-01    0.6822932944E-02    0.6955831892E+00    0.7311718271E-01    0.3396863953E-03
    0.2700000000E+05    0.9282151189E-01    0.6993707043E-02    0.6955912165E+00    0.7680286160E-01    0.3411440297E-03
    0.2900000000E+05    0.9475281994E-01    0.7144942459E-02    0.6955980449E+00    0.8034532235E-01    0.3425028995E-03
    0.3100000000E+05    0.9645821921E-01    0.7279208319E-02    0.6956039119E+00    0.8375916185E-01    0.3437758662E-03
    0.3300000000E+05    0.9796665479E-01    0.7398652553E-02    0.6956089968E+00    0.8705686312E-01    0.3449734133E-03
    0.3500000000E+05    0.9930247851E-01    0.7505084107E-02    0.6956134374E+00    0.9024917653E-01    0.3461042007E-03
    0.3700000000E+05    0.1004863155E+00    0.7600036696E-02    0.6956173413E+00    0.9334542014E-01    0.3471754661E-03
    0.3900000000E+05    0.1015357431E+00    0.7684818768E-02    0.6956207937E+00    0.9635371866E-01    0.3481933213E-03
    0.4100000000E+05    0.1024658268E+00    0.7760553008E-02    0.6956238631E+00    0.9928119526E-01    0.3491629754E-03
    0.4300000000E+05    0.1032895485E+00    0.7828207860E-02    0.6956266048E+00    0.1021341270E+00    0.3500889046E-03
    0.4500000000E+05    0.1040181497E+00    0.7888622865E-02    0.6956290643E+00    0.1049180715E+00    0.3509749842E-03
    0.4700000000E+05    0.1046614103E+00    0.7942529197E-02    0.6956312791E+00    0.1076379713E+00    0.3518245921E-03
    0.4900000000E+05    0.1052278748E+00    0.7990566409E-02    0.6956332805E+00    0.1102982398E+00    0.3526406904E-03
    0.1000000000E+05    0.5954980862E-01    0.4451208090E-02    0.6954094802E+00    0.3844408911E-01    0.3228377581E-03
    0.3000000000E+05    0.9563182976E-01    0.7214053533E-02    0.6956010862E+00    0.8206749494E-01    0.3431494172E-03
    0.5000000000E+05    0.1054846876E+00    0.8012562339E-02    0.6956342096E+00    0.1116072649E+00    0.3530370020E-03
    0.7000000000E+05    0.1079970720E+00    0.8250089096E-02    0.6956461974E+00    0.1354320809E+00    0.3597025457E-03
    0.9000000000E+05    0.1076379444E+00    0.8262786713E-02    0.6956516149E+00    0.1560727603E+00    0.3647622629E-03
    0.1100000000E+06    0.1059606670E+00    0.8169066259E-02    0.6956542616E+00    0.1746200677E+00    0.3688530484E-03
    0.1300000000E+06    0.1036293863E+00    0.8020311065E-02    0.6956555330E+00    0.1916431788E+00    0.3722933075E-03
    0.1500000000E+06    0.1009675979E+00    0.7841972715E-02    0.6956560500E+00    0.2074775097E+00    0.3752656617E-03
    0.1700000000E+06    0.9814746549E-01    0.7647860242E-02    0.6956561249E+00    0.2223382788E+00    0.3778847996E-03
    0.1900000000E+06    0.9526650207E-01    0.7445973262E-02    0.6956559291E+00    0.2363726553E+00    0.3802275648E-03
    0.2100000000E+06    0.9238240355E-01    0.7241173664E-02    0.6956555628E+00    0.2496864436E+00    0.3823480126E-03
    0.2300000000E+06    0.8953030323E-01    0.7036520693E-02    0.6956550874E+00    0.2623588932E+00    0.3842856410E-03
    0.2500000000E+06    0.8673191979E-01    0.6833985392E-02    0.6956545422E+00    0.2744514521E+00    0.3860702054E-03
    0.2700000000E+06    0.8400068066E-01    0.6634854746E-02    0.6956539529E+00    0.2860132055E+00    0.3877246901E-03
    0.2900000000E+06    0.8134472396E-01    0.6439971034E-02    0.6956533366E+00    0.2970843957E+00    0.3892672260E-03
    0.3100000000E+06    0.7876872602E-01    0.6249879203E-02    0.6956527051E+00    0.3076987766E+00    0.3907123714E-03
    0.3300000000E+06    0.7627505033E-01    0.6064920705E-02    0.6956520667E+00    0.3178852334E+00    0.3920719965E-03
    0.3500000000E+06    0.7386449083E-01    0.5885294984E-02    0.6956514269E+00    0.3276689221E+00    0.3933559096E-03
    0.3700000000E+06    0.7153676450E-01    0.5711100844E-02    0.6956507898E+00    0.3370720892E+00    0.3945723096E-03
    0.3900000000E+06    0.6929084503E-01    0.5542364891E-02    0.6956501581E+00    0.3461146687E+00    0.3957281218E-03
    0.4100000000E+06    0.6712519326E-01    0.5379061521E-02    0.6956495339E+00    0.3548147270E+00    0.3968292493E-03
    0.4300000000E+06    0.6503791889E-01    0.5221127199E-02    0.6956489184E+00    0.3631887953E+00    0.3978807658E-03
    0.4500000000E+06    0.6302689577E-01    0.5068470850E-02    0.6956483126E+00    0.3712521238E+00    0.3988870644E-03
    0.4700000000E+06    0.6108984512E-01    0.4920981518E-02    0.6956477170E+00    0.3790188769E+00    0.3998519747E-03
    0.4900000000E+06    0.5922439612E-01    0.4778534082E-02    0.6956471319E+00    0.3865022848E+00    0.4007788556E-03
    0.1000000000E+06    0.1069109814E+00    0.8225138639E-02    0.6956531698E+00    0.1655649867E+00    0.3669044437E-03
    0.3000000000E+06    0.8004653845E-01    0.6344300865E-02    0.6956530222E+00    0.3024467831E+00    0.3900011759E-03
    0.5000000000E+06    0.5831776745E-01    0.4709159191E-02    0.6956468434E+00    0.3901416433E+00    0.4012289747E-03
    0.7000000000E+06    0.4336172079E-01    0.3551359062E-02    0.6956416163E+00    0.4507273963E+00    0.4088002889E-03
    0.9000000000E+06    0.3304150789E-01    0.2737456077E-02    0.6956372686E+00    0.4936792595E+00    0.4145483388E-03
    0.1100000000E+07    0.2578346979E-01    0.2157008862E-02    0.6956335737E+00    0.5248606299E+00    0.4191959924E-03
    0.1300000000E+07    0.2055951718E-01    0.1734523813E-02    0.6956303671E+00    0.5480447110E+00    0.4231047514E-03
    0.1500000000E+07    0.1671074621E-01    0.1420320930E-02    0.6956275358E+00    0.5656835299E+00    0.4264819955E-03
    0.1700000000E+07    0.1381203070E-01    0.1181758199E-02    0.6956250011E+00    0.5793921715E+00    0.4294579785E-03
    0.1900000000E+07    0.1158448093E-01    0.9971262565E-03    0.6956227063E+00    0.5902537907E+00    0.4321199812E-03
    0.2100000000E+07    0.9841380338E-02    0.8517305676E-03    0.6956206092E+00    0.5990096275E+00    0.4345294054E-03
    0.2300000000E+07    0.8455043047E-02    0.7354303422E-03    0.6956186781E+00    0.6061775024E+00    0.4367311192E-03
    0.2500000000E+07    0.7336323811E-02    0.6410902943E-03    0.6956168882E+00    0.6121264706E+00    0.4387589251E-03
    0.2700000000E+07    0.6421752828E-02    0.5635955102E-03    0.6956152197E+00    0.6171245842E+00    0.4406389347E-03
    0.2900000000E+07    0.5665308236E-02    0.4992146599E-03    0.6956136571E+00    0.6213699948E+00    0.4423917461E-03
    0.3100000000E+07    0.5033052376E-02    0.4451811366E-03    0.6956121873E+00    0.6250115844E+00    0.4440338991E-03
    0.3300000000E+07    0.4499567802E-02    0.3994126084E-03    0.6956107998E+00    0.6281629031E+00    0.4455788803E-03
    0.3500000000E+07    0.4045545351E-02    0.3603199544E-03    0.6956094855E+00    0.6309117530E+00    0.4470378330E-03
    0.3700000000E+07    0.3656123236E-02    0.3266749144E-03    0.6956082370E+00    0.6333268887E+00    0.4484200729E-03
    0.3900000000E+07    0.3319724490E-02    0.2975169558E-03    0.6956070479E+00    0.6354627784E+00    0.4497334683E-03
    0.4100000000E+07    0.3027230692E-02    0.2720867590E-03    0.6956059126E+00    0.6373630349E+00    0.4509847264E-03
    0.4300000000E+07    0.2771386283E-02    0.2497780531E-03    0.6956048263E+00    0.6390629249E+00    0.4521796120E-03
    0.4500000000E+07    0.2546363360E-02    0.2301022828E-03    0.6956037849E+00    0.6405912263E+00    0.4533231167E-03
    0.4700000000E+07    0.2347439781E-02    0.2126623750E-03    0.6956027848E+00    0.6419716206E+00    0.4544195919E-03
    0.4900000000E+07    0.2170758287E-02    0.1971330382E-03    0.6956018226E+00    0.6432237476E+00    0.4554728540E-03
    0.1000000000E+07    0.2910458479E-01    0.2423493432E-02    0.6956353513E+00    0.5104672091E+00    0.4169820957E-03
    0.3000000000E+07    0.5335412285E-02    0.4710480801E-03    0.6956129113E+00    0.6232584715E+00    0.4432257499E-03
    0.5000000000E+07    0.2089743648E-02    0.1899990531E-03    0.6956013549E+00    0.6438069462E+00    0.4559843478E-03
    0.7000000000E+07    0.1100021001E-02    0.1020020583E-03    0.6955934461E+00    0.6515841420E+00    0.4645880705E-03
    0.9000000000E+07    0.6757524621E-03    0.6359531043E-04    0.6955873994E+00    0.6555577234E+00    0.4711199502E-03
    0.1100000000E+08    0.4563401810E-03    0.4345871293E-04    0.6955824898E+00    0.6579421314E+00    0.4764013922E-03
    0.1300000000E+08    0.3285107172E-03    0.3159601696E-04    0.6955783492E+00    0.6595230032E+00    0.4808431836E-03
    0.1500000000E+08    0.2476322098E-03    0.2401989339E-04    0.6955747644E+00    0.6606445384E+00    0.4846809803E-03
    0.1700000000E+08    0.1932650381E-03    0.1888586880E-04    0.6955716008E+00    0.6614800354E+00    0.4880627967E-03
    0.1900000000E+08    0.1549846003E-03    0.1524516696E-04    0.6955687675E+00    0.6621258142E+00    0.4910878152E-03
    0.2100000000E+08    0.1270248364E-03    0.1256908886E-04    0.6955662006E+00    0.6626395214E+00    0.4938258107E-03
    0.2300000000E+08    0.1059875511E-03    0.1054399118E-04    0.6955638530E+00    0.6630576993E+00    0.4963277699E-03
    0.2500000000E+08    0.8976521208E-04    0.8974201188E-05    0.6955616894E+00    0.6634046014E+00    0.4986321048E-03
    0.2700000000E+08    0.7699474453E-04    0.7732483350E-05    0.6955596824E+00    0.6636969419E+00    0.5007684880E-03
