  Pressure (Pa) 22mC5-500 (mol/kg) 23mC5-500 (mol/kg) 24mC5-500 (mol/kg) 3mC6-500 (mol/kg) C7-500 (mol/kg)
    0.1000000000E+01    0.2136257161E-04    0.1535393199E-05    0.3665981628E-01    0.5030663460E-05    0.4185665752E-02
    0.3000000000E+01    0.5638259043E-04    0.4047589255E-05    0.9948460682E-01    0.1278723648E-04    0.4239202302E-02
    0.5000000000E+01    0.8408147276E-04    0.6030546264E-05    0.1513639797E+00    0.1990702399E-04    0.4279702010E-02
    0.7000000000E+01    0.1064216053E-03    0.7626742321E-05    0.1949293567E+00    0.2672271779E-04    0.4313316635E-02
    0.9000000000E+01    0.1247218198E-03    0.8931790444E-05    0.2320312164E+00    0.3334611695E-04    0.4341868635E-02
    0.1100000000E+02    0.1399122299E-03    0.1001305134E-04    0.2640087933E+00    0.3983304016E-04    0.4366471218E-02
    0.1300000000E+02    0.1526677771E-03    0.1091935755E-04    0.2918552282E+00    0.4621665713E-04    0.4387907453E-02
    0.1500000000E+02    0.1634892853E-03    0.1168690873E-04    0.3163225854E+00    0.5251879706E-04    0.4406757939E-02
    0.1700000000E+02    0.1727553918E-03    0.1234304587E-04    0.3379908169E+00    0.5875483501E-04    0.4423466106E-02
    0.1900000000E+02    0.1807570079E-03    0.1290875426E-04    0.3573143347E+00    0.6493614016E-04    0.4438377782E-02
    0.2100000000E+02    0.1877208186E-03    0.1340036941E-04    0.3746542362E+00    0.7107143370E-04    0.4451767186E-02
    0.2300000000E+02    0.1938256808E-03    0.1383076675E-04    0.3903010881E+00    0.7716760046E-04    0.4463854797E-02
    0.2500000000E+02    0.1992142947E-03    0.1421020791E-04    0.4044913452E+00    0.8323020257E-04    0.4474820035E-02
    0.2700000000E+02    0.2040016569E-03    0.1454695335E-04    0.4174193870E+00    0.8926381988E-04    0.4484810467E-02
    0.2900000000E+02    0.2082812796E-03    0.1484771280E-04    0.4292464778E+00    0.9527228403E-04    0.4493948619E-02
    0.3100000000E+02    0.2121298298E-03    0.1511798106E-04    0.4401075312E+00    0.1012588444E-03    0.4502337105E-02
    0.3300000000E+02    0.2156106355E-03    0.1536229165E-04    0.4501162808E+00    0.1072262892E-03    0.4510062532E-02
    0.3500000000E+02    0.2187763646E-03    0.1558441053E-04    0.4593692798E+00    0.1131770352E-03    0.4517198521E-02
    0.3700000000E+02    0.2216710957E-03    0.1578748566E-04    0.4679490271E+00    0.1191131961E-03    0.4523808063E-02
    0.3900000000E+02    0.2243319320E-03    0.1597416359E-04    0.4759264348E+00    0.1250366355E-03    0.4529945380E-02
    0.4100000000E+02    0.2267902726E-03    0.1614668119E-04    0.4833627933E+00    0.1309490082E-03    0.4535657407E-02
    0.4300000000E+02    0.2290728208E-03    0.1630693836E-04    0.4903113499E+00    0.1368517927E-03    0.4540984981E-02
    0.4500000000E+02    0.2312023910E-03    0.1645655616E-04    0.4968185862E+00    0.1427463182E-03    0.4545963806E-02
    0.4700000000E+02    0.2331985578E-03    0.1659692360E-04    0.5029252596E+00    0.1486337855E-03    0.4550625238E-02
    0.4900000000E+02    0.2350781833E-03    0.1672923557E-04    0.5086672583E+00    0.1545152851E-03    0.4554996928E-02
    0.1000000000E+02    0.1326587168E-03    0.9496990283E-05    0.2485918081E+00    0.3660421448E-04    0.4354608881E-02
    0.3000000000E+02    0.2102552030E-03    0.1498635497E-04    0.4347902062E+00    0.9826811831E-04    0.4498230821E-02
    0.5000000000E+02    0.2359789281E-03    0.1679269879E-04    0.5114115646E+00    0.1574541111E-03    0.4557081883E-02
    0.7000000000E+02    0.2505347950E-03    0.1782670853E-04    0.5531979908E+00    0.2161195093E-03    0.4588249994E-02
    0.9000000000E+02    0.2621999870E-03    0.1867145144E-04    0.5795072721E+00    0.2749493540E-03    0.4606754477E-02
    0.1100000000E+03    0.2733644486E-03    0.1949209435E-04    0.5975954402E+00    0.3343056100E-03    0.4618319653E-02
    0.1300000000E+03    0.2848424794E-03    0.2034339419E-04    0.6107956259E+00    0.3944210758E-03    0.4625616595E-02
    0.1500000000E+03    0.2969308423E-03    0.2124442480E-04    0.6208535577E+00    0.4554653343E-03    0.4630064695E-02
    0.1700000000E+03    0.3097352216E-03    0.2220137324E-04    0.6287720441E+00    0.5175732739E-03    0.4632490039E-02
    0.1900000000E+03    0.3232866291E-03    0.2321555771E-04    0.6351681840E+00    0.5808594023E-03    0.4633406786E-02
    0.2100000000E+03    0.3375870597E-03    0.2428651759E-04    0.6404425498E+00    0.6454258193E-03    0.4633151790E-02
    0.2300000000E+03    0.3526285099E-03    0.2541327022E-04    0.6448665002E+00    0.7113670247E-03    0.4631954760E-02
    0.2500000000E+03    0.3684011404E-03    0.2659483147E-04    0.6486303950E+00    0.7787730120E-03    0.4629977375E-02
    0.2700000000E+03    0.3848967604E-03    0.2783042508E-04    0.6518717205E+00    0.8477313706E-03    0.4627336310E-02
    0.2900000000E+03    0.4021102293E-03    0.2911955699E-04    0.6546922549E+00    0.9183287894E-03    0.4624117424E-02
    0.3100000000E+03    0.4200399160E-03    0.3046203099E-04    0.6571689554E+00    0.9906521826E-03    0.4620384820E-02
    0.3300000000E+03    0.4386877429E-03    0.3185794010E-04    0.6593610900E+00    0.1064789571E-02    0.4616186846E-02
    0.3500000000E+03    0.4580590570E-03    0.3330764933E-04    0.6613150437E+00    0.1140830805E-02    0.4611560152E-02
    0.3700000000E+03    0.4781624466E-03    0.3481177680E-04    0.6630676394E+00    0.1218868176E-02    0.4606532521E-02
    0.3900000000E+03    0.4990095551E-03    0.3637117641E-04    0.6646484807E+00    0.1298996961E-02    0.4601124875E-02
    0.4100000000E+03    0.5206149165E-03    0.3798692320E-04    0.6660816386E+00    0.1381315924E-02    0.4595352721E-02
    0.4300000000E+03    0.5429958222E-03    0.3966030173E-04    0.6673868868E+00    0.1465927782E-02    0.4589227215E-02
    0.4500000000E+03    0.5661722217E-03    0.4139279751E-04    0.6685806191E+00    0.1552939666E-02    0.4582755953E-02
    0.4700000000E+03    0.5901666541E-03    0.4318609104E-04    0.6696765425E+00    0.1642463569E-02    0.4575943558E-02
    0.4900000000E+03    0.6150042122E-03    0.4504205457E-04    0.6706862059E+00    0.1734616809E-02    0.4568792132E-02
    0.1000000000E+03    0.2677752783E-03    0.1908007020E-04    0.5893177013E+00    0.3045451550E-03    0.4613195960E-02
    0.3000000000E+03    0.4109855075E-03    0.2978412701E-04    0.6559695308E+00    0.9542692729E-03    0.4622312001E-02
    0.5000000000E+03    0.6277477003E-03    0.4599417475E-04    0.6711618114E+00    0.1781717661E-02    0.4565089335E-02
    0.7000000000E+03    0.9352542449E-03    0.6895173060E-04    0.6778926348E+00    0.2896242089E-02    0.4472212098E-02
    0.9000000000E+03    0.1379366229E-02    0.1020784134E-03    0.6816912930E+00    0.4475568242E-02    0.4334848344E-02
    0.1100000000E+04    0.2050491807E-02    0.1521162399E-03    0.6841310388E+00    0.6845776705E-02    0.4128442375E-02
    0.1300000000E+04    0.3126395665E-02    0.2323193493E-03    0.6858303504E+00    0.1064163971E-01    0.3804468107E-02
    0.1500000000E+04    0.4946744076E-02    0.3680175464E-03    0.6870818224E+00    0.1708256079E-01    0.3275695855E-02
    0.1700000000E+04    0.7966064916E-02    0.5931333113E-03    0.6880418268E+00    0.2784235626E-01    0.2449164884E-02
    0.1900000000E+04    0.1185449526E-01    0.8831776147E-03    0.6888015254E+00    0.4190592280E-01    0.1495868495E-02
    0.2100000000E+04    0.1489337952E-01    0.1110085631E-02    0.6894176534E+00    0.5325721556E-01    0.9130318153E-03
    0.2300000000E+04    0.1667659888E-01    0.1243500947E-02    0.6899273690E+00    0.6033055036E-01    0.7209419604E-03
    0.2500000000E+04    0.1789914522E-01    0.1335175228E-02    0.6903560267E+00    0.6550626184E-01    0.6754294804E-03
    0.2700000000E+04    0.1892965779E-01    0.1412576755E-02    0.6907215196E+00    0.7007488746E-01    0.6672389927E-03
    0.2900000000E+04    0.1987665164E-01    0.1483791885E-02    0.6910368359E+00    0.7441773127E-01    0.6675191257E-03
    0.3100000000E+04    0.2076912535E-01    0.1550979659E-02    0.6913116319E+00    0.7863421616E-01    0.6695865018E-03
    0.3300000000E+04    0.2161590687E-01    0.1614795190E-02    0.6915532359E+00    0.8275165005E-01    0.6719393940E-03
    0.3500000000E+04    0.2242082581E-01    0.1675520974E-02    0.6917673097E+00    0.8677950889E-01    0.6742496222E-03
    0.3700000000E+04    0.2318640087E-01    0.1733341918E-02    0.6919582971E+00    0.9072276337E-01    0.6764536509E-03
    0.3900000000E+04    0.2391473467E-01    0.1788412093E-02    0.6921297347E+00    0.9458513225E-01    0.6785468496E-03
    0.4100000000E+04    0.2460773697E-01    0.1840871377E-02    0.6922844719E+00    0.9836988706E-01    0.6805367503E-03
    0.4300000000E+04    0.2526718552E-01    0.1890849985E-02    0.6924248303E+00    0.1020800594E+00    0.6824325055E-03
    0.4500000000E+04    0.2589474703E-01    0.1938470021E-02    0.6925527202E+00    0.1057185012E+00    0.6842426419E-03
    0.4700000000E+04    0.2649198790E-01    0.1983846265E-02    0.6926697282E+00    0.1092879078E+00    0.6859747033E-03
    0.4900000000E+04    0.2706038198E-01    0.2027086742E-02    0.6927771827E+00    0.1127908312E+00    0.6876353046E-03
    0.1000000000E+04    0.1678236192E-02    0.1243633807E-03    0.6830309866E+00    0.5532103655E-02    0.4242576375E-02
    0.3000000000E+04    0.2032895161E-01    0.1517833323E-02    0.6911787954E+00    0.7653934478E-01    0.6684716938E-03
    0.5000000000E+04    0.2733419840E-01    0.2047938098E-02    0.6928276846E+00    0.1145181225E+00    0.6884406517E-03
    0.7000000000E+04    0.3159332050E-01    0.2374641278E-02    0.6935342594E+00    0.1460991646E+00    0.7018951076E-03
    0.9000000000E+04    0.3413706432E-01    0.2573603679E-02    0.6939258279E+00    0.1731394813E+00    0.7120169149E-03
    0.1100000000E+05    0.3556658919E-01    0.2689079973E-02    0.6941741365E+00    0.1967974061E+00    0.7201577857E-03
    0.1300000000E+05    0.3625180029E-01    0.2748391303E-02    0.6943453400E+00    0.2178384797E+00    0.7269807876E-03
    0.1500000000E+05    0.3642992768E-01    0.2769124640E-02    0.6944703265E+00    0.2367915423E+00    0.7328617078E-03
    0.1700000000E+05    0.3625827113E-01    0.2762989645E-02    0.6945654476E+00    0.2540356645E+00    0.7380346067E-03
    0.1900000000E+05    0.3584399008E-01    0.2738000104E-02    0.6946401666E+00    0.2698512274E+00    0.7426553646E-03
    0.2100000000E+05    0.3526170881E-01    0.2699765132E-02    0.6947003383E+00    0.2844513039E+00    0.7468331297E-03
    0.2300000000E+05    0.3456432763E-01    0.2652283467E-02    0.6947497779E+00    0.2980016821E+00    0.7506473656E-03
    0.2500000000E+05    0.3378988401E-01    0.2598448506E-02    0.6947910775E+00    0.3106340598E+00    0.7541577589E-03
    0.2700000000E+05    0.3296603235E-01    0.2540378729E-02    0.6948260593E+00    0.3224549896E+00    0.7574103027E-03
    0.2900000000E+05    0.3211304241E-01    0.2479639353E-02    0.6948560413E+00    0.3335520931E+00    0.7604412030E-03
    0.3100000000E+05    0.3124585029E-01    0.2417394313E-02    0.6948820004E+00    0.3439984749E+00    0.7632794821E-03
    0.3300000000E+05    0.3037548860E-01    0.2354512517E-02    0.6949046756E+00    0.3538559192E+00    0.7659487681E-03
    0.3500000000E+05    0.2951010069E-01    0.2291643410E-02    0.6949246363E+00    0.3631772474E+00    0.7684685585E-03
    0.3700000000E+05    0.2865567093E-01    0.2229271551E-02    0.6949423282E+00    0.3720080838E+00    0.7708551342E-03
    0.3900000000E+05    0.2781655761E-01    0.2167756562E-02    0.6949581052E+00    0.3803881989E+00    0.7731222324E-03
    0.4100000000E+05    0.2699588638E-01    0.2107362736E-02    0.6949722516E+00    0.3883525453E+00    0.7752815525E-03
    0.4300000000E+05    0.2619584399E-01    0.2048281211E-02    0.6949849985E+00    0.3959320662E+00    0.7773431419E-03
    0.4500000000E+05    0.2541789941E-01    0.1990646752E-02    0.6949965356E+00    0.4031543344E+00    0.7793156939E-03
    0.4700000000E+05    0.2466297192E-01    0.1934550544E-02    0.6950070203E+00    0.4100440634E+00    0.7812067820E-03
    0.4900000000E+05    0.2393155968E-01    0.1880050031E-02    0.6950165837E+00    0.4166235190E+00    0.7830230447E-03
    0.1000000000E+05    0.3496402593E-01    0.2639779791E-02    0.6940625157E+00    0.1853364750E+00    0.7162840994E-03
    0.3000000000E+05    0.3168045413E-01    0.2448644827E-02    0.6948694729E+00    0.3388525284E+00    0.7618828339E-03
    0.5000000000E+05    0.2357473712E-01    0.1853408795E-02    0.6950210553E+00    0.4198032673E+00    0.7839049725E-03
    0.7000000000E+05    0.1761589050E-01    0.1403612720E-02    0.6950815933E+00    0.4711426927E+00    0.7987312060E-03
    0.9000000000E+05    0.1347957804E-01    0.1085956656E-02    0.6951126819E+00    0.5062975395E+00    0.8099786687E-03
    0.1100000000E+06    0.1057299333E-01    0.8598128285E-03    0.6951308060E+00    0.5316075462E+00    0.8190690104E-03
    0.1300000000E+06    0.8480247040E-02    0.6952577595E-03    0.6951421818E+00    0.5505375162E+00    0.8267120023E-03
    0.1500000000E+06    0.6934895513E-02    0.5726546166E-03    0.6951496512E+00    0.5651357456E+00    0.8333143954E-03
    0.1700000000E+06    0.5766706318E-02    0.4792537494E-03    0.6951546867E+00    0.5766810848E+00    0.8391314878E-03
    0.1900000000E+06    0.4864915948E-02    0.4066575315E-03    0.6951581220E+00    0.5860069929E+00    0.8443342641E-03
    0.2100000000E+06    0.4155736385E-02    0.3492160355E-03    0.6951604614E+00    0.5936763494E+00    0.8490429648E-03
    0.2300000000E+06    0.3588816219E-02    0.3030415616E-03    0.6951620259E+00    0.6000810089E+00    0.8533454274E-03
    0.2500000000E+06    0.3129003399E-02    0.2654002771E-03    0.6951630286E+00    0.6055010193E+00    0.8573078095E-03
    0.2700000000E+06    0.2751234048E-02    0.2343304311E-03    0.6951636155E+00    0.6101411667E+00    0.8609812068E-03
    0.2900000000E+06    0.2437289798E-02    0.2083978796E-03    0.6951638896E+00    0.6141542568E+00    0.8644059186E-03
    0.3100000000E+06    0.2173694194E-02    0.1865362353E-03    0.6951639251E+00    0.6176563695E+00    0.8676143006E-03
    0.3300000000E+06    0.1950318613E-02    0.1679402023E-03    0.6951637768E+00    0.6207371058E+00    0.8706327315E-03
    0.3500000000E+06    0.1759439667E-02    0.1519930181E-03    0.6951634856E+00    0.6234666250E+00    0.8734830052E-03
    0.3700000000E+06    0.1595089894E-02    0.1382161970E-03    0.6951630827E+00    0.6259005771E+00    0.8761833391E-03
    0.3900000000E+06    0.1452602697E-02    0.1262341349E-03    0.6951625920E+00    0.6280836216E+00    0.8787491191E-03
    0.4100000000E+06    0.1328288310E-02    0.1157487898E-03    0.6951620322E+00    0.6300519807E+00    0.8811934595E-03
    0.4300000000E+06    0.1219199632E-02    0.1065213083E-03    0.6951614180E+00    0.6318353189E+00    0.8835276314E-03
    0.4500000000E+06    0.1122960696E-02    0.9835851363E-04    0.6951607609E+00    0.6334581466E+00    0.8857613933E-03
    0.4700000000E+06    0.1037639424E-02    0.9110284632E-04    0.6951600703E+00    0.6349408813E+00    0.8879032519E-03
    0.4900000000E+06    0.9616521264E-03    0.8462478786E-04    0.6951593536E+00    0.6363006589E+00    0.8899606678E-03
    0.1000000000E+06    0.1190276545E-01    0.9635981078E-03    0.6951228568E+00    0.5199222633E+00    0.8147392326E-03
    0.3000000000E+06    0.2299897134E-02    0.1970136622E-03    0.6951639334E+00    0.6159630595E+00    0.8660353807E-03
    0.5000000000E+06    0.9267408789E-03    0.8164310685E-04    0.6951589874E+00    0.6369390540E+00    0.8909597967E-03
    0.7000000000E+06    0.4960896640E-03    0.4451173263E-04    0.6951512833E+00    0.6458147876E+00    0.9077650265E-03
    0.9000000000E+06    0.3083979893E-03    0.2804159772E-04    0.6951438602E+00    0.6506789900E+00    0.9205224848E-03
    0.1100000000E+07    0.2102569243E-03    0.1931403259E-04    0.6951371095E+00    0.6537416654E+00    0.9308372291E-03
    0.1300000000E+07    0.1526196345E-03    0.1413321066E-04    0.6951310161E+00    0.6558447463E+00    0.9395118410E-03
    0.1500000000E+07    0.1159240704E-03    0.1080519818E-04    0.6951254957E+00    0.6573772026E+00    0.9470066956E-03
    0.1700000000E+07    0.9113090387E-04    0.8539442531E-05    0.6951204624E+00    0.6585431309E+00    0.9536109353E-03
    0.1900000000E+07    0.7359785377E-04    0.6926514257E-05    0.6951158429E+00    0.6594597930E+00    0.9595183015E-03
    0.2100000000E+07    0.6074288461E-04    0.5737020426E-05    0.6951115766E+00    0.6601993082E+00    0.9648650860E-03
    0.2300000000E+07    0.5103730227E-04    0.4834270602E-05    0.6951076144E+00    0.6608084495E+00    0.9697508795E-03
    0.2500000000E+07    0.4352934756E-04    0.4132669406E-05    0.6951039162E+00    0.6613188699E+00    0.9742507085E-03
    0.2700000000E+07    0.3760140133E-04    0.3576381355E-05    0.6951004491E+00    0.6617527509E+00    0.9784225288E-03
    0.2900000000E+07    0.3283851969E-04    0.3127714734E-05    0.6950971856E+00    0.6621260962E+00    0.9823120573E-03
    0.3100000000E+07    0.2895357187E-04    0.2760473548E-05    0.6950941031E+00    0.6624507412E+00    0.9859560041E-03
    0.3300000000E+07    0.2574275413E-04    0.2455988787E-05    0.6950911822E+00    0.6627356266E+00    0.9893843010E-03
    0.3500000000E+07    0.2305817089E-04    0.2200661893E-05    0.6950884066E+00    0.6629876318E+00    0.9926216801E-03
    0.3700000000E+07    0.2079039113E-04    0.1984395765E-05    0.6950857624E+00    0.6632121362E+00    0.9956888162E-03
    0.3900000000E+07    0.1885703872E-04    0.1799564722E-05    0.6950832373E+00    0.6634134071E+00    0.9986031722E-03
    0.4100000000E+07    0.1719514437E-04    0.1640321665E-05    0.6950808209E+00    0.6635948726E+00    0.1001379634E-02
    0.4300000000E+07    0.1575590587E-04    0.1502121871E-05    0.6950785041E+00    0.6637593180E+00    0.1004030994E-02
    0.4500000000E+07    0.1450102758E-04    0.1381389291E-05    0.6950762787E+00    0.6639090302E+00    0.1006568333E-02
    0.4700000000E+07    0.1340011763E-04    0.1275278594E-05    0.6950741377E+00    0.6640459039E+00    0.1009001305E-02
    0.4900000000E+07    0.1242880755E-04    0.1181502768E-05    0.6950720748E+00    0.6641715223E+00    0.1011338381E-02
    0.1000000000E+07    0.2522879415E-03    0.2306425832E-04    0.6951403986E+00    0.6523669267E+00    0.9259238757E-03
    0.3000000000E+07    0.3080061190E-04    0.2935224933E-05    0.6950956230E+00    0.6622938910E+00    0.9841627199E-03
    0.5000000000E+07    0.1198543736E-04    0.1138646521E-05    0.6950710709E+00    0.6642305358E+00    0.1012473328E-02
    0.7000000000E+07    0.6660887496E-05    0.6212352809E-06    0.6950539964E+00    0.6650548987E+00    0.1031563665E-02
    0.9000000000E+07    0.4412501866E-05    0.4012041908E-06    0.6950408381E+00    0.6655114111E+00    0.1046056477E-02
    0.1100000000E+08    0.3242806259E-05    0.2865856318E-06    0.6950301018E+00    0.6658013876E+00    0.1057774582E-02
    0.1300000000E+08    0.2550116853E-05    0.2188722413E-06    0.6950210162E+00    0.6660019100E+00    0.1067629550E-02
    0.1500000000E+08    0.2101880576E-05    0.1752742838E-06    0.6950131303E+00    0.6661488487E+00    0.1076144312E-02
    0.1700000000E+08    0.1792475629E-05    0.1453869409E-06    0.6950061568E+00    0.6662611565E+00    0.1083647310E-02
    0.1900000000E+08    0.1568138437E-05    0.1238960418E-06    0.6949999013E+00    0.6663497904E+00    0.1090358628E-02
    0.2100000000E+08    0.1399068581E-05    0.1078501922E-06    0.6949942262E+00    0.6664215259E+00    0.1096433093E-02
    0.2300000000E+08    0.1267616438E-05    0.9549989505E-07    0.6949890299E+00    0.6664807780E+00    0.1101983841E-02
    0.2500000000E+08    0.1162758737E-05    0.8575254159E-07    0.6949842360E+00    0.6665305467E+00    0.1107096103E-02
    0.2700000000E+08    0.1077304303E-05    0.7789593480E-07    0.6949797848E+00    0.6665729420E+00    0.1111835719E-02
