  Pressure (Pa) 22mC5-500 (mol/kg) 23mC5-500 (mol/kg) 24mC5-500 (mol/kg) 3mC6-500 (mol/kg) C7-500 (mol/kg)
    0.1000000000E+01    0.1668277620E-04    0.1796811012E-05    0.1741115372E+00    0.2040824911E-05    0.4146502666E-02
    0.3000000000E+01    0.3101967594E-04    0.3330159449E-05    0.3481371577E+00    0.5033237268E-05    0.4172046415E-02
    0.5000000000E+01    0.3724177356E-04    0.3991517401E-05    0.4351192135E+00    0.7742618828E-05    0.4179070288E-02
    0.7000000000E+01    0.4076518276E-04    0.4365895510E-05    0.4872993413E+00    0.1031702377E-04    0.4182503181E-02
    0.9000000000E+01    0.4317619469E-04    0.4623418965E-05    0.5220826395E+00    0.1280543228E-04    0.4184492286E-02
    0.1100000000E+02    0.4507195031E-04    0.4827634487E-05    0.5469263394E+00    0.1523211010E-04    0.4185737765E-02
    0.1300000000E+02    0.4671341242E-04    0.5006072460E-05    0.5655583897E+00    0.1761140343E-04    0.4186545660E-02
    0.1500000000E+02    0.4822635213E-04    0.5171868420E-05    0.5800496183E+00    0.1995271805E-04    0.4187073094E-02
    0.1700000000E+02    0.4967556707E-04    0.5331709184E-05    0.5916424116E+00    0.2226265902E-04    0.4187409623E-02
    0.1900000000E+02    0.5109598114E-04    0.5489145621E-05    0.6011273271E+00    0.2454609837E-04    0.4187610228E-02
    0.2100000000E+02    0.5250694944E-04    0.5646108091E-05    0.6090313760E+00    0.2680676524E-04    0.4187710610E-02
    0.2300000000E+02    0.5391932532E-04    0.5803650663E-05    0.6157193982E+00    0.2904759778E-04    0.4187734988E-02
    0.2500000000E+02    0.5533915332E-04    0.5962337477E-05    0.6214519852E+00    0.3127096527E-04    0.4187700389E-02
    0.2700000000E+02    0.5676968734E-04    0.6122452349E-05    0.6264202327E+00    0.3347881511E-04    0.4187619135E-02
    0.2900000000E+02    0.5821253424E-04    0.6284116558E-05    0.6307674596E+00    0.3567277367E-04    0.4187500367E-02
    0.3100000000E+02    0.5966832066E-04    0.6447356899E-05    0.6346032610E+00    0.3785421776E-04    0.4187351010E-02
    0.3300000000E+02    0.6113709110E-04    0.6612145839E-05    0.6380128763E+00    0.4002432660E-04    0.4187176405E-02
    0.3500000000E+02    0.6261854960E-04    0.6778425587E-05    0.6410635992E+00    0.4218412045E-04    0.4186980736E-02
    0.3700000000E+02    0.6411220838E-04    0.6946122652E-05    0.6438092639E+00    0.4433448991E-04    0.4186767329E-02
    0.3900000000E+02    0.6561747981E-04    0.7115156676E-05    0.6462934505E+00    0.4647621857E-04    0.4186538859E-02
    0.4100000000E+02    0.6713373345E-04    0.7285445758E-05    0.6485518150E+00    0.4861000069E-04    0.4186297499E-02
    0.4300000000E+02    0.6866033112E-04    0.7456909606E-05    0.6506138123E+00    0.5073645528E-04    0.4186045037E-02
    0.4500000000E+02    0.7019664815E-04    0.7629471349E-05    0.6525039882E+00    0.5285613739E-04    0.4185782952E-02
    0.4700000000E+02    0.7174208569E-04    0.7803058486E-05    0.6542429609E+00    0.5496954730E-04    0.4185512481E-02
    0.4900000000E+02    0.7329607747E-04    0.7977603327E-05    0.6558481766E+00    0.5707713801E-04    0.4185234663E-02
    0.1000000000E+02    0.4416761668E-04    0.4729983696E-05    0.5354601623E+00    0.1402543794E-04    0.4185183806E-02
    0.3000000000E+02    0.5893879698E-04    0.6365540500E-05    0.6327434767E+00    0.3676498220E-04    0.4187429147E-02
    0.5000000000E+02    0.7407611399E-04    0.8065215076E-05    0.6566053575E+00    0.5812888137E-04    0.4185093279E-02
    0.7000000000E+02    0.9001660081E-04    0.9854974373E-05    0.6673929187E+00    0.7894144790E-04    0.4182036258E-02
    0.9000000000E+02    0.1064100663E-03    0.1169411693E-04    0.6735410547E+00    0.9948219517E-04    0.4178750091E-02
    0.1100000000E+03    0.1230982276E-03    0.1356500449E-04    0.6775130864E+00    0.1198919186E-03    0.4175367601E-02
    0.1300000000E+03    0.1400089156E-03    0.1545979082E-04    0.6802906653E+00    0.1402553523E-03    0.4171936269E-02
    0.1500000000E+03    0.1571081818E-03    0.1737487854E-04    0.6823421756E+00    0.1606292594E-03    0.4168475478E-02
    0.1700000000E+03    0.1743803826E-03    0.1930867290E-04    0.6839194155E+00    0.1810545697E-03    0.4164993493E-02
    0.1900000000E+03    0.1918192534E-03    0.2126059075E-04    0.6851698150E+00    0.2015624548E-03    0.4161493636E-02
    0.2100000000E+03    0.2094235957E-03    0.2323058756E-04    0.6861854342E+00    0.2221776935E-03    0.4157976863E-02
    0.2300000000E+03    0.2271950595E-03    0.2521891687E-04    0.6870267263E+00    0.2429206796E-03    0.4154442944E-02
    0.2500000000E+03    0.2451369457E-03    0.2722600174E-04    0.6877350296E+00    0.2638086914E-03    0.4150891035E-02
    0.2700000000E+03    0.2632535337E-03    0.2925236347E-04    0.6883395698E+00    0.2848567310E-03    0.4147319981E-02
    0.2900000000E+03    0.2815496922E-03    0.3129858085E-04    0.6888615930E+00    0.3060781015E-03    0.4143728470E-02
    0.3100000000E+03    0.3000306510E-03    0.3336526655E-04    0.6893169155E+00    0.3274848157E-03    0.4140115123E-02
    0.3300000000E+03    0.3187018636E-03    0.3545305331E-04    0.6897175542E+00    0.3490878940E-03    0.4136478541E-02
    0.3500000000E+03    0.3375689260E-03    0.3756258587E-04    0.6900728027E+00    0.3708975864E-03    0.4132817325E-02
    0.3700000000E+03    0.3566375284E-03    0.3969451640E-04    0.6903899616E+00    0.3929235412E-03    0.4129130098E-02
    0.3900000000E+03    0.3759134283E-03    0.4184950209E-04    0.6906748454E+00    0.4151749359E-03    0.4125415500E-02
    0.4100000000E+03    0.3954024356E-03    0.4402820397E-04    0.6909321425E+00    0.4376605805E-03    0.4121672200E-02
    0.4300000000E+03    0.4151104069E-03    0.4623128665E-04    0.6911656750E+00    0.4603889998E-03    0.4117898888E-02
    0.4500000000E+03    0.4350432446E-03    0.4845941849E-04    0.6913785902E+00    0.4833685005E-03    0.4114094278E-02
    0.4700000000E+03    0.4552068992E-03    0.5071327207E-04    0.6915735030E+00    0.5066072262E-03    0.4110257101E-02
    0.4900000000E+03    0.4756073736E-03    0.5299352494E-04    0.6917526041E+00    0.5301132031E-03    0.4106386106E-02
    0.1000000000E+03    0.1147230752E-03    0.1262622336E-04    0.6757198611E+00    0.1096972731E-03    0.4177066922E-02
    0.3000000000E+03    0.2907667348E-03    0.3232932597E-04    0.6890967664E+00    0.3167575815E-03    0.4141924613E-02
    0.5000000000E+03    0.4858983101E-03    0.5414376438E-04    0.6918368147E+00    0.5419688966E-03    0.4104437540E-02
    0.7000000000E+03    0.7056815016E-03    0.7870677108E-04    0.6930179871E+00    0.7950585846E-03    0.4063391008E-02
    0.9000000000E+03    0.9567684118E-03    0.1067653527E-03    0.6936759988E+00    0.1084289679E-02    0.4017541198E-02
    0.1100000000E+04    0.1247245246E-02    0.1392246276E-03    0.6940954067E+00    0.1419255839E-02    0.3965518758E-02
    0.1300000000E+04    0.1587439611E-02    0.1772396018E-03    0.6943860708E+00    0.1812093615E-02    0.3905660407E-02
    0.1500000000E+04    0.1990933274E-02    0.2223288174E-03    0.6945993804E+00    0.2278737602E-02    0.3835843623E-02
    0.1700000000E+04    0.2475961606E-02    0.2765309863E-03    0.6947625862E+00    0.2840596180E-02    0.3753281500E-02
    0.1900000000E+04    0.3067416934E-02    0.3426290947E-03    0.6948914840E+00    0.3526939112E-02    0.3654245586E-02
    0.2100000000E+04    0.3799720340E-02    0.4244716419E-03    0.6949958612E+00    0.4378329062E-02    0.3533688089E-02
    0.2300000000E+04    0.4720812102E-02    0.5274190860E-03    0.6950821057E+00    0.5451421003E-02    0.3384751300E-02
    0.2500000000E+04    0.5897192461E-02    0.6589080223E-03    0.6951545637E+00    0.6825104623E-02    0.3198224521E-02
    0.2700000000E+04    0.7418613354E-02    0.8289769553E-03    0.6952162954E+00    0.8606446944E-02    0.2962247036E-02
    0.2900000000E+04    0.9396939792E-02    0.1050141336E-02    0.6952695176E+00    0.1093015003E-01    0.2663201029E-02
    0.3100000000E+04    0.1194419262E-01    0.1334942550E-02    0.6953158757E+00    0.1393401555E-01    0.2290067156E-02
    0.3300000000E+04    0.1510304419E-01    0.1688181390E-02    0.6953566166E+00    0.1767854153E-01    0.1845657991E-02
    0.3500000000E+04    0.1872391688E-01    0.2093175777E-02    0.6953927023E+00    0.2200166712E-01    0.1363506759E-02
    0.3700000000E+04    0.2239962058E-01    0.2504436069E-02    0.6954248872E+00    0.2643601170E-01    0.9114226527E-03
    0.3900000000E+04    0.2564875286E-01    0.2868144366E-02    0.6954537710E+00    0.3041622423E-01    0.5570635490E-03
    0.4100000000E+04    0.2822904526E-01    0.3157185414E-02    0.6954798364E+00    0.3364727208E-01    0.3231555389E-03
    0.4300000000E+04    0.3019871227E-01    0.3378030791E-02    0.6955034764E+00    0.3618525199E-01    0.1876979844E-03
    0.4500000000E+04    0.3174094949E-01    0.3551136668E-02    0.6955250143E+00    0.3823729141E-01    0.1154732629E-03
    0.4700000000E+04    0.3302065416E-01    0.3694926215E-02    0.6955447183E+00    0.3999331017E-01    0.7867668062E-04
    0.4900000000E+04    0.3414600378E-01    0.3821488632E-02    0.6955628128E+00    0.4157895776E-01    0.6035525741E-04
    0.1000000000E+04    0.1096500594E-02    0.1223797475E-03    0.6939066085E+00    0.1245370289E-02    0.3992396795E-02
    0.3000000000E+04    0.1059389574E-01    0.1183964777E-02    0.6952934690E+00    0.1233999504E-01    0.2486233901E-02
    0.5000000000E+04    0.3467145389E-01    0.3880618605E-02    0.6955713168E+00    0.4233199130E-01    0.5505060091E-04
    0.7000000000E+04    0.4327927973E-01    0.4851936100E-02    0.6956903279E+00    0.5565911097E-01    0.4318413849E-04
    0.9000000000E+04    0.4994932292E-01    0.5608366392E-02    0.6957563739E+00    0.6745992720E-01    0.4378004290E-04
    0.1100000000E+05    0.5524608411E-01    0.6212260189E-02    0.6957983473E+00    0.7815377890E-01    0.4427234139E-04
    0.1300000000E+05    0.5949286117E-01    0.6699268008E-02    0.6958273624E+00    0.8795507246E-01    0.4468620250E-04
    0.1500000000E+05    0.6292158980E-01    0.7094998212E-02    0.6958486061E+00    0.9702299297E-01    0.4504367375E-04
    0.1700000000E+05    0.6570269616E-01    0.7418292599E-02    0.6958648238E+00    0.1054785562E+00    0.4535860022E-04
    0.1900000000E+05    0.6796397996E-01    0.7683299501E-02    0.6958776048E+00    0.1134155942E+00    0.4564025132E-04
    0.2100000000E+05    0.6980298875E-01    0.7900833219E-02    0.6958879324E+00    0.1209081240E+00    0.4589514380E-04
    0.2300000000E+05    0.7129534771E-01    0.8079289767E-02    0.6958964480E+00    0.1280154224E+00    0.4612803723E-04
    0.2500000000E+05    0.7250050092E-01    0.8225278471E-02    0.6959035874E+00    0.1347856021E+00    0.4634251589E-04
    0.2700000000E+05    0.7346575193E-01    0.8344066809E-02    0.6959096572E+00    0.1412581851E+00    0.4654134763E-04
    0.2900000000E+05    0.7422916096E-01    0.8439899607E-02    0.6959148794E+00    0.1474659872E+00    0.4672671523E-04
    0.3100000000E+05    0.7482165740E-01    0.8516231932E-02    0.6959194186E+00    0.1534365220E+00    0.4690037104E-04
    0.3300000000E+05    0.7526860333E-01    0.8575901630E-02    0.6959233993E+00    0.1591930615E+00    0.4706374362E-04
    0.3500000000E+05    0.7559096693E-01    0.8621258881E-02    0.6959269177E+00    0.1647554490E+00    0.4721801311E-04
    0.3700000000E+05    0.7580621396E-01    0.8654264726E-02    0.6959300492E+00    0.1701407291E+00    0.4736416597E-04
    0.3900000000E+05    0.7592899294E-01    0.8676566844E-02    0.6959328534E+00    0.1753636419E+00    0.4750303527E-04
    0.4100000000E+05    0.7597166727E-01    0.8689558446E-02    0.6959353787E+00    0.1804370145E+00    0.4763533105E-04
    0.4300000000E+05    0.7594473247E-01    0.8694424508E-02    0.6959376640E+00    0.1853720736E+00    0.4776166354E-04
    0.4500000000E+05    0.7585714634E-01    0.8692178364E-02    0.6959397415E+00    0.1901786985E+00    0.4788256105E-04
    0.4700000000E+05    0.7571659229E-01    0.8683690938E-02    0.6959416380E+00    0.1948656262E+00    0.4799848412E-04
    0.4900000000E+05    0.7552969109E-01    0.8669714253E-02    0.6959433758E+00    0.1994406196E+00    0.4810983664E-04
    0.1000000000E+05    0.5274656118E-01    0.5926866896E-02    0.6957794666E+00    0.7293026982E-01    0.4403786066E-04
    0.3000000000E+05    0.7454507299E-01    0.8480313191E-02    0.6959172258E+00    0.1504793697E+00    0.4681491124E-04
    0.5000000000E+05    0.7542068160E-01    0.8660874700E-02    0.6959441912E+00    0.2016883352E+00    0.4816391191E-04
    0.7000000000E+05    0.7185639282E-01    0.8315836101E-02    0.6959554822E+00    0.2421140037E+00    0.4907344726E-04
    0.9000000000E+05    0.6713712925E-01    0.7821856609E-02    0.6959616017E+00    0.2761575301E+00    0.4976391026E-04
    0.1100000000E+06    0.6224685889E-01    0.7295239732E-02    0.6959653957E+00    0.3057041382E+00    0.5032217369E-04
    0.1300000000E+06    0.5753543389E-01    0.6779225231E-02    0.6959679513E+00    0.3317707708E+00    0.5079167427E-04
    0.1500000000E+06    0.5313106275E-01    0.6290932592E-02    0.6959697724E+00    0.3549964329E+00    0.5119732739E-04
    0.1700000000E+06    0.4907290344E-01    0.5836675707E-02    0.6959711240E+00    0.3758277944E+00    0.5155478108E-04
    0.1900000000E+06    0.4536148785E-01    0.5417889731E-02    0.6959721582E+00    0.3946012150E+00    0.5187452036E-04
    0.2100000000E+06    0.4198024582E-01    0.5033715252E-02    0.6959729685E+00    0.4115832916E+00    0.5216392112E-04
    0.2300000000E+06    0.3890545483E-01    0.4682224763E-02    0.6959736155E+00    0.4269927859E+00    0.5242837301E-04
    0.2500000000E+06    0.3611107751E-01    0.4361039582E-02    0.6959741400E+00    0.4410134457E+00    0.5267193635E-04
    0.2700000000E+06    0.3357116577E-01    0.4067650982E-02    0.6959745705E+00    0.4538020583E+00    0.5289774763E-04
    0.2900000000E+06    0.3126103966E-01    0.3799588902E-02    0.6959749274E+00    0.4654938539E+00    0.5310828098E-04
    0.3100000000E+06    0.2915782458E-01    0.3554508532E-02    0.6959752259E+00    0.4762063501E+00    0.5330552310E-04
    0.3300000000E+06    0.2724064478E-01    0.3330231296E-02    0.6959754773E+00    0.4860422287E+00    0.5349109388E-04
    0.3500000000E+06    0.2549063218E-01    0.3124760131E-02    0.6959756901E+00    0.4950915766E+00    0.5366633179E-04
    0.3700000000E+06    0.2389083824E-01    0.2936280263E-02    0.6959758712E+00    0.5034336872E+00    0.5383235576E-04
    0.3900000000E+06    0.2242609836E-01    0.2763152022E-02    0.6959760258E+00    0.5111385415E+00    0.5399011085E-04
    0.4100000000E+06    0.2108287678E-01    0.2603899520E-02    0.6959761582E+00    0.5182680470E+00    0.5414040269E-04
    0.4300000000E+06    0.1984910813E-01    0.2457197483E-02    0.6959762717E+00    0.5248770854E+00    0.5428392367E-04
    0.4500000000E+06    0.1871404426E-01    0.2321857592E-02    0.6959763692E+00    0.5310144067E+00    0.5442127334E-04
    0.4700000000E+06    0.1766811101E-01    0.2196815098E-02    0.6959764529E+00    0.5367233968E+00    0.5455297433E-04
    0.4900000000E+06    0.1670277704E-01    0.2081116173E-02    0.6959765248E+00    0.5420427388E+00    0.5467948505E-04
    0.1000000000E+06    0.6468372145E-01    0.7559016132E-02    0.6959637009E+00    0.2914171309E+00    0.5005624814E-04
    0.3000000000E+06    0.3018492056E-01    0.3674316331E-02    0.6959750832E+00    0.4709657779E+00    0.5320845474E-04
    0.5000000000E+06    0.1624792447E-01    0.2026499900E-02    0.6959765567E+00    0.5445672368E+00    0.5474092228E-04
    0.7000000000E+06    0.9924784726E-02    0.1259645335E-02    0.6959768462E+00    0.5812665863E+00    0.5577435138E-04
    0.9000000000E+06    0.6628167701E-02    0.8527524604E-03    0.6959768141E+00    0.6022670806E+00    0.5655893274E-04
    0.1100000000E+07    0.4718102209E-02    0.6137974467E-03    0.6959766692E+00    0.6155373979E+00    0.5719332388E-04
    0.1300000000E+07    0.3520680580E-02    0.4623454240E-03    0.6959764815E+00    0.6245527643E+00    0.5772686381E-04
    0.1500000000E+07    0.2723584820E-02    0.3605912931E-03    0.6959762791E+00    0.6310192106E+00    0.5818785687E-04
    0.1700000000E+07    0.2167514828E-02    0.2890358787E-03    0.6959760744E+00    0.6358555612E+00    0.5859408100E-04
    0.1900000000E+07    0.1764780189E-02    0.2368453669E-03    0.6959758729E+00    0.6395942444E+00    0.5895744901E-04
    0.2100000000E+07    0.1464047803E-02    0.1976271006E-03    0.6959756773E+00    0.6425624501E+00    0.5928634156E-04
    0.2300000000E+07    0.1233714278E-02    0.1674178839E-03    0.6959754888E+00    0.6449711202E+00    0.5958688275E-04
    0.2500000000E+07    0.1053489265E-02    0.1436573673E-03    0.6959753076E+00    0.6469617679E+00    0.5986368630E-04
    0.2700000000E+07    0.9098762523E-03    0.1246329126E-03    0.6959751336E+00    0.6486325572E+00    0.6012031623E-04
    0.2900000000E+07    0.7936220770E-03    0.1091643256E-03    0.6959749667E+00    0.6500535485E+00    0.6035958401E-04
    0.3100000000E+07    0.6982148854E-03    0.9641714274E-04    0.6959748065E+00    0.6512759849E+00    0.6058374725E-04
    0.3300000000E+07    0.6189664154E-03    0.8578796843E-04    0.6959746527E+00    0.6523381535E+00    0.6079464673E-04
    0.3500000000E+07    0.5524330215E-03    0.7683179687E-04    0.6959745047E+00    0.6532691997E+00    0.6099380348E-04
    0.3700000000E+07    0.4960399682E-03    0.6921464577E-04    0.6959743623E+00    0.6540916790E+00    0.6118248902E-04
    0.3900000000E+07    0.4478314678E-03    0.6268191607E-04    0.6959742251E+00    0.6548233051E+00    0.6136177736E-04
    0.4100000000E+07    0.4063006345E-03    0.5703678660E-04    0.6959740928E+00    0.6554781724E+00    0.6153258399E-04
    0.4300000000E+07    0.3702714731E-03    0.5212516713E-04    0.6959739651E+00    0.6560676291E+00    0.6169569578E-04
    0.4500000000E+07    0.3388154913E-03    0.4782503069E-04    0.6959738416E+00    0.6566009102E+00    0.6185179405E-04
    0.4700000000E+07    0.3111918080E-03    0.4403872762E-04    0.6959737221E+00    0.6570856041E+00    0.6200147277E-04
    0.4900000000E+07    0.2868034927E-03    0.4068736590E-04    0.6959736064E+00    0.6575280017E+00    0.6214525286E-04
    0.1000000000E+07    0.5554419397E-02    0.7187732921E-03    0.6959767499E+00    0.6095913113E+00    0.5689113250E-04
    0.3000000000E+07    0.7436403381E-03    0.1024926805E-03    0.6959748858E+00    0.6506869418E+00    0.6047343017E-04
    0.5000000000E+07    0.2756673016E-03    0.3915421574E-04    0.6959735499E+00    0.6577350169E+00    0.6221507665E-04
    0.7000000000E+07    0.1420995432E-03    0.2058830596E-04    0.6959725718E+00    0.6605701263E+00    0.6338957907E-04
    0.9000000000E+07    0.8636301241E-04    0.1269986970E-04    0.6959718006E+00    0.6620922686E+00    0.6428126727E-04
    0.1100000000E+08    0.5795137368E-04    0.8623141807E-05    0.6959711631E+00    0.6630403498E+00    0.6500226361E-04
    0.1300000000E+08    0.4154592838E-04    0.6242859512E-05    0.6959706191E+00    0.6636871127E+00    0.6560864156E-04
    0.1500000000E+08    0.3122864289E-04    0.4731874743E-05    0.6959701440E+00    0.6641563323E+00    0.6613256903E-04
    0.1700000000E+08    0.2432333989E-04    0.3712406241E-05    0.6959697220E+00    0.6645122188E+00    0.6659425078E-04
    0.1900000000E+08    0.1947706926E-04    0.2991842959E-05    0.6959693421E+00    0.6647913745E+00    0.6700722581E-04
    0.2100000000E+08    0.1594631208E-04    0.2463551645E-05    0.6959689964E+00    0.6650161829E+00    0.6738101887E-04
    0.2300000000E+08    0.1329504509E-04    0.2064589045E-05    0.6959686792E+00    0.6652010977E+00    0.6772259007E-04
    0.2500000000E+08    0.1125390630E-04    0.1755841582E-05    0.6959683859E+00    0.6653558673E+00    0.6803718297E-04
    0.2700000000E+08    0.9649232907E-05    0.1511957029E-05    0.6959681132E+00    0.6654873046E+00    0.6832884816E-04
