  Pressure (Pa) 22mC5-500 (mol/kg) 23mC5-500 (mol/kg) 24mC5-500 (mol/kg) 3mC6-500 (mol/kg) C7-500 (mol/kg)
    0.1000000000E+01    0.1915361107E-04    0.6879447229E-06    0.9949970719E-01    0.5389208764E-05    0.4169676512E-02
    0.3000000000E+01    0.4236470838E-04    0.1517985038E-05    0.2321119195E+00    0.1356388443E-04    0.4200700380E-02
    0.5000000000E+01    0.5564286236E-04    0.1990365042E-05    0.3164702617E+00    0.2103730064E-04    0.4216315482E-02
    0.7000000000E+01    0.6403363504E-04    0.2287573967E-05    0.3748585666E+00    0.2817767264E-04    0.4226548697E-02
    0.9000000000E+01    0.6974395370E-04    0.2489182342E-05    0.4176699250E+00    0.3510800391E-04    0.4233818312E-02
    0.1100000000E+02    0.7387298682E-04    0.2634692914E-05    0.4504043958E+00    0.4188950943E-04    0.4239227631E-02
    0.1300000000E+02    0.7701924643E-04    0.2745542517E-05    0.4762453189E+00    0.4855848289E-04    0.4243380499E-02
    0.1500000000E+02    0.7953084368E-04    0.2834154726E-05    0.4971629117E+00    0.5513876731E-04    0.4246640929E-02
    0.1700000000E+02    0.8162079182E-04    0.2908102793E-05    0.5144418849E+00    0.6164713204E-04    0.4249243010E-02
    0.1900000000E+02    0.8342477726E-04    0.2972191264E-05    0.5289557261E+00    0.6809596230E-04    0.4251344690E-02
    0.2100000000E+02    0.8503207654E-04    0.3029567664E-05    0.5413190462E+00    0.7449474880E-04    0.4253056639E-02
    0.2300000000E+02    0.8650300737E-04    0.3082348631E-05    0.5519768690E+00    0.8085097702E-04    0.4254458817E-02
    0.2500000000E+02    0.8787922247E-04    0.3131988423E-05    0.5612593492E+00    0.8717068949E-04    0.4255610500E-02
    0.2700000000E+02    0.8919001038E-04    0.3179503958E-05    0.5694165885E+00    0.9345885801E-04    0.4256556593E-02
    0.2900000000E+02    0.9045627572E-04    0.3225616619E-05    0.5766415127E+00    0.9971963939E-04    0.4257331759E-02
    0.3100000000E+02    0.9169312279E-04    0.3270844081E-05    0.5830853270E+00    0.1059565567E-03    0.4257963193E-02
    0.3300000000E+02    0.9291157267E-04    0.3315561169E-05    0.5888682155E+00    0.1121726313E-03    0.4258472542E-02
    0.3500000000E+02    0.9411972828E-04    0.3360041047E-05    0.5940869086E+00    0.1183704806E-03    0.4258877255E-02
    0.3700000000E+02    0.9532357949E-04    0.3404483591E-05    0.5988201383E+00    0.1245523930E-03    0.4259191560E-02
    0.3900000000E+02    0.9652756847E-04    0.3449035259E-05    0.6031326380E+00    0.1307203851E-03    0.4259427175E-02
    0.4100000000E+02    0.9773499260E-04    0.3493803209E-05    0.6070781214E+00    0.1368762466E-03    0.4259593844E-02
    0.4300000000E+02    0.9894829515E-04    0.3538865440E-05    0.6107015319E+00    0.1430215762E-03    0.4259699734E-02
    0.4500000000E+02    0.1001692776E-03    0.3584278186E-05    0.6140407624E+00    0.1491578107E-03    0.4259751744E-02
    0.4700000000E+02    0.1013992562E-03    0.3630081338E-05    0.6171279855E+00    0.1552862473E-03    0.4259755744E-02
    0.4900000000E+02    0.1026391786E-03    0.3676302470E-05    0.6199906939E+00    0.1614080640E-03    0.4259716761E-02
    0.1000000000E+02    0.7196087993E-04    0.2567327425E-05    0.4350604907E+00    0.3851470647E-04    0.4236710226E-02
    0.3000000000E+02    0.9107760780E-04    0.3248314784E-05    0.5799529210E+00    0.1028408818E-03    0.4257663977E-02
    0.5000000000E+02    0.1032630860E-03    0.3699575785E-05    0.6213453725E+00    0.1644668290E-03    0.4259682526E-02
    0.7000000000E+02    0.1163370869E-03    0.4188573011E-05    0.6409530219E+00    0.2255127785E-03    0.4257531640E-02
    0.9000000000E+02    0.1304853322E-03    0.4718618868E-05    0.6523914662E+00    0.2867177485E-03    0.4253716594E-02
    0.1100000000E+03    0.1455361875E-03    0.5282416858E-05    0.6598860508E+00    0.3484714529E-03    0.4249027031E-02
    0.1300000000E+03    0.1613518949E-03    0.5874567964E-05    0.6651766309E+00    0.4110242887E-03    0.4243790090E-02
    0.1500000000E+03    0.1778435967E-03    0.6491686041E-05    0.6691108459E+00    0.4745586048E-03    0.4238164208E-02
    0.1700000000E+03    0.1949569708E-03    0.7131736357E-05    0.6721510574E+00    0.5392194788E-03    0.4232233937E-02
    0.1900000000E+03    0.2126604300E-03    0.7793553758E-05    0.6745709158E+00    0.6051301467E-03    0.4226047172E-02
    0.2100000000E+03    0.2309374991E-03    0.8476543183E-05    0.6765427249E+00    0.6724005919E-03    0.4219631856E-02
    0.2300000000E+03    0.2497820558E-03    0.9180496420E-05    0.6781803840E+00    0.7411327239E-03    0.4213004267E-02
    0.2500000000E+03    0.2691953386E-03    0.9905478381E-05    0.6795622008E+00    0.8114237092E-03    0.4206173440E-02
    0.2700000000E+03    0.2891840336E-03    0.1065175508E-04    0.6807437871E+00    0.8833682386E-03    0.4199143673E-02
    0.2900000000E+03    0.3097590302E-03    0.1141974714E-04    0.6817657253E+00    0.9570601495E-03    0.4191916022E-02
    0.3100000000E+03    0.3309346016E-03    0.1220999939E-04    0.6826583247E+00    0.1032593643E-02    0.4184489215E-02
    0.3300000000E+03    0.3527278615E-03    0.1302316081E-04    0.6834446787E+00    0.1110064242E-02    0.4176860244E-02
    0.3500000000E+03    0.3751584047E-03    0.1385997138E-04    0.6841426916E+00    0.1189569574E-02    0.4169024742E-02
    0.3700000000E+03    0.3982480751E-03    0.1472125359E-04    0.6847664586E+00    0.1271210043E-02    0.4160977231E-02
    0.3900000000E+03    0.4220208216E-03    0.1560790732E-04    0.6853272276E+00    0.1355089427E-02    0.4152711293E-02
    0.4100000000E+03    0.4465026191E-03    0.1652090698E-04    0.6858340837E+00    0.1441315426E-02    0.4144219678E-02
    0.4300000000E+03    0.4717214372E-03    0.1746130054E-04    0.6862944451E+00    0.1530000186E-02    0.4135494375E-02
    0.4500000000E+03    0.4977072466E-03    0.1843020986E-04    0.6867144288E+00    0.1621260803E-02    0.4126526651E-02
    0.4700000000E+03    0.5244920539E-03    0.1942883205E-04    0.6870991237E+00    0.1715219830E-02    0.4117307081E-02
    0.4900000000E+03    0.5521099621E-03    0.2045844187E-04    0.6874527981E+00    0.1812005789E-02    0.4107825548E-02
    0.1000000000E+03    0.1379078362E-03    0.4996691508E-05    0.6564922249E+00    0.3175082308E-03    0.4251454892E-02
    0.3000000000E+03    0.3202707361E-03    0.1181205244E-04    0.6822266075E+00    0.9945907692E-03    0.4188227665E-02
    0.5000000000E+03    0.5662425790E-03    0.2098528747E-04    0.6876191519E+00    0.1861500791E-02    0.4102983193E-02
    0.7000000000E+03    0.9030243769E-03    0.3353695581E-04    0.6899566422E+00    0.3037729921E-02    0.3989279151E-02
    0.9000000000E+03    0.1385206846E-02    0.5150350579E-04    0.6912621316E+00    0.4719764990E-02    0.3830941420E-02
    0.1100000000E+04    0.2115523802E-02    0.7871434812E-04    0.6920954303E+00    0.7271621931E-02    0.3598273016E-02
    0.1300000000E+04    0.3294045514E-02    0.1226269981E-03    0.6926734558E+00    0.1140372877E-01    0.3235954536E-02
    0.1500000000E+04    0.5290843872E-02    0.1970395158E-03    0.6930979052E+00    0.1844288177E-01    0.2650028784E-02
    0.1700000000E+04    0.8511460864E-02    0.3170904601E-03    0.6934227897E+00    0.2989874206E-01    0.1769546827E-02
    0.1900000000E+04    0.1233016934E-01    0.4595113803E-03    0.6936794518E+00    0.4371762473E-01    0.8531268947E-03
    0.2100000000E+04    0.1509014789E-01    0.5625656780E-03    0.6938873287E+00    0.5407570821E-01    0.3585313706E-03
    0.2300000000E+04    0.1673574674E-01    0.6241362283E-03    0.6940591148E+00    0.6064565565E-01    0.2052211343E-03
    0.2500000000E+04    0.1792487282E-01    0.6687204325E-03    0.6942034518E+00    0.6568807206E-01    0.1681013157E-03
    0.2700000000E+04    0.1895334725E-01    0.7073388751E-03    0.6943264270E+00    0.7023689958E-01    0.1600273853E-03
    0.2900000000E+04    0.1990593877E-01    0.7431494011E-03    0.6944324517E+00    0.7458847336E-01    0.1586523530E-03
    0.3100000000E+04    0.2080572084E-01    0.7770105155E-03    0.6945248011E+00    0.7882072511E-01    0.1587844745E-03
    0.3300000000E+04    0.2166011915E-01    0.8091974298E-03    0.6946059577E+00    0.8295579404E-01    0.1592382260E-03
    0.3500000000E+04    0.2247262938E-01    0.8398389050E-03    0.6946778375E+00    0.8700189286E-01    0.1597436071E-03
    0.3700000000E+04    0.2324568615E-01    0.8690242336E-03    0.6947419431E+00    0.9096365555E-01    0.1602402989E-03
    0.3900000000E+04    0.2398136705E-01    0.8968294976E-03    0.6947994691E+00    0.9484468753E-01    0.1607162238E-03
    0.4100000000E+04    0.2468157138E-01    0.9233242287E-03    0.6948513774E+00    0.9864820363E-01    0.1611703162E-03
    0.4300000000E+04    0.2534807055E-01    0.9485732820E-03    0.6948984511E+00    0.1023771955E+00    0.1616038746E-03
    0.4500000000E+04    0.2598252653E-01    0.9726375184E-03    0.6949413345E+00    0.1060344819E+00    0.1620185591E-03
    0.4700000000E+04    0.2658650199E-01    0.9955741754E-03    0.6949805619E+00    0.1096227290E+00    0.1624159462E-03
    0.4900000000E+04    0.2716146788E-01    0.1017437143E-02    0.6950165809E+00    0.1131444630E+00    0.1627974488E-03
    0.1000000000E+04    0.1709949912E-02    0.6360308180E-04    0.6917202049E+00    0.5853673057E-02    0.3726563046E-02
    0.3000000000E+04    0.2036181040E-01    0.7603006014E-03    0.6944801652E+00    0.7671757283E-01    0.1586417711E-03
    0.5000000000E+04    0.2743850844E-01    0.1027981979E-02    0.6950335075E+00    0.1148811410E+00    0.1629826406E-03
    0.7000000000E+04    0.3175336674E-01    0.1193401807E-02    0.6952702359E+00    0.1466439517E+00    0.1660912086E-03
    0.9000000000E+04    0.3433714507E-01    0.1294381234E-02    0.6954014002E+00    0.1738483663E+00    0.1684447045E-03
    0.1100000000E+05    0.3579360371E-01    0.1353138015E-02    0.6954846094E+00    0.1976495140E+00    0.1703446501E-03
    0.1300000000E+05    0.3649550380E-01    0.1383434793E-02    0.6955420216E+00    0.2188134318E+00    0.1719409113E-03
    0.1500000000E+05    0.3668255804E-01    0.1394154743E-02    0.6955839741E+00    0.2378707289E+00    0.1733191347E-03
    0.1700000000E+05    0.3651405787E-01    0.1391225150E-02    0.6956159363E+00    0.2552025668E+00    0.1745329752E-03
    0.1900000000E+05    0.3609870714E-01    0.1378709405E-02    0.6956410730E+00    0.2710913686E+00    0.1756183189E-03
    0.2100000000E+05    0.3551230897E-01    0.1359455422E-02    0.6956613416E+00    0.2857520694E+00    0.1766003753E-03
    0.2300000000E+05    0.3480865666E-01    0.1335495579E-02    0.6956780179E+00    0.2993521038E+00    0.1774975454E-03
    0.2500000000E+05    0.3402646127E-01    0.1308301608E-02    0.6956919683E+00    0.3120246072E+00    0.1783236795E-03
    0.2700000000E+05    0.3319388377E-01    0.1278951680E-02    0.6957038023E+00    0.3238773800E+00    0.1790894689E-03
    0.2900000000E+05    0.3233157370E-01    0.1248242684E-02    0.6957139605E+00    0.3349991251E+00    0.1798033421E-03
    0.3100000000E+05    0.3145475069E-01    0.1216767322E-02    0.6957227698E+00    0.3454638849E+00    0.1804720635E-03
    0.3300000000E+05    0.3057465771E-01    0.1184968076E-02    0.6957304773E+00    0.3553342582E+00    0.1811011462E-03
    0.3500000000E+05    0.2969959287E-01    0.1153175625E-02    0.6957372737E+00    0.3646637753E+00    0.1816951440E-03
    0.3700000000E+05    0.2883565288E-01    0.1121636623E-02    0.6957433080E+00    0.3734986786E+00    0.1822578622E-03
    0.3900000000E+05    0.2798727609E-01    0.1090534042E-02    0.6957486987E+00    0.3818792793E+00    0.1827925141E-03
    0.4100000000E+05    0.2715764359E-01    0.1060002257E-02    0.6957535411E+00    0.3898410032E+00    0.1833018379E-03
    0.4300000000E+05    0.2634897885E-01    0.1030138359E-02    0.6957579126E+00    0.3974152087E+00    0.1837881868E-03
    0.4500000000E+05    0.2556277336E-01    0.1001010705E-02    0.6957618767E+00    0.4046298336E+00    0.1842535977E-03
    0.4700000000E+05    0.2479995821E-01    0.9726654480E-03    0.6957654862E+00    0.4115099119E+00    0.1846998461E-03
    0.4900000000E+05    0.2406103527E-01    0.9451315586E-03    0.6957687851E+00    0.4180779923E+00    0.1851284887E-03
    0.1000000000E+05    0.3517902741E-01    0.1328032023E-02    0.6954471987E+00    0.1861195974E+00    0.1694399062E-03
    0.3000000000E+05    0.3189419419E-01    0.1232570135E-02    0.6957185168E+00    0.3403094788E+00    0.1801429767E-03
    0.5000000000E+05    0.2370059823E-01    0.9316742057E-03    0.6957703299E+00    0.4212514853E+00    0.1853366433E-03
    0.7000000000E+05    0.1768703917E-01    0.7046862494E-03    0.6957914548E+00    0.4724217846E+00    0.1888374410E-03
    0.9000000000E+05    0.1352015494E-01    0.5446703056E-03    0.6958025738E+00    0.5073893656E+00    0.1914947063E-03
    0.1100000000E+06    0.1059632709E-01    0.4309186187E-03    0.6958092483E+00    0.5325323807E+00    0.1936430464E-03
    0.1300000000E+06    0.8493543628E-02    0.3482400970E-03    0.6958135865E+00    0.5513227243E+00    0.1954497213E-03
    0.1500000000E+06    0.6942146273E-02    0.2866938387E-03    0.6958165576E+00    0.5658065971E+00    0.1970106553E-03
    0.1700000000E+06    0.5770199259E-02    0.2398392768E-03    0.6958186669E+00    0.5772586412E+00    0.1983860869E-03
    0.1900000000E+06    0.4866009250E-02    0.2034413257E-03    0.6958202022E+00    0.5865081858E+00    0.1996163755E-03
    0.2100000000E+06    0.4155262905E-02    0.1746543375E-03    0.6958213390E+00    0.5941146336E+00    0.2007299112E-03
    0.2300000000E+06    0.3587301820E-02    0.1515222726E-03    0.6958221898E+00    0.6004670670E+00    0.2017474378E-03
    0.2500000000E+06    0.3126788805E-02    0.1326708058E-03    0.6958228297E+00    0.6058433683E+00    0.2026845823E-03
    0.2700000000E+06    0.2748545085E-02    0.1171144291E-03    0.6958233106E+00    0.6104466411E+00    0.2035534155E-03
    0.2900000000E+06    0.2434279114E-02    0.1041330990E-03    0.6958236696E+00    0.6144283827E+00    0.2043634591E-03
    0.3100000000E+06    0.2170466740E-02    0.9319167075E-04    0.6958239335E+00    0.6179036510E+00    0.2051223587E-03
    0.3300000000E+06    0.1946947600E-02    0.8388618877E-04    0.6958241225E+00    0.6209612423E+00    0.2058363479E-03
    0.3500000000E+06    0.1755976784E-02    0.7590737854E-04    0.6958242515E+00    0.6236706791E+00    0.2065105777E-03
    0.3700000000E+06    0.1591571995E-02    0.6901537687E-04    0.6958243323E+00    0.6260871023E+00    0.2071493537E-03
    0.3900000000E+06    0.1449056258E-02    0.6302194416E-04    0.6958243738E+00    0.6282547623E+00    0.2077563127E-03
    0.4100000000E+06    0.1324732450E-02    0.5777774661E-04    0.6958243833E+00    0.6302095491E+00    0.2083345549E-03
    0.4300000000E+06    0.1215648193E-02    0.5316313109E-04    0.6958243664E+00    0.6319808564E+00    0.2088867444E-03
    0.4500000000E+06    0.1119423697E-02    0.4908134360E-04    0.6958243276E+00    0.6335929719E+00    0.2094151885E-03
    0.4700000000E+06    0.1034124090E-02    0.4545348189E-04    0.6958242708E+00    0.6350661285E+00    0.2099218981E-03
    0.4900000000E+06    0.9581636217E-03    0.4221469542E-04    0.6958241988E+00    0.6364173087E+00    0.2104086372E-03
    0.1000000000E+06    0.1193352763E-01    0.4831052435E-03    0.6958062947E+00    0.5209272570E+00    0.1926197118E-03
    0.3000000000E+06    0.2296767223E-02    0.9843522482E-04    0.6958238121E+00    0.6162232550E+00    0.2047488836E-03
    0.5000000000E+06    0.9232672315E-03    0.4072405569E-04    0.6958241579E+00    0.6370517317E+00    0.2106450112E-03
    0.7000000000E+06    0.4929669740E-03    0.2216658619E-04    0.6958229691E+00    0.6458771575E+00    0.2146209922E-03
    0.9000000000E+06    0.3055813314E-03    0.1394011302E-04    0.6958215566E+00    0.6507184810E+00    0.2176395197E-03
    0.1100000000E+07    0.2076785191E-03    0.9583265977E-05    0.6958201728E+00    0.6537688606E+00    0.2200801950E-03
    0.1300000000E+07    0.1502290534E-03    0.6998385721E-05    0.6958188751E+00    0.6558645745E+00    0.2221328532E-03
    0.1500000000E+07    0.1136853585E-03    0.5338869084E-05    0.6958176718E+00    0.6573922663E+00    0.2239063958E-03
    0.1700000000E+07    0.8901792733E-04    0.4209712001E-05    0.6958165575E+00    0.6585549331E+00    0.2254692227E-03
    0.1900000000E+07    0.7159107917E-04    0.3406389653E-05    0.6958155232E+00    0.6594692626E+00    0.2268671678E-03
    0.2100000000E+07    0.5882731682E-04    0.2814338527E-05    0.6958145598E+00    0.6602070504E+00    0.2281324750E-03
    0.2300000000E+07    0.4920115649E-04    0.2365308353E-05    0.6958136593E+00    0.6608148755E+00    0.2292887059E-03
    0.2500000000E+07    0.4176317264E-04    0.2016570825E-05    0.6958128142E+00    0.6613242689E+00    0.2303536113E-03
    0.2700000000E+07    0.3589748450E-04    0.1740260043E-05    0.6958120185E+00    0.6617573324E+00    0.2313409032E-03
    0.2900000000E+07    0.3119047155E-04    0.1517569676E-05    0.6958112668E+00    0.6621300157E+00    0.2322613984E-03
    0.3100000000E+07    0.2735602969E-04    0.1335432417E-05    0.6958105546E+00    0.6624541167E+00    0.2331237825E-03
    0.3300000000E+07    0.2419116523E-04    0.1184537981E-05    0.6958098780E+00    0.6627385490E+00    0.2339351377E-03
    0.3500000000E+07    0.2154863117E-04    0.1058106479E-05    0.6958092335E+00    0.6629901724E+00    0.2347013158E-03
    0.3700000000E+07    0.1931952267E-04    0.9511050873E-06    0.6958086183E+00    0.6632143520E+00    0.2354272088E-03
    0.3900000000E+07    0.1742189553E-04    0.8597338668E-06    0.6958080297E+00    0.6634153438E+00    0.2361169486E-03
    0.4100000000E+07    0.1579313872E-04    0.7810799644E-06    0.6958074656E+00    0.6635965675E+00    0.2367740575E-03
    0.4300000000E+07    0.1438475006E-04    0.7128799704E-06    0.6958069240E+00    0.6637608020E+00    0.2374015627E-03
    0.4500000000E+07    0.1315868729E-04    0.6533534160E-06    0.6958064030E+00    0.6639103288E+00    0.2380020855E-03
    0.4700000000E+07    0.1208477427E-04    0.6010840611E-06    0.6958059012E+00    0.6640470384E+00    0.2385779109E-03
    0.4900000000E+07    0.1113882741E-04    0.5549339065E-06    0.6958054172E+00    0.6641725109E+00    0.2391310432E-03
    0.1000000000E+07    0.2495978210E-03    0.1145511135E-04    0.6958208556E+00    0.6523994217E+00    0.2189175851E-03
    0.3000000000E+07    0.2917843211E-04    0.1422084750E-05    0.6958109060E+00    0.6622975256E+00    0.2326993791E-03
    0.5000000000E+07    0.1070757692E-04    0.5338580833E-06    0.6958051815E+00    0.6642314574E+00    0.2393996601E-03
    0.7000000000E+07    0.5568950110E-05    0.2805366272E-06    0.6958011570E+00    0.6650549811E+00    0.2439180270E-03
    0.9000000000E+07    0.3441568714E-05    0.1740026512E-06    0.6957980394E+00    0.6655110982E+00    0.2473483644E-03
    0.1100000000E+08    0.2358793549E-05    0.1191818102E-06    0.6957954876E+00    0.6658008403E+00    0.2501220294E-03
    0.1300000000E+08    0.1732498894E-05    0.8721820853E-07    0.6957933234E+00    0.6660012025E+00    0.2524547458E-03
    0.1500000000E+08    0.1337157818E-05    0.6692224809E-07    0.6957914418E+00    0.6661480205E+00    0.2544702686E-03
    0.1700000000E+08    0.1071204716E-05    0.5320960244E-07    0.6957897756E+00    0.6662602313E+00    0.2562463279E-03
    0.1900000000E+08    0.8834046608E-06    0.4349657567E-07    0.6957882793E+00    0.6663487835E+00    0.2578350100E-03
    0.2100000000E+08    0.7456271640E-06    0.3635580835E-07    0.6957869205E+00    0.6664204479E+00    0.2592729575E-03
    0.2300000000E+08    0.6413761374E-06    0.3094586279E-07    0.6957856753E+00    0.6664796365E+00    0.2605869466E-03
    0.2500000000E+08    0.5604543994E-06    0.2674423855E-07    0.6957845257E+00    0.6665293475E+00    0.2617971497E-03
    0.2700000000E+08    0.4962801334E-06    0.2341236189E-07    0.6957834575E+00    0.6665716896E+00    0.2629191497E-03
