  Pressure (Pa) 22mC5-500 (mol/kg) 23mC5-500 (mol/kg) 24mC5-500 (mol/kg) 3mC6-500 (mol/kg) C7-500 (mol/kg)
    0.1000000000E+01    0.1839621932E-04    0.1321626622E-05    0.1266334787E+00    0.5104310673E-05    0.4146579463E-02
    0.3000000000E+01    0.3803797343E-04    0.2725202141E-05    0.2785289366E+00    0.1259814494E-04    0.4173757848E-02
    0.5000000000E+01    0.4810482828E-04    0.3440394469E-05    0.3664373536E+00    0.1939335714E-04    0.4182175059E-02
    0.7000000000E+01    0.5411170968E-04    0.3865555377E-05    0.4237573806E+00    0.2585917524E-04    0.4186596535E-02
    0.9000000000E+01    0.5812176384E-04    0.4149061479E-05    0.4640886111E+00    0.3211757103E-04    0.4189268862E-02
    0.1100000000E+02    0.6105414394E-04    0.4356714812E-05    0.4940092873E+00    0.3822889706E-04    0.4190980781E-02
    0.1300000000E+02    0.6336770830E-04    0.4521204912E-05    0.5170896350E+00    0.4422879499E-04    0.4192099760E-02
    0.1500000000E+02    0.6531076509E-04    0.4660128600E-05    0.5354348222E+00    0.5014060939E-04    0.4192824431E-02
    0.1700000000E+02    0.6702597216E-04    0.4783537817E-05    0.5503665334E+00    0.5598071927E-04    0.4193272788E-02
    0.1900000000E+02    0.6859912282E-04    0.4897439698E-05    0.5627564339E+00    0.6176119678E-04    0.4193519739E-02
    0.2100000000E+02    0.7008367590E-04    0.5005551122E-05    0.5732026796E+00    0.6749127623E-04    0.4193615279E-02
    0.2300000000E+02    0.7151387641E-04    0.5110234179E-05    0.5821293917E+00    0.7317822918E-04    0.4193594109E-02
    0.2500000000E+02    0.7291213455E-04    0.5213020535E-05    0.5898456598E+00    0.7882791690E-04    0.4193481094E-02
    0.2700000000E+02    0.7429335168E-04    0.5314917747E-05    0.5965820655E+00    0.8444515545E-04    0.4193294527E-02
    0.2900000000E+02    0.7566754621E-04    0.5416594512E-05    0.6025141198E+00    0.9003396622E-04    0.4193048169E-02
    0.3100000000E+02    0.7704149552E-04    0.5518496042E-05    0.6077777784E+00    0.9559775329E-04    0.4192752567E-02
    0.3300000000E+02    0.7841978879E-04    0.5620917732E-05    0.6124799905E+00    0.1011394324E-03    0.4192415945E-02
    0.3500000000E+02    0.7980551711E-04    0.5724053234E-05    0.6167060429E+00    0.1066615265E-03    0.4192044805E-02
    0.3700000000E+02    0.8120073440E-04    0.5828026401E-05    0.6205247806E+00    0.1121662389E-03    0.4191644356E-02
    0.3900000000E+02    0.8260677037E-04    0.5932912867E-05    0.6239923864E+00    0.1176555088E-03    0.4191218815E-02
    0.4100000000E+02    0.8402444592E-04    0.6038754819E-05    0.6271551646E+00    0.1231310552E-03    0.4190771635E-02
    0.4300000000E+02    0.8545422345E-04    0.6145571224E-05    0.6300516202E+00    0.1285944122E-03    0.4190305667E-02
    0.4500000000E+02    0.8689631257E-04    0.6253364990E-05    0.6327140351E+00    0.1340469561E-03    0.4189823285E-02
    0.4700000000E+02    0.8835074533E-04    0.6362128006E-05    0.6351696761E+00    0.1394899289E-03    0.4189326481E-02
    0.4900000000E+02    0.8981743003E-04    0.6471844725E-05    0.6374417329E+00    0.1449244564E-03    0.4188816936E-02
    0.1000000000E+02    0.5968718602E-04    0.4259838645E-05    0.4800809476E+00    0.3518900934E-04    0.4190216298E-02
    0.3000000000E+02    0.7635422287E-04    0.5467495868E-05    0.6052222329E+00    0.9281879529E-04    0.4192905963E-02
    0.5000000000E+02    0.9055531412E-04    0.6527054473E-05    0.6385152331E+00    0.1476388770E-03    0.4188557842E-02
    0.7000000000E+02    0.1058937780E-03    0.7675420692E-05    0.6539338115E+00    0.2016916346E-03    0.4182962167E-02
    0.9000000000E+02    0.1221492948E-03    0.8892363775E-05    0.6628266601E+00    0.2556783865E-03    0.4176920295E-02
    0.1100000000E+03    0.1391180912E-03    0.1016197132E-04    0.6686132400E+00    0.3099625956E-03    0.4170651628E-02
    0.1300000000E+03    0.1566835491E-03    0.1147544031E-04    0.6726791656E+00    0.3647728685E-03    0.4164233654E-02
    0.1500000000E+03    0.1747818253E-03    0.1282804777E-04    0.6756926027E+00    0.4202716392E-03    0.4157696531E-02
    0.1700000000E+03    0.1933791646E-03    0.1421734490E-04    0.6780154075E+00    0.4765847511E-03    0.4151051505E-02
    0.1900000000E+03    0.2124595340E-03    0.1564220393E-04    0.6798606079E+00    0.5338162417E-03    0.4144301312E-02
    0.2100000000E+03    0.2320178486E-03    0.1710230509E-04    0.6813617856E+00    0.5920565374E-03    0.4137444525E-02
    0.2300000000E+03    0.2520561339E-03    0.1859784932E-04    0.6826069536E+00    0.6513873638E-03    0.4130477538E-02
    0.2500000000E+03    0.2725812717E-03    0.2012939113E-04    0.6836564606E+00    0.7118848751E-03    0.4123395540E-02
    0.2700000000E+03    0.2936036344E-03    0.2169773813E-04    0.6845530686E+00    0.7736217559E-03    0.4116193013E-02
    0.2900000000E+03    0.3151362373E-03    0.2330388908E-04    0.6853279246E+00    0.8366686982E-03    0.4108863984E-02
    0.3100000000E+03    0.3371942021E-03    0.2494899503E-04    0.6860042530E+00    0.9010954828E-03    0.4101402168E-02
    0.3300000000E+03    0.3597944171E-03    0.2663433483E-04    0.6865997247E+00    0.9669718036E-03    0.4093801034E-02
    0.3500000000E+03    0.3829553215E-03    0.2836129982E-04    0.6871280226E+00    0.1034367919E-02    0.4086053836E-02
    0.3700000000E+03    0.4066967737E-03    0.3013138451E-04    0.6875999076E+00    0.1103355187E-02    0.4078153624E-02
    0.3900000000E+03    0.4310399763E-03    0.3194618147E-04    0.6880239581E+00    0.1174006518E-02    0.4070093243E-02
    0.4100000000E+03    0.4560074407E-03    0.3380737907E-04    0.6884070972E+00    0.1246396773E-02    0.4061865316E-02
    0.4300000000E+03    0.4816229809E-03    0.3571676129E-04    0.6887549736E+00    0.1320603122E-02    0.4053462236E-02
    0.4500000000E+03    0.5079117290E-03    0.3767620911E-04    0.6890722416E+00    0.1396705383E-02    0.4044876142E-02
    0.4700000000E+03    0.5349001681E-03    0.3968770315E-04    0.6893627710E+00    0.1474786338E-02    0.4036098902E-02
    0.4900000000E+03    0.5626161779E-03    0.4175332722E-04    0.6896298056E+00    0.1554932047E-02    0.4027122086E-02
    0.1000000000E+03    0.1305534216E-03    0.9521259858E-05    0.6659967721E+00    0.2827669567E-03    0.4173807794E-02
    0.3000000000E+03    0.3260985323E-03    0.2412149553E-04    0.6856771915E+00    0.8687052606E-03    0.4105150078E-02
    0.5000000000E+03    0.5767561302E-03    0.4280711851E-04    0.6897553853E+00    0.1595807050E-02    0.4022556116E-02
    0.7000000000E+03    0.9059402449E-03    0.6733594424E-04    0.6915184724E+00    0.2546337524E-02    0.3918380954E-02
    0.9000000000E+03    0.1354976513E-02    0.1007908572E-03    0.6925020137E+00    0.3843301330E-02    0.3780963836E-02
    0.1100000000E+04    0.1995127302E-02    0.1484837417E-03    0.6931294273E+00    0.5695978033E-02    0.3591241014E-02
    0.1300000000E+04    0.2953844992E-02    0.2199143103E-03    0.6935644887E+00    0.8479174544E-02    0.3316586557E-02
    0.1500000000E+04    0.4458435300E-02    0.3320277052E-03    0.6938838967E+00    0.1286556816E-01    0.2902317462E-02
    0.1700000000E+04    0.6852924560E-02    0.5104822795E-03    0.6941283557E+00    0.1988879653E-01    0.2276472026E-02
    0.1900000000E+04    0.1030037430E-01    0.7674867363E-03    0.6943214742E+00    0.3009917676E-01    0.1443820098E-02
    0.2100000000E+04    0.1395204459E-01    0.1039866203E-02    0.6944778871E+00    0.4110838174E-01    0.6784788359E-03
    0.2300000000E+04    0.1658962791E-01    0.1236819075E-02    0.6946071497E+00    0.4933731372E-01    0.2662257047E-03
    0.2500000000E+04    0.1827446091E-01    0.1362848250E-02    0.6947157654E+00    0.5487995745E-01    0.1197165695E-03
    0.2700000000E+04    0.1952083431E-01    0.1456247455E-02    0.6948083141E+00    0.5920152979E-01    0.7668002505E-04
    0.2900000000E+04    0.2059360102E-01    0.1536747064E-02    0.6948881144E+00    0.6306905430E-01    0.6485730654E-04
    0.3100000000E+04    0.2158402787E-01    0.1611146453E-02    0.6949576299E+00    0.6674765545E-01    0.6175610074E-04
    0.3300000000E+04    0.2252110296E-01    0.1681603883E-02    0.6950187278E+00    0.7032010860E-01    0.6104768164E-04
    0.3500000000E+04    0.2341470529E-01    0.1748853245E-02    0.6950728491E+00    0.7381278499E-01    0.6099162303E-04
    0.3700000000E+04    0.2426903438E-01    0.1813205092E-02    0.6951211237E+00    0.7723526642E-01    0.6110972871E-04
    0.3900000000E+04    0.2508656399E-01    0.1874841429E-02    0.6951644500E+00    0.8059211708E-01    0.6127016900E-04
    0.4100000000E+04    0.2586919451E-01    0.1933901650E-02    0.6952035513E+00    0.8388633857E-01    0.6143668614E-04
    0.4300000000E+04    0.2661859201E-01    0.1990507823E-02    0.6952390165E+00    0.8712038720E-01    0.6159957417E-04
    0.4500000000E+04    0.2733629144E-01    0.2044772379E-02    0.6952713299E+00    0.9029647832E-01    0.6175653072E-04
    0.4700000000E+04    0.2802373110E-01    0.2096800676E-02    0.6953008935E+00    0.9341668127E-01    0.6190730027E-04
    0.4900000000E+04    0.2868226661E-01    0.2146692031E-02    0.6953280437E+00    0.9648295225E-01    0.6205216615E-04
    0.1000000000E+04    0.1644943676E-02    0.1223940373E-03    0.6928469439E+00    0.4681918711E-02    0.3694266855E-02
    0.3000000000E+04    0.2109656668E-01    0.1574520096E-02    0.6949240294E+00    0.6492465018E-01    0.6279093291E-04
    0.5000000000E+04    0.2900109828E-01    0.2170865884E-02    0.6953408042E+00    0.9799644723E-01    0.6212250918E-04
    0.7000000000E+04    0.3413674186E-01    0.2562422515E-02    0.6955194195E+00    0.1258409897E+00    0.6330407969E-04
    0.9000000000E+04    0.3748064283E-01    0.2820882158E-02    0.6956185786E+00    0.1499336336E+00    0.6419933620E-04
    0.1100000000E+05    0.3961656331E-01    0.2989168131E-02    0.6956816137E+00    0.1711982602E+00    0.6492238324E-04
    0.1300000000E+05    0.4091484781E-01    0.3094583546E-02    0.6957251988E+00    0.1902573278E+00    0.6553003375E-04
    0.1500000000E+05    0.4161970219E-01    0.3155184528E-02    0.6957571169E+00    0.2075471382E+00    0.6605478908E-04
    0.1700000000E+05    0.4189733851E-01    0.3183299604E-02    0.6957814884E+00    0.2233838170E+00    0.6651702475E-04
    0.1900000000E+05    0.4186389534E-01    0.3187573069E-02    0.6958006989E+00    0.2380029807E+00    0.6693037542E-04
    0.2100000000E+05    0.4160232468E-01    0.3174202431E-02    0.6958162246E+00    0.2515845864E+00    0.6730442318E-04
    0.2300000000E+05    0.4117297783E-01    0.3147715187E-02    0.6958290285E+00    0.2642690532E+00    0.6764616432E-04
    0.2500000000E+05    0.4062044943E-01    0.3111471748E-02    0.6958397648E+00    0.2761680432E+00    0.6796086620E-04
    0.2700000000E+05    0.3997812261E-01    0.3067999966E-02    0.6958488942E+00    0.2873718608E+00    0.6825259561E-04
    0.2900000000E+05    0.3927125966E-01    0.3019222969E-02    0.6958567499E+00    0.2979546514E+00    0.6852455916E-04
    0.3100000000E+05    0.3851914779E-01    0.2966617635E-02    0.6958635791E+00    0.3079781293E+00    0.6877933081E-04
    0.3300000000E+05    0.3773661696E-01    0.2911326886E-02    0.6958695691E+00    0.3174942991E+00    0.6901900858E-04
    0.3500000000E+05    0.3693513135E-01    0.2854240611E-02    0.6958748643E+00    0.3265474765E+00    0.6924532558E-04
    0.3700000000E+05    0.3612358615E-01    0.2796054857E-02    0.6958795777E+00    0.3351758108E+00    0.6945973027E-04
    0.3900000000E+05    0.3530889704E-01    0.2737315723E-02    0.6958837992E+00    0.3434124481E+00    0.6966344581E-04
    0.4100000000E+05    0.3449644168E-01    0.2678452315E-02    0.6958876011E+00    0.3512864302E+00    0.6985751467E-04
    0.4300000000E+05    0.3369039405E-01    0.2619801754E-02    0.6958910424E+00    0.3588233986E+00    0.7004283269E-04
    0.4500000000E+05    0.3289398006E-01    0.2561628367E-02    0.6958941712E+00    0.3660461504E+00    0.7022017544E-04
    0.4700000000E+05    0.3210967497E-01    0.2504138529E-02    0.6958970278E+00    0.3729750826E+00    0.7039021892E-04
    0.4900000000E+05    0.3133935693E-01    0.2447492260E-02    0.6958996457E+00    0.3796285504E+00    0.7055355596E-04
    0.1000000000E+05    0.3867273275E-01    0.2914317793E-02    0.6956532570E+00    0.1608751523E+00    0.6457804118E-04
    0.3000000000E+05    0.3889984299E-01    0.2993320658E-02    0.6958602800E+00    0.3030328532E+00    0.6865395317E-04
    0.5000000000E+05    0.3095989689E-01    0.2419525079E-02    0.6959008741E+00    0.3828572356E+00    0.7063287538E-04
    0.7000000000E+05    0.2428077118E-01    0.1921236419E-02    0.6959178953E+00    0.4362973921E+00    0.7196695418E-04
    0.9000000000E+05    0.1926030268E-01    0.1539864498E-02    0.6959271326E+00    0.4745122423E+00    0.7297964618E-04
    0.1100000000E+06    0.1552702377E-01    0.1252483629E-02    0.6959328668E+00    0.5029581332E+00    0.7379841616E-04
    0.1300000000E+06    0.1272196815E-01    0.1034241388E-02    0.6959367344E+00    0.5247786768E+00    0.7448698867E-04
    0.1500000000E+06    0.1058081470E-01    0.8661527435E-03    0.6959394941E+00    0.5419318375E+00    0.7508191332E-04
    0.1700000000E+06    0.8919013265E-02    0.7346793825E-03    0.6959415451E+00    0.5556971439E+00    0.7560614375E-04
    0.1900000000E+06    0.7608507135E-02    0.6302868340E-03    0.6959431167E+00    0.5669409771E+00    0.7607505950E-04
    0.2100000000E+06    0.6559661226E-02    0.5462241717E-03    0.6959443499E+00    0.5762671847E+00    0.7649947929E-04
    0.2300000000E+06    0.5708852398E-02    0.4776542579E-03    0.6959453360E+00    0.5841071746E+00    0.7688730835E-04
    0.2500000000E+06    0.5010212947E-02    0.4210618848E-03    0.6959461368E+00    0.5907759100E+00    0.7724450196E-04
    0.2700000000E+06    0.4430154715E-02    0.3738549576E-03    0.6959467952E+00    0.5965078053E+00    0.7757566036E-04
    0.2900000000E+06    0.3943708809E-02    0.3340946375E-03    0.6959473422E+00    0.6014803545E+00    0.7788441229E-04
    0.3100000000E+06    0.3532048492E-02    0.3003109005E-03    0.6959478005E+00    0.6058300496E+00    0.7817367155E-04
    0.3300000000E+06    0.3180788963E-02    0.2713748852E-03    0.6959481873E+00    0.6096633324E+00    0.7844581392E-04
    0.3500000000E+06    0.2878803287E-02    0.2464093516E-03    0.6959485156E+00    0.6130642712E+00    0.7870280246E-04
    0.3700000000E+06    0.2617385870E-02    0.2247250214E-03    0.6959487956E+00    0.6161000365E+00    0.7894627818E-04
    0.3900000000E+06    0.2389653251E-02    0.2057747205E-03    0.6959490353E+00    0.6188248680E+00    0.7917762714E-04
    0.4100000000E+06    0.2190109217E-02    0.1891199262E-03    0.6959492413E+00    0.6212829899E+00    0.7939803084E-04
    0.4300000000E+06    0.2014325233E-02    0.1744060704E-03    0.6959494185E+00    0.6235107833E+00    0.7960850478E-04
    0.4500000000E+06    0.1858702849E-02    0.1613440985E-03    0.6959495712E+00    0.6255384240E+00    0.7980992822E-04
    0.4700000000E+06    0.1720295103E-02    0.1496965531E-03    0.6959497030E+00    0.6273911311E+00    0.8000306765E-04
    0.4900000000E+06    0.1596670889E-02    0.1392669655E-03    0.6959498166E+00    0.6290901306E+00    0.8018859537E-04
    0.1000000000E+06    0.1725736917E-01    0.1386099784E-02    0.6959303044E+00    0.4897234465E+00    0.7340840242E-04
    0.3000000000E+06    0.3729517702E-02    0.3165330458E-03    0.6959475812E+00    0.6037258047E+00    0.7803131908E-04
    0.5000000000E+06    0.1539757832E-02    0.1344566686E-03    0.6959498673E+00    0.6298877190E+00    0.8027869288E-04
    0.7000000000E+06    0.8312333563E-03    0.7399507390E-04    0.6959503462E+00    0.6409622839E+00    0.8179420792E-04
    0.9000000000E+06    0.5182405939E-03    0.4680681413E-04    0.6959503290E+00    0.6470076559E+00    0.8294478406E-04
    0.1100000000E+07    0.3533987883E-03    0.3229172878E-04    0.6959501348E+00    0.6507990428E+00    0.8387510576E-04
    0.1300000000E+07    0.2561779096E-03    0.2363604566E-04    0.6959498716E+00    0.6533937442E+00    0.8465752953E-04
    0.1500000000E+07    0.1941205297E-03    0.1805947865E-04    0.6959495831E+00    0.6552791301E+00    0.8533356393E-04
    0.1700000000E+07    0.1521260485E-03    0.1425541678E-04    0.6959492886E+00    0.6567102272E+00    0.8592928035E-04
    0.1900000000E+07    0.1224025113E-03    0.1154385193E-04    0.6959489973E+00    0.6578331618E+00    0.8646214890E-04
    0.2100000000E+07    0.1006010902E-03    0.9542423634E-05    0.6959487134E+00    0.6587375806E+00    0.8694445978E-04
    0.2300000000E+07    0.8414041654E-04    0.8022669331E-05    0.6959484389E+00    0.6594814918E+00    0.8738519392E-04
    0.2500000000E+07    0.7141017248E-04    0.6841222088E-05    0.6959481744E+00    0.6601040714E+00    0.8779111728E-04
    0.2700000000E+07    0.6136379244E-04    0.5904403550E-05    0.6959479202E+00    0.6606327225E+00    0.8816745647E-04
    0.2900000000E+07    0.5329731451E-04    0.5148890795E-05    0.6959476759E+00    0.6610871838E+00    0.8851833447E-04
    0.3100000000E+07    0.4672316613E-04    0.4530625875E-05    0.6959474410E+00    0.6614820314E+00    0.8884706200E-04
    0.3300000000E+07    0.4129502539E-04    0.4018182248E-05    0.6959472152E+00    0.6618282611E+00    0.8915633856E-04
    0.3500000000E+07    0.3676143906E-04    0.3588652144E-05    0.6959469979E+00    0.6621343238E+00    0.8944839470E-04
    0.3700000000E+07    0.3293627764E-04    0.3225016225E-05    0.6959467885E+00    0.6624068204E+00    0.8972509510E-04
    0.3900000000E+07    0.2967938976E-04    0.2914414757E-05    0.6959465867E+00    0.6626509816E+00    0.8998801474E-04
    0.4100000000E+07    0.2688362297E-04    0.2646983576E-05    0.6959463919E+00    0.6628710058E+00    0.9023849619E-04
    0.4300000000E+07    0.2446592485E-04    0.2415053334E-05    0.6959462036E+00    0.6630703014E+00    0.9047769337E-04
    0.4500000000E+07    0.2236112225E-04    0.2212587940E-05    0.6959460216E+00    0.6632516643E+00    0.9070660544E-04
    0.4700000000E+07    0.2051749563E-04    0.2034783866E-05    0.6959458453E+00    0.6634174095E+00    0.9092610340E-04
    0.4900000000E+07    0.1889358041E-04    0.1877779687E-05    0.6959456746E+00    0.6635694701E+00    0.9113695122E-04
    0.1000000000E+07    0.4241015500E-03    0.3853868602E-04    0.6959502449E+00    0.6490989182E+00    0.8343194854E-04
    0.3000000000E+07    0.4984800745E-04    0.4824805243E-05    0.6959475573E+00    0.6612913023E+00    0.8868528589E-04
    0.5000000000E+07    0.1815327052E-04    0.1806074721E-05    0.6959455911E+00    0.6636408873E+00    0.9123934502E-04
    0.7000000000E+07    0.9336262074E-05    0.9441356728E-06    0.6959441438E+00    0.6646372554E+00    0.9296170401E-04
    0.9000000000E+07    0.5693440276E-05    0.5818387339E-06    0.6959429992E+00    0.6651879603E+00    0.9426932531E-04
    0.1100000000E+08    0.3844859846E-05    0.3956352813E-06    0.6959420510E+00    0.6655373466E+00    0.9532663307E-04
    0.1300000000E+08    0.2779453226E-05    0.2872466336E-06    0.6959412401E+00    0.6657787463E+00    0.9621585724E-04
    0.1500000000E+08    0.2109662382E-05    0.2185558100E-06    0.6959405310E+00    0.6659555237E+00    0.9698417099E-04
    0.1700000000E+08    0.1661088030E-05    0.1722457746E-06    0.6959399003E+00    0.6660905662E+00    0.9766120386E-04
    0.1900000000E+08    0.1345846146E-05    0.1395196672E-06    0.6959393318E+00    0.6661970947E+00    0.9826681035E-04
    0.2100000000E+08    0.1115744014E-05    0.1155200987E-06    0.6959388139E+00    0.6662832789E+00    0.9881495813E-04
    0.2300000000E+08    0.9425603528E-06    0.9738534834E-07    0.6959383382E+00    0.6663544399E+00    0.9931585393E-04
    0.2500000000E+08    0.8088767018E-06    0.8333963257E-07    0.6959378980E+00    0.6664141918E+00    0.9977718724E-04
    0.2700000000E+08    0.7034687706E-06    0.7223314856E-07    0.6959374882E+00    0.6664650754E+00    0.1002048981E-03
