  Pressure (Pa) 22mC5-500 (mol/kg) 23mC5-500 (mol/kg) 24mC5-500 (mol/kg) 3mC6-500 (mol/kg) C7-500 (mol/kg)
    0.1000000000E+01    0.2048439316E-04    0.4417677738E-05    0.6965255411E-01    0.3061816584E-05    0.4147712855E-02
    0.3000000000E+01    0.4901249231E-04    0.1055005583E-04    0.1740960308E+00    0.7553693370E-05    0.4178842875E-02
    0.5000000000E+01    0.6791760085E-04    0.1459927352E-04    0.2486733291E+00    0.1162322565E-04    0.4191448246E-02
    0.7000000000E+01    0.8117473911E-04    0.1742951138E-04    0.3045931355E+00    0.1549224937E-04    0.4199632993E-02
    0.9000000000E+01    0.9088190446E-04    0.1949589599E-04    0.3480789106E+00    0.1923411264E-04    0.4205573103E-02
    0.1100000000E+02    0.9824631005E-04    0.2105978128E-04    0.3828631321E+00    0.2288513657E-04    0.4210111674E-02
    0.1300000000E+02    0.1040058566E-03    0.2228058675E-04    0.4113202303E+00    0.2646678524E-04    0.4213688893E-02
    0.1500000000E+02    0.1086331436E-03    0.2326019595E-04    0.4350327455E+00    0.2999312532E-04    0.4216569107E-02
    0.1700000000E+02    0.1124424144E-03    0.2406620320E-04    0.4550960517E+00    0.3347403115E-04    0.4218924418E-02
    0.1900000000E+02    0.1156491542E-03    0.2474485279E-04    0.4722924233E+00    0.3691678361E-04    0.4220873052E-02
    0.2100000000E+02    0.1184049831E-03    0.2532860524E-04    0.4871954458E+00    0.4032695386E-04    0.4222499462E-02
    0.2300000000E+02    0.1208189404E-03    0.2584074667E-04    0.5002352559E+00    0.4370893007E-04    0.4223865830E-02
    0.2500000000E+02    0.1229709247E-03    0.2629829566E-04    0.5117407480E+00    0.4706624989E-04    0.4225019072E-02
    0.2700000000E+02    0.1249204369E-03    0.2671389174E-04    0.5219677061E+00    0.5040182043E-04    0.4225995321E-02
    0.2900000000E+02    0.1267124170E-03    0.2709705423E-04    0.5311180498E+00    0.5371806912E-04    0.4226822884E-02
    0.3100000000E+02    0.1283812290E-03    0.2745504051E-04    0.5393533041E+00    0.5701705063E-04    0.4227524279E-02
    0.3300000000E+02    0.1299534364E-03    0.2779344302E-04    0.5468042197E+00    0.6030052456E-04    0.4228117649E-02
    0.3500000000E+02    0.1314497704E-03    0.2811661191E-04    0.5535777694E+00    0.6357001322E-04    0.4228617787E-02
    0.3700000000E+02    0.1328865479E-03    0.2842795905E-04    0.5597623180E+00    0.6682684547E-04    0.4229036878E-02
    0.3900000000E+02    0.1342767076E-03    0.2873017985E-04    0.5654314999E+00    0.7007219046E-04    0.4229385055E-02
    0.4100000000E+02    0.1356305773E-03    0.2902541726E-04    0.5706471662E+00    0.7330708417E-04    0.4229670814E-02
    0.4300000000E+02    0.1369564485E-03    0.2931538438E-04    0.5754616505E+00    0.7653245037E-04    0.4229901332E-02
    0.4500000000E+02    0.1382610113E-03    0.2960145714E-04    0.5799195324E+00    0.7974911750E-04    0.4230082718E-02
    0.4700000000E+02    0.1395496876E-03    0.2988474508E-04    0.5840590221E+00    0.8295783237E-04    0.4230220203E-02
    0.4900000000E+02    0.1408268878E-03    0.3016614585E-04    0.5879130585E+00    0.8615927144E-04    0.4230318294E-02
    0.1000000000E+02    0.9480287947E-04    0.2032896128E-04    0.3663868662E+00    0.2106940898E-04    0.4207984426E-02
    0.3000000000E+02    0.1275604023E-03    0.2727881149E-04    0.5353412624E+00    0.5536960214E-04    0.4227188130E-02
    0.5000000000E+02    0.1414623360E-03    0.3030637175E-04    0.5897421037E+00    0.8775745700E-04    0.4230353806E-02
    0.7000000000E+02    0.1541575295E-03    0.3312943844E-04    0.6166001983E+00    0.1194635686E-03    0.4229715162E-02
    0.9000000000E+02    0.1674125122E-03    0.3609899073E-04    0.6326083059E+00    0.1509063354E-03    0.4227554680E-02
    0.1100000000E+03    0.1814160951E-03    0.3924381804E-04    0.6432367604E+00    0.1822981831E-03    0.4224619213E-02
    0.1300000000E+03    0.1961166557E-03    0.4254731350E-04    0.6508075120E+00    0.2137686470E-03    0.4221225117E-02
    0.1500000000E+03    0.2114352859E-03    0.4598969158E-04    0.6564742727E+00    0.2454061164E-03    0.4217528623E-02
    0.1700000000E+03    0.2273045185E-03    0.4955490825E-04    0.6608751583E+00    0.2772758402E-03    0.4213615125E-02
    0.1900000000E+03    0.2436728620E-03    0.5323101900E-04    0.6643917756E+00    0.3094289275E-03    0.4209534724E-02
    0.2100000000E+03    0.2605025155E-03    0.5700939079E-04    0.6672663444E+00    0.3419073294E-03    0.4205318334E-02
    0.2300000000E+03    0.2777662949E-03    0.6088388771E-04    0.6696600157E+00    0.3747468097E-03    0.4200985713E-02
    0.2500000000E+03    0.2954450434E-03    0.6485023013E-04    0.6716841699E+00    0.4079788244E-03    0.4196549775E-02
    0.2700000000E+03    0.3135256675E-03    0.6890552438E-04    0.6734182547E+00    0.4416317666E-03    0.4192019050E-02
    0.2900000000E+03    0.3319996960E-03    0.7304792397E-04    0.6749204640E+00    0.4757318252E-03    0.4187399149E-02
    0.3100000000E+03    0.3508622290E-03    0.7727638594E-04    0.6762343995E+00    0.5103035954E-03    0.4182693682E-02
    0.3300000000E+03    0.3701111689E-03    0.8159049452E-04    0.6773933753E+00    0.5453705278E-03    0.4177904842E-02
    0.3500000000E+03    0.3897466564E-03    0.8599033238E-04    0.6784232828E+00    0.5809552652E-03    0.4173033794E-02
    0.3700000000E+03    0.4097706509E-03    0.9047638583E-04    0.6793445494E+00    0.6170799033E-03    0.4168080941E-02
    0.3900000000E+03    0.4301866179E-03    0.9504947440E-04    0.6801735073E+00    0.6537661960E-03    0.4163046106E-02
    0.4100000000E+03    0.4509992932E-03    0.9971069803E-04    0.6809233709E+00    0.6910357204E-03    0.4157928659E-02
    0.4300000000E+03    0.4722145053E-03    0.1044613974E-03    0.6816049472E+00    0.7289100129E-03    0.4152727611E-02
    0.4500000000E+03    0.4938390398E-03    0.1093031241E-03    0.6822271598E+00    0.7674106836E-03    0.4147441679E-02
    0.4700000000E+03    0.5158805372E-03    0.1142376173E-03    0.6827974423E+00    0.8065595134E-03    0.4142069336E-02
    0.4900000000E+03    0.5383474144E-03    0.1192667876E-03    0.6833220369E+00    0.8463785392E-03    0.4136608848E-02
    0.1000000000E+03    0.1743223471E-03    0.3765027592E-04    0.6384099274E+00    0.1665992515E-03    0.4226158578E-02
    0.3000000000E+03    0.3413825888E-03    0.7515143614E-04    0.6755986817E+00    0.4929572582E-03    0.4185056947E-02
    0.5000000000E+03    0.5497431986E-03    0.1218175170E-03    0.6835688836E+00    0.8665463511E-03    0.4133844956E-02
    0.7000000000E+03    0.8026114110E-03    0.1783936083E-03    0.6870442520E+00    0.1310867272E-02    0.4073382809E-02
    0.9000000000E+03    0.1112839335E-02    0.2477699322E-03    0.6889910381E+00    0.1852235734E-02    0.4000969217E-02
    0.1100000000E+04    0.1500272534E-02    0.3343908717E-03    0.6902360205E+00    0.2526787592E-02    0.3912504659E-02
    0.1300000000E+04    0.1994557390E-02    0.4448884325E-03    0.6911007790E+00    0.3387200044E-02    0.3802026750E-02
    0.1500000000E+04    0.2640627065E-02    0.5893112413E-03    0.6917364431E+00    0.4512904979E-02    0.3660728943E-02
    0.1700000000E+04    0.3507713674E-02    0.7831413888E-03    0.6922234134E+00    0.6026380223E-02    0.3475435926E-02
    0.1900000000E+04    0.4702678823E-02    0.1050277964E-02    0.6926084059E+00    0.8117369996E-02    0.3226597588E-02
    0.2100000000E+04    0.6383708221E-02    0.1426105764E-02    0.6929204207E+00    0.1106872755E-01    0.2887052944E-02
    0.2300000000E+04    0.8748494655E-02    0.1954868120E-02    0.6931784133E+00    0.1523941577E-01    0.2427373521E-02
    0.2500000000E+04    0.1191366478E-01    0.2662731715E-02    0.6933952968E+00    0.2085807556E-01    0.1843467629E-02
    0.2700000000E+04    0.1560991509E-01    0.3489620852E-02    0.6935801721E+00    0.2748542062E-01    0.1213016655E-02
    0.2900000000E+04    0.1907591858E-01    0.4265399670E-02    0.6937396382E+00    0.3380266584E-01    0.6935390628E-03
    0.3100000000E+04    0.2171984980E-01    0.4857683073E-02    0.6938785965E+00    0.3875205980E-01    0.3773679395E-03
    0.3300000000E+04    0.2358931279E-01    0.5276992826E-02    0.6940007639E+00    0.4238670811E-01    0.2248069573E-03
    0.3500000000E+04    0.2499157932E-01    0.5591955929E-02    0.6941090101E+00    0.4522907651E-01    0.1601795187E-03
    0.3700000000E+04    0.2615610722E-01    0.5853848676E-02    0.6942055861E+00    0.4767660078E-01    0.1344214040E-03
    0.3900000000E+04    0.2719998717E-01    0.6088842789E-02    0.6942922823E+00    0.4993363369E-01    0.1244784972E-03
    0.4100000000E+04    0.2817551676E-01    0.6308627850E-02    0.6943705408E+00    0.5209156826E-01    0.1207736916E-03
    0.4300000000E+04    0.2910525324E-01    0.6518244295E-02    0.6944415360E+00    0.5418948998E-01    0.1195043651E-03
    0.4500000000E+04    0.2999913460E-01    0.6719910706E-02    0.6945062338E+00    0.5624414635E-01    0.1191820383E-03
    0.4700000000E+04    0.3086187692E-01    0.6914677835E-02    0.6945654364E+00    0.5826300565E-01    0.1192253647E-03
    0.4900000000E+04    0.3169603669E-01    0.7103113524E-02    0.6946198151E+00    0.6024970296E-01    0.1194068464E-03
    0.1000000000E+04    0.1295332181E-02    0.2885728337E-03    0.6896751819E+00    0.2170055678E-02    0.3959063173E-02
    0.3000000000E+04    0.2051033974E-01    0.4586654360E-02    0.6938114254E+00    0.3646745780E-01    0.5102973886E-03
    0.5000000000E+04    0.3210293187E-01    0.7195075253E-02    0.6946453759E+00    0.6123166078E-01    0.1195188641E-03
    0.7000000000E+04    0.3902087702E-01    0.8763838109E-02    0.6950033967E+00    0.7948458027E-01    0.1217679204E-03
    0.9000000000E+04    0.4411408684E-01    0.9927307066E-02    0.6952023798E+00    0.9556976083E-01    0.1235010479E-03
    0.1100000000E+05    0.4790472242E-01    0.1080058306E-01    0.6953289855E+00    0.1099923516E+00    0.1248989238E-03
    0.1300000000E+05    0.5073966690E-01    0.1146025834E-01    0.6954165929E+00    0.1231029329E+00    0.1260726757E-03
    0.1500000000E+05    0.5285754793E-01    0.1195911607E-01    0.6954807927E+00    0.1351534214E+00    0.1270856841E-03
    0.1700000000E+05    0.5442730883E-01    0.1233459562E-01    0.6955298440E+00    0.1463300057E+00    0.1279775980E-03
    0.1900000000E+05    0.5557151361E-01    0.1261391170E-01    0.6955685302E+00    0.1567736337E+00    0.1287749076E-03
    0.2100000000E+05    0.5638096335E-01    0.1281726775E-01    0.6955998133E+00    0.1665932346E+00    0.1294962076E-03
    0.2300000000E+05    0.5692416209E-01    0.1295993895E-01    0.6956256254E+00    0.1758745230E+00    0.1301550617E-03
    0.2500000000E+05    0.5725362028E-01    0.1305366065E-01    0.6956472805E+00    0.1846860248E+00    0.1307616743E-03
    0.2700000000E+05    0.5741015615E-01    0.1310757668E-01    0.6956657032E+00    0.1930833009E+00    0.1313239188E-03
    0.2900000000E+05    0.5742589490E-01    0.1312890133E-01    0.6956815631E+00    0.2011119713E+00    0.1318480001E-03
    0.3100000000E+05    0.5732640055E-01    0.1312339031E-01    0.6956953570E+00    0.2088099212E+00    0.1323388966E-03
    0.3300000000E+05    0.5713221749E-01    0.1309568170E-01    0.6957074613E+00    0.2162089372E+00    0.1328006648E-03
    0.3500000000E+05    0.5686000275E-01    0.1304954665E-01    0.6957181661E+00    0.2233359408E+00    0.1332366542E-03
    0.3700000000E+05    0.5652336926E-01    0.1298807628E-01    0.6957276989E+00    0.2302139292E+00    0.1336496636E-03
    0.3900000000E+05    0.5613352201E-01    0.1291382289E-01    0.6957362406E+00    0.2368627038E+00    0.1340420558E-03
    0.4100000000E+05    0.5569974373E-01    0.1282890783E-01    0.6957439365E+00    0.2432994388E+00    0.1344158442E-03
    0.4300000000E+05    0.5522976939E-01    0.1273510483E-01    0.6957509051E+00    0.2495391320E+00    0.1347727584E-03
    0.4500000000E+05    0.5473007820E-01    0.1263390506E-01    0.6957572438E+00    0.2555949631E+00    0.1351142958E-03
    0.4700000000E+05    0.5420612303E-01    0.1252656823E-01    0.6957630331E+00    0.2614785827E+00    0.1354417610E-03
    0.4900000000E+05    0.5366251242E-01    0.1241416331E-01    0.6957683408E+00    0.2672003473E+00    0.1357562983E-03
    0.1000000000E+05    0.4614740906E-01    0.1039474253E-01    0.6952720185E+00    0.1029641513E+00    0.1242333853E-03
    0.3000000000E+05    0.5738916511E-01    0.1312918751E-01    0.6956886924E+00    0.2050001728E+00    0.1320973242E-03
    0.5000000000E+05    0.5338458202E-01    0.1235635033E-01    0.6957708321E+00    0.2700034643E+00    0.1359090390E-03
    0.7000000000E+05    0.4748163706E-01    0.1109561516E-01    0.6958054151E+00    0.3193800236E+00    0.1384776250E-03
    0.9000000000E+05    0.4177707301E-01    0.9842740393E-02    0.6958242543E+00    0.3591202644E+00    0.1404270550E-03
    0.1100000000E+06    0.3670931045E-01    0.8711131337E-02    0.6958359927E+00    0.3919715623E+00    0.1420030138E-03
    0.1300000000E+06    0.3232675132E-01    0.7720578771E-02    0.6958439394E+00    0.4195553166E+00    0.1433282763E-03
    0.1500000000E+06    0.2857128562E-01    0.6863461567E-02    0.6958496314E+00    0.4429698558E+00    0.1444732427E-03
    0.1700000000E+06    0.2535966774E-01    0.6124435590E-02    0.6958538780E+00    0.4630176052E+00    0.1454821171E-03
    0.1900000000E+06    0.2260956447E-01    0.5487091699E-02    0.6958571452E+00    0.4803101926E+00    0.1463845139E-03
    0.2100000000E+06    0.2024765888E-01    0.4936254320E-02    0.6958597199E+00    0.4953256697E+00    0.1472012630E-03
    0.2300000000E+06    0.1821138931E-01    0.4458663632E-02    0.6958617879E+00    0.5084437705E+00    0.1479475837E-03
    0.2500000000E+06    0.1644840320E-01    0.4043034480E-02    0.6958634750E+00    0.5199696090E+00    0.1486349408E-03
    0.2700000000E+06    0.1491527907E-01    0.3679884153E-02    0.6958648691E+00    0.5301505448E+00    0.1492721895E-03
    0.2900000000E+06    0.1357612396E-01    0.3361290893E-02    0.6958660333E+00    0.5391886330E+00    0.1498663151E-03
    0.3100000000E+06    0.1240127596E-01    0.3080649914E-02    0.6958670144E+00    0.5472500334E+00    0.1504229261E-03
    0.3300000000E+06    0.1136618380E-01    0.2832452594E-02    0.6958678473E+00    0.5544722356E+00    0.1509465954E-03
    0.3500000000E+06    0.1045047172E-01    0.2612096508E-02    0.6958685589E+00    0.5609696693E+00    0.1514411015E-03
    0.3700000000E+06    0.9637172403E-02    0.2415726237E-02    0.6958691702E+00    0.5668381003E+00    0.1519096028E-03
    0.3900000000E+06    0.8912103602E-02    0.2240101871E-02    0.6958696977E+00    0.5721581000E+00    0.1523547670E-03
    0.4100000000E+06    0.8263363723E-02    0.2082491203E-02    0.6958701544E+00    0.5769977998E+00    0.1527788680E-03
    0.4300000000E+06    0.7680924205E-02    0.1940581673E-02    0.6958705512E+00    0.5814150936E+00    0.1531838603E-03
    0.4500000000E+06    0.7156299982E-02    0.1812408534E-02    0.6958708967E+00    0.5854594054E+00    0.1535714361E-03
    0.4700000000E+06    0.6682282600E-02    0.1696296206E-02    0.6958711980E+00    0.5891731183E+00    0.1539430706E-03
    0.4900000000E+06    0.6252723541E-02    0.1590810341E-02    0.6958714611E+00    0.5925927338E+00    0.1543000574E-03
    0.1000000000E+06    0.3915639908E-01    0.9259500442E-02    0.6958307419E+00    0.3762893025E+00    0.1412523366E-03
    0.3000000000E+06    0.1296980397E-01    0.3216593967E-02    0.6958665443E+00    0.5433322266E+00    0.1501490030E-03
    0.5000000000E+06    0.6052940183E-02    0.1541660245E-02    0.6958715799E+00    0.5942022898E+00    0.1544734199E-03
    0.7000000000E+06    0.3446101626E-02    0.8940769637E-03    0.6958728152E+00    0.6167276038E+00    0.1573894846E-03
    0.9000000000E+06    0.2211239122E-02    0.5818587056E-03    0.6958729768E+00    0.6290182982E+00    0.1596033172E-03
    0.1100000000E+07    0.1534922786E-02    0.4085335623E-03    0.6958727391E+00    0.6366413651E+00    0.1613933376E-03
    0.1300000000E+07    0.1126041205E-02    0.3025888818E-03    0.6958723350E+00    0.6417902223E+00    0.1628987786E-03
    0.1500000000E+07    0.8605783861E-03    0.2331656521E-03    0.6958718607E+00    0.6454842664E+00    0.1641995117E-03
    0.1700000000E+07    0.6787131462E-03    0.1852226412E-03    0.6958713601E+00    0.6482558912E+00    0.1653457031E-03
    0.1900000000E+07    0.5487851905E-03    0.1507290517E-03    0.6958708551E+00    0.6504082657E+00    0.1663709682E-03
    0.2100000000E+07    0.4527906075E-03    0.1250832181E-03    0.6958703566E+00    0.6521259093E+00    0.1672989553E-03
    0.2300000000E+07    0.3798881701E-03    0.1054955255E-03    0.6958698700E+00    0.6535272089E+00    0.1681469449E-03
    0.2500000000E+07    0.3232377122E-03    0.9019526876E-04    0.6958693981E+00    0.6546914416E+00    0.1689279555E-03
    0.2700000000E+07    0.2783527201E-03    0.7801467859E-04    0.6958689419E+00    0.6556736068E+00    0.1696520439E-03
    0.2900000000E+07    0.2421924317E-03    0.6815833491E-04    0.6958685016E+00    0.6565130128E+00    0.1703271430E-03
    0.3100000000E+07    0.2126373513E-03    0.6006925388E-04    0.6958680770E+00    0.6572384740E+00    0.1709596230E-03
    0.3300000000E+07    0.1881738480E-03    0.5334796841E-04    0.6958676674E+00    0.6578715785E+00    0.1715546781E-03
    0.3500000000E+07    0.1676978023E-03    0.4770192661E-04    0.6958672723E+00    0.6584288106E+00    0.1721166001E-03
    0.3700000000E+07    0.1503886199E-03    0.4291288965E-04    0.6958668909E+00    0.6589229690E+00    0.1726489767E-03
    0.3900000000E+07    0.1356262194E-03    0.3881536712E-04    0.6958665225E+00    0.6593641389E+00    0.1731548383E-03
    0.4100000000E+07    0.1229350329E-03    0.3528201685E-04    0.6958661664E+00    0.6597603725E+00    0.1736367681E-03
    0.4300000000E+07    0.1119454263E-03    0.3221355226E-04    0.6958658218E+00    0.6601181748E+00    0.1740969865E-03
    0.4500000000E+07    0.1023666155E-03    0.2953163390E-04    0.6958654881E+00    0.6604428574E+00    0.1745374158E-03
    0.4700000000E+07    0.9396732436E-04    0.2717377772E-04    0.6958651648E+00    0.6607387992E+00    0.1749597319E-03
    0.4900000000E+07    0.8656175744E-04    0.2508965144E-04    0.6958648511E+00    0.6610096420E+00    0.1753654047E-03
    0.1000000000E+07    0.1827455709E-02    0.4837567471E-03    0.6958728884E+00    0.6332351563E+00    0.1605406662E-03
    0.3000000000E+07    0.2266953090E-03    0.6392084166E-04    0.6958682874E+00    0.6568884970E+00    0.1706483618E-03
    0.5000000000E+07    0.8318339877E-04    0.2413714355E-04    0.6958646978E+00    0.6611366252E+00    0.1755624111E-03
    0.7000000000E+07    0.4282732925E-04    0.1265145570E-04    0.6958620294E+00    0.6628929585E+00    0.1788762313E-03
    0.9000000000E+07    0.2608274633E-04    0.7801273037E-05    0.6958599111E+00    0.6638509732E+00    0.1813920838E-03
    0.1100000000E+08    0.1756889113E-04    0.5302476687E-05    0.6958581531E+00    0.6644538384E+00    0.1834263279E-03
    0.1300000000E+08    0.1265789063E-04    0.3845944982E-05    0.6958566485E+00    0.6648680682E+00    0.1851371770E-03
    0.1500000000E+08    0.9569881282E-05    0.2922160171E-05    0.6958553321E+00    0.6651701893E+00    0.1866153936E-03
    0.1700000000E+08    0.7502243038E-05    0.2299112167E-05    0.6958541610E+00    0.6654002772E+00    0.1879179854E-03
    0.1900000000E+08    0.6049950163E-05    0.1858754967E-05    0.6958531054E+00    0.6655813446E+00    0.1890831530E-03
    0.2100000000E+08    0.4990689765E-05    0.1535831801E-05    0.6958521441E+00    0.6657275470E+00    0.1901377702E-03
    0.2300000000E+08    0.4194194532E-05    0.1291864047E-05    0.6958512611E+00    0.6658480693E+00    0.1911014749E-03
    0.2500000000E+08    0.3580029268E-05    0.1102959333E-05    0.6958504442E+00    0.6659491310E+00    0.1919890618E-03
    0.2700000000E+08    0.3096349902E-05    0.9536401483E-06    0.6958496840E+00    0.6660350934E+00    0.1928119594E-03
