  Pressure (Pa) 22mC5-500 (mol/kg) 23mC5-500 (mol/kg) 24mC5-500 (mol/kg) 3mC6-500 (mol/kg) C7-500 (mol/kg)
    0.1000000000E+01    0.2119717705E-04    0.2284662427E-05    0.3665832583E-01    0.1503404964E-05    0.4219232445E-02
    0.3000000000E+01    0.5600850170E-04    0.6029718373E-05    0.9947361679E-01    0.3874824377E-05    0.4318921153E-02
    0.5000000000E+01    0.8352162393E-04    0.8983480847E-05    0.1513385078E+00    0.6061115076E-05    0.4399743040E-02
    0.7000000000E+01    0.1056851801E-03    0.1135812980E-04    0.1948870628E+00    0.8156762255E-05    0.4467725044E-02
    0.9000000000E+01    0.1238140695E-03    0.1329664372E-04    0.2319712228E+00    0.1019387007E-04    0.4525850486E-02
    0.1100000000E+02    0.1388365687E-03    0.1489985723E-04    0.2639310394E+00    0.1218857229E-04    0.4576177427E-02
    0.1300000000E+02    0.1514265267E-03    0.1624089644E-04    0.2917601070E+00    0.1415050274E-04    0.4620212643E-02
    0.1500000000E+02    0.1620840202E-03    0.1737397700E-04    0.3162107329E+00    0.1608602611E-04    0.4659092446E-02
    0.1700000000E+02    0.1711871307E-03    0.1834004810E-04    0.3378629891E+00    0.1799963965E-04    0.4693692143E-02
    0.1900000000E+02    0.1790263334E-03    0.1917053895E-04    0.3571713353E+00    0.1989467787E-04    0.4724697718E-02
    0.2100000000E+02    0.1858279605E-03    0.1988991339E-04    0.3744968738E+00    0.2177370451E-04    0.4752654762E-02
    0.2300000000E+02    0.1917705767E-03    0.2051745197E-04    0.3901301514E+00    0.2363874741E-04    0.4778002841E-02
    0.2500000000E+02    0.1969966358E-03    0.2106851975E-04    0.4043075896E+00    0.2549144747E-04    0.4801100180E-02
    0.2700000000E+02    0.2016209250E-03    0.2155548409E-04    0.4172235277E+00    0.2733315760E-04    0.4822241724E-02
    0.2900000000E+02    0.2057367759E-03    0.2198838951E-04    0.4290391868E+00    0.2916501090E-04    0.4841672578E-02
    0.3100000000E+02    0.2094206990E-03    0.2237546085E-04    0.4398894368E+00    0.3098796908E-04    0.4859598152E-02
    0.3300000000E+02    0.2127358853E-03    0.2272348318E-04    0.4498879689E+00    0.3280285775E-04    0.4876191915E-02
    0.3500000000E+02    0.2157348824E-03    0.2303809210E-04    0.4591312958E+00    0.3461039283E-04    0.4891601397E-02
    0.3700000000E+02    0.2184616622E-03    0.2332399772E-04    0.4677018782E+00    0.3641120052E-04    0.4905952884E-02
    0.3900000000E+02    0.2209532331E-03    0.2358515938E-04    0.4756705926E+00    0.3820583283E-04    0.4919355124E-02
    0.4100000000E+02    0.2232409094E-03    0.2382492298E-04    0.4830986962E+00    0.3999477971E-04    0.4931902285E-02
    0.4300000000E+02    0.2253513180E-03    0.2404612990E-04    0.4900394058E+00    0.4177847874E-04    0.4943676328E-02
    0.4500000000E+02    0.2273072044E-03    0.2425120412E-04    0.4965391748E+00    0.4355732289E-04    0.4954748936E-02
    0.4700000000E+02    0.2291280805E-03    0.2444222223E-04    0.5026387347E+00    0.4533166691E-04    0.4965183080E-02
    0.4900000000E+02    0.2308307515E-03    0.2462097023E-04    0.5083739497E+00    0.4710183244E-04    0.4975034312E-02
    0.1000000000E+02    0.1316666635E-03    0.1413506590E-04    0.2485229073E+00    0.1119581889E-04    0.4551884270E-02
    0.3000000000E+02    0.2076285016E-03    0.2218720040E-04    0.4345774376E+00    0.3007754744E-04    0.4850812012E-02
    0.5000000000E+02    0.2316423786E-03    0.2470623317E-04    0.5111149809E+00    0.4798544085E-04    0.4979756935E-02
    0.7000000000E+02    0.2443178229E-03    0.2604761316E-04    0.5528487611E+00    0.6549754642E-04    0.5053017399E-02
    0.9000000000E+02    0.2538951609E-03    0.2708186316E-04    0.5791219237E+00    0.8281342688E-04    0.5100804450E-02
    0.1100000000E+03    0.2627428581E-03    0.2805435368E-04    0.5971836564E+00    0.1000345477E-03    0.5134669598E-02
    0.1300000000E+03    0.2716589947E-03    0.2904541878E-04    0.6103635530E+00    0.1172223275E-03    0.5160022437E-02
    0.1500000000E+03    0.2809260634E-03    0.3008208104E-04    0.6204053433E+00    0.1344180549E-03    0.5179750003E-02
    0.1700000000E+03    0.2906361054E-03    0.3117210042E-04    0.6283106233E+00    0.1516515528E-03    0.5195541471E-02
    0.1900000000E+03    0.3008065027E-03    0.3231593361E-04    0.6346957139E+00    0.1689455393E-03    0.5208455170E-02
    0.2100000000E+03    0.3114253107E-03    0.3351133357E-04    0.6399606651E+00    0.1863180540E-03    0.5219190288E-02
    0.2300000000E+03    0.3224700853E-03    0.3475521353E-04    0.6443764713E+00    0.2037839108E-03    0.5228228709E-02
    0.2500000000E+03    0.3339159155E-03    0.3604441371E-04    0.6481332310E+00    0.2213556200E-03    0.5235914227E-02
    0.2700000000E+03    0.3457388136E-03    0.3737600469E-04    0.6513682368E+00    0.2390439991E-03    0.5242499272E-02
    0.2900000000E+03    0.3579170348E-03    0.3874739002E-04    0.6541831215E+00    0.2568585939E-03    0.5248173749E-02
    0.3100000000E+03    0.3704314658E-03    0.4015632167E-04    0.6566547299E+00    0.2748079778E-03    0.5253083523E-02
    0.3300000000E+03    0.3832655987E-03    0.4160087945E-04    0.6588422419E+00    0.2928999694E-03    0.5257342664E-02
    0.3500000000E+03    0.3964053341E-03    0.4307943741E-04    0.6607919730E+00    0.3111417952E-03    0.5261041788E-02
    0.3700000000E+03    0.4098387261E-03    0.4459062767E-04    0.6625406897E+00    0.3295402140E-03    0.5264253877E-02
    0.3900000000E+03    0.4235557232E-03    0.4613330619E-04    0.6641179497E+00    0.3481016118E-03    0.5267038432E-02
    0.4100000000E+03    0.4375479257E-03    0.4770652214E-04    0.6655477863E+00    0.3668320786E-03    0.5269444493E-02
    0.4300000000E+03    0.4518083706E-03    0.4930949126E-04    0.6668499417E+00    0.3857374675E-03    0.5271512870E-02
    0.4500000000E+03    0.4663313431E-03    0.5094157312E-04    0.6680407834E+00    0.4048234447E-03    0.5273277826E-02
    0.4700000000E+03    0.4811122156E-03    0.5260225176E-04    0.6691339961E+00    0.4240955285E-03    0.5274768349E-02
    0.4900000000E+03    0.4961473094E-03    0.5429111942E-04    0.6701411096E+00    0.4435591234E-03    0.5276009141E-02
    0.1000000000E+03    0.2583417670E-03    0.2756887577E-04    0.5889181952E+00    0.9143137197E-04    0.5119055427E-02
    0.3000000000E+03    0.3641333150E-03    0.3944728989E-04    0.6554577875E+00    0.2658159330E-03    0.5250716462E-02
    0.5000000000E+03    0.5037592699E-03    0.5514602285E-04    0.6706154953E+00    0.4533644021E-03    0.5276542629E-02
    0.7000000000E+03    0.6690137767E-03    0.7368849466E-04    0.6773274004E+00    0.6608074328E-03    0.5277941735E-02
    0.9000000000E+03    0.8598631285E-03    0.9507648278E-04    0.6811133541E+00    0.8934941387E-03    0.5267027708E-02
    0.1100000000E+04    0.1079501020E-02    0.1196720420E-03    0.6835436263E+00    0.1157335553E-02    0.5247269715E-02
    0.1300000000E+04    0.1333121517E-02    0.1480591404E-03    0.6852354148E+00    0.1459504757E-02    0.5219658084E-02
    0.1500000000E+04    0.1627896328E-02    0.1810417835E-03    0.6864806585E+00    0.1809057900E-02    0.5184083714E-02
    0.1700000000E+04    0.1973414479E-02    0.2196936484E-03    0.6874353526E+00    0.2217701831E-02    0.5139729719E-02
    0.1900000000E+04    0.2382474086E-02    0.2654469133E-03    0.6881904240E+00    0.2700847769E-02    0.5085148976E-02
    0.2100000000E+04    0.2872289651E-02    0.3202274652E-03    0.6888024520E+00    0.3279111779E-02    0.5018192428E-02
    0.2300000000E+04    0.3466268892E-02    0.3866537791E-03    0.6893084863E+00    0.3980481014E-02    0.4935827666E-02
    0.2500000000E+04    0.4196584878E-02    0.4683247763E-03    0.6897338033E+00    0.4843438067E-02    0.4833847128E-02
    0.2700000000E+04    0.5107795480E-02    0.5702249255E-03    0.6900962376E+00    0.5921371361E-02    0.4706457470E-02
    0.2900000000E+04    0.6261589836E-02    0.6992556360E-03    0.6904087330E+00    0.7288412974E-02    0.4545775718E-02
    0.3100000000E+04    0.7741889455E-02    0.8648068018E-03    0.6906809107E+00    0.9045867992E-02    0.4341398476E-02
    0.3300000000E+04    0.9656735932E-02    0.1078969845E-02    0.6909200716E+00    0.1132512419E-01    0.4080624329E-02
    0.3500000000E+04    0.1212621016E-01    0.1355189827E-02    0.6911318550E+00    0.1427438249E-01    0.3750877710E-02
    0.3700000000E+04    0.1523328750E-01    0.1702773134E-02    0.6913206865E+00    0.1800154951E-01    0.3347299137E-02
    0.3900000000E+04    0.1891510755E-01    0.2114727974E-02    0.6914900873E+00    0.2244510457E-01    0.2887461311E-02
    0.4100000000E+04    0.2284693103E-01    0.2554774779E-02    0.6916428940E+00    0.2723206389E-01    0.2423847763E-02
    0.4300000000E+04    0.2651042045E-01    0.2964957753E-02    0.6917814175E+00    0.3175067512E-01    0.2028154441E-02
    0.4500000000E+04    0.2950999100E-01    0.3301012446E-02    0.6919075589E+00    0.3552250028E-01    0.1745777125E-02
    0.4700000000E+04    0.3178534702E-01    0.3556155069E-02    0.6920228968E+00    0.3846202231E-01    0.1572873976E-02
    0.4900000000E+04    0.3350222838E-01    0.3748889443E-02    0.6921287526E+00    0.4075547004E-01    0.1478012271E-02
    0.1000000000E+04    0.9658025707E-03    0.1069416707E-03    0.6824480084E+00    0.1021108688E-02    0.5258158265E-02
    0.3000000000E+04    0.6954707293E-02    0.7767702271E-03    0.6905493599E+00    0.8110804746E-02    0.4449800938E-02
    0.5000000000E+04    0.3421539557E-01    0.3829022661E-02    0.6921784801E+00    0.4173428201E-01    0.1449628272E-02
    0.7000000000E+04    0.4331028680E-01    0.4854901627E-02    0.6928721891E+00    0.5565825838E-01    0.1402608276E-02
    0.9000000000E+04    0.4997753836E-01    0.5611059900E-02    0.6932541489E+00    0.6745994363E-01    0.1422735574E-02
    0.1100000000E+05    0.5527179850E-01    0.6214704115E-02    0.6934947603E+00    0.7815379868E-01    0.1438987923E-02
    0.1300000000E+05    0.5951665947E-01    0.6701521502E-02    0.6936595288E+00    0.8795509371E-01    0.1452609105E-02
    0.1500000000E+05    0.6294385896E-01    0.7097100257E-02    0.6937789779E+00    0.9702301555E-01    0.1464349335E-02
    0.1700000000E+05    0.6572370754E-01    0.7420270444E-02    0.6938692340E+00    0.1054785800E+00    0.1474675960E-02
    0.1900000000E+05    0.6798393266E-01    0.7685173081E-02    0.6939396110E+00    0.1134156192E+00    0.1483900221E-02
    0.2100000000E+05    0.6982203400E-01    0.7902617639E-02    0.6939958594E+00    0.1209081501E+00    0.1492240047E-02
    0.2300000000E+05    0.7131360364E-01    0.8080996797E-02    0.6940417188E+00    0.1280154495E+00    0.1499854095E-02
    0.2500000000E+05    0.7251806189E-01    0.8226917496E-02    0.6940797247E+00    0.1347856302E+00    0.1506861535E-02
    0.2700000000E+05    0.7348269475E-01    0.8345645455E-02    0.6941116557E+00    0.1412582141E+00    0.1513354196E-02
    0.2900000000E+05    0.7424554919E-01    0.8441424167E-02    0.6941387954E+00    0.1474660172E+00    0.1519404364E-02
    0.3100000000E+05    0.7483754430E-01    0.8517707679E-02    0.6941620934E+00    0.1534365528E+00    0.1525069982E-02
    0.3300000000E+05    0.7528403410E-01    0.8577333027E-02    0.6941822664E+00    0.1591930932E+00    0.1530398225E-02
    0.3500000000E+05    0.7560598031E-01    0.8622649751E-02    0.6941998653E+00    0.1647554814E+00    0.1535428020E-02
    0.3700000000E+05    0.7582084346E-01    0.8655618369E-02    0.6942153206E+00    0.1701407623E+00    0.1540191871E-02
    0.3900000000E+05    0.7594326778E-01    0.8677886134E-02    0.6942289732E+00    0.1753636760E+00    0.1544717203E-02
    0.4100000000E+05    0.7598561311E-01    0.8690845906E-02    0.6942410962E+00    0.1804370493E+00    0.1549027375E-02
    0.4300000000E+05    0.7595837201E-01    0.8695682365E-02    0.6942519115E+00    0.1853721091E+00    0.1553142445E-02
    0.4500000000E+05    0.7587049974E-01    0.8693408597E-02    0.6942616006E+00    0.1901787347E+00    0.1557079769E-02
    0.4700000000E+05    0.7572967759E-01    0.8684895313E-02    0.6942703135E+00    0.1948656631E+00    0.1560854466E-02
    0.4900000000E+05    0.7554252450E-01    0.8670894356E-02    0.6942781755E+00    0.1994406572E+00    0.1564479791E-02
    0.1000000000E+05    0.5277343568E-01    0.5929426458E-02    0.6933867991E+00    0.7293028874E-01    0.1431254528E-02
    0.3000000000E+05    0.7456120444E-01    0.8481812741E-02    0.6941508753E+00    0.1504794001E+00    0.1522282075E-02
    0.5000000000E+05    0.7543339464E-01    0.8662043212E-02    0.6942818209E+00    0.2016883731E+00    0.1566240143E-02
    0.7000000000E+05    0.7186725865E-01    0.8316827427E-02    0.6943284713E+00    0.2421140476E+00    0.1595833096E-02
    0.9000000000E+05    0.6714679224E-01    0.7822733311E-02    0.6943490254E+00    0.2761575790E+00    0.1618282091E-02
    0.1100000000E+06    0.6225565755E-01    0.7296034482E-02    0.6943586352E+00    0.3057041916E+00    0.1636425163E-02
    0.1300000000E+06    0.5754357218E-01    0.6779957621E-02    0.6943628521E+00    0.3317708283E+00    0.1651679189E-02
    0.1500000000E+06    0.5313867484E-01    0.6291615464E-02    0.6943641371E+00    0.3549964940E+00    0.1664856121E-02
    0.1700000000E+06    0.4908008324E-01    0.5837318017E-02    0.6943637236E+00    0.3758278591E+00    0.1676465577E-02
    0.1900000000E+06    0.4536830410E-01    0.5418498021E-02    0.6943622852E+00    0.3946012828E+00    0.1686848862E-02
    0.2100000000E+06    0.4198675068E-01    0.5034294471E-02    0.6943602136E+00    0.4115833625E+00    0.1696245990E-02
    0.2300000000E+06    0.3891168901E-01    0.4682778763E-02    0.6943577476E+00    0.4269928597E+00    0.1704832289E-02
    0.2500000000E+06    0.3611707348E-01    0.4361571431E-02    0.6943550383E+00    0.4410135221E+00    0.1712739816E-02
    0.2700000000E+06    0.3357694995E-01    0.4068163173E-02    0.6943521839E+00    0.4538021374E+00    0.1720070557E-02
    0.2900000000E+06    0.3126663389E-01    0.3800083492E-02    0.6943492496E+00    0.4654939355E+00    0.1726904951E-02
    0.3100000000E+06    0.2916324716E-01    0.3554987239E-02    0.6943462794E+00    0.4762064342E+00    0.1733307580E-02
    0.3300000000E+06    0.2724591123E-01    0.3330695578E-02    0.6943433032E+00    0.4860423151E+00    0.1739331096E-02
    0.3500000000E+06    0.2549575580E-01    0.3125211233E-02    0.6943403418E+00    0.4950916653E+00    0.1745018997E-02
    0.3700000000E+06    0.2389583052E-01    0.2936719262E-02    0.6943374090E+00    0.5034337781E+00    0.1750407646E-02
    0.3900000000E+06    0.2243096932E-01    0.2763579854E-02    0.6943345146E+00    0.5111386345E+00    0.1755527750E-02
    0.4100000000E+06    0.2108763522E-01    0.2604317007E-02    0.6943316648E+00    0.5182681421E+00    0.1760405487E-02
    0.4300000000E+06    0.1985376183E-01    0.2457605351E-02    0.6943288637E+00    0.5248771825E+00    0.1765063351E-02
    0.4500000000E+06    0.1871860012E-01    0.2322256484E-02    0.6943261139E+00    0.5310145057E+00    0.1769520819E-02
    0.4700000000E+06    0.1767257522E-01    0.2197205590E-02    0.6943234167E+00    0.5367234977E+00    0.1773794871E-02
    0.4900000000E+06    0.1670715515E-01    0.2081498780E-02    0.6943207726E+00    0.5420428416E+00    0.1777900396E-02
    0.1000000000E+06    0.6469292057E-01    0.7559848806E-02    0.6943547414E+00    0.2914171821E+00    0.1627783576E-02
    0.3000000000E+06    0.3019042687E-01    0.3674802782E-02    0.6943477668E+00    0.4709658608E+00    0.1730156703E-02
    0.5000000000E+06    0.1625226143E-01    0.2026878742E-02    0.6943194704E+00    0.5445673405E+00    0.1779894127E-02
    0.7000000000E+06    0.9928490595E-02    0.1259966651E-02    0.6942960228E+00    0.5812667065E+00    0.1813427671E-02
    0.9000000000E+06    0.6631462861E-02    0.8530365819E-03    0.6942766494E+00    0.6022672149E+00    0.1838883236E-02
    0.1100000000E+07    0.4721102350E-02    0.6140549851E-03    0.6942602376E+00    0.6155375445E+00    0.1859464132E-02
    0.1300000000E+07    0.3523455369E-02    0.4625827393E-03    0.6942460200E+00    0.6245529222E+00    0.1876772070E-02
    0.1500000000E+07    0.2726180076E-02    0.3608125525E-03    0.6942334811E+00    0.6310193787E+00    0.1891725802E-02
    0.1700000000E+07    0.2169962603E-02    0.2892439878E-03    0.6942222640E+00    0.6358557389E+00    0.1904902343E-02
    0.1900000000E+07    0.1767103953E-02    0.2370424472E-03    0.6942121136E+00    0.6395944310E+00    0.1916688320E-02
    0.2100000000E+07    0.1466265357E-02    0.1978147574E-03    0.6942028419E+00    0.6425626451E+00    0.1927355710E-02
    0.2300000000E+07    0.1235839508E-02    0.1675973665E-03    0.6941943063E+00    0.6449713232E+00    0.1937103249E-02
    0.2500000000E+07    0.1055533254E-02    0.1438296708E-03    0.6941863963E+00    0.6469619785E+00    0.1946080652E-02
    0.2700000000E+07    0.9118480142E-03    0.1247988448E-03    0.6941790248E+00    0.6486327751E+00    0.1954403569E-02
    0.2900000000E+07    0.7955290622E-03    0.1093245532E-03    0.6941721214E+00    0.6500537733E+00    0.1962163225E-02
    0.3100000000E+07    0.7000633366E-03    0.9657222332E-04    0.6941656291E+00    0.6512762165E+00    0.1969432873E-02
    0.3300000000E+07    0.6207616260E-03    0.8593837414E-04    0.6941595005E+00    0.6523383915E+00    0.1976272241E-02
    0.3500000000E+07    0.5541795264E-03    0.7697793166E-04    0.6941536960E+00    0.6532694439E+00    0.1982730678E-02
    0.3700000000E+07    0.4977416886E-03    0.6935685845E-04    0.6941481824E+00    0.6540919294E+00    0.1988849439E-02
    0.3900000000E+07    0.4494918214E-03    0.6282051029E-04    0.6941429311E+00    0.6548235613E+00    0.1994663368E-02
    0.4100000000E+07    0.4079226223E-03    0.5717202866E-04    0.6941379177E+00    0.6554784343E+00    0.2000202168E-02
    0.4300000000E+07    0.3718577471E-03    0.5225729212E-04    0.6941331210E+00    0.6560678966E+00    0.2005491367E-02
    0.4500000000E+07    0.3403684091E-03    0.4795424737E-04    0.6941285226E+00    0.6566011831E+00    0.2010553069E-02
    0.4700000000E+07    0.3127134768E-03    0.4416522240E-04    0.6941241064E+00    0.6570858823E+00    0.2015406542E-02
    0.4900000000E+07    0.2882958051E-03    0.4081130603E-04    0.6941198580E+00    0.6575282850E+00    0.2020068688E-02
    0.1000000000E+07    0.5557556214E-02    0.7190431312E-03    0.6942681285E+00    0.6095914520E+00    0.1849660640E-02
    0.3000000000E+07    0.7455173405E-03    0.1026502706E-03    0.6941688270E+00    0.6506871700E+00    0.1965855292E-02
    0.5000000000E+07    0.2771455866E-03    0.3927693603E-04    0.6941177928E+00    0.6577353027E+00    0.2022332740E-02
    0.7000000000E+07    0.1433626695E-03    0.2069238742E-04    0.6940828729E+00    0.6605704579E+00    0.2060414199E-02
    0.9000000000E+07    0.8748612591E-04    0.1279190119E-04    0.6940561745E+00    0.6620926391E+00    0.2089323286E-02
    0.1100000000E+08    0.5897391778E-04    0.8706561304E-05    0.6940344955E+00    0.6630407547E+00    0.2112696845E-02
    0.1300000000E+08    0.4249165427E-04    0.6319727644E-05    0.6940162112E+00    0.6636875485E+00    0.2132353564E-02
    0.1500000000E+08    0.3211317076E-04    0.4803541567E-05    0.6940003804E+00    0.6641567966E+00    0.2149336717E-02
    0.1700000000E+08    0.2515759623E-04    0.3779813090E-05    0.6939864087E+00    0.6645127093E+00    0.2164301556E-02
    0.1900000000E+08    0.2026905463E-04    0.3055677156E-05    0.6939738954E+00    0.6647918898E+00    0.2177687143E-02
    0.2100000000E+08    0.1670209475E-04    0.2524333216E-05    0.6939625580E+00    0.6650167214E+00    0.2189802346E-02
    0.2300000000E+08    0.1401935863E-04    0.2122722731E-05    0.6939521892E+00    0.6652016583E+00    0.2200872863E-02
    0.2500000000E+08    0.1195052847E-04    0.1811649741E-05    0.6939426326E+00    0.6653564490E+00    0.2211068721E-02
    0.2700000000E+08    0.1032123638E-04    0.1565701371E-05    0.6939337671E+00    0.6654879064E+00    0.2220521264E-02
