  Pressure (Pa) 22mC5-500 (mol/kg) 23mC5-500 (mol/kg) 24mC5-500 (mol/kg) 3mC6-500 (mol/kg) C7-500 (mol/kg)
    0.1000000000E+01    0.1929573577E-04    0.1231020043E-05    0.1514015329E+00    0.8378933882E-06    0.4181544715E-02
    0.3000000000E+01    0.3761178996E-04    0.2391923583E-05    0.3164818766E+00    0.2127414821E-05    0.4213405977E-02
    0.5000000000E+01    0.4599974662E-04    0.2919648385E-05    0.4047456541E+00    0.3308462665E-05    0.4228610013E-02
    0.7000000000E+01    0.5069046708E-04    0.3213557682E-05    0.4596907622E+00    0.4436711898E-05    0.4237971025E-02
    0.9000000000E+01    0.5372918324E-04    0.3403993835E-05    0.4971882339E+00    0.5530914847E-05    0.4244371094E-02
    0.1100000000E+02    0.5594698527E-04    0.3543596991E-05    0.5244102074E+00    0.6600451628E-05    0.4249037840E-02
    0.1300000000E+02    0.5772961075E-04    0.3656634442E-05    0.5450715364E+00    0.7650905435E-05    0.4252595159E-02
    0.1500000000E+02    0.5927304886E-04    0.3755343165E-05    0.5612889541E+00    0.8685955959E-05    0.4255396408E-02
    0.1700000000E+02    0.6068350451E-04    0.3846297242E-05    0.5743570110E+00    0.9708198269E-05    0.4257657600E-02
    0.1900000000E+02    0.6202127655E-04    0.3933191677E-05    0.5851119355E+00    0.1071955345E-04    0.4259518615E-02
    0.2100000000E+02    0.6332176070E-04    0.4018169290E-05    0.5941179732E+00    0.1172149655E-04    0.4261074220E-02
    0.2300000000E+02    0.6460620427E-04    0.4102497112E-05    0.6017696502E+00    0.1271519292E-04    0.4262391013E-02
    0.2500000000E+02    0.6588751787E-04    0.4186930126E-05    0.6083511230E+00    0.1370158462E-04    0.4263517238E-02
    0.2700000000E+02    0.6717355660E-04    0.4271915565E-05    0.6140722515E+00    0.1468144763E-04    0.4264488739E-02
    0.2900000000E+02    0.6846904060E-04    0.4357711799E-05    0.6190913914E+00    0.1565543134E-04    0.4265332738E-02
    0.3100000000E+02    0.6977671335E-04    0.4444459593E-05    0.6235302816E+00    0.1662408648E-04    0.4266070300E-02
    0.3300000000E+02    0.7109805790E-04    0.4532225855E-05    0.6274840493E+00    0.1758788556E-04    0.4266717997E-02
    0.3500000000E+02    0.7243374890E-04    0.4621031030E-05    0.6310281050E+00    0.1854723798E-04    0.4267289051E-02
    0.3700000000E+02    0.7378394288E-04    0.4710866532E-05    0.6342229993E+00    0.1950250166E-04    0.4267794155E-02
    0.3900000000E+02    0.7514846707E-04    0.4801705965E-05    0.6371179109E+00    0.2045399191E-04    0.4268242052E-02
    0.4100000000E+02    0.7652694358E-04    0.4893512411E-05    0.6397531971E+00    0.2140198843E-04    0.4268639964E-02
    0.4300000000E+02    0.7791887163E-04    0.4986243180E-05    0.6421622865E+00    0.2234674090E-04    0.4268993917E-02
    0.4500000000E+02    0.7932368210E-04    0.5079852912E-05    0.6443731048E+00    0.2328847343E-04    0.4269308976E-02
    0.4700000000E+02    0.8074077384E-04    0.5174295587E-05    0.6464091625E+00    0.2422738819E-04    0.4269589437E-02
    0.4900000000E+02    0.8216953760E-04    0.5269525804E-05    0.6482903942E+00    0.2516366844E-04    0.4269838964E-02
    0.1000000000E+02    0.5491031765E-04    0.3478234432E-05    0.5118002489E+00    0.6068358760E-05    0.4246873405E-02
    0.3000000000E+02    0.6912123743E-04    0.4400961220E-05    0.6213768914E+00    0.1614039381E-04    0.4265713698E-02
    0.5000000000E+02    0.8288810785E-04    0.5317422429E-05    0.6491783664E+00    0.2563087333E-04    0.4269953130E-02
    0.7000000000E+02    0.9773897084E-04    0.6307195870E-05    0.6618708266E+00    0.3487039266E-04    0.4271186158E-02
    0.9000000000E+02    0.1132360072E-03    0.7339253079E-05    0.6691394544E+00    0.4397234134E-04    0.4271236641E-02
    0.1100000000E+03    0.1291381135E-03    0.8397407437E-05    0.6738488709E+00    0.5299402621E-04    0.4270681612E-02
    0.1300000000E+03    0.1453201093E-03    0.9473436488E-05    0.6771483768E+00    0.6196988571E-04    0.4269766544E-02
    0.1500000000E+03    0.1617138448E-03    0.1056293312E-04    0.6795886921E+00    0.7092286356E-04    0.4268615317E-02
    0.1700000000E+03    0.1782805765E-03    0.1166342770E-04    0.6814667560E+00    0.7986935126E-04    0.4267297872E-02
    0.1900000000E+03    0.1949976609E-03    0.1277349940E-04    0.6829568102E+00    0.8882167373E-04    0.4265856969E-02
    0.2100000000E+03    0.2118517449E-03    0.1389232675E-04    0.6841678396E+00    0.9778947151E-04    0.4264320349E-02
    0.2300000000E+03    0.2288350751E-03    0.1501944632E-04    0.6851715073E+00    0.1067805283E-03    0.4262706849E-02
    0.2500000000E+03    0.2459433958E-03    0.1615461639E-04    0.6860168706E+00    0.1158012955E-03    0.4261029732E-02
    0.2700000000E+03    0.2631747013E-03    0.1729773654E-04    0.6867386433E+00    0.1248572399E-03    0.4259298613E-02
    0.2900000000E+03    0.2805284696E-03    0.1844879862E-04    0.6873620808E+00    0.1339530832E-03    0.4257520630E-02
    0.3100000000E+03    0.2980051757E-03    0.1960785589E-04    0.6879059961E+00    0.1430929715E-03    0.4255701185E-02
    0.3300000000E+03    0.3156059777E-03    0.2077500316E-04    0.6883846911E+00    0.1522805994E-03    0.4253844436E-02
    0.3500000000E+03    0.3333325072E-03    0.2195036369E-04    0.6888092319E+00    0.1615193019E-03    0.4251953622E-02
    0.3700000000E+03    0.3511867291E-03    0.2313408046E-04    0.6891883152E+00    0.1708121244E-03    0.4250031296E-02
    0.3900000000E+03    0.3691708454E-03    0.2432631025E-04    0.6895288701E+00    0.1801618769E-03    0.4248079487E-02
    0.4100000000E+03    0.3872872287E-03    0.2552721960E-04    0.6898364857E+00    0.1895711762E-03    0.4246099815E-02
    0.4300000000E+03    0.4055383759E-03    0.2673698198E-04    0.6901157198E+00    0.1990424800E-03    0.4244093585E-02
    0.4500000000E+03    0.4239268757E-03    0.2795577590E-04    0.6903703264E+00    0.2085781139E-03    0.4242061845E-02
    0.4700000000E+03    0.4424553861E-03    0.2918378354E-04    0.6906034254E+00    0.2181802934E-03    0.4240005438E-02
    0.4900000000E+03    0.4611266181E-03    0.3042118987E-04    0.6908176312E+00    0.2278511424E-03    0.4237925043E-02
    0.1000000000E+03    0.1211460665E-03    0.7865704367E-05    0.6717214328E+00    0.4849070946E-04    0.4271015316E-02
    0.3000000000E+03    0.2892513962E-03    0.1902732272E-04    0.6876429965E+00    0.1385172814E-03    0.4256615806E-02
    0.5000000000E+03    0.4705166137E-03    0.3104347594E-04    0.6909183525E+00    0.2327129604E-03    0.4236876023E-02
    0.7000000000E+03    0.6665012849E-03    0.4402936204E-04    0.6923314064E+00    0.3340270078E-03    0.4214715892E-02
    0.9000000000E+03    0.8801118492E-03    0.5818041600E-04    0.6931187391E+00    0.4443299795E-03    0.4190316282E-02
    0.1100000000E+04    0.1114577815E-02    0.7371168727E-04    0.6936205508E+00    0.5654203104E-03    0.4163498368E-02
    0.1300000000E+04    0.1373594344E-02    0.9086850812E-04    0.6939682675E+00    0.6992767347E-03    0.4133946229E-02
    0.1500000000E+04    0.1661511963E-02    0.1099394035E-03    0.6942233883E+00    0.8481997812E-03    0.4101244211E-02
    0.1700000000E+04    0.1983553079E-02    0.1312705625E-03    0.6944185316E+00    0.1014939454E-02    0.4064874402E-02
    0.1900000000E+04    0.2346076116E-02    0.1552833963E-03    0.6945726070E+00    0.1202840163E-02    0.4024198684E-02
    0.2100000000E+04    0.2756912143E-02    0.1824968753E-03    0.6946973322E+00    0.1416021432E-02    0.3978430134E-02
    0.2300000000E+04    0.3225803836E-02    0.2135566382E-03    0.6948003550E+00    0.1659612125E-02    0.3926593549E-02
    0.2500000000E+04    0.3764984452E-02    0.2492733780E-03    0.6948868790E+00    0.1940059150E-02    0.3867472897E-02
    0.2700000000E+04    0.4389944439E-02    0.2906736675E-03    0.6949605678E+00    0.2265536856E-02    0.3799542412E-02
    0.2900000000E+04    0.5120442953E-02    0.3390670251E-03    0.6950240755E+00    0.2646488772E-02    0.3720877594E-02
    0.3100000000E+04    0.5981823855E-02    0.3961331795E-03    0.6950793717E+00    0.3096335483E-02    0.3629043238E-02
    0.3300000000E+04    0.7006672939E-02    0.4640319832E-03    0.6951279490E+00    0.3632371898E-02    0.3520959747E-02
    0.3500000000E+04    0.8236762323E-02    0.5455324168E-03    0.6951709590E+00    0.4276831857E-02    0.3392760984E-02
    0.3700000000E+04    0.9724974278E-02    0.6441403322E-03    0.6952093047E+00    0.5057968001E-02    0.3239686273E-02
    0.3900000000E+04    0.1153629010E-01    0.7641643957E-03    0.6952437036E+00    0.6010679535E-02    0.3056113713E-02
    0.4100000000E+04    0.1374565940E-01    0.9105755225E-03    0.6952747336E+00    0.7175552633E-02    0.2835967319E-02
    0.4300000000E+04    0.1642837466E-01    0.1088369890E-02    0.6953028649E+00    0.8594011004E-02    0.2573926466E-02
    0.4500000000E+04    0.1963620823E-01    0.1300988490E-02    0.6953284842E+00    0.1029597145E-01    0.2268024483E-02
    0.4700000000E+04    0.2335428678E-01    0.1547459526E-02    0.6953519124E+00    0.1227717256E-01    0.1923884456E-02
    0.4900000000E+04    0.2744912389E-01    0.1818952826E-02    0.6953734180E+00    0.1447131626E-01    0.1559123993E-02
    0.1000000000E+04    0.9945200075E-03    0.6575904803E-04    0.6933946656E+00    0.5034091177E-03    0.4177226892E-02
    0.3000000000E+04    0.5532927962E-02    0.3663937066E-03    0.6950526474E+00    0.2861821975E-02    0.3676782296E-02
    0.5000000000E+04    0.2955748593E-01    0.1958763055E-02    0.6953835220E+00    0.1560699819E-01    0.1378004734E-02
    0.7000000000E+04    0.5186145734E-01    0.3440976448E-02    0.6955246432E+00    0.2845892925E-01    0.1647550567E-03
    0.9000000000E+04    0.6089461328E-01    0.4045221744E-02    0.6956026137E+00    0.3473437934E-01    0.1560577642E-03
    0.1100000000E+05    0.6827483128E-01    0.4540723333E-02    0.6956519406E+00    0.4039437885E-01    0.1577467187E-03
    0.1300000000E+05    0.7446155306E-01    0.4957636280E-02    0.6956858809E+00    0.4560933960E-01    0.1592213206E-03
    0.1500000000E+05    0.7969821677E-01    0.5311888557E-02    0.6957106130E+00    0.5045547986E-01    0.1604953685E-03
    0.1700000000E+05    0.8416673142E-01    0.5615393633E-02    0.6957294028E+00    0.5499123483E-01    0.1616177244E-03
    0.1900000000E+05    0.8800608942E-01    0.5877263576E-02    0.6957441382E+00    0.5926252487E-01    0.1626214464E-03
    0.2100000000E+05    0.9132423910E-01    0.6104582572E-02    0.6957559857E+00    0.6330601139E-01    0.1635297763E-03
    0.2300000000E+05    0.9420623314E-01    0.6302938091E-02    0.6957657050E+00    0.6715137337E-01    0.1643596869E-03
    0.2500000000E+05    0.9671994826E-01    0.6476793951E-02    0.6957738116E+00    0.7082293611E-01    0.1651239585E-03
    0.2700000000E+05    0.9892017866E-01    0.6629757470E-02    0.6957806678E+00    0.7434085873E-01    0.1658324597E-03
    0.2900000000E+05    0.1008516171E+00    0.6764774126E-02    0.6957865353E+00    0.7772201486E-01    0.1664929725E-03
    0.3100000000E+05    0.1025510597E+00    0.6884271629E-02    0.6957916080E+00    0.8098065593E-01    0.1671117439E-03
    0.3300000000E+05    0.1040490606E+00    0.6990268069E-02    0.6957960323E+00    0.8412891761E-01    0.1676938665E-03
    0.3500000000E+05    0.1053711885E+00    0.7084454154E-02    0.6957999213E+00    0.8717721136E-01    0.1682435470E-03
    0.3700000000E+05    0.1065389935E+00    0.7168256478E-02    0.6958033631E+00    0.9013453080E-01    0.1687643018E-03
    0.3900000000E+05    0.1075707588E+00    0.7242886729E-02    0.6958064278E+00    0.9300869380E-01    0.1692591000E-03
    0.4100000000E+05    0.1084820895E+00    0.7309380333E-02    0.6958091717E+00    0.9580653574E-01    0.1697304727E-03
    0.4300000000E+05    0.1092863807E+00    0.7368627090E-02    0.6958116403E+00    0.9853406515E-01    0.1701805946E-03
    0.4500000000E+05    0.1099951900E+00    0.7421395666E-02    0.6958138714E+00    0.1011965901E+00    0.1706113490E-03
    0.4700000000E+05    0.1106185385E+00    0.7468353326E-02    0.6958158957E+00    0.1037988217E+00    0.1710243769E-03
    0.4900000000E+05    0.1111651545E+00    0.7510081949E-02    0.6958177394E+00    0.1063449590E+00    0.1714211180E-03
    0.1000000000E+05    0.6475236372E-01    0.4304003088E-02    0.6956297801E+00    0.3762574231E-01    0.1569161649E-03
    0.3000000000E+05    0.1017282983E+00    0.6826328111E-02    0.6957891609E+00    0.7936584678E-01    0.1668072341E-03
    0.5000000000E+05    0.1114121116E+00    0.7529147132E-02    0.6958186004E+00    0.1075981823E+00    0.1716137835E-03
    0.7000000000E+05    0.1137497211E+00    0.7731401031E-02    0.6958301706E+00    0.1304518811E+00    0.1748543146E-03
    0.9000000000E+05    0.1132638050E+00    0.7736191055E-02    0.6958360067E+00    0.1503226811E+00    0.1773142575E-03
    0.1100000000E+06    0.1114951282E+00    0.7648270736E-02    0.6958393381E+00    0.1682348013E+00    0.1793031738E-03
    0.1300000000E+06    0.1090945298E+00    0.7512599731E-02    0.6958413759E+00    0.1847212090E+00    0.1809758369E-03
    0.1500000000E+06    0.1063764360E+00    0.7351292610E-02    0.6958426713E+00    0.2000956843E+00    0.1824210219E-03
    0.1700000000E+06    0.1035072009E+00    0.7176293332E-02    0.6958435080E+00    0.2145594662E+00    0.1836944826E-03
    0.1900000000E+06    0.1005806442E+00    0.6994501805E-02    0.6958440462E+00    0.2282500761E+00    0.1848335763E-03
    0.2100000000E+06    0.9765211174E-01    0.6810106203E-02    0.6958443820E+00    0.2412662750E+00    0.1858645822E-03
    0.2300000000E+06    0.9475524882E-01    0.6625742430E-02    0.6958445763E+00    0.2536819137E+00    0.1868067028E-03
    0.2500000000E+06    0.9191084892E-01    0.6443112004E-02    0.6958446694E+00    0.2655541262E+00    0.1876744044E-03
    0.2700000000E+06    0.8913178837E-01    0.6263330336E-02    0.6958446884E+00    0.2769284284E+00    0.1884788613E-03
    0.2900000000E+06    0.8642590661E-01    0.6087132388E-02    0.6958446528E+00    0.2878420219E+00    0.1892288884E-03
    0.3100000000E+06    0.8379775315E-01    0.5914998944E-02    0.6958445761E+00    0.2983260093E+00    0.1899315637E-03
    0.3300000000E+06    0.8124968221E-01    0.5747236814E-02    0.6958444684E+00    0.3084069210E+00    0.1905926585E-03
    0.3500000000E+06    0.7878255857E-01    0.5584031271E-02    0.6958443372E+00    0.3181077925E+00    0.1912169413E-03
    0.3700000000E+06    0.7639622384E-01    0.5425481256E-02    0.6958441882E+00    0.3274489391E+00    0.1918083985E-03
    0.3900000000E+06    0.7408981151E-01    0.5271623543E-02    0.6958440255E+00    0.3364485237E+00    0.1923703971E-03
    0.4100000000E+06    0.7186196388E-01    0.5122449691E-02    0.6958438525E+00    0.3451229781E+00    0.1929058072E-03
    0.4300000000E+06    0.6971098405E-01    0.4977918154E-02    0.6958436719E+00    0.3534873201E+00    0.1934170956E-03
    0.4500000000E+06    0.6763494414E-01    0.4837963079E-02    0.6958434855E+00    0.3615553946E+00    0.1939063982E-03
    0.4700000000E+06    0.6563176326E-01    0.4702500801E-02    0.6958432950E+00    0.3693400593E+00    0.1943755771E-03
    0.4900000000E+06    0.6369926446E-01    0.4571434697E-02    0.6958431017E+00    0.3768533292E+00    0.1948262653E-03
    0.1000000000E+06    0.1124876517E+00    0.7700232959E-02    0.6958378864E+00    0.1594832030E+00    0.1783557684E-03
    0.3000000000E+06    0.8510192497E-01    0.6000535068E-02    0.6958446188E+00    0.2931359654E+00    0.1895857577E-03
    0.5000000000E+06    0.6275882485E-01    0.4507517398E-02    0.6958430043E+00    0.3805117435E+00    0.1950451323E-03
    0.7000000000E+06    0.4711824079E-01    0.3431869164E-02    0.6958410668E+00    0.4418717244E+00    0.1987266522E-03
    0.9000000000E+06    0.3616794503E-01    0.2664509529E-02    0.6958392921E+00    0.4859243276E+00    0.2015216482E-03
    0.1100000000E+07    0.2837815370E-01    0.2110896422E-02    0.6958377136E+00    0.5182016704E+00    0.2037815935E-03
    0.1300000000E+07    0.2272182166E-01    0.1704347230E-02    0.6958363066E+00    0.5423589121E+00    0.2056822597E-03
    0.1500000000E+07    0.1852613739E-01    0.1399925284E-02    0.6958350423E+00    0.5608225375E+00    0.2073244812E-03
    0.1700000000E+07    0.1534949887E-01    0.1167564439E-02    0.6958338964E+00    0.5752171928E+00    0.2087715918E-03
    0.1900000000E+07    0.1289831177E-01    0.9869870173E-03    0.6958328493E+00    0.5866460838E+00    0.2100660305E-03
    0.2100000000E+07    0.1097394360E-01    0.8443172988E-03    0.6958318855E+00    0.5958713480E+00    0.2112376533E-03
    0.2300000000E+07    0.9439426510E-02    0.7298969444E-03    0.6958309930E+00    0.6034292674E+00    0.2123082770E-03
    0.2500000000E+07    0.8198495791E-02    0.6368833113E-03    0.6958301618E+00    0.6097041832E+00    0.2132943376E-03
    0.2700000000E+07    0.7182241386E-02    0.5603439363E-03    0.6958293841E+00    0.6149764493E+00    0.2142085318E-03
    0.2900000000E+07    0.6340474795E-02    0.4966641811E-03    0.6958286533E+00    0.6194539990E+00    0.2150608753E-03
    0.3100000000E+07    0.5636049608E-02    0.4431538509E-03    0.6958279640E+00    0.6232934655E+00    0.2158594106E-03
    0.3300000000E+07    0.5041059580E-02    0.3977817438E-03    0.6958273116E+00    0.6266145479E+00    0.2166106954E-03
    0.3500000000E+07    0.4534249778E-02    0.3589936380E-03    0.6958266925E+00    0.6295099438E+00    0.2173201482E-03
    0.3700000000E+07    0.4099224639E-02    0.3255855319E-03    0.6958261032E+00    0.6320523256E+00    0.2179922988E-03
    0.3900000000E+07    0.3723188211E-02    0.2966140390E-03    0.6958255410E+00    0.6342993146E+00    0.2186309731E-03
    0.4100000000E+07    0.3396045456E-02    0.2713321474E-03    0.6958250034E+00    0.6362970776E+00    0.2192394325E-03
    0.4300000000E+07    0.3109752290E-02    0.2491425463E-03    0.6958244884E+00    0.6380829627E+00    0.2198204801E-03
    0.4500000000E+07    0.2857839409E-02    0.2295632901E-03    0.6958239940E+00    0.6396874549E+00    0.2203765432E-03
    0.4700000000E+07    0.2635059232E-02    0.2122022404E-03    0.6958235187E+00    0.6411356439E+00    0.2209097375E-03
    0.4900000000E+07    0.2437121157E-02    0.1967378321E-03    0.6958230610E+00    0.6424483390E+00    0.2214219190E-03
    0.1000000000E+07    0.3195220677E-01    0.2365751311E-02    0.6958384795E+00    0.5032714193E+00    0.2027050729E-03
    0.3000000000E+07    0.5973020189E-02    0.4687777749E-03    0.6958283037E+00    0.6214452795E+00    0.2154664289E-03
    0.5000000000E+07    0.2346338376E-02    0.1896320039E-03    0.6958228383E+00    0.6430594231E+00    0.2216706490E-03
    0.7000000000E+07    0.1236197480E-02    0.1018959475E-03    0.6958190599E+00    0.6511833152E+00    0.2258545065E-03
    0.9000000000E+07    0.7596910588E-03    0.6355321499E-04    0.6958161573E+00    0.6553092291E+00    0.2290308907E-03
    0.1100000000E+08    0.5131178042E-03    0.4343820302E-04    0.6958137939E+00    0.6577734193E+00    0.2315992204E-03
    0.1300000000E+08    0.3694187160E-03    0.3158441777E-04    0.6958117969E+00    0.6594011260E+00    0.2337592476E-03
    0.1500000000E+08    0.2784822371E-03    0.2401253157E-04    0.6958100657E+00    0.6605524427E+00    0.2356255646E-03
    0.1700000000E+08    0.2173466904E-03    0.1888074638E-04    0.6958085363E+00    0.6614080299E+00    0.2372701466E-03
    0.1900000000E+08    0.1742971466E-03    0.1524133010E-04    0.6958071655E+00    0.6620679914E+00    0.2387412236E-03
    0.2100000000E+08    0.1428523455E-03    0.1256604135E-04    0.6958059228E+00    0.6625920783E+00    0.2400727253E-03
    0.2300000000E+08    0.1191919741E-03    0.1054145637E-04    0.6958047856E+00    0.6630180782E+00    0.2412894455E-03
    0.2500000000E+08    0.1009464265E-03    0.8972015800E-05    0.6958037371E+00    0.6633710198E+00    0.2424100632E-03
    0.2700000000E+08    0.8658299326E-04    0.7730546239E-05    0.6958027641E+00    0.6636681194E+00    0.2434490076E-03
