  Pressure (Pa) 22mC5-500 (mol/kg) 23mC5-500 (mol/kg) 24mC5-500 (mol/kg) 3mC6-500 (mol/kg) C7-500 (mol/kg)
    0.1000000000E+01    0.2251455374E-04    0.2156308094E-05    0.6964903812E-01    0.7726311031E-06    0.4206665666E-02
    0.3000000000E+01    0.5399239707E-04    0.5161471829E-05    0.1740739911E+00    0.1983743052E-05    0.4277621212E-02
    0.5000000000E+01    0.7473750546E-04    0.7134284397E-05    0.2486282250E+00    0.3098195154E-05    0.4326872498E-02
    0.7000000000E+01    0.8917090898E-04    0.8501792872E-05    0.3045252733E+00    0.4165284383E-05    0.4363937024E-02
    0.9000000000E+01    0.9963677801E-04    0.9489966515E-05    0.3479900542E+00    0.5201729653E-05    0.4392974884E-02
    0.1100000000E+02    0.1074853180E-03    0.1022869836E-04    0.3827553634E+00    0.6215925285E-05    0.4416397701E-02
    0.1300000000E+02    0.1135419831E-03    0.1079723414E-04    0.4111955564E+00    0.7212880754E-05    0.4435726183E-02
    0.1500000000E+02    0.1183353713E-03    0.1124621099E-04    0.4348929755E+00    0.8195904216E-05    0.4451971894E-02
    0.1700000000E+02    0.1222168468E-03    0.1160921237E-04    0.4549427729E+00    0.9167332469E-05    0.4465835475E-02
    0.1900000000E+02    0.1254272425E-03    0.1190920326E-04    0.4721270141E+00    0.1012889772E-04    0.4477818250E-02
    0.2100000000E+02    0.1281359213E-03    0.1216229430E-04    0.4870190991E+00    0.1108193153E-04    0.4488288741E-02
    0.2300000000E+02    0.1304646056E-03    0.1238003489E-04    0.5000490056E+00    0.1202748693E-04    0.4497524115E-02
    0.2500000000E+02    0.1325024235E-03    0.1257085943E-04    0.5115454923E+00    0.1296641593E-04    0.4505736970E-02
    0.2700000000E+02    0.1343156959E-03    0.1274102659E-04    0.5217642284E+00    0.1389942091E-04    0.4513093195E-02
    0.2900000000E+02    0.1359544688E-03    0.1289524548E-04    0.5309070361E+00    0.1482709008E-04    0.4519724189E-02
    0.3100000000E+02    0.1374569723E-03    0.1303710236E-04    0.5391353579E+00    0.1574992261E-04    0.4525735432E-02
    0.3300000000E+02    0.1388527257E-03    0.1316935742E-04    0.5465798744E+00    0.1666834703E-04    0.4531212606E-02
    0.3500000000E+02    0.1401647392E-03    0.1329415483E-04    0.5533474979E+00    0.1758273485E-04    0.4536226062E-02
    0.3700000000E+02    0.1414110982E-03    0.1341317376E-04    0.5595265418E+00    0.1849341103E-04    0.4540834123E-02
    0.3900000000E+02    0.1426061227E-03    0.1352773856E-04    0.5651905962E+00    0.1940066198E-04    0.4545085561E-02
    0.4100000000E+02    0.1437612234E-03    0.1363890017E-04    0.5704014733E+00    0.2030474188E-04    0.4549021493E-02
    0.4300000000E+02    0.1448855441E-03    0.1374749694E-04    0.5752114735E+00    0.2120587773E-04    0.4552676835E-02
    0.4500000000E+02    0.1459864475E-03    0.1385420065E-04    0.5796651471E+00    0.2210427336E-04    0.4556081437E-02
    0.4700000000E+02    0.1470698862E-03    0.1395955154E-04    0.5838006785E+00    0.2300011273E-04    0.4559260975E-02
    0.4900000000E+02    0.1481406896E-03    0.1406398538E-04    0.5876509843E+00    0.2389356263E-04    0.4562237665E-02
    0.1000000000E+02    0.1038277247E-03    0.9884701705E-05    0.3662882933E+00    0.5711243075E-05    0.4405277984E-02
    0.3000000000E+02    0.1367207345E-03    0.1296753010E-04    0.5351267117E+00    0.1528908267E-04    0.4522801519E-02
    0.5000000000E+02    0.1486726110E-03    0.1411597126E-04    0.5894782433E+00    0.2433943953E-04    0.4563656079E-02
    0.7000000000E+02    0.1592860514E-03    0.1516398852E-04    0.6163087701E+00    0.3316226614E-04    0.4584962016E-02
    0.9000000000E+02    0.1704681237E-03    0.1627913601E-04    0.6322989446E+00    0.4186092428E-04    0.4598138351E-02
    0.1100000000E+03    0.1823912623E-03    0.1747185442E-04    0.6429146076E+00    0.5048779203E-04    0.4607072047E-02
    0.1300000000E+03    0.1949726156E-03    0.1873138834E-04    0.6504756563E+00    0.5907440795E-04    0.4613473098E-02
    0.1500000000E+03    0.2081057705E-03    0.2004609804E-04    0.6561347273E+00    0.6764181773E-04    0.4618220642E-02
    0.1700000000E+03    0.2217009819E-03    0.2140658985E-04    0.6605293165E+00    0.7620507795E-04    0.4621817086E-02
    0.1900000000E+03    0.2356886611E-03    0.2280573564E-04    0.6640406465E+00    0.8477552406E-04    0.4624572467E-02
    0.2100000000E+03    0.2500159353E-03    0.2423819286E-04    0.6669106858E+00    0.9336203292E-04    0.4626689615E-02
    0.2300000000E+03    0.2646426806E-03    0.2569994706E-04    0.6693004132E+00    0.1019717794E-03    0.4628307458E-02
    0.2500000000E+03    0.2795382925E-03    0.2718796019E-04    0.6713210872E+00    0.1106107163E-03    0.4629524745E-02
    0.2700000000E+03    0.2946792693E-03    0.2869991483E-04    0.6730520662E+00    0.1192838929E-03    0.4630413842E-02
    0.2900000000E+03    0.3100474464E-03    0.3023403072E-04    0.6745514773E+00    0.1279956740E-03    0.4631029149E-02
    0.3100000000E+03    0.3256287123E-03    0.3178893273E-04    0.6758628711E+00    0.1367498959E-03    0.4631412458E-02
    0.3300000000E+03    0.3414120678E-03    0.3336355517E-04    0.6770195218E+00    0.1455499797E-03    0.4631596476E-02
    0.3500000000E+03    0.3573889313E-03    0.3495707157E-04    0.6780472892E+00    0.1543990160E-03    0.4631607216E-02
    0.3700000000E+03    0.3735526207E-03    0.3656884266E-04    0.6789665750E+00    0.1632998289E-03    0.4631465657E-02
    0.3900000000E+03    0.3898979622E-03    0.3819837724E-04    0.6797936907E+00    0.1722550259E-03    0.4631188934E-02
    0.4100000000E+03    0.4064209925E-03    0.3984530256E-04    0.6805418338E+00    0.1812670371E-03    0.4630791190E-02
    0.4300000000E+03    0.4231187291E-03    0.4150934155E-04    0.6812217969E+00    0.1903381455E-03    0.4630284217E-02
    0.4500000000E+03    0.4399889921E-03    0.4319029519E-04    0.6818424917E+00    0.1994705128E-03    0.4629677929E-02
    0.4700000000E+03    0.4570302638E-03    0.4488802875E-04    0.6824113416E+00    0.2086661994E-03    0.4628980726E-02
    0.4900000000E+03    0.4742415786E-03    0.4660246093E-04    0.6829345801E+00    0.2179271811E-03    0.4628199777E-02
    0.1000000000E+03    0.1763406550E-03    0.1686636489E-04    0.6380936887E+00    0.4618103703E-04    0.4603000521E-02
    0.3000000000E+03    0.3178121945E-03    0.3100895639E-04    0.6752283948E+00    0.1323672574E-03    0.4631247579E-02
    0.5000000000E+03    0.4829108291E-03    0.4746592602E-04    0.6831807752E+00    0.2225827555E-03    0.4627779855E-02
    0.7000000000E+03    0.6652882086E-03    0.6562105910E-04    0.6866457692E+00    0.3195622646E-03    0.4616101421E-02
    0.9000000000E+03    0.8657936646E-03    0.8556753772E-04    0.6885852791E+00    0.4250481474E-03    0.4599723942E-02
    0.1100000000E+04    0.1086746175E-02    0.1075398400E-03    0.6898246627E+00    0.5407162032E-03    0.4579624923E-02
    0.1300000000E+04    0.1331257319E-02    0.1318493173E-03    0.6906848695E+00    0.6684081822E-03    0.4556036610E-02
    0.1500000000E+04    0.1603186779E-02    0.1588808082E-03    0.6913166962E+00    0.8102618359E-03    0.4528858609E-02
    0.1700000000E+04    0.1907262485E-02    0.1891050092E-03    0.6918003474E+00    0.9688279068E-03    0.4497783530E-02
    0.1900000000E+04    0.2249288538E-02    0.2230993459E-03    0.6921824138E+00    0.1147202647E-02    0.4462333636E-02
    0.2100000000E+04    0.2636436162E-02    0.2615770035E-03    0.6924918109E+00    0.1349192915E-02    0.4421859905E-02
    0.2300000000E+04    0.3077635580E-02    0.3054259481E-03    0.6927474341E+00    0.1579530243E-02    0.4375519054E-02
    0.2500000000E+04    0.3584100181E-02    0.3557610824E-03    0.6929621527E+00    0.1844153494E-02    0.4322232626E-02
    0.2700000000E+04    0.4170026880E-02    0.4139939147E-03    0.6931450343E+00    0.2150585194E-02    0.4260627557E-02
    0.2900000000E+04    0.4853529122E-02    0.4819253631E-03    0.6933026523E+00    0.2508433065E-02    0.4188955465E-02
    0.3100000000E+04    0.5657867873E-02    0.5618682085E-03    0.6934398877E+00    0.2930053578E-02    0.4104987302E-02
    0.3300000000E+04    0.6613038945E-02    0.6568050143E-03    0.6935604411E+00    0.3431411813E-02    0.4005881951E-02
    0.3500000000E+04    0.7757720682E-02    0.7705819474E-03    0.6936671690E+00    0.4033145357E-02    0.3888035161E-02
    0.3700000000E+04    0.9141410753E-02    0.9081215287E-03    0.6937623114E+00    0.4761750718E-02    0.3746936382E-02
    0.3900000000E+04    0.1082612658E-01    0.1075592213E-02    0.6938476495E+00    0.5650575178E-02    0.3577110845E-02
    0.4100000000E+04    0.1288601779E-01    0.1280370710E-02    0.6939246176E+00    0.6739758257E-02    0.3372328826E-02
    0.4300000000E+04    0.1540126020E-01    0.1530436211E-02    0.6939943835E+00    0.8073215723E-02    0.3126450159E-02
    0.4500000000E+04    0.1843977945E-01    0.1832554983E-02    0.6940579075E+00    0.9689230532E-02    0.2835500983E-02
    0.4700000000E+04    0.2201937016E-01    0.2188515538E-02    0.6941159867E+00    0.1160058765E-01    0.2501539847E-02
    0.4900000000E+04    0.2605231634E-01    0.2589621826E-02    0.6941692884E+00    0.1376504466E-01    0.2137708250E-02
    0.1000000000E+04    0.9735364355E-03    0.9628265029E-04    0.6892664633E+00    0.4814998748E-03    0.4590114771E-02
    0.3000000000E+04    0.5238898242E-02    0.5202267582E-03    0.6933735634E+00    0.2710370025E-02    0.4148669908E-02
    0.5000000000E+04    0.2817119478E-01    0.2800391396E-02    0.6941943268E+00    0.1490770143E-01    0.1952525544E-02
    0.7000000000E+04    0.5145119581E-01    0.5120933000E-02    0.6945436164E+00    0.2830897327E-01    0.6206861611E-03
    0.9000000000E+04    0.6034432427E-01    0.6013499693E-02    0.6947360261E+00    0.3453310419E-01    0.6171844945E-03
    0.1100000000E+05    0.6757700840E-01    0.6742167258E-02    0.6948573420E+00    0.4013306484E-01    0.6240963233E-03
    0.1300000000E+05    0.7362592010E-01    0.7353885648E-02    0.6949405138E+00    0.4528872837E-01    0.6299570855E-03
    0.1500000000E+05    0.7873549625E-01    0.7872649503E-02    0.6950008893E+00    0.5007707296E-01    0.6350156211E-03
    0.1700000000E+05    0.8308766182E-01    0.8316334389E-02    0.6950465756E+00    0.5455690664E-01    0.6394694204E-03
    0.1900000000E+05    0.8682094914E-01    0.8698566362E-02    0.6950822552E+00    0.5877430992E-01    0.6434507746E-03
    0.2100000000E+05    0.9004262722E-01    0.9029907538E-02    0.6951108194E+00    0.6276598099E-01    0.6470525461E-03
    0.2300000000E+05    0.9283698910E-01    0.9318666594E-02    0.6951341487E+00    0.6656156491E-01    0.6503424736E-03
    0.2500000000E+05    0.9527114580E-01    0.9571465741E-02    0.6951535184E+00    0.7018531377E-01    0.6533715172E-03
    0.2700000000E+05    0.9739915809E-01    0.9793645285E-02    0.6951698233E+00    0.7365729309E-01    0.6561789968E-03
    0.2900000000E+05    0.9926503570E-01    0.9989557457E-02    0.6951837095E+00    0.7699427402E-01    0.6587958993E-03
    0.3100000000E+05    0.1009049493E+00    0.1016278327E-01    0.6951956548E+00    0.8021040341E-01    0.6612470865E-03
    0.3300000000E+05    0.1023488855E+00    0.1031629485E-01    0.6952060204E+00    0.8331771430E-01    0.6635528156E-03
    0.3500000000E+05    0.1036219019E+00    0.1045257862E-01    0.6952150837E+00    0.8632651980E-01    0.6657298145E-03
    0.3700000000E+05    0.1047450895E+00    0.1057372982E-01    0.6952230617E+00    0.8924572061E-01    0.6677920596E-03
    0.3900000000E+05    0.1057363195E+00    0.1068152591E-01    0.6952301262E+00    0.9208304770E-01    0.6697513505E-03
    0.4100000000E+05    0.1066108282E+00    0.1077748409E-01    0.6952364152E+00    0.9484525565E-01    0.6716177409E-03
    0.4300000000E+05    0.1073816802E+00    0.1086290681E-01    0.6952420404E+00    0.9753827818E-01    0.6733998690E-03
    0.4500000000E+05    0.1080601366E+00    0.1093891812E-01    0.6952470935E+00    0.1001673543E+00    0.6751052117E-03
    0.4700000000E+05    0.1086559526E+00    0.1100649294E-01    0.6952516504E+00    0.1027371312E+00    0.6767402847E-03
    0.4900000000E+05    0.1091776172E+00    0.1106648070E-01    0.6952557743E+00    0.1052517496E+00    0.6783108016E-03
    0.1000000000E+05    0.6412722129E-01    0.6394275576E-02    0.6948028924E+00    0.3739442885E-01    0.6207781754E-03
    0.3000000000E+05    0.1001112352E+00    0.1007880773E-01    0.6951898999E+00    0.7861664865E-01    0.6600408477E-03
    0.5000000000E+05    0.1094129985E+00    0.1109386540E-01    0.6952576908E+00    0.1064895473E+00    0.6790734493E-03
    0.7000000000E+05    0.1116124949E+00    0.1138232077E-01    0.6952826077E+00    0.1290728183E+00    0.6918984480E-03
    0.9000000000E+05    0.1110971236E+00    0.1138554166E-01    0.6952941116E+00    0.1487257907E+00    0.7016317593E-03
    0.1100000000E+06    0.1093529690E+00    0.1125524054E-01    0.6952999200E+00    0.1664551758E+00    0.7095002212E-03
    0.1300000000E+06    0.1070054574E+00    0.1105631502E-01    0.6953028802E+00    0.1827845509E+00    0.7161169054E-03
    0.1500000000E+06    0.1043559090E+00    0.1082061219E-01    0.6953042640E+00    0.1980221483E+00    0.7218333453E-03
    0.1700000000E+06    0.1015633860E+00    0.1056530207E-01    0.6953047144E+00    0.2123656568E+00    0.7268702672E-03
    0.1900000000E+06    0.9871741894E-01    0.1030028976E-01    0.6953045861E+00    0.2259501698E+00    0.7313755424E-03
    0.2100000000E+06    0.9587072870E-01    0.1003158084E-01    0.6953040874E+00    0.2388726885E+00    0.7354531799E-03
    0.2300000000E+06    0.9305530965E-01    0.9762951803E-02    0.6953033471E+00    0.2512057225E+00    0.7391791724E-03
    0.2500000000E+06    0.9029090152E-01    0.9496838947E-02    0.6953024478E+00    0.2630053382E+00    0.7426107643E-03
    0.2700000000E+06    0.8758970651E-01    0.9234838894E-02    0.6953014439E+00    0.2743161684E+00    0.7457921717E-03
    0.2900000000E+06    0.8495913879E-01    0.8978003742E-02    0.6953003725E+00    0.2851746609E+00    0.7487582716E-03
    0.3100000000E+06    0.8240348973E-01    0.8727022138E-02    0.6952992590E+00    0.2956112588E+00    0.7515370681E-03
    0.3300000000E+06    0.7992497001E-01    0.8482334142E-02    0.6952981214E+00    0.3056519027E+00    0.7541513940E-03
    0.3500000000E+06    0.7752438045E-01    0.8244206270E-02    0.6952969722E+00    0.3153190927E+00    0.7566201146E-03
    0.3700000000E+06    0.7520155464E-01    0.8012781802E-02    0.6952958205E+00    0.3246326525E+00    0.7589590000E-03
    0.3900000000E+06    0.7295565747E-01    0.7788115297E-02    0.6952946728E+00    0.3336102893E+00    0.7611813698E-03
    0.4100000000E+06    0.7078539041E-01    0.7570196768E-02    0.6952935337E+00    0.3422680102E+00    0.7632985779E-03
    0.4300000000E+06    0.6868913513E-01    0.7358968943E-02    0.6952924065E+00    0.3506204352E+00    0.7653203822E-03
    0.4500000000E+06    0.6666505556E-01    0.7154339795E-02    0.6952912935E+00    0.3586810360E+00    0.7672552318E-03
    0.4700000000E+06    0.6471117135E-01    0.6956191776E-02    0.6952901963E+00    0.3664623195E+00    0.7691104919E-03
    0.4900000000E+06    0.6282541152E-01    0.6764388730E-02    0.6952891160E+00    0.3739759705E+00    0.7708926224E-03
    0.1000000000E+06    0.1103284804E+00    0.1133190038E-01    0.6952974938E+00    0.1577912679E+00    0.7057522491E-03
    0.3000000000E+06    0.8367177173E-01    0.8851748945E-02    0.6952998197E+00    0.2904439840E+00    0.7501695506E-03
    0.5000000000E+06    0.6190741620E-01    0.6670820247E-02    0.6952885825E+00    0.3776358886E+00    0.7717580710E-03
    0.7000000000E+06    0.4660759222E-01    0.5092746889E-02    0.6952788447E+00    0.4391576942E+00    0.7863152210E-03
    0.9000000000E+06    0.3585342403E-01    0.3962440511E-02    0.6952706759E+00    0.4834978004E+00    0.7973665014E-03
    0.1100000000E+07    0.2817811923E-01    0.3144286607E-02    0.6952637030E+00    0.5160827286E+00    0.8063019619E-03
    0.1300000000E+07    0.2259042468E-01    0.2541897110E-02    0.6952576346E+00    0.5405243999E+00    0.8138167267E-03
    0.1500000000E+07    0.1843717165E-01    0.2089902668E-02    0.6952522663E+00    0.5592358329E+00    0.8203095504E-03
    0.1700000000E+07    0.1528758402E-01    0.1744342387E-02    0.6952474535E+00    0.5738408614E+00    0.8260308825E-03
    0.1900000000E+07    0.1285415354E-01    0.1475447025E-02    0.6952430914E+00    0.5854465280E+00    0.8311485422E-03
    0.2100000000E+07    0.1094175954E-01    0.1262780013E-02    0.6952391019E+00    0.5948200000E+00    0.8357805878E-03
    0.2300000000E+07    0.9415517844E-02    0.1092079334E-02    0.6952354254E+00    0.6025024157E+00    0.8400132878E-03
    0.2500000000E+07    0.8180434686E-02    0.9532195251E-03    0.6952320156E+00    0.6088823432E+00    0.8439116334E-03
    0.2700000000E+07    0.7168395927E-02    0.8388891663E-03    0.6952288358E+00    0.6142436517E+00    0.8475258288E-03
    0.2900000000E+07    0.6329723956E-02    0.7437226338E-03    0.6952258562E+00    0.6187971379E+00    0.8508954765E-03
    0.3100000000E+07    0.5627607885E-02    0.6637218210E-03    0.6952230527E+00    0.6227017462E+00    0.8540523772E-03
    0.3300000000E+07    0.5034366521E-02    0.5958649842E-03    0.6952204051E+00    0.6260790366E+00    0.8570224600E-03
    0.3500000000E+07    0.4528898840E-02    0.5378380029E-03    0.6952178967E+00    0.6290232064E+00    0.8598271497E-03
    0.3700000000E+07    0.4094916436E-02    0.4878469067E-03    0.6952155131E+00    0.6316081411E+00    0.8624843565E-03
    0.3900000000E+07    0.3719699191E-02    0.4444851640E-03    0.6952132423E+00    0.6338924469E+00    0.8650092080E-03
    0.4100000000E+07    0.3393206564E-02    0.4066384211E-03    0.6952110739E+00    0.6359230949E+00    0.8674145996E-03
    0.4300000000E+07    0.3107434174E-02    0.3734152185E-03    0.6952089987E+00    0.6377380929E+00    0.8697116145E-03
    0.4500000000E+07    0.2855942027E-02    0.3440959753E-03    0.6952070089E+00    0.6393684706E+00    0.8719098493E-03
    0.4700000000E+07    0.2633504430E-02    0.3180949845E-03    0.6952050975E+00    0.6408397698E+00    0.8740176699E-03
    0.4900000000E+07    0.2435847320E-02    0.2949317925E-03    0.6952032585E+00    0.6421731767E+00    0.8760424138E-03
    0.1000000000E+07    0.3170240416E-01    0.3521219050E-02    0.6952670605E+00    0.5009998651E+00    0.8020455997E-03
    0.3000000000E+07    0.5963505994E-02    0.7020346278E-03    0.6952244338E+00    0.6208222129E+00    0.8524987802E-03
    0.5000000000E+07    0.2345185980E-02    0.2842875414E-03    0.6952023644E+00    0.6427938182E+00    0.8770256845E-03
    0.7000000000E+07    0.1236143191E-02    0.1528168876E-03    0.6951872379E+00    0.6510379074E+00    0.8935648676E-03
    0.9000000000E+07    0.7598774064E-03    0.9533396735E-04    0.6951756639E+00    0.6552177192E+00    0.9061210460E-03
    0.1100000000E+08    0.5133675002E-03    0.6517077072E-04    0.6951662618E+00    0.6577105614E+00    0.9162733682E-03
    0.1300000000E+08    0.3696827623E-03    0.4739309889E-04    0.6951583298E+00    0.6593552885E+00    0.9248115582E-03
    0.1500000000E+08    0.2787448561E-03    0.3603609566E-04    0.6951514609E+00    0.6605175359E+00    0.9321886498E-03
    0.1700000000E+08    0.2176025568E-03    0.2833841099E-04    0.6951453977E+00    0.6613805601E+00    0.9386891891E-03
    0.1900000000E+08    0.1745446493E-03    0.2287894921E-04    0.6951399669E+00    0.6620458116E+00    0.9445038448E-03
    0.2100000000E+08    0.1430912841E-03    0.1886555360E-04    0.6951350460E+00    0.6625737963E+00    0.9497667511E-03
    0.2300000000E+08    0.1194226888E-03    0.1582817745E-04    0.6951305453E+00    0.6630027519E+00    0.9545759237E-03
    0.2500000000E+08    0.1011694474E-03    0.1347352109E-04    0.6951263969E+00    0.6633579885E+00    0.9590052043E-03
    0.2700000000E+08    0.8679889371E-04    0.1161084157E-04    0.6951225483E+00    0.6636569063E+00    0.9631116342E-03
