  Pressure (Pa) 22mC5-500 (mol/kg) 23mC5-500 (mol/kg) 24mC5-500 (mol/kg) 3mC6-500 (mol/kg) C7-500 (mol/kg)
    0.1000000000E+01    0.2389213480E-04    0.1526099869E-05    0.3665869209E-01    0.2318479147E-05    0.4208724213E-02
    0.3000000000E+01    0.6311315740E-04    0.4026649673E-05    0.9947633434E-01    0.5955323168E-05    0.4292665967E-02
    0.5000000000E+01    0.9411761225E-04    0.5999266755E-05    0.1513448434E+00    0.9304771482E-05    0.4360008394E-02
    0.7000000000E+01    0.1191014185E-03    0.7585649753E-05    0.1948976410E+00    0.1251446829E-04    0.4416539666E-02
    0.9000000000E+01    0.1395448922E-03    0.8881187733E-05    0.2319863066E+00    0.1563443651E-04    0.4464825885E-02
    0.1100000000E+02    0.1564928326E-03    0.9953136308E-05    0.2639506857E+00    0.1868977133E-04    0.4506602212E-02
    0.1300000000E+02    0.1707036080E-03    0.1085026541E-04    0.2917842549E+00    0.2169543802E-04    0.4543131267E-02
    0.1500000000E+02    0.1827400004E-03    0.1160873182E-04    0.3162392554E+00    0.2466131288E-04    0.4575362835E-02
    0.1700000000E+02    0.1930274969E-03    0.1225584468E-04    0.3378957243E+00    0.2759436810E-04    0.4604027625E-02
    0.1900000000E+02    0.2018929961E-03    0.1281256434E-04    0.3572081046E+00    0.3049976918E-04    0.4629697894E-02
    0.2100000000E+02    0.2095912137E-03    0.1329520614E-04    0.3745374932E+00    0.3338148485E-04    0.4652828584E-02
    0.2300000000E+02    0.2163231115E-03    0.1371662883E-04    0.3901744384E+00    0.3624265231E-04    0.4673786122E-02
    0.2500000000E+02    0.2222490147E-03    0.1408708005E-04    0.4043553669E+00    0.3908580881E-04    0.4692869066E-02
    0.2700000000E+02    0.2274981136E-03    0.1441480833E-04    0.4172746253E+00    0.4191304530E-04    0.4710323196E-02
    0.2900000000E+02    0.2321754537E-03    0.1470651314E-04    0.4290934435E+00    0.4472611225E-04    0.4726352737E-02
    0.3100000000E+02    0.2363671504E-03    0.1496768040E-04    0.4399467004E+00    0.4752649484E-04    0.4741128824E-02
    0.3300000000E+02    0.2401443295E-03    0.1520283588E-04    0.4499480963E+00    0.5031546771E-04    0.4754795965E-02
    0.3500000000E+02    0.2435661389E-03    0.1541573872E-04    0.4591941526E+00    0.5309413583E-04    0.4767477056E-02
    0.3700000000E+02    0.2466820748E-03    0.1560953083E-04    0.4677673385E+00    0.5586346553E-04    0.4779277285E-02
    0.3900000000E+02    0.2495337966E-03    0.1578685340E-04    0.4757385385E+00    0.5862430848E-04    0.4790287230E-02
    0.4100000000E+02    0.2521565551E-03    0.1594993850E-04    0.4831690175E+00    0.6137742055E-04    0.4800585321E-02
    0.4300000000E+02    0.2545803257E-03    0.1610068170E-04    0.4901119990E+00    0.6412347676E-04    0.4810239815E-02
    0.4500000000E+02    0.2568307148E-03    0.1624070015E-04    0.4966139432E+00    0.6686308333E-04    0.4819310410E-02
    0.4700000000E+02    0.2589296899E-03    0.1637137933E-04    0.5027155875E+00    0.6959678746E-04    0.4827849543E-02
    0.4900000000E+02    0.2608961715E-03    0.1649391087E-04    0.5084528018E+00    0.7232508542E-04    0.4835903474E-02
    0.1000000000E+02    0.1484029595E-03    0.9441711220E-05    0.2485402742E+00    0.1716909068E-04    0.4486440118E-02
    0.3000000000E+02    0.2343272499E-03    0.1484061111E-04    0.4346332163E+00    0.4612780503E-04    0.4733887871E-02
    0.5000000000E+02    0.2618349273E-03    0.1655244838E-04    0.5111948023E+00    0.7368734990E-04    0.4839761477E-02
    0.7000000000E+02    0.2766366376E-03    0.1748249544E-04    0.5529445722E+00    0.1007403673E-03    0.4899283890E-02
    0.9000000000E+02    0.2880120605E-03    0.1821171110E-04    0.5792292220E+00    0.1275952361E-03    0.4937607301E-02
    0.1100000000E+03    0.2986307766E-03    0.1890400714E-04    0.5972996875E+00    0.1544096785E-03    0.4964344334E-02
    0.1300000000E+03    0.3093941578E-03    0.1961317152E-04    0.6104865034E+00    0.1812801933E-03    0.4983994264E-02
    0.1500000000E+03    0.3206229199E-03    0.2035741093E-04    0.6205339493E+00    0.2082726579E-03    0.4998956890E-02
    0.1700000000E+03    0.3324232621E-03    0.2114207364E-04    0.6284439656E+00    0.2354356109E-03    0.5010635364E-02
    0.1900000000E+03    0.3448172981E-03    0.2196763308E-04    0.6348330997E+00    0.2628069263E-03    0.5019908126E-02
    0.2100000000E+03    0.3577941376E-03    0.2283275959E-04    0.6401015576E+00    0.2904175206E-03    0.5027354994E-02
    0.2300000000E+03    0.3713311119E-03    0.2373556607E-04    0.6445204447E+00    0.3182935718E-03    0.5033375158E-02
    0.2500000000E+03    0.3854028384E-03    0.2467412082E-04    0.6482799410E+00    0.3464579260E-03    0.5038253059E-02
    0.2700000000E+03    0.3999850508E-03    0.2564665095E-04    0.6515174005E+00    0.3749310307E-03    0.5042197241E-02
    0.2900000000E+03    0.4150560961E-03    0.2665161152E-04    0.6543345027E+00    0.4037315788E-03    0.5045364319E-02
    0.3100000000E+03    0.4305973803E-03    0.2768769644E-04    0.6568081294E+00    0.4328769670E-03    0.5047874342E-02
    0.3300000000E+03    0.4465933463E-03    0.2875382521E-04    0.6589974898E+00    0.4623836319E-03    0.5049820963E-02
    0.3500000000E+03    0.4630312587E-03    0.2984912092E-04    0.6609489227E+00    0.4922673018E-03    0.5051278364E-02
    0.3700000000E+03    0.4799009227E-03    0.3097288654E-04    0.6626992139E+00    0.5225431902E-03    0.5052306089E-02
    0.3900000000E+03    0.4971943975E-03    0.3212458242E-04    0.6642779369E+00    0.5532261480E-03    0.5052952490E-02
    0.4100000000E+03    0.5149057294E-03    0.3330380624E-04    0.6657091383E+00    0.5843307844E-03    0.5053257230E-02
    0.4300000000E+03    0.5330307147E-03    0.3451027561E-04    0.6670125713E+00    0.6158715654E-03    0.5053253136E-02
    0.4500000000E+03    0.5515666935E-03    0.3574381325E-04    0.6682046129E+00    0.6478628958E-03    0.5052967590E-02
    0.4700000000E+03    0.5705123738E-03    0.3700433448E-04    0.6692989558E+00    0.6803191880E-03    0.5052423582E-02
    0.4900000000E+03    0.5898676819E-03    0.3829183677E-04    0.6703071366E+00    0.7132549206E-03    0.5051640533E-02
    0.1000000000E+03    0.2933387616E-03    0.1855782316E-04    0.5890301331E+00    0.1410005319E-03    0.4952073211E-02
    0.3000000000E+03    0.4227689998E-03    0.2716583602E-04    0.6556102009E+00    0.4182601214E-03    0.5046695084E-02
    0.5000000000E+03    0.5996992253E-03    0.3894572526E-04    0.6707820343E+00    0.7299071327E-03    0.5051164619E-02
    0.7000000000E+03    0.8186021054E-03    0.5349179634E-04    0.6775019842E+00    0.1091833642E-02    0.5032000663E-02
    0.9000000000E+03    0.1084853429E-02    0.7116389803E-04    0.6812934221E+00    0.1520560367E-02    0.4997981320E-02
    0.1100000000E+04    0.1410061723E-02    0.9273447831E-04    0.6837278032E+00    0.2037555753E-02    0.4950280569E-02
    0.1300000000E+04    0.1812121578E-02    0.1193913591E-03    0.6854228541E+00    0.2672561632E-02    0.4887313480E-02
    0.1500000000E+04    0.2317544251E-02    0.1528926534E-03    0.6866707919E+00    0.3468274634E-02    0.4805482590E-02
    0.1700000000E+04    0.2965858988E-02    0.1958588219E-03    0.6876277742E+00    0.4487737063E-02    0.4698878896E-02
    0.1900000000E+04    0.3816952601E-02    0.2522594382E-03    0.6883848306E+00    0.5826268378E-02    0.4558366843E-02
    0.2100000000E+04    0.4962643779E-02    0.3281808123E-03    0.6889986093E+00    0.7630248303E-02    0.4370075865E-02
    0.2300000000E+04    0.6542584002E-02    0.4328810145E-03    0.6895062080E+00    0.1012326937E-01    0.4113544680E-02
    0.2500000000E+04    0.8755890002E-02    0.5795636487E-03    0.6899329379E+00    0.1362678711E-01    0.3761350239E-02
    0.2700000000E+04    0.1182629962E-01    0.7830745536E-03    0.6902966599E+00    0.1850947050E-01    0.3287466227E-02
    0.2900000000E+04    0.1581099577E-01    0.1047239456E-02    0.6906103376E+00    0.2488991631E-01    0.2700402129E-02
    0.3100000000E+04    0.2023448694E-01    0.1340593297E-02    0.6908836080E+00    0.3205098470E-01    0.2095510134E-02
    0.3300000000E+04    0.2415085984E-01    0.1600466654E-02    0.6911237842E+00    0.3850818562E-01    0.1624402715E-02
    0.3500000000E+04    0.2701694868E-01    0.1790831482E-02    0.6913365158E+00    0.4337700625E-01    0.1350227421E-02
    0.3700000000E+04    0.2900786638E-01    0.1923251381E-02    0.6915262364E+00    0.4690319439E-01    0.1221550612E-02
    0.3900000000E+04    0.3049520764E-01    0.2022330484E-02    0.6916964741E+00    0.4965864756E-01    0.1168588023E-02
    0.4100000000E+04    0.3172992316E-01    0.2104692357E-02    0.6918500713E+00    0.5203543606E-01    0.1148924378E-02
    0.4300000000E+04    0.3283671328E-01    0.2178599109E-02    0.6919893436E+00    0.5422973053E-01    0.1142874147E-02
    0.4500000000E+04    0.3387111489E-01    0.2247730448E-02    0.6921161963E+00    0.5632901339E-01    0.1142207512E-02
    0.4700000000E+04    0.3485720496E-01    0.2313681187E-02    0.6922322116E+00    0.5837091709E-01    0.1143615261E-02
    0.4900000000E+04    0.3580565341E-01    0.2377157468E-02    0.6923387139E+00    0.6037169620E-01    0.1145784810E-02
    0.1000000000E+04    0.1239135195E-02    0.8139859485E-04    0.6826302612E+00    0.1766404721E-02    0.4975891638E-02
    0.3000000000E+04    0.1802417979E-01    0.1193995682E-02    0.6907515212E+00    0.2846020382E-01    0.2390459767E-02
    0.5000000000E+04    0.3626745932E-01    0.2408079835E-02    0.6923887538E+00    0.6135912301E-01    0.1146978176E-02
    0.7000000000E+04    0.4411245934E-01    0.2935133376E-02    0.6930875914E+00    0.7969325355E-01    0.1169115235E-02
    0.9000000000E+04    0.4989824012E-01    0.3326673584E-02    0.6934733065E+00    0.9585699393E-01    0.1185965749E-02
    0.1100000000E+05    0.5421187089E-01    0.3621045097E-02    0.6937168829E+00    0.1103558071E+00    0.1199518190E-02
    0.1300000000E+05    0.5744329416E-01    0.3843757573E-02    0.6938841026E+00    0.1235390878E+00    0.1210876518E-02
    0.1500000000E+05    0.5986139694E-01    0.4012432174E-02    0.6940056421E+00    0.1356583385E+00    0.1220666407E-02
    0.1700000000E+05    0.6165692091E-01    0.4139592009E-02    0.6940977212E+00    0.1468997059E+00    0.1229277553E-02
    0.1900000000E+05    0.6296847662E-01    0.4234355201E-02    0.6941697152E+00    0.1574042717E+00    0.1236969484E-02
    0.2100000000E+05    0.6389890298E-01    0.4303500507E-02    0.6942274168E+00    0.1672811752E+00    0.1243923920E-02
    0.2300000000E+05    0.6452588564E-01    0.4352159602E-02    0.6942745962E+00    0.1766163671E+00    0.1250273158E-02
    0.2500000000E+05    0.6490904147E-01    0.4384279391E-02    0.6943138114E+00    0.1854786102E+00    0.1256116568E-02
    0.2700000000E+05    0.6509476086E-01    0.4402938310E-02    0.6943468584E+00    0.1939236911E+00    0.1261530721E-02
    0.2900000000E+05    0.6511958907E-01    0.4410567413E-02    0.6943750346E+00    0.2019974387E+00    0.1266575895E-02
    0.3100000000E+05    0.6501263274E-01    0.4409107887E-02    0.6943993000E+00    0.2097379289E+00    0.1271300406E-02
    0.3300000000E+05    0.6479730222E-01    0.4400125209E-02    0.6944203802E+00    0.2171771213E+00    0.1275743591E-02
    0.3500000000E+05    0.6449259251E-01    0.4384893165E-02    0.6944388334E+00    0.2243420935E+00    0.1279937908E-02
    0.3700000000E+05    0.6411403824E-01    0.4364456563E-02    0.6944550958E+00    0.2312559836E+00    0.1283910463E-02
    0.3900000000E+05    0.6367443482E-01    0.4339678637E-02    0.6944695134E+00    0.2379387198E+00    0.1287684123E-02
    0.4100000000E+05    0.6318438925E-01    0.4311277302E-02    0.6944823637E+00    0.2444075915E+00    0.1291278368E-02
    0.4300000000E+05    0.6265274545E-01    0.4279853182E-02    0.6944938720E+00    0.2506777004E+00    0.1294709922E-02
    0.4500000000E+05    0.6208691580E-01    0.4245911485E-02    0.6945042229E+00    0.2567623209E+00    0.1297993258E-02
    0.4700000000E+05    0.6149314210E-01    0.4209879239E-02    0.6945135695E+00    0.2626731902E+00    0.1301140984E-02
    0.4900000000E+05    0.6087670255E-01    0.4172118989E-02    0.6945220390E+00    0.2684207437E+00    0.1304164151E-02
    0.1000000000E+05    0.5221119946E-01    0.3484182884E-02    0.6936075167E+00    0.1032898868E+00    0.1193069539E-02
    0.3000000000E+05    0.6508100419E-01    0.4410868187E-02    0.6943876062E+00    0.2059072162E+00    0.1268975593E-02
    0.5000000000E+05    0.6056141046E-01    0.4152689267E-02    0.6945259791E+00    0.2712362304E+00    0.1305632115E-02
    0.7000000000E+05    0.5385424583E-01    0.3728254544E-02    0.6945775548E+00    0.3207984767E+00    0.1330309911E-02
    0.9000000000E+05    0.4736488392E-01    0.3305951766E-02    0.6946018129E+00    0.3606357784E+00    0.1349030475E-02
    0.1100000000E+06    0.4159933382E-01    0.2924483133E-02    0.6946143990E+00    0.3935246116E+00    0.1364160374E-02
    0.1300000000E+06    0.3661487285E-01    0.2590669300E-02    0.6946211077E+00    0.4211057042E+00    0.1376881112E-02
    0.1500000000E+06    0.3234572868E-01    0.2301966043E-02    0.6946245380E+00    0.4444909524E+00    0.1387869765E-02
    0.1700000000E+06    0.2869689249E-01    0.2053181847E-02    0.6946260097E+00    0.4644924039E+00    0.1397551295E-02
    0.1900000000E+06    0.2557423878E-01    0.1838754812E-02    0.6946262537E+00    0.4817284683E+00    0.1406210315E-02
    0.2100000000E+06    0.2289392614E-01    0.1653540015E-02    0.6946257019E+00    0.4966819179E+00    0.1414046969E-02
    0.2300000000E+06    0.2058443151E-01    0.1493043543E-02    0.6946246224E+00    0.5097357201E+00    0.1421207465E-02
    0.2500000000E+06    0.1858593481E-01    0.1353442964E-02    0.6946231882E+00    0.5211971602E+00    0.1427801922E-02
    0.2700000000E+06    0.1684885310E-01    0.1231528610E-02    0.6946215144E+00    0.5313150173E+00    0.1433915389E-02
    0.2900000000E+06    0.1533222904E-01    0.1124621153E-02    0.6946196796E+00    0.5402922396E+00    0.1439614944E-02
    0.3100000000E+06    0.1400223954E-01    0.1030488369E-02    0.6946177384E+00    0.5482955150E+00    0.1444954440E-02
    0.3300000000E+06    0.1283090879E-01    0.9472698705E-03    0.6946157296E+00    0.5554626102E+00    0.1449977786E-02
    0.3500000000E+06    0.1179503457E-01    0.8734124030E-03    0.6946136807E+00    0.5619080629E+00    0.1454721255E-02
    0.3700000000E+06    0.1087530835E-01    0.8076156870E-03    0.6946116120E+00    0.5677276346E+00    0.1459215170E-02
    0.3900000000E+06    0.1005560080E-01    0.7487877160E-03    0.6946095379E+00    0.5730018191E+00    0.1463485139E-02
    0.4100000000E+06    0.9322384081E-02    0.6960081476E-03    0.6946074691E+00    0.5777986256E+00    0.1467552990E-02
    0.4300000000E+06    0.8664265434E-02    0.6484984279E-03    0.6946054134E+00    0.5821757992E+00    0.1471437482E-02
    0.4500000000E+06    0.8071610391E-02    0.6055974385E-03    0.6946033766E+00    0.5861826024E+00    0.1475154859E-02
    0.4700000000E+06    0.7536237856E-02    0.5667416347E-03    0.6946013626E+00    0.5898612522E+00    0.1478719278E-02
    0.4900000000E+06    0.7051172731E-02    0.5314488212E-03    0.6945993745E+00    0.5932480853E+00    0.1482143158E-02
    0.1000000000E+06    0.4438324455E-01    0.3109331811E-02    0.6946090894E+00    0.3778296521E+00    0.1356953956E-02
    0.3000000000E+06    0.1464577691E-01    0.1076082105E-02    0.6946187196E+00    0.5444064060E+00    0.1442326753E-02
    0.5000000000E+06    0.6825605164E-02    0.5150067737E-03    0.6945983907E+00    0.5948420553E+00    0.1483805869E-02
    0.7000000000E+06    0.3884211276E-02    0.2985137987E-03    0.6945802895E+00    0.6171412938E+00    0.1511772026E-02
    0.9000000000E+06    0.2492150394E-02    0.1942345764E-03    0.6945649633E+00    0.6293063949E+00    0.1533001596E-02
    0.1100000000E+07    0.1730095374E-02    0.1363734100E-03    0.6945518174E+00    0.6368534956E+00    0.1550165921E-02
    0.1300000000E+07    0.1269493059E-02    0.1010156390E-03    0.6945403426E+00    0.6419530981E+00    0.1564600732E-02
    0.1500000000E+07    0.9704892717E-03    0.7785013830E-04    0.6945301706E+00    0.6456134194E+00    0.1577072218E-02
    0.1700000000E+07    0.7656568575E-03    0.6185368492E-04    0.6945210373E+00    0.6483609408E+00    0.1588061580E-02
    0.1900000000E+07    0.6193218724E-03    0.5034521122E-04    0.6945127495E+00    0.6504954814E+00    0.1597891249E-02
    0.2100000000E+07    0.5112025905E-03    0.4178882738E-04    0.6945051623E+00    0.6521995512E+00    0.1606788041E-02
    0.2300000000E+07    0.4290881025E-03    0.3525360789E-04    0.6944981652E+00    0.6535902738E+00    0.1614917695E-02
    0.2500000000E+07    0.3652749089E-03    0.3014872225E-04    0.6944916714E+00    0.6547460995E+00    0.1622405068E-02
    0.2700000000E+07    0.3147106223E-03    0.2608455693E-04    0.6944856122E+00    0.6557214684E+00    0.1629346608E-02
    0.2900000000E+07    0.2739711386E-03    0.2279574651E-04    0.6944799320E+00    0.6565552992E+00    0.1635818395E-02
    0.3100000000E+07    0.2406698449E-03    0.2009648105E-04    0.6944745850E+00    0.6572761283E+00    0.1641881519E-02
    0.3300000000E+07    0.2131023844E-03    0.1785350291E-04    0.6944695337E+00    0.6579053407E+00    0.1647585791E-02
    0.3500000000E+07    0.1900255234E-03    0.1596922253E-04    0.6944647462E+00    0.6584592699E+00    0.1652972369E-02
    0.3700000000E+07    0.1705152765E-03    0.1437084084E-04    0.6944601957E+00    0.6589506004E+00    0.1658075657E-02
    0.3900000000E+07    0.1538734294E-03    0.1300315484E-04    0.6944558593E+00    0.6593893300E+00    0.1662924715E-02
    0.4100000000E+07    0.1395644829E-03    0.1182368683E-04    0.6944517174E+00    0.6597834423E+00    0.1667544315E-02
    0.4300000000E+07    0.1271722136E-03    0.1079931756E-04    0.6944477526E+00    0.6601393887E+00    0.1671955746E-02
    0.4500000000E+07    0.1163691785E-03    0.9903915018E-05    0.6944439503E+00    0.6604624379E+00    0.1676177444E-02
    0.4700000000E+07    0.1068949373E-03    0.9116635934E-05    0.6944402971E+00    0.6607569344E+00    0.1680225478E-02
    0.4900000000E+07    0.9854025912E-04    0.8420690381E-05    0.6944367816E+00    0.6610264919E+00    0.1684113942E-02
    0.1000000000E+07    0.2059683334E-02    0.1614826946E-03    0.6945581533E+00    0.6334808938E+00    0.1541989858E-02
    0.3000000000E+07    0.2565101523E-03    0.2138174625E-04    0.6944772194E+00    0.6569283636E+00    0.1638897697E-02
    0.5000000000E+07    0.9472845013E-04    0.8102599882E-05    0.6944350722E+00    0.6611528850E+00    0.1686002278E-02
    0.7000000000E+07    0.4915868029E-04    0.4265211823E-05    0.6944061331E+00    0.6629019509E+00    0.1717764444E-02
    0.9000000000E+07    0.3021207232E-04    0.2642873566E-05    0.6943839691E+00    0.6638567858E+00    0.1741876646E-02
    0.1100000000E+08    0.2055598197E-04    0.1805953047E-05    0.6943659530E+00    0.6644579765E+00    0.1761372041E-02
    0.1300000000E+08    0.1497160347E-04    0.1317415093E-05    0.6943507468E+00    0.6648712173E+00    0.1777767443E-02
    0.1500000000E+08    0.1145021894E-04    0.1007085846E-05    0.6943375739E+00    0.6651727068E+00    0.1791932967E-02
    0.1700000000E+08    0.9085223126E-05    0.7974378479E-06    0.6943259428E+00    0.6654023680E+00    0.1804415113E-02
    0.1900000000E+08    0.7418688376E-05    0.6490044251E-06    0.6943155224E+00    0.6655831346E+00    0.1815580072E-02
    0.2100000000E+08    0.6199013541E-05    0.5399558026E-06    0.6943060783E+00    0.6657291180E+00    0.1825685453E-02
    0.2300000000E+08    0.5278613341E-05    0.4574124404E-06    0.6942974390E+00    0.6658494767E+00    0.1834919497E-02
    0.2500000000E+08    0.4566257767E-05    0.3933721424E-06    0.6942894747E+00    0.6659504136E+00    0.1843424016E-02
    0.2700000000E+08    0.4003076299E-05    0.3426477288E-06    0.6942820849E+00    0.6660362792E+00    0.1851308556E-02
