  Pressure (Pa) 22mC5-500 (mol/kg) 23mC5-500 (mol/kg) 24mC5-500 (mol/kg) 3mC6-500 (mol/kg) C7-500 (mol/kg)
    0.1000000000E+01    0.2127899984E-04    0.1358140628E-05    0.9949565185E-01    0.7726214323E-06    0.4204603166E-02
    0.3000000000E+01    0.4706515436E-04    0.2996679233E-05    0.2320898753E+00    0.1983678666E-05    0.4265512642E-02
    0.5000000000E+01    0.6172030568E-04    0.3922773574E-05    0.3164293176E+00    0.3098043910E-05    0.4303190263E-02
    0.7000000000E+01    0.7089563225E-04    0.4499744473E-05    0.3748011577E+00    0.4165020439E-05    0.4329451269E-02
    0.9000000000E+01    0.7706579062E-04    0.4886195490E-05    0.4175986879E+00    0.5201329585E-05    0.4348919713E-02
    0.1100000000E+02    0.8146331956E-04    0.5160866389E-05    0.4503215820E+00    0.6215366822E-05    0.4363983588E-02
    0.1300000000E+02    0.8475917847E-04    0.5366474714E-05    0.4761527495E+00    0.7212142274E-05    0.4376017981E-02
    0.1500000000E+02    0.8734345778E-04    0.5527766433E-05    0.4970620434E+00    0.8194964525E-05    0.4385874343E-02
    0.1700000000E+02    0.8945473535E-04    0.5659818049E-05    0.5143338868E+00    0.9166170684E-05    0.4394109375E-02
    0.1900000000E+02    0.9124488777E-04    0.5772187870E-05    0.5288415442E+00    0.1012749321E-04    0.4401103014E-02
    0.2100000000E+02    0.9281377112E-04    0.5871132731E-05    0.5411994535E+00    0.1108026386E-04    0.4407123759E-02
    0.2300000000E+02    0.9422879341E-04    0.5960856301E-05    0.5518525035E+00    0.1202553585E-04    0.4412366938E-02
    0.2500000000E+02    0.9553645719E-04    0.6044243595E-05    0.5611307427E+00    0.1296416134E-04    0.4416978176E-02
    0.2700000000E+02    0.9676942305E-04    0.6123309407E-05    0.5692841885E+00    0.1389684287E-04    0.4421068344E-02
    0.2900000000E+02    0.9795097046E-04    0.6199480814E-05    0.5765056988E+00    0.1482416876E-04    0.4424723404E-02
    0.3100000000E+02    0.9909789240E-04    0.6273780030E-05    0.5829464239E+00    0.1574663832E-04    0.4428011081E-02
    0.3300000000E+02    0.1002224185E-03    0.6346945567E-05    0.5887265030E+00    0.1666468016E-04    0.4430985486E-02
    0.3500000000E+02    0.1013335194E-03    0.6419514192E-05    0.5939426295E+00    0.1757866591E-04    0.4433690399E-02
    0.3700000000E+02    0.1024378079E-03    0.6491877363E-05    0.5986735043E+00    0.1848892061E-04    0.4436161641E-02
    0.3900000000E+02    0.1035401713E-03    0.6564320736E-05    0.6029838349E+00    0.1939573075E-04    0.4438428819E-02
    0.4100000000E+02    0.1046442215E-03    0.6637052204E-05    0.6069273134E+00    0.2029935061E-04    0.4440516630E-02
    0.4300000000E+02    0.1057526206E-03    0.6710222052E-05    0.6105488646E+00    0.2120000723E-04    0.4442445845E-02
    0.4500000000E+02    0.1068673175E-03    0.6783937615E-05    0.6138863654E+00    0.2209790453E-04    0.4444234071E-02
    0.4700000000E+02    0.1079897226E-03    0.6858274040E-05    0.6169719749E+00    0.2299322652E-04    0.4445896333E-02
    0.4900000000E+02    0.1091208379E-03    0.6933282263E-05    0.6198331739E+00    0.2388614006E-04    0.4447445537E-02
    0.1000000000E+02    0.7943539999E-04    0.5034270054E-05    0.4349832118E+00    0.5710766545E-05    0.4356900127E-02
    0.3000000000E+02    0.9852790598E-04    0.6236812751E-05    0.5798155250E+00    0.1528598231E-04    0.4426409508E-02
    0.5000000000E+02    0.1096898880E-03    0.6971049092E-05    0.6211871337E+00    0.2433174167E-04    0.4448181288E-02
    0.7000000000E+02    0.1215991600E-03    0.7764033962E-05    0.6407839838E+00    0.3314807616E-04    0.4459010272E-02
    0.9000000000E+02    0.1344225790E-03    0.8619615889E-05    0.6522156627E+00    0.4183838186E-04    0.4465414148E-02
    0.1100000000E+03    0.1479412316E-03    0.9521495874E-05    0.6597055177E+00    0.5045504917E-04    0.4469527756E-02
    0.1300000000E+03    0.1619796522E-03    0.1045752117E-04    0.6649925482E+00    0.5902961594E-04    0.4472274923E-02
    0.1500000000E+03    0.1764193427E-03    0.1141969329E-04    0.6689239641E+00    0.6758311848E-04    0.4474127123E-02
    0.1700000000E+03    0.1911812462E-03    0.1240275509E-04    0.6719618868E+00    0.7613059782E-04    0.4475353028E-02
    0.1900000000E+03    0.2062118157E-03    0.1340318386E-04    0.6743798216E+00    0.8468336914E-04    0.4476118364E-02
    0.2100000000E+03    0.2214740763E-03    0.1441856853E-04    0.6763499787E+00    0.9325028526E-04    0.4476531654E-02
    0.2300000000E+03    0.2369420477E-03    0.1544722838E-04    0.6779861942E+00    0.1018384939E-03    0.4476667352E-02
    0.2500000000E+03    0.2525972209E-03    0.1648797525E-04    0.6793667318E+00    0.1104539180E-03    0.4476578486E-02
    0.2700000000E+03    0.2684262847E-03    0.1753996150E-04    0.6805471713E+00    0.1191015747E-03    0.4476304001E-02
    0.2900000000E+03    0.2844196238E-03    0.1860258024E-04    0.6815680711E+00    0.1277857944E-03    0.4475873235E-02
    0.3100000000E+03    0.3005703024E-03    0.1967539832E-04    0.6824597227E+00    0.1365103770E-03    0.4475308774E-02
    0.3300000000E+03    0.3168733633E-03    0.2075811024E-04    0.6832452051E+00    0.1452787055E-03    0.4474628325E-02
    0.3500000000E+03    0.3333253338E-03    0.2185050589E-04    0.6839424116E+00    0.1540938306E-03    0.4473845991E-02
    0.3700000000E+03    0.3499238717E-03    0.2295244755E-04    0.6845654284E+00    0.1629585347E-03    0.4472973164E-02
    0.3900000000E+03    0.3666675081E-03    0.2406385311E-04    0.6851254963E+00    0.1718753822E-03    0.4472019153E-02
    0.4100000000E+03    0.3835554568E-03    0.2518468389E-04    0.6856316943E+00    0.1808467580E-03    0.4470991650E-02
    0.4300000000E+03    0.4005874725E-03    0.2631493541E-04    0.6860914357E+00    0.1898748990E-03    0.4469897065E-02
    0.4500000000E+03    0.4177637429E-03    0.2745463055E-04    0.6865108333E+00    0.1989619188E-03    0.4468740788E-02
    0.4700000000E+03    0.4350848070E-03    0.2860381423E-04    0.6868949725E+00    0.2081098281E-03    0.4467527382E-02
    0.4900000000E+03    0.4525514908E-03    0.2976254944E-04    0.6872481185E+00    0.2173205517E-03    0.4466260735E-02
    0.1000000000E+03    0.1411074920E-03    0.9065643226E-05    0.6563138701E+00    0.4615362519E-04    0.4467684100E-02
    0.3000000000E+03    0.2924756452E-03    0.1913773602E-04    0.6820284691E+00    0.1321428202E-03    0.4475606513E-02
    0.5000000000E+03    0.4613397647E-03    0.3034552268E-04    0.6874142175E+00    0.2219500503E-03    0.4465608507E-02
    0.7000000000E+03    0.6451059840E-03    0.4253143681E-04    0.6897475735E+00    0.3182639245E-03    0.4450369385E-02
    0.9000000000E+03    0.8455211726E-03    0.5581583951E-04    0.6910500679E+00    0.4227639678E-03    0.4431754878E-02
    0.1100000000E+04    0.1065131943E-02    0.7036936091E-04    0.6918810058E+00    0.5370439032E-03    0.4410213669E-02
    0.1300000000E+04    0.1307027856E-02    0.8639765672E-04    0.6924570759E+00    0.6628389160E-03    0.4385758744E-02
    0.1500000000E+04    0.1574902693E-02    0.1041460126E-03    0.6928798522E+00    0.8021481003E-03    0.4358193544E-02
    0.1700000000E+04    0.1873198071E-02    0.1239090707E-03    0.6932032720E+00    0.9573408796E-03    0.4327177554E-02
    0.1900000000E+04    0.2207302412E-02    0.1460441099E-03    0.6934586299E+00    0.1131274901E-02    0.4292240573E-02
    0.2100000000E+04    0.2583812741E-02    0.1709884455E-03    0.6936653301E+00    0.1327440860E-02    0.4252773987E-02
    0.2300000000E+04    0.3010878414E-02    0.1992822390E-03    0.6938360432E+00    0.1550148367E-02    0.4208007211E-02
    0.2500000000E+04    0.3498654543E-02    0.2315985707E-03    0.6939793938E+00    0.1804769362E-02    0.4156970918E-02
    0.2700000000E+04    0.4059902371E-02    0.2687832512E-03    0.6941014554E+00    0.2098059941E-02    0.4098445775E-02
    0.2900000000E+04    0.4710784376E-02    0.3119075437E-03    0.6942066291E+00    0.2438587066E-02    0.4030893976E-02
    0.3100000000E+04    0.5471910961E-02    0.3623375729E-03    0.6942981816E+00    0.2837291865E-02    0.3952370258E-02
    0.3300000000E+04    0.6369695603E-02    0.4218241992E-03    0.6943785888E+00    0.3308222159E-02    0.3860410052E-02
    0.3500000000E+04    0.7438046331E-02    0.4926152228E-03    0.6944497611E+00    0.3869453136E-02    0.3751897046E-02
    0.3700000000E+04    0.8720316483E-02    0.5775848361E-03    0.6945131965E+00    0.4544162215E-02    0.3622925432E-02
    0.3900000000E+04    0.1027115438E-01    0.6803564845E-03    0.6945700856E+00    0.5361678013E-02    0.3468703506E-02
    0.4100000000E+04    0.1215722921E-01    0.8053514082E-03    0.6946213872E+00    0.6357977140E-02    0.3283613217E-02
    0.4300000000E+04    0.1445445568E-01    0.9576053672E-03    0.6946678815E+00    0.7574386532E-02    0.3061669450E-02
    0.4500000000E+04    0.1723708923E-01    0.1142046801E-02    0.6947102102E+00    0.9052042187E-02    0.2797817046E-02
    0.4700000000E+04    0.2055188524E-01    0.1361785080E-02    0.6947489058E+00    0.1081844154E-01    0.2490635410E-02
    0.4900000000E+04    0.2437316262E-01    0.1615132400E-02    0.6947844138E+00    0.1286368779E-01    0.2146600102E-02
    0.1000000000E+04    0.9527468947E-03    0.6292194713E-04    0.6915068994E+00    0.4785779299E-03    0.4421343014E-02
    0.3000000000E+04    0.5076070458E-02    0.3361101365E-03    0.6942539378E+00    0.2629871946E-02    0.3993144003E-02
    0.5000000000E+04    0.2643282903E-01    0.1751703566E-02    0.6948010922E+00    0.1397052803E-01    0.1966035459E-02
    0.7000000000E+04    0.5177829058E-01    0.3435417185E-02    0.6950336405E+00    0.2841140291E-01    0.4332614261E-03
    0.9000000000E+04    0.6089759781E-01    0.4045380860E-02    0.6951616230E+00    0.3473402311E-01    0.4210860357E-03
    0.1100000000E+05    0.6827811987E-01    0.4540905319E-02    0.6952422534E+00    0.4039437746E-01    0.4257228214E-03
    0.1300000000E+05    0.7446460093E-01    0.4957804382E-02    0.6952974924E+00    0.4560934180E-01    0.4297100091E-03
    0.1500000000E+05    0.7970106813E-01    0.5312045326E-02    0.6953375637E+00    0.5045548224E-01    0.4331533276E-03
    0.1700000000E+05    0.8416942121E-01    0.5615541109E-02    0.6953678660E+00    0.5499123734E-01    0.4361859472E-03
    0.1900000000E+05    0.8800864328E-01    0.5877403257E-02    0.6953915158E+00    0.5926252751E-01    0.4388975206E-03
    0.2100000000E+05    0.9132667651E-01    0.6104715589E-02    0.6954104372E+00    0.6330601414E-01    0.4413510345E-03
    0.2300000000E+05    0.9420856930E-01    0.6303065326E-02    0.6954258810E+00    0.6715137623E-01    0.4435924642E-03
    0.2500000000E+05    0.9672219529E-01    0.6476916106E-02    0.6954386953E+00    0.7082293908E-01    0.4456564146E-03
    0.2700000000E+05    0.9892234645E-01    0.6629875117E-02    0.6954494751E+00    0.7434086180E-01    0.4475695978E-03
    0.2900000000E+05    0.1008537138E+00    0.6764887735E-02    0.6954586498E+00    0.7772201802E-01    0.4493530721E-03
    0.3100000000E+05    0.1025530922E+00    0.6884381594E-02    0.6954665370E+00    0.8098065919E-01    0.4510237386E-03
    0.3300000000E+05    0.1040510346E+00    0.6990374724E-02    0.6954733765E+00    0.8412892096E-01    0.4525953715E-03
    0.3500000000E+05    0.1053731090E+00    0.7084557785E-02    0.6954793526E+00    0.8717721479E-01    0.4540793480E-03
    0.3700000000E+05    0.1065408649E+00    0.7168357332E-02    0.6954846095E+00    0.9013453432E-01    0.4554851757E-03
    0.3900000000E+05    0.1075725847E+00    0.7242985021E-02    0.6954892611E+00    0.9300869740E-01    0.4568208827E-03
    0.4100000000E+05    0.1084838733E+00    0.7309476250E-02    0.6954933990E+00    0.9580653942E-01    0.4580933107E-03
    0.4300000000E+05    0.1092881253E+00    0.7368720799E-02    0.6954970975E+00    0.9853406891E-01    0.4593083385E-03
    0.4500000000E+05    0.1099968979E+00    0.7421487315E-02    0.6955004173E+00    0.1011965940E+00    0.4604710554E-03
    0.4700000000E+05    0.1106202121E+00    0.7468443047E-02    0.6955034087E+00    0.1037988256E+00    0.4615858970E-03
    0.4900000000E+05    0.1111667959E+00    0.7510169860E-02    0.6955061137E+00    0.1063449630E+00    0.4626567532E-03
    0.1000000000E+05    0.6475574854E-01    0.4304190212E-02    0.6952060718E+00    0.3762571021E-01    0.4234712075E-03
    0.3000000000E+05    0.1017303621E+00    0.6826439853E-02    0.6954627378E+00    0.7936584999E-01    0.4502015819E-03
    0.5000000000E+05    0.1114137375E+00    0.7529234179E-02    0.6955073700E+00    0.1075981863E+00    0.4631767747E-03
    0.7000000000E+05    0.1137511107E+00    0.7731474869E-02    0.6955236357E+00    0.1304518858E+00    0.4719225617E-03
    0.9000000000E+05    0.1132650407E+00    0.7736256352E-02    0.6955310581E+00    0.1503226863E+00    0.4785609296E-03
    0.1100000000E+06    0.1114962533E+00    0.7648329927E-02    0.6955347395E+00    0.1682348070E+00    0.4839278509E-03
    0.1300000000E+06    0.1090955704E+00    0.7512654277E-02    0.6955365579E+00    0.1847212151E+00    0.4884411978E-03
    0.1500000000E+06    0.1063774093E+00    0.7351343467E-02    0.6955373501E+00    0.2000956908E+00    0.4923406207E-03
    0.1700000000E+06    0.1035081189E+00    0.7176341168E-02    0.6955375382E+00    0.2145594730E+00    0.4957766135E-03
    0.1900000000E+06    0.1005815157E+00    0.6994547107E-02    0.6955373543E+00    0.2282500833E+00    0.4988500059E-03
    0.2100000000E+06    0.9765294347E-01    0.6810149339E-02    0.6955369343E+00    0.2412662826E+00    0.5016317241E-03
    0.2300000000E+06    0.9475604594E-01    0.6625783689E-02    0.6955363619E+00    0.2536819215E+00    0.5041735918E-03
    0.2500000000E+06    0.9191161558E-01    0.6443151613E-02    0.6955356906E+00    0.2655541343E+00    0.5065146492E-03
    0.2700000000E+06    0.8913252795E-01    0.6263368481E-02    0.6955349557E+00    0.2769284368E+00    0.5086850522E-03
    0.2900000000E+06    0.8642662191E-01    0.6087169222E-02    0.6955341809E+00    0.2878420306E+00    0.5107085882E-03
    0.3100000000E+06    0.8379844650E-01    0.5915034596E-02    0.6955333823E+00    0.2983260182E+00    0.5126043575E-03
    0.3300000000E+06    0.8125035560E-01    0.5747271391E-02    0.6955325715E+00    0.3084069302E+00    0.5143879335E-03
    0.3500000000E+06    0.7878321370E-01    0.5584064867E-02    0.6955317562E+00    0.3181078019E+00    0.5160721840E-03
    0.3700000000E+06    0.7639686217E-01    0.5425513950E-02    0.6955309423E+00    0.3274489487E+00    0.5176678656E-03
    0.3900000000E+06    0.7409043433E-01    0.5271655405E-02    0.6955301335E+00    0.3364485336E+00    0.5191840639E-03
    0.4100000000E+06    0.7186257231E-01    0.5122480783E-02    0.6955293328E+00    0.3451229882E+00    0.5206285232E-03
    0.4300000000E+06    0.6971157910E-01    0.4977948530E-02    0.6955285422E+00    0.3534873304E+00    0.5220078997E-03
    0.4500000000E+06    0.6763552668E-01    0.4837992787E-02    0.6955277629E+00    0.3615554051E+00    0.5233279569E-03
    0.4700000000E+06    0.6563233408E-01    0.4702529883E-02    0.6955269959E+00    0.3693400701E+00    0.5245937188E-03
    0.4900000000E+06    0.6369982427E-01    0.4571463192E-02    0.6955262417E+00    0.3768533401E+00    0.5258095920E-03
    0.1000000000E+06    0.1124888280E+00    0.7700294975E-02    0.6955332121E+00    0.1594832084E+00    0.4813713917E-03
    0.3000000000E+06    0.8510262903E-01    0.6000571297E-02    0.6955337838E+00    0.2931359742E+00    0.5116713986E-03
    0.5000000000E+06    0.6275937941E-01    0.4507545613E-02    0.6955258696E+00    0.3805117545E+00    0.5264000529E-03
    0.7000000000E+06    0.4711871466E-01    0.3431893095E-02    0.6955191063E+00    0.4418717372E+00    0.5363319492E-03
    0.9000000000E+06    0.3616836639E-01    0.2664530690E-02    0.6955134602E+00    0.4859243419E+00    0.5438720505E-03
    0.1100000000E+07    0.2837853734E-01    0.2110915604E-02    0.6955086529E+00    0.5182016860E+00    0.5499686474E-03
    0.1300000000E+07    0.2272217650E-01    0.1704364906E-02    0.6955044758E+00    0.5423589289E+00    0.5550959673E-03
    0.1500000000E+07    0.1852646927E-01    0.1399941764E-02    0.6955007847E+00    0.5608225554E+00    0.5595260540E-03
    0.1700000000E+07    0.1534981189E-01    0.1167579940E-02    0.6954974781E+00    0.5752172117E+00    0.5634297747E-03
    0.1900000000E+07    0.1289860894E-01    0.9870016970E-03    0.6954944830E+00    0.5866461036E+00    0.5669216243E-03
    0.2100000000E+07    0.1097422719E-01    0.8443312767E-03    0.6954917451E+00    0.5958713688E+00    0.5700821489E-03
    0.2300000000E+07    0.9439698296E-02    0.7299103136E-03    0.6954892229E+00    0.6034292890E+00    0.5729702063E-03
    0.2500000000E+07    0.8198757190E-02    0.6368961458E-03    0.6954868846E+00    0.6097042056E+00    0.5756301376E-03
    0.2700000000E+07    0.7182493550E-02    0.5603562964E-03    0.6954847045E+00    0.6149764725E+00    0.5780961959E-03
    0.2900000000E+07    0.6340718677E-02    0.4966761164E-03    0.6954826623E+00    0.6194540229E+00    0.5803954008E-03
    0.3100000000E+07    0.5636286006E-02    0.4431654029E-03    0.6954807411E+00    0.6232934901E+00    0.5825494493E-03
    0.3300000000E+07    0.5041289171E-02    0.3977929476E-03    0.6954789271E+00    0.6266145732E+00    0.5845760322E-03
    0.3500000000E+07    0.4534473142E-02    0.3590045238E-03    0.6954772087E+00    0.6295099698E+00    0.5864897673E-03
    0.3700000000E+07    0.4099442277E-02    0.3255961256E-03    0.6954755761E+00    0.6320523522E+00    0.5883028744E-03
    0.3900000000E+07    0.3723400559E-02    0.2966243633E-03    0.6954740210E+00    0.6342993418E+00    0.5900256750E-03
    0.4100000000E+07    0.3396252899E-02    0.2713422220E-03    0.6954725361E+00    0.6362971054E+00    0.5916669673E-03
    0.4300000000E+07    0.3109955167E-02    0.2491523887E-03    0.6954711152E+00    0.6380829912E+00    0.5932343133E-03
    0.4500000000E+07    0.2858038021E-02    0.2295729160E-03    0.6954697530E+00    0.6396874839E+00    0.5947342608E-03
    0.4700000000E+07    0.2635253849E-02    0.2122116636E-03    0.6954684446E+00    0.6411356735E+00    0.5961725177E-03
    0.4900000000E+07    0.2437312020E-02    0.1967470650E-03    0.6954671858E+00    0.6424483692E+00    0.5975540904E-03
    0.1000000000E+07    0.3195260788E-01    0.2365771409E-02    0.6955109666E+00    0.5032714343E+00    0.5470645549E-03
    0.3000000000E+07    0.5973260238E-02    0.4687895138E-03    0.6954816875E+00    0.6214453038E+00    0.5814893825E-03
    0.5000000000E+07    0.2346527445E-02    0.1896411460E-03    0.6954665738E+00    0.6430594535E+00    0.5982250205E-03
    0.7000000000E+07    0.1236359039E-02    0.1019037014E-03    0.6954562235E+00    0.6511833505E+00    0.6095105429E-03
    0.9000000000E+07    0.7598347142E-03    0.6356007143E-04    0.6954483075E+00    0.6553092685E+00    0.6180783687E-03
    0.1100000000E+08    0.5132485997E-03    0.4344441804E-04    0.6954418786E+00    0.6577734623E+00    0.6250059688E-03
    0.1300000000E+08    0.3695396884E-03    0.3159014483E-04    0.6954364559E+00    0.6594011723E+00    0.6308321864E-03
    0.1500000000E+08    0.2785953836E-03    0.2401787121E-04    0.6954317607E+00    0.6605524920E+00    0.6358661376E-03
    0.1700000000E+08    0.2174534083E-03    0.1888576872E-04    0.6954276166E+00    0.6614080820E+00    0.6403019766E-03
    0.1900000000E+08    0.1743984589E-03    0.1524608634E-04    0.6954239050E+00    0.6620680462E+00    0.6442698028E-03
    0.2100000000E+08    0.1429490282E-03    0.1257057020E-04    0.6954205422E+00    0.6625921356E+00    0.6478611409E-03
    0.2300000000E+08    0.1192846324E-03    0.1054578799E-04    0.6954174666E+00    0.6630181379E+00    0.6511428710E-03
    0.2500000000E+08    0.1010355435E-03    0.8976174193E-05    0.6954146320E+00    0.6633710817E+00    0.6541653784E-03
    0.2700000000E+08    0.8666896179E-04    0.7734550900E-05    0.6954120023E+00    0.6636681834E+00    0.6569675850E-03
