  Pressure (Pa) 22mC5-500 (mol/kg) 23mC5-500 (mol/kg) 24mC5-500 (mol/kg) 3mC6-500 (mol/kg) C7-500 (mol/kg)
    0.1000000000E+01    0.2423281397E-04    0.1393171094E-05    0.9949999701E-01    0.4083128519E-05    0.4147061028E-02
    0.3000000000E+01    0.5356891711E-04    0.3072401641E-05    0.2321137537E+00    0.1007633939E-04    0.4175921578E-02
    0.5000000000E+01    0.7043402063E-04    0.4033053317E-05    0.3164740857E+00    0.1550929992E-04    0.4185995575E-02
    0.7000000000E+01    0.8116462056E-04    0.4641860467E-05    0.3748644428E+00    0.2067751515E-04    0.4191822304E-02
    0.9000000000E+01    0.8852862064E-04    0.5058513623E-05    0.4176777840E+00    0.2567863127E-04    0.4195663103E-02
    0.1100000000E+02    0.9390443476E-04    0.5362282963E-05    0.4504141240E+00    0.3056097592E-04    0.4198352791E-02
    0.1300000000E+02    0.9804278658E-04    0.5596195710E-05    0.4762567918E+00    0.3535309512E-04    0.4200300373E-02
    0.1500000000E+02    0.1013804846E-03    0.5785198242E-05    0.4971760072E+00    0.4007368908E-04    0.4201736840E-02
    0.1700000000E+02    0.1041849539E-03    0.5944505909E-05    0.5144564888E+00    0.4473588003E-04    0.4202804582E-02
    0.1900000000E+02    0.1066266481E-03    0.6083778052E-05    0.5289717339E+00    0.4934934074E-04    0.4203596870E-02
    0.2100000000E+02    0.1088178038E-03    0.6209347814E-05    0.5413363627E+00    0.5392147076E-04    0.4204177638E-02
    0.2300000000E+02    0.1108343188E-03    0.6325478221E-05    0.5519954080E+00    0.5845809715E-04    0.4204592296E-02
    0.2500000000E+02    0.1127286594E-03    0.6435101573E-05    0.5612790329E+00    0.6296391695E-04    0.4204874046E-02
    0.2700000000E+02    0.1145377625E-03    0.6540271092E-05    0.5694373467E+00    0.6744278955E-04    0.4205047752E-02
    0.2900000000E+02    0.1162880293E-03    0.6642445611E-05    0.5766632815E+00    0.7189793743E-04    0.4205132417E-02
    0.3100000000E+02    0.1179985671E-03    0.6742673969E-05    0.5831080484E+00    0.7633208820E-04    0.4205142822E-02
    0.3300000000E+02    0.1196833454E-03    0.6841717280E-05    0.5888918369E+00    0.8074757790E-04    0.4205090641E-02
    0.3500000000E+02    0.1213526583E-03    0.6940131709E-05    0.5941113820E+00    0.8514642778E-04    0.4204985218E-02
    0.3700000000E+02    0.1230141366E-03    0.7038325528E-05    0.5988454195E+00    0.8953040250E-04    0.4204834122E-02
    0.3900000000E+02    0.1246734582E-03    0.7136599091E-05    0.6031586866E+00    0.9390105502E-04    0.4204643549E-02
    0.4100000000E+02    0.1263348548E-03    0.7235173239E-05    0.6071049004E+00    0.9825976176E-04    0.4204418621E-02
    0.4300000000E+02    0.1280014776E-03    0.7334209748E-05    0.6107290071E+00    0.1026077505E-03    0.4204163608E-02
    0.4500000000E+02    0.1296756648E-03    0.7433826215E-05    0.6140689021E+00    0.1069461226E-03    0.4203882097E-02
    0.4700000000E+02    0.1313591389E-03    0.7534107004E-05    0.6171567605E+00    0.1112758716E-03    0.4203577126E-02
    0.4900000000E+02    0.1330531535E-03    0.7635111374E-05    0.6200200770E+00    0.1155978978E-03    0.4203251281E-02
    0.1000000000E+02    0.9140829722E-04    0.5221252625E-05    0.4350692997E+00    0.2813256101E-04    0.4197120452E-02
    0.3000000000E+02    0.1171472906E-03    0.6692749870E-05    0.5799751730E+00    0.7411748328E-04    0.4205146110E-02
    0.5000000000E+02    0.1339044050E-03    0.7685898085E-05    0.6213750501E+00    0.1177562737E-03    0.4203081237E-02
    0.7000000000E+02    0.1515873678E-03    0.8743524512E-05    0.6409875401E+00    0.1606842166E-03    0.4198985786E-02
    0.9000000000E+02    0.1704685287E-03    0.9874641193E-05    0.6524294723E+00    0.2034605415E-03    0.4194126867E-02
    0.1100000000E+03    0.1903503960E-03    0.1106566719E-04    0.6599267340E+00    0.2463727773E-03    0.4188883522E-02
    0.1300000000E+03    0.2110683954E-03    0.1230625630E-04    0.6652194596E+00    0.2895996777E-03    0.4183404349E-02
    0.1500000000E+03    0.2325142162E-03    0.1358979918E-04    0.6691554491E+00    0.3332663825E-03    0.4177756807E-02
    0.1700000000E+03    0.2546197922E-03    0.1491221541E-04    0.6721971632E+00    0.3774681826E-03    0.4171974092E-02
    0.1900000000E+03    0.2773434980E-03    0.1627104616E-04    0.6746183182E+00    0.4222823934E-03    0.4166073050E-02
    0.2100000000E+03    0.3006611276E-03    0.1766488529E-04    0.6765912630E+00    0.4677749293E-03    0.4160061991E-02
    0.2300000000E+03    0.3245602326E-03    0.1909302996E-04    0.6782299289E+00    0.5140042331E-03    0.4153944457E-02
    0.2500000000E+03    0.3490365488E-03    0.2055526301E-04    0.6796126477E+00    0.5610237708E-03    0.4147721165E-02
    0.2700000000E+03    0.3740916991E-03    0.2205171463E-04    0.6807950491E+00    0.6088836964E-03    0.4141391080E-02
    0.2900000000E+03    0.3997316896E-03    0.2358277229E-04    0.6818177293E+00    0.6576320101E-03    0.4134952027E-02
    0.3100000000E+03    0.4259659048E-03    0.2514902121E-04    0.6827110088E+00    0.7073153961E-03    0.4128401051E-02
    0.3300000000E+03    0.4528064281E-03    0.2675120414E-04    0.6834979894E+00    0.7579798501E-03    0.4121734642E-02
    0.3500000000E+03    0.4802675762E-03    0.2839019406E-04    0.6841965827E+00    0.8096711640E-03    0.4114948873E-02
    0.3700000000E+03    0.5083655793E-03    0.3006697553E-04    0.6848208897E+00    0.8624353126E-03    0.4108039481E-02
    0.3900000000E+03    0.5371183612E-03    0.3178263193E-04    0.6853821630E+00    0.9163187728E-03    0.4101001926E-02
    0.4100000000E+03    0.5665453915E-03    0.3353833694E-04    0.6858894918E+00    0.9713687929E-03    0.4093831419E-02
    0.4300000000E+03    0.5966675881E-03    0.3533534902E-04    0.6863502978E+00    0.1027633628E-02    0.4086522945E-02
    0.4500000000E+03    0.6275072582E-03    0.3717500812E-04    0.6867707008E+00    0.1085162750E-02    0.4079071269E-02
    0.4700000000E+03    0.6590880678E-03    0.3905873401E-04    0.6871557922E+00    0.1144007043E-02    0.4071470939E-02
    0.4900000000E+03    0.6914350328E-03    0.4098802593E-04    0.6875098424E+00    0.1204218983E-02    0.4063716284E-02
    0.1000000000E+03    0.1802961280E-03    0.1046341383E-04    0.6565316496E+00    0.2248868295E-03    0.4191541142E-02
    0.3000000000E+03    0.4127738208E-03    0.2436145474E-04    0.6822789587E+00    0.6823539344E-03    0.4131690737E-02
    0.5000000000E+03    0.7079040122E-03    0.4197024955E-04    0.6876763770E+00    0.1234854697E-02    0.4059779253E-02
    0.7000000000E+03    0.1084842963E-02    0.6444564907E-04    0.6900167496E+00    0.1933991488E-02    0.3971342386E-02
    0.9000000000E+03    0.1579924246E-02    0.9395807393E-04    0.6913242475E+00    0.2850578530E-02    0.3858717604E-02
    0.1100000000E+04    0.2252635691E-02    0.1340557641E-03    0.6921590721E+00    0.4096933640E-02    0.3710012466E-02
    0.1300000000E+04    0.3202853360E-02    0.1906943702E-03    0.6927383208E+00    0.5860999611E-02    0.3506004830E-02
    0.1500000000E+04    0.4601428119E-02    0.2740622416E-03    0.6931637871E+00    0.8465289639E-02    0.3215229782E-02
    0.1700000000E+04    0.6729998403E-02    0.4009580127E-03    0.6934895394E+00    0.1244553077E-01    0.2789388793E-02
    0.1900000000E+04    0.9953376576E-02    0.5931546342E-03    0.6937469571E+00    0.1850941776E-01    0.2176611313E-02
    0.2100000000E+04    0.1432096794E-01    0.8536512672E-03    0.6939555021E+00    0.2680454000E-01    0.1407732156E-02
    0.2300000000E+04    0.1881633381E-01    0.1121908984E-02    0.6941278863E+00    0.3548697966E-01    0.7153329729E-03
    0.2500000000E+04    0.2216503726E-01    0.1321935598E-02    0.6942727645E+00    0.4215625641E-01    0.3177308812E-03
    0.2700000000E+04    0.2437318346E-01    0.1454037142E-02    0.6943962334E+00    0.4676543864E-01    0.1578654469E-03
    0.2900000000E+04    0.2599172853E-01    0.1551029322E-02    0.6945027118E+00    0.5031567753E-01    0.1040792528E-03
    0.3100000000E+04    0.2735715472E-01    0.1632964421E-02    0.6945954806E+00    0.5342962853E-01    0.8718824174E-04
    0.3300000000E+04    0.2860372417E-01    0.1707844852E-02    0.6946770272E+00    0.5635714795E-01    0.8208544506E-04
    0.3500000000E+04    0.2977929259E-01    0.1778522186E-02    0.6947492713E+00    0.5918667661E-01    0.8066149375E-04
    0.3700000000E+04    0.3090120312E-01    0.1846028625E-02    0.6948137186E+00    0.6194916491E-01    0.8037890750E-04
    0.3900000000E+04    0.3197655360E-01    0.1910785405E-02    0.6948715661E+00    0.6465617206E-01    0.8044729742E-04
    0.4100000000E+04    0.3300899929E-01    0.1973008514E-02    0.6949237782E+00    0.6731276960E-01    0.8061968804E-04
    0.4300000000E+04    0.3400099164E-01    0.2032842235E-02    0.6949711396E+00    0.6992181995E-01    0.8081869727E-04
    0.4500000000E+04    0.3495451578E-01    0.2090403155E-02    0.6950142962E+00    0.7248539250E-01    0.8102022447E-04
    0.4700000000E+04    0.3587133723E-01    0.2145794868E-02    0.6950537838E+00    0.7500523579E-01    0.8121701587E-04
    0.4900000000E+04    0.3675308754E-01    0.2199113092E-02    0.6950900511E+00    0.7748293815E-01    0.8140715806E-04
    0.1000000000E+04    0.1889062563E-02    0.1123847867E-03    0.6917831301E+00    0.3423103855E-02    0.3789856313E-02
    0.3000000000E+04    0.2669461359E-01    0.1593195478E-02    0.6945506389E+00    0.5190584549E-01    0.9321281178E-04
    0.5000000000E+04    0.3718129268E-01    0.2225022902E-02    0.6951070976E+00    0.7870645386E-01    0.8149963588E-04
    0.7000000000E+04    0.4423353725E-01    0.2653691613E-02    0.6953457922E+00    0.1012868940E+00    0.8305409419E-04
    0.9000000000E+04    0.4908653665E-01    0.2951810699E-02    0.6954783913E+00    0.1209530019E+00    0.8423112454E-04
    0.1100000000E+05    0.5243542776E-01    0.3160280416E-02    0.6955627296E+00    0.1384323606E+00    0.8518132551E-04
    0.1300000000E+05    0.5472267478E-01    0.3305192418E-02    0.6956210726E+00    0.1542136296E+00    0.8597964809E-04
    0.1500000000E+05    0.5624158672E-01    0.3403884218E-02    0.6956638166E+00    0.1686384202E+00    0.8666892584E-04
    0.1700000000E+05    0.5719320473E-01    0.3468269768E-02    0.6956964676E+00    0.1819536074E+00    0.8727599267E-04
    0.1900000000E+05    0.5771922752E-01    0.3506769225E-02    0.6957222140E+00    0.1943426702E+00    0.8781879578E-04
    0.2100000000E+05    0.5792191245E-01    0.3525476702E-02    0.6957430295E+00    0.2059452826E+00    0.8830994299E-04
    0.2300000000E+05    0.5787655551E-01    0.3528893433E-02    0.6957602016E+00    0.2168700095E+00    0.8875863698E-04
    0.2500000000E+05    0.5763956913E-01    0.3520402913E-02    0.6957746058E+00    0.2272027916E+00    0.8917180456E-04
    0.2700000000E+05    0.5725385631E-01    0.3502587427E-02    0.6957868579E+00    0.2370127723E+00    0.8955479260E-04
    0.2900000000E+05    0.5675247333E-01    0.3477444062E-02    0.6957974039E+00    0.2463563925E+00    0.8991181633E-04
    0.3100000000E+05    0.5616117990E-01    0.3446535317E-02    0.6958065747E+00    0.2552803305E+00    0.9024625883E-04
    0.3300000000E+05    0.5550024856E-01    0.3411096128E-02    0.6958146210E+00    0.2638236504E+00    0.9056087728E-04
    0.3500000000E+05    0.5478577076E-01    0.3372111233E-02    0.6958217359E+00    0.2720193998E+00    0.9085794906E-04
    0.3700000000E+05    0.5403061401E-01    0.3330371958E-02    0.6958280710E+00    0.2798958149E+00    0.9113937733E-04
    0.3900000000E+05    0.5324513328E-01    0.3286518495E-02    0.6958337466E+00    0.2874772416E+00    0.9140676908E-04
    0.4100000000E+05    0.5243770627E-01    0.3241071771E-02    0.6958388595E+00    0.2947848494E+00    0.9166149381E-04
    0.4300000000E+05    0.5161514114E-01    0.3194457753E-02    0.6958434885E+00    0.3018371896E+00    0.9190472831E-04
    0.4500000000E+05    0.5078299004E-01    0.3147026190E-02    0.6958476986E+00    0.3086506367E+00    0.9213749131E-04
    0.4700000000E+05    0.4994579287E-01    0.3099065198E-02    0.6958515432E+00    0.3152397414E+00    0.9236067073E-04
    0.4900000000E+05    0.4910726824E-01    0.3050812718E-02    0.6958550675E+00    0.3216175144E+00    0.9257504519E-04
    0.1000000000E+05    0.5091694078E-01    0.3065362859E-02    0.6955247843E+00    0.1299312189E+00    0.8472884487E-04
    0.3000000000E+05    0.5646668710E-01    0.3462626526E-02    0.6958021440E+00    0.2508682228E+00    0.9008167519E-04
    0.5000000000E+05    0.4868848347E-01    0.3026640080E-02    0.6958567216E+00    0.3247308540E+00    0.9267914834E-04
    0.7000000000E+05    0.4073936059E-01    0.2560603742E-02    0.6958796683E+00    0.3782284037E+00    0.9442998426E-04
    0.9000000000E+05    0.3404752263E-01    0.2160074981E-02    0.6958921522E+00    0.4191669654E+00    0.9575895213E-04
    0.1100000000E+06    0.2863113712E-01    0.1831239919E-02    0.6958999206E+00    0.4513931079E+00    0.9683339561E-04
    0.1300000000E+06    0.2427845986E-01    0.1564032248E-02    0.6959051728E+00    0.4772562982E+00    0.9773696464E-04
    0.1500000000E+06    0.2076974552E-01    0.1346643517E-02    0.6959089296E+00    0.4983362715E+00    0.9851763302E-04
    0.1700000000E+06    0.1792159431E-01    0.1168782782E-02    0.6959117284E+00    0.5157477919E+00    0.9920552727E-04
    0.1900000000E+06    0.1559012992E-01    0.1022175859E-02    0.6959138786E+00    0.5303004093E+00    0.9982083203E-04
    0.2100000000E+06    0.1366476033E-01    0.9003542539E-03    0.6959155703E+00    0.5425940038E+00    0.1003777458E-03
    0.2300000000E+06    0.1206087569E-01    0.7983052305E-03    0.6959169270E+00    0.5530803089E+00    0.1008866430E-03
    0.2500000000E+06    0.1071359554E-01    0.7121449802E-03    0.6959180318E+00    0.5621042662E+00    0.1013553390E-03
    0.2700000000E+06    0.9572886881E-02    0.6388524367E-03    0.6959189430E+00    0.5699325928E+00    0.1017898708E-03
    0.2900000000E+06    0.8599885517E-02    0.5760633731E-03    0.6959197026E+00    0.5767739105E+00    0.1021950004E-03
    0.3100000000E+06    0.7764161300E-02    0.5219144791E-03    0.6959203412E+00    0.5827931527E+00    0.1025745514E-03
    0.3300000000E+06    0.7041691718E-02    0.4749261907E-03    0.6959208822E+00    0.5881220197E+00    0.1029316417E-03
    0.3500000000E+06    0.6413357504E-02    0.4339147176E-03    0.6959213434E+00    0.5928666582E+00    0.1032688470E-03
    0.3700000000E+06    0.5863820452E-02    0.3979258047E-03    0.6959217384E+00    0.5971133673E+00    0.1035883210E-03
    0.3900000000E+06    0.5380681084E-02    0.3661846134E-03    0.6959220783E+00    0.6009328841E+00    0.1038918825E-03
    0.4100000000E+06    0.4953841898E-02    0.3380575690E-03    0.6959223718E+00    0.6043836340E+00    0.1041810818E-03
    0.4300000000E+06    0.4575022414E-02    0.3130231261E-03    0.6959226258E+00    0.6075142198E+00    0.1044572514E-03
    0.4500000000E+06    0.4237387054E-02    0.2906492097E-03    0.6959228462E+00    0.6103653459E+00    0.1047215453E-03
    0.4700000000E+06    0.3935257435E-02    0.2705756868E-03    0.6959230376E+00    0.6129713167E+00    0.1049749691E-03
    0.4900000000E+06    0.3663888302E-02    0.2525006534E-03    0.6959232039E+00    0.6153612151E+00    0.1052184051E-03
    0.1000000000E+06    0.3119184118E-01    0.1987207815E-02    0.6958964469E+00    0.4361989602E+00    0.9632159780E-04
    0.3000000000E+06    0.8166495559E-02    0.5480092186E-03    0.6959200354E+00    0.5798773821E+00    0.1023877640E-03
    0.5000000000E+06    0.3538467126E-02    0.2441314400E-03    0.6959232788E+00    0.6164830314E+00    0.1053366244E-03
    0.7000000000E+06    0.1949046202E-02    0.1370446200E-03    0.6959240309E+00    0.6320147214E+00    0.1073251632E-03
    0.9000000000E+06    0.1228239511E-02    0.8761211047E-04    0.6959240865E+00    0.6404099051E+00    0.1088348495E-03
    0.1100000000E+07    0.8430744252E-03    0.6083688034E-04    0.6959238870E+00    0.6456195018E+00    0.1100555326E-03
    0.1300000000E+07    0.6138317637E-03    0.4472433138E-04    0.6959235837E+00    0.6491514527E+00    0.1110821551E-03
    0.1500000000E+07    0.4665895528E-03    0.3427883988E-04    0.6959232385E+00    0.6516974208E+00    0.1119691820E-03
    0.1700000000E+07    0.3665000849E-03    0.2712128182E-04    0.6959228795E+00    0.6536168814E+00    0.1127508222E-03
    0.1900000000E+07    0.2954154400E-03    0.2200191815E-04    0.6959225204E+00    0.6551143642E+00    0.1134499989E-03
    0.2100000000E+07    0.2431379133E-03    0.1821320630E-04    0.6959221678E+00    0.6563145048E+00    0.1140828383E-03
    0.2300000000E+07    0.2035827594E-03    0.1533015961E-04    0.6959218250E+00    0.6572974516E+00    0.1146611244E-03
    0.2500000000E+07    0.1729385123E-03    0.1308497732E-04    0.6959214935E+00    0.6581170268E+00    0.1151937350E-03
    0.2700000000E+07    0.1487197816E-03    0.1130208484E-04    0.6959211737E+00    0.6588106841E+00    0.1156875280E-03
    0.2900000000E+07    0.1292501860E-03    0.9862470824E-05    0.6959208657E+00    0.6594052755E+00    0.1161479132E-03
    0.3100000000E+07    0.1133659585E-03    0.8683138112E-05    0.6959205690E+00    0.6599205454E+00    0.1165792347E-03
    0.3300000000E+07    0.1002388517E-03    0.7704767391E-05    0.6959202831E+00    0.6603713309E+00    0.1169850345E-03
    0.3500000000E+07    0.8926648356E-04    0.6884045163E-05    0.6959200077E+00    0.6607689945E+00    0.1173682393E-03
    0.3700000000E+07    0.8000230562E-04    0.6188743865E-05    0.6959197420E+00    0.6611223827E+00    0.1177312959E-03
    0.3900000000E+07    0.7210964287E-04    0.5594480772E-05    0.6959194855E+00    0.6614384847E+00    0.1180762707E-03
    0.4100000000E+07    0.6533079740E-04    0.5082531376E-05    0.6959192377E+00    0.6617228949E+00    0.1184049253E-03
    0.4300000000E+07    0.5946582834E-04    0.4638322517E-05    0.6959189981E+00    0.6619801435E+00    0.1187187738E-03
    0.4500000000E+07    0.5435769478E-04    0.4250373985E-05    0.6959187662E+00    0.6622139380E+00    0.1190191272E-03
    0.4700000000E+07    0.4988167171E-04    0.3909542249E-05    0.6959185415E+00    0.6624273413E+00    0.1193071284E-03
    0.4900000000E+07    0.4593769048E-04    0.3608471575E-05    0.6959183237E+00    0.6626229061E+00    0.1195837797E-03
    0.1000000000E+07    0.1008790787E-02    0.7239603846E-04    0.6959240060E+00    0.6432898746E+00    0.1094740626E-03
    0.3000000000E+07    0.1209180014E-03    0.9244424884E-05    0.6959207159E+00    0.6596718030E+00    0.1163669692E-03
    0.5000000000E+07    0.4413927074E-04    0.3470935138E-05    0.6959182172E+00    0.6627146828E+00    0.1197181296E-03
    0.7000000000E+07    0.2269782810E-04    0.1815789264E-05    0.6959163665E+00    0.6639901184E+00    0.1219780171E-03
    0.9000000000E+07    0.1382637232E-04    0.1118938122E-05    0.6959148993E+00    0.6646909597E+00    0.1236937291E-03
    0.1100000000E+08    0.9321913785E-05    0.7604957656E-06    0.6959136821E+00    0.6651340264E+00    0.1250810065E-03
    0.1300000000E+08    0.6725464589E-05    0.5517587871E-06    0.6959126407E+00    0.6654394237E+00    0.1262477429E-03
    0.1500000000E+08    0.5093343077E-05    0.4194465075E-06    0.6959117295E+00    0.6656626831E+00    0.1272558339E-03
    0.1700000000E+08    0.4000590087E-05    0.3302393347E-06    0.6959109188E+00    0.6658330126E+00    0.1281441562E-03
    0.1900000000E+08    0.3232960755E-05    0.2672018290E-06    0.6959101880E+00    0.6659672405E+00    0.1289387609E-03
    0.2100000000E+08    0.2672936870E-05    0.2209790118E-06    0.6959095223E+00    0.6660757452E+00    0.1296579747E-03
    0.2300000000E+08    0.2251689348E-05    0.1860578624E-06    0.6959089107E+00    0.6661652752E+00    0.1303151898E-03
    0.2500000000E+08    0.1926732902E-05    0.1590166980E-06    0.6959083449E+00    0.6662404082E+00    0.1309204955E-03
    0.2700000000E+08    0.1670690124E-05    0.1376396985E-06    0.6959078181E+00    0.6663043591E+00    0.1314816857E-03
