  Pressure (Pa) 22mC5-500 (mol/kg) 23mC5-500 (mol/kg) 24mC5-500 (mol/kg) 3mC6-500 (mol/kg) C7-500 (mol/kg)
    0.1000000000E+01    0.2256077858E-04    0.1295806284E-05    0.1266296581E+00    0.8379214109E-06    0.4182545130E-02
    0.3000000000E+01    0.4661556802E-04    0.2669824658E-05    0.2785106246E+00    0.2127601852E-05    0.4218119873E-02
    0.5000000000E+01    0.5877694253E-04    0.3359928589E-05    0.3664059001E+00    0.3308916049E-05    0.4236607536E-02
    0.7000000000E+01    0.6589557947E-04    0.3761915012E-05    0.4237155850E+00    0.4437527388E-05    0.4248535412E-02
    0.9000000000E+01    0.7053682433E-04    0.4023353175E-05    0.4640387513E+00    0.5532182600E-05    0.4256942160E-02
    0.1100000000E+02    0.7384306713E-04    0.4209655949E-05    0.4939530522E+00    0.6602258205E-05    0.4263206909E-02
    0.1300000000E+02    0.7638409967E-04    0.4353288314E-05    0.5170282691E+00    0.7653334772E-05    0.4268062811E-02
    0.1500000000E+02    0.7846788315E-04    0.4471703151E-05    0.5353692548E+00    0.8689089947E-05    0.4271939041E-02
    0.1700000000E+02    0.8027107270E-04    0.4574853407E-05    0.5502974711E+00    0.9712117135E-05    0.4275104625E-02
    0.1900000000E+02    0.8189970344E-04    0.4668674582E-05    0.5626844238E+00    0.1072433604E-04    0.4277737221E-02
    0.2100000000E+02    0.8341969130E-04    0.4756829664E-05    0.5731281525E+00    0.1172722052E-04    0.4279959096E-02
    0.2300000000E+02    0.8487313855E-04    0.4841638946E-05    0.5820526921E+00    0.1272193493E-04    0.4281857284E-02
    0.2500000000E+02    0.8628749824E-04    0.4924600860E-05    0.5897670671E+00    0.1370942042E-04    0.4283495497E-02
    0.2700000000E+02    0.8768094273E-04    0.5006695986E-05    0.5965018088E+00    0.1469045221E-04    0.4284921499E-02
    0.2900000000E+02    0.8906561986E-04    0.5088570742E-05    0.6024323896E+00    0.1566567899E-04    0.4286171839E-02
    0.3100000000E+02    0.9044968677E-04    0.5170651660E-05    0.6076947342E+00    0.1663565089E-04    0.4287274977E-02
    0.3300000000E+02    0.9183861282E-04    0.5253218275E-05    0.6123957673E+00    0.1760083983E-04    0.4288253428E-02
    0.3500000000E+02    0.9323603245E-04    0.5336450610E-05    0.6166207559E+00    0.1856165475E-04    0.4289125248E-02
    0.3700000000E+02    0.9464431397E-04    0.5420460698E-05    0.6204385288E+00    0.1951845311E-04    0.4289905091E-02
    0.3900000000E+02    0.9606494521E-04    0.5505313819E-05    0.6239052557E+00    0.2047154979E-04    0.4290604989E-02
    0.4100000000E+02    0.9749879847E-04    0.5591043021E-05    0.6270672294E+00    0.2142122415E-04    0.4291234912E-02
    0.4300000000E+02    0.9894631490E-04    0.5677659147E-05    0.6299629460E+00    0.2236772551E-04    0.4291803199E-02
    0.4500000000E+02    0.1004076341E-03    0.5765157828E-05    0.6326246795E+00    0.2331127767E-04    0.4292316881E-02
    0.4700000000E+02    0.1018826857E-03    0.5853524400E-05    0.6350796901E+00    0.2425208254E-04    0.4292781932E-02
    0.4900000000E+02    0.1033712551E-03    0.5942737375E-05    0.6373511618E+00    0.2519032310E-04    0.4293203461E-02
    0.1000000000E+02    0.7231275317E-04    0.4123381936E-05    0.4800277204E+00    0.6069885286E-05    0.4260286803E-02
    0.3000000000E+02    0.8975733646E-04    0.5129565167E-05    0.6051398274E+00    0.1615129067E-04    0.4286740281E-02
    0.5000000000E+02    0.1041205144E-03    0.5987653305E-05    0.6384243849E+00    0.2565853440E-04    0.4293399303E-02
    0.7000000000E+02    0.1197187884E-03    0.6923408261E-05    0.6538389201E+00    0.3492182032E-04    0.4295834273E-02
    0.9000000000E+02    0.1362132149E-03    0.7912823225E-05    0.6627293455E+00    0.4405438631E-04    0.4296597565E-02
    0.1100000000E+03    0.1533134082E-03    0.8937864889E-05    0.6685142751E+00    0.5311348746E-04    0.4296504217E-02
    0.1300000000E+03    0.1708479580E-03    0.9988204935E-05    0.6725789808E+00    0.6213356555E-04    0.4295901982E-02
    0.1500000000E+03    0.1887157514E-03    0.1105785204E-04    0.6755914636E+00    0.7113760277E-04    0.4294966531E-02
    0.1700000000E+03    0.2068552632E-03    0.1214320636E-04    0.6779134904E+00    0.8014205377E-04    0.4293797088E-02
    0.1900000000E+03    0.2252279596E-03    0.1324203876E-04    0.6797580368E+00    0.8915932525E-04    0.4292454337E-02
    0.2100000000E+03    0.2438092108E-03    0.1435294089E-04    0.6812586514E+00    0.9819915430E-04    0.4290977667E-02
    0.2300000000E+03    0.2625831214E-03    0.1547501585E-04    0.6825033254E+00    0.1072694335E-03    0.4289393851E-02
    0.2500000000E+03    0.2815394706E-03    0.1660769658E-04    0.6835523923E+00    0.1163767336E-03    0.4287721759E-02
    0.2700000000E+03    0.3006718325E-03    0.1775063522E-04    0.6844486036E+00    0.1255266502E-03    0.4285975096E-02
    0.2900000000E+03    0.3199763854E-03    0.1890363331E-04    0.6852230981E+00    0.1347240422E-03    0.4284164055E-02
    0.3100000000E+03    0.3394511347E-03    0.2006659655E-04    0.6858990944E+00    0.1439732009E-03    0.4282296373E-02
    0.3300000000E+03    0.3590953931E-03    0.2123950479E-04    0.6864942586E+00    0.1532779733E-03    0.4280378021E-02
    0.3500000000E+03    0.3789094270E-03    0.2242239154E-04    0.6870222702E+00    0.1626418540E-03    0.4278413668E-02
    0.3700000000E+03    0.3988942091E-03    0.2361532988E-04    0.6874938871E+00    0.1720680547E-03    0.4276407012E-02
    0.3900000000E+03    0.4190512444E-03    0.2481842250E-04    0.6879176853E+00    0.1815595583E-03    0.4274361005E-02
    0.4100000000E+03    0.4393824455E-03    0.2603179462E-04    0.6883005863E+00    0.1911191614E-03    0.4272278022E-02
    0.4300000000E+03    0.4598900419E-03    0.2725558892E-04    0.6886482368E+00    0.2007495076E-03    0.4270159984E-02
    0.4500000000E+03    0.4805765133E-03    0.2848996173E-04    0.6889652900E+00    0.2104531148E-03    0.4268008451E-02
    0.4700000000E+03    0.5014445409E-03    0.2973508039E-04    0.6892556145E+00    0.2202323976E-03    0.4265824690E-02
    0.4900000000E+03    0.5224969706E-03    0.3099112117E-04    0.6895224532E+00    0.2300896851E-03    0.4263609733E-02
    0.1000000000E+03    0.1447004468E-03    0.8421669905E-05    0.6658985633E+00    0.4859061349E-04    0.4296630358E-02
    0.3000000000E+03    0.3296925543E-03    0.1948387201E-04    0.6855721956E+00    0.1393419011E-03    0.4283236886E-02
    0.5000000000E+03    0.5330932638E-03    0.3162329450E-04    0.6896479381E+00    0.2350482890E-03    0.4262490823E-02
    0.7000000000E+03    0.7554896597E-03    0.4488835752E-04    0.6914094483E+00    0.3388441059E-03    0.4238603654E-02
    0.9000000000E+03    0.1000338159E-02    0.5948874903E-04    0.6923918009E+00    0.4528546457E-03    0.4211892424E-02
    0.1100000000E+04    0.1271832424E-02    0.7567592724E-04    0.6930182503E+00    0.5792156789E-03    0.4182153768E-02
    0.1300000000E+04    0.1574971261E-02    0.9374863964E-04    0.6934524955E+00    0.7203507015E-03    0.4148982024E-02
    0.1500000000E+04    0.1915808675E-02    0.1140682596E-03    0.6937711931E+00    0.8791485450E-03    0.4111822275E-02
    0.1700000000E+04    0.2301788662E-02    0.1370789115E-03    0.6940150217E+00    0.1059141981E-02    0.4069964528E-02
    0.1900000000E+04    0.2742183441E-02    0.1633336790E-03    0.6942075723E+00    0.1264724240E-02    0.4022513531E-02
    0.2100000000E+04    0.3248675812E-02    0.1935293778E-03    0.6943634681E+00    0.1501430533E-02    0.3968340451E-02
    0.2300000000E+04    0.3836141834E-02    0.2285532653E-03    0.6944922554E+00    0.1776314300E-02    0.3906015089E-02
    0.2500000000E+04    0.4523707591E-02    0.2695460991E-03    0.6946004309E+00    0.2098455187E-02    0.3833714307E-02
    0.2700000000E+04    0.5336171282E-02    0.3179869973E-03    0.6946925695E+00    0.2479644282E-02    0.3749101067E-02
    0.2900000000E+04    0.6305887525E-02    0.3758058924E-03    0.6947719857E+00    0.2935296034E-02    0.3649169566E-02
    0.3100000000E+04    0.7475171215E-02    0.4455270214E-03    0.6948411398E+00    0.3485619849E-02    0.3530058838E-02
    0.3300000000E+04    0.8899108818E-02    0.5304368064E-03    0.6949018963E+00    0.4157008016E-02    0.3386858593E-02
    0.3500000000E+04    0.1064816838E-01    0.6347398792E-03    0.6949556940E+00    0.4983367114E-02    0.3213485969E-02
    0.3700000000E+04    0.1280877253E-01    0.7635938558E-03    0.6950036610E+00    0.6006544880E-02    0.3002836244E-02
    0.3900000000E+04    0.1547741851E-01    0.9227595778E-03    0.6950466941E+00    0.7273780073E-02    0.2747651261E-02
    0.4100000000E+04    0.1873980986E-01    0.1117357709E-02    0.6950855151E+00    0.8828113908E-02    0.2442885666E-02
    0.4300000000E+04    0.2262402035E-01    0.1349076328E-02    0.6951207120E+00    0.1068641579E-01    0.2090401086E-02
    0.4500000000E+04    0.2702850280E-01    0.1611876463E-02    0.6951527679E+00    0.1280501780E-01    0.1705360918E-02
    0.4700000000E+04    0.3166862765E-01    0.1888798947E-02    0.6951820839E+00    0.1505315739E-01    0.1319512904E-02
    0.4900000000E+04    0.3612905057E-01    0.2155079843E-02    0.6952089958E+00    0.1723580528E-01    0.9734697846E-03
    0.1000000000E+04    0.1132463529E-02    0.6736658333E-04    0.6927362269E+00    0.5143488255E-03    0.4197423208E-02
    0.3000000000E+04    0.6862474054E-02    0.4089931821E-03    0.6948077173E+00    0.3197136397E-02    0.3592291802E-02
    0.5000000000E+04    0.3816970113E-01    0.2276941803E-02    0.6952216403E+00    0.1824427035E-01    0.8259684339E-03
    0.7000000000E+04    0.5623375443E-01    0.3358945124E-02    0.6953982864E+00    0.2803629201E-01    0.1928001033E-03
    0.9000000000E+04    0.6560489379E-01    0.3923695235E-02    0.6954959283E+00    0.3406217248E-01    0.1925800291E-03
    0.1100000000E+05    0.7327372460E-01    0.4387645071E-02    0.6955577239E+00    0.3952358769E-01    0.1947345864E-03
    0.1300000000E+05    0.7965471191E-01    0.4775220024E-02    0.6956002586E+00    0.4454367223E-01    0.1965568618E-03
    0.1500000000E+05    0.8502058280E-01    0.5102488546E-02    0.6956312636E+00    0.4920053814E-01    0.1981306187E-03
    0.1700000000E+05    0.8957307359E-01    0.5381349246E-02    0.6956548266E+00    0.5355372460E-01    0.1995168734E-03
    0.1900000000E+05    0.9346458512E-01    0.5620800762E-02    0.6956733109E+00    0.5764957738E-01    0.2007565173E-03
    0.2100000000E+05    0.9681230418E-01    0.5827770182E-02    0.6956881771E+00    0.6152479510E-01    0.2018782885E-03
    0.2300000000E+05    0.9970775267E-01    0.6007673598E-02    0.6957003764E+00    0.6520887701E-01    0.2029031696E-03
    0.2500000000E+05    0.1022234003E+00    0.6164804510E-02    0.6957105546E+00    0.6872585253E-01    0.2038469580E-03
    0.2700000000E+05    0.1044173406E+00    0.6302608655E-02    0.6957191652E+00    0.7209552868E-01    0.2047218504E-03
    0.2900000000E+05    0.1063366595E+00    0.6423882117E-02    0.6957265363E+00    0.7533440626E-01    0.2055374640E-03
    0.3100000000E+05    0.1080199028E+00    0.6530916553E-02    0.6957329107E+00    0.7845636391E-01    0.2063015180E-03
    0.3300000000E+05    0.1094989121E+00    0.6625607265E-02    0.6957384720E+00    0.8147317647E-01    0.2070203048E-03
    0.3500000000E+05    0.1108002077E+00    0.6709534725E-02    0.6957433618E+00    0.8439491296E-01    0.2076990221E-03
    0.3700000000E+05    0.1119460449E+00    0.6784026853E-02    0.6957476905E+00    0.8723024601E-01    0.2083420138E-03
    0.3900000000E+05    0.1129552299E+00    0.6850207128E-02    0.6957515461E+00    0.8998669501E-01    0.2089529484E-03
    0.4100000000E+05    0.1138437555E+00    0.6909032155E-02    0.6957549990E+00    0.9267081926E-01    0.2095349523E-03
    0.4300000000E+05    0.1146253025E+00    0.6961321270E-02    0.6957581066E+00    0.9528837273E-01    0.2100907122E-03
    0.4500000000E+05    0.1153116379E+00    0.7007780095E-02    0.6957609158E+00    0.9784442923E-01    0.2106225541E-03
    0.4700000000E+05    0.1159129344E+00    0.7049019416E-02    0.6957634656E+00    0.1003434844E+00    0.2111325053E-03
    0.4900000000E+05    0.1164380278E+00    0.7085570443E-02    0.6957657885E+00    0.1027895397E+00    0.2116223437E-03
    0.1000000000E+05    0.6962095562E-01    0.4166433893E-02    0.6955299589E+00    0.3685387067E-01    0.1937028992E-03
    0.3000000000E+05    0.1072056614E+00    0.6479052531E-02    0.6957298355E+00    0.7690922000E-01    0.2059255136E-03
    0.5000000000E+05    0.1166744465E+00    0.7102235196E-02    0.6957668736E+00    0.1039938249E+00    0.2118602180E-03
    0.7000000000E+05    0.1188368180E+00    0.7275983072E-02    0.6957814755E+00    0.1259942260E+00    0.2158610246E-03
    0.9000000000E+05    0.1182346791E+00    0.7274881360E-02    0.6957888667E+00    0.1451842965E+00    0.2188979947E-03
    0.1100000000E+06    0.1163882722E+00    0.7192265337E-02    0.6957931032E+00    0.1625302208E+00    0.2213533977E-03
    0.1300000000E+06    0.1139329810E+00    0.7067814751E-02    0.6957957082E+00    0.1785339274E+00    0.2234183438E-03
    0.1500000000E+06    0.1111735398E+00    0.6920929252E-02    0.6957973749E+00    0.1934908538E+00    0.2252024448E-03
    0.1700000000E+06    0.1082703152E+00    0.6762044811E-02    0.6957984613E+00    0.2075904869E+00    0.2267745383E-03
    0.1900000000E+06    0.1053133855E+00    0.6597175114E-02    0.6957991690E+00    0.2209622966E+00    0.2281807469E-03
    0.2100000000E+06    0.1023557306E+00    0.6429965879E-02    0.6957996195E+00    0.2336992022E+00    0.2294535158E-03
    0.2300000000E+06    0.9942949323E-01    0.6262711613E-02    0.6957998899E+00    0.2458706023E+00    0.2306165521E-03
    0.2500000000E+06    0.9655452051E-01    0.6096895532E-02    0.6958000309E+00    0.2575300900E+00    0.2316877155E-03
    0.2700000000E+06    0.9374310951E-01    0.5933492989E-02    0.6958000772E+00    0.2687202600E+00    0.2326808019E-03
    0.2900000000E+06    0.9100276738E-01    0.5773150166E-02    0.6958000532E+00    0.2794758301E+00    0.2336066936E-03
    0.3100000000E+06    0.8833787987E-01    0.5616293543E-02    0.6957999763E+00    0.2898257381E+00    0.2344741289E-03
    0.3300000000E+06    0.8575075365E-01    0.5463199262E-02    0.6957998593E+00    0.2997945894E+00    0.2352902326E-03
    0.3500000000E+06    0.8324228616E-01    0.5314038398E-02    0.6957997117E+00    0.3094036811E+00    0.2360608916E-03
    0.3700000000E+06    0.8081240682E-01    0.5168907274E-02    0.6957995407E+00    0.3186717407E+00    0.2367910274E-03
    0.3900000000E+06    0.7846037423E-01    0.5027848254E-02    0.6957993517E+00    0.3276154675E+00    0.2374847965E-03
    0.4100000000E+06    0.7618498019E-01    0.4890864288E-02    0.6957991491E+00    0.3362499360E+00    0.2381457422E-03
    0.4300000000E+06    0.7398469236E-01    0.4757929299E-02    0.6957989360E+00    0.3445888994E+00    0.2387769099E-03
    0.4500000000E+06    0.7185775548E-01    0.4628995718E-02    0.6957987152E+00    0.3526450215E+00    0.2393809363E-03
    0.4700000000E+06    0.6980226434E-01    0.4504000047E-02    0.6957984887E+00    0.3604300542E+00    0.2399601201E-03
    0.4900000000E+06    0.6781621692E-01    0.4382867022E-02    0.6957982580E+00    0.3679549769E+00    0.2405164775E-03
    0.1000000000E+06    0.1174159753E+00    0.7240591070E-02    0.6957912548E+00    0.1540497491E+00    0.2201837899E-03
    0.3000000000E+06    0.8966070814E-01    0.5694265917E-02    0.6958000205E+00    0.2846998662E+00    0.2340472402E-03
    0.5000000000E+06    0.6684859238E-01    0.4323723055E-02    0.6957981415E+00    0.3716231436E+00    0.2407866602E-03
    0.7000000000E+06    0.5063701826E-01    0.3320860466E-02    0.6957958058E+00    0.4335664022E+00    0.2453313386E-03
    0.9000000000E+06    0.3913543193E-01    0.2595729539E-02    0.6957936494E+00    0.4785586628E+00    0.2487816258E-03
    0.1100000000E+07    0.3086588585E-01    0.2066925353E-02    0.6957917245E+00    0.5118147384E+00    0.2515714105E-03
    0.1300000000E+07    0.2481103723E-01    0.1675325272E-02    0.6957900052E+00    0.5368641572E+00    0.2539176788E-03
    0.1500000000E+07    0.2029060988E-01    0.1380182169E-02    0.6957884583E+00    0.5560974394E+00    0.2559449078E-03
    0.1700000000E+07    0.1685077169E-01    0.1153756292E-02    0.6957870547E+00    0.5711404364E+00    0.2577312810E-03
    0.1900000000E+07    0.1418590360E-01    0.9770854523E-03    0.6957857713E+00    0.5831105783E+00    0.2593291878E-03
    0.2100000000E+07    0.1208713175E-01    0.8370564709E-03    0.6957845893E+00    0.5927870315E+00    0.2607754842E-03
    0.2300000000E+07    0.1040925823E-01    0.7244651069E-03    0.6957834942E+00    0.6007220068E+00    0.2620971021E-03
    0.2500000000E+07    0.9049568150E-02    0.6327465138E-03    0.6957824740E+00    0.6073134715E+00    0.2633143313E-03
    0.2700000000E+07    0.7934143897E-02    0.5571426188E-03    0.6957815191E+00    0.6128529824E+00    0.2644428452E-03
    0.2900000000E+07    0.7008914995E-02    0.4941509506E-03    0.6957806215E+00    0.6175575195E+00    0.2654950076E-03
    0.3100000000E+07    0.6233716866E-02    0.4411551068E-03    0.6957797747E+00    0.6215909676E+00    0.2664807467E-03
    0.3300000000E+07    0.5578284263E-02    0.3961734558E-03    0.6957789731E+00    0.6250788302E+00    0.2674081577E-03
    0.3500000000E+07    0.5019506346E-02    0.3576857215E-03    0.6957782121E+00    0.6281184596E+00    0.2682839294E-03
    0.3700000000E+07    0.4539516960E-02    0.3245115637E-03    0.6957774878E+00    0.6307862749E+00    0.2691136536E-03
    0.3900000000E+07    0.4124346242E-02    0.2957243604E-03    0.6957767966E+00    0.6331429280E+00    0.2699020532E-03
    0.4100000000E+07    0.3762955149E-02    0.2705891578E-03    0.6957761356E+00    0.6352370502E+00    0.2706531542E-03
    0.4300000000E+07    0.3446534958E-02    0.2485174396E-03    0.6957755023E+00    0.6371080051E+00    0.2713704171E-03
    0.4500000000E+07    0.3167992674E-02    0.2290337574E-03    0.6957748943E+00    0.6387879354E+00    0.2720568380E-03
    0.4700000000E+07    0.2921568557E-02    0.2117508306E-03    0.6957743097E+00    0.6403033026E+00    0.2727150287E-03
    0.4900000000E+07    0.2702548727E-02    0.1963507661E-03    0.6957737467E+00    0.6416760567E+00    0.2733472803E-03
    0.1000000000E+07    0.3466964457E-01    0.2310978467E-02    0.6957926591E+00    0.4964010876E+00    0.2502425028E-03
    0.3000000000E+07    0.6604648593E-02    0.4665399427E-03    0.6957801921E+00    0.6196495237E+00    0.2659956368E-03
    0.5000000000E+07    0.2602073507E-02    0.1892728464E-03    0.6957734728E+00    0.6423148051E+00    0.2736543198E-03
    0.7000000000E+07    0.1372207170E-02    0.1017954379E-03    0.6957688231E+00    0.6507833367E+00    0.2788189855E-03
    0.9000000000E+07    0.8436233883E-03    0.6351591966E-04    0.6957652494E+00    0.6550610800E+00    0.2827399897E-03
    0.1100000000E+08    0.5699377289E-03    0.4342201098E-04    0.6957623387E+00    0.6576048858E+00    0.2859103910E-03
    0.1300000000E+08    0.4103855252E-03    0.3157678795E-04    0.6957598788E+00    0.6592793610E+00    0.2885767709E-03
    0.1500000000E+08    0.3093965065E-03    0.2400886730E-04    0.6957577459E+00    0.6604604294E+00    0.2908805862E-03
    0.1700000000E+08    0.2414937204E-03    0.1887910049E-04    0.6957558615E+00    0.6613360924E+00    0.2929106856E-03
    0.1900000000E+08    0.1936744348E-03    0.1524078500E-04    0.6957541723E+00    0.6620102295E+00    0.2947266056E-03
    0.2100000000E+08    0.1587432273E-03    0.1256612794E-04    0.6957526408E+00    0.6625446926E+00    0.2963702304E-03
    0.2300000000E+08    0.1324581231E-03    0.1054191903E-04    0.6957512393E+00    0.6629785130E+00    0.2978721661E-03
    0.2500000000E+08    0.1121876517E-03    0.8972707938E-05    0.6957499470E+00    0.6633374935E+00    0.2992554705E-03
    0.2700000000E+08    0.9622956532E-04    0.7731380233E-05    0.6957487476E+00    0.6636393526E+00    0.3005379555E-03
