  Pressure (Pa) 22mC5-500 (mol/kg) 23mC5-500 (mol/kg) 24mC5-500 (mol/kg) 3mC6-500 (mol/kg) C7-500 (mol/kg)
    0.1000000000E+01    0.2423211167E-04    0.2786258821E-05    0.9949977115E-01    0.2040998553E-05    0.4147431367E-02
    0.3000000000E+01    0.5356433235E-04    0.6144258689E-05    0.2321125832E+00    0.5034368962E-05    0.4176693361E-02
    0.5000000000E+01    0.7042303387E-04    0.8064800819E-05    0.3164720040E+00    0.7745332906E-05    0.4187100485E-02
    0.7000000000E+01    0.8114500543E-04    0.9281388610E-05    0.3748616375E+00    0.1032187184E-04    0.4193230121E-02
    0.9000000000E+01    0.8849828040E-04    0.1011341855E-04    0.4176744282E+00    0.1281293126E-04    0.4197355371E-02
    0.1100000000E+02    0.9386135122E-04    0.1071944036E-04    0.4504103532E+00    0.1524275505E-04    0.4200316662E-02
    0.1300000000E+02    0.9798499737E-04    0.1118551516E-04    0.4762527085E+00    0.1762567370E-04    0.4202526227E-02
    0.1500000000E+02    0.1013060704E-03    0.1156154084E-04    0.4971716884E+00    0.1997108093E-04    0.4204217129E-02
    0.1700000000E+02    0.1040920298E-03    0.1187795224E-04    0.5144519926E+00    0.2228557216E-04    0.4205533186E-02
    0.1900000000E+02    0.1065133578E-03    0.1215407145E-04    0.5289671046E+00    0.2457401145E-04    0.4206568709E-02
    0.2100000000E+02    0.1086823151E-03    0.1240256761E-04    0.5413316345E+00    0.2684012129E-04    0.4207388416E-02
    0.2300000000E+02    0.1106748197E-03    0.1263196919E-04    0.5519906074E+00    0.2908683413E-04    0.4208038329E-02
    0.2500000000E+02    0.1125433552E-03    0.1284814287E-04    0.5612741806E+00    0.3131651438E-04    0.4208552137E-02
    0.2700000000E+02    0.1143248735E-03    0.1305519687E-04    0.5694324589E+00    0.3353110518E-04    0.4208955102E-02
    0.2900000000E+02    0.1160457885E-03    0.1325605038E-04    0.5766583713E+00    0.3573222920E-04    0.4209266557E-02
    0.3100000000E+02    0.1177252187E-03    0.1345280239E-04    0.5831031262E+00    0.3792125998E-04    0.4209501558E-02
    0.3300000000E+02    0.1193771430E-03    0.1364697628E-04    0.5888869110E+00    0.4009937387E-04    0.4209672015E-02
    0.3500000000E+02    0.1210118639E-03    0.1383968535E-04    0.5941064590E+00    0.4226758858E-04    0.4209787475E-02
    0.3700000000E+02    0.1226370192E-03    0.1403174699E-04    0.5988405049E+00    0.4442679245E-04    0.4209855680E-02
    0.3900000000E+02    0.1242582929E-03    0.1422376263E-04    0.6031537848E+00    0.4657776705E-04    0.4209882982E-02
    0.4100000000E+02    0.1258799218E-03    0.1441617457E-04    0.6071000148E+00    0.4872120487E-04    0.4209874636E-02
    0.4300000000E+02    0.1275050615E-03    0.1460930688E-04    0.6107241406E+00    0.5085772333E-04    0.4209835034E-02
    0.4500000000E+02    0.1291360539E-03    0.1480339519E-04    0.6140640570E+00    0.5298787607E-04    0.4209767870E-02
    0.4700000000E+02    0.1307746245E-03    0.1499860858E-04    0.6171519385E+00    0.5511216210E-04    0.4209676277E-02
    0.4900000000E+02    0.1324220293E-03    0.1519506585E-04    0.6200152797E+00    0.5723103333E-04    0.4209562928E-02
    0.1000000000E+02    0.9137183374E-04    0.1043816771E-04    0.4350657217E+00    0.1403444911E-04    0.4198949889E-02
    0.3000000000E+02    0.1168897148E-03    0.1335483262E-04    0.5799702557E+00    0.3682817861E-04    0.4209392806E-02
    0.5000000000E+02    0.1332493366E-03    0.1529378738E-04    0.6213702656E+00    0.5828856828E-04    0.4209498826E-02
    0.7000000000E+02    0.1503640327E-03    0.1734135375E-04    0.6409830357E+00    0.7923801969E-04    0.4207491715E-02
    0.9000000000E+02    0.1685058956E-03    0.1951552402E-04    0.6524252392E+00    0.9995557546E-04    0.4204691452E-02
    0.1100000000E+03    0.1874746145E-03    0.2178879945E-04    0.6599227403E+00    0.1205821636E-03    0.4201503310E-02
    0.1300000000E+03    0.2071012884E-03    0.2413997130E-04    0.6652156737E+00    0.1412029902E-03    0.4198091754E-02
    0.1500000000E+03    0.2272722258E-03    0.2655517900E-04    0.6691518438E+00    0.1618755148E-03    0.4194535109E-02
    0.1700000000E+03    0.2479131507E-03    0.2902552117E-04    0.6721937162E+00    0.1826415283E-03    0.4190874698E-02
    0.1900000000E+03    0.2689755206E-03    0.3154525533E-04    0.6746150108E+00    0.2035331944E-03    0.4187133865E-02
    0.2100000000E+03    0.2904275734E-03    0.3411066824E-04    0.6765880798E+00    0.2245763944E-03    0.4183326404E-02
    0.2300000000E+03    0.3122487011E-03    0.3671938138E-04    0.6782268572E+00    0.2457927221E-03    0.4179460675E-02
    0.2500000000E+03    0.3344258941E-03    0.3936991779E-04    0.6796096766E+00    0.2672007452E-03    0.4175541784E-02
    0.2700000000E+03    0.3569514485E-03    0.4206142586E-04    0.6807921693E+00    0.2888168391E-03    0.4171572797E-02
    0.2900000000E+03    0.3798214568E-03    0.4479349873E-04    0.6818149330E+00    0.3106557608E-03    0.4167555456E-02
    0.3100000000E+03    0.4030347926E-03    0.4756605372E-04    0.6827082891E+00    0.3327310560E-03    0.4163490616E-02
    0.3300000000E+03    0.4265924134E-03    0.5037924996E-04    0.6834953403E+00    0.3550553561E-03    0.4159378525E-02
    0.3500000000E+03    0.4504968745E-03    0.5323343128E-04    0.6841939990E+00    0.3776405997E-03    0.4155218999E-02
    0.3700000000E+03    0.4747519832E-03    0.5612908584E-04    0.6848183667E+00    0.4004982026E-03    0.4151011544E-02
    0.3900000000E+03    0.4993625513E-03    0.5906681723E-04    0.6853796966E+00    0.4236391898E-03    0.4146755437E-02
    0.4100000000E+03    0.5243342145E-03    0.6204732365E-04    0.6858870784E+00    0.4470742994E-03    0.4142449782E-02
    0.4300000000E+03    0.5496733002E-03    0.6507138262E-04    0.6863479340E+00    0.4708140679E-03    0.4138093550E-02
    0.4500000000E+03    0.5753867302E-03    0.6813983986E-04    0.6867683837E+00    0.4948688987E-03    0.4133685603E-02
    0.4700000000E+03    0.6014819486E-03    0.7125360101E-04    0.6871535191E+00    0.5192491200E-03    0.4129224718E-02
    0.4900000000E+03    0.6279668683E-03    0.7441362564E-04    0.6875076109E+00    0.5439650330E-03    0.4124709598E-02
    0.1000000000E+03    0.1778988940E-03    0.2064129907E-04    0.6565275404E+00    0.1102740554E-03    0.4203132611E-02
    0.3000000000E+03    0.3913851913E-03    0.4617471091E-04    0.6822762015E+00    0.3216630538E-03    0.4165528946E-02
    0.5000000000E+03    0.6413580573E-03    0.7601130026E-04    0.6876741655E+00    0.5564520961E-03    0.4122431278E-02
    0.7000000000E+03    0.9319113320E-03    0.1106670869E-03    0.6900148498E+00    0.8264042514E-03    0.4073654533E-02
    0.9000000000E+03    0.1273578392E-02    0.1514069775E-03    0.6913225557E+00    0.1142845476E-02    0.4017562417E-02
    0.1100000000E+04    0.1680967823E-02    0.1999764389E-03    0.6921575319E+00    0.1519931593E-02    0.3951997445E-02
    0.1300000000E+04    0.2174133692E-02    0.2587684148E-03    0.6927368973E+00    0.1976653942E-02    0.3874095954E-02
    0.1500000000E+04    0.2781064910E-02    0.3311213091E-03    0.6931624571E+00    0.2539371697E-02    0.3779958558E-02
    0.1700000000E+04    0.3541529113E-02    0.4217779195E-03    0.6934882866E+00    0.3245522617E-02    0.3664168040E-02
    0.1900000000E+04    0.4512850558E-02    0.5375749586E-03    0.6937457693E+00    0.4149165327E-02    0.3519104026E-02
    0.2100000000E+04    0.5778132547E-02    0.6884244100E-03    0.6939543701E+00    0.5328914277E-02    0.3334048437E-02
    0.2300000000E+04    0.7456134566E-02    0.8884930749E-03    0.6941268029E+00    0.6897658528E-02    0.3094321141E-02
    0.2500000000E+04    0.9706442129E-02    0.1156822613E-02    0.6942717239E+00    0.9008327107E-02    0.2781544241E-02
    0.2700000000E+04    0.1270672838E-01    0.1514624593E-02    0.6943952309E+00    0.1183419258E-01    0.2378410743E-02
    0.2900000000E+04    0.1654867144E-01    0.1972877155E-02    0.6945017435E+00    0.1547315988E-01    0.1884596756E-02
    0.3100000000E+04    0.2101991764E-01    0.2506322770E-02    0.6945945433E+00    0.1974236086E-01    0.1344666677E-02
    0.3300000000E+04    0.2548374821E-01    0.3039085553E-02    0.6946761179E+00    0.2405657227E-01    0.8541418564E-03
    0.3500000000E+04    0.2925025526E-01    0.3488887867E-02    0.6947483878E+00    0.2776552690E-01    0.4980470166E-03
    0.3700000000E+04    0.3209672759E-01    0.3829115850E-02    0.6948128587E+00    0.3064574772E-01    0.2867082399E-03
    0.3900000000E+04    0.3421990735E-01    0.4083177264E-02    0.6948707282E+00    0.3286869918E-01    0.1774810030E-03
    0.4100000000E+04    0.3589785963E-01    0.4284202025E-02    0.6949229605E+00    0.3468852686E-01    0.1252279092E-03
    0.4300000000E+04    0.3732687447E-01    0.4455585953E-02    0.6949703408E+00    0.3628693206E-01    0.1011665466E-03
    0.4500000000E+04    0.3861651876E-01    0.4610390689E-02    0.6950135150E+00    0.3776596541E-01    0.9029778795E-04
    0.4700000000E+04    0.3982242204E-01    0.4755248159E-02    0.6950530192E+00    0.3917753009E-01    0.8546000912E-04
    0.4900000000E+04    0.4097195639E-01    0.4893421012E-02    0.6950893019E+00    0.4054705165E-01    0.8335671852E-04
    0.1000000000E+04    0.1467955767E-02    0.1745814731E-03    0.6917815194E+00    0.1322759700E-02    0.3986123232E-02
    0.3000000000E+04    0.1873691415E-01    0.2233927024E-02    0.6945496865E+00    0.1755731159E-01    0.1615247625E-02
    0.5000000000E+04    0.4153012713E-01    0.4960541849E-02    0.6951063559E+00    0.4122021148E-01    0.8282378947E-04
    0.7000000000E+04    0.5111863914E-01    0.6116703644E-02    0.6953451642E+00    0.5368344522E-01    0.8305481198E-04
    0.9000000000E+04    0.5846394052E-01    0.7007335530E-02    0.6954778373E+00    0.6471701227E-01    0.8423106071E-04
    0.1100000000E+05    0.6419093668E-01    0.7705955325E-02    0.6955622288E+00    0.7465956522E-01    0.8518126639E-04
    0.1300000000E+05    0.6871114402E-01    0.8261029951E-02    0.6956206123E+00    0.8373928120E-01    0.8597959324E-04
    0.1500000000E+05    0.7231071151E-01    0.8706310425E-02    0.6956633887E+00    0.9212114406E-01    0.8666887444E-04
    0.1700000000E+05    0.7519434867E-01    0.9065978513E-02    0.6956960663E+00    0.9992777885E-01    0.8727594412E-04
    0.1900000000E+05    0.7751208389E-01    0.9357784161E-02    0.6957218350E+00    0.1072524840E+00    0.8781874963E-04
    0.2100000000E+05    0.7937618074E-01    0.9595030514E-02    0.6957426697E+00    0.1141676878E+00    0.8830989892E-04
    0.2300000000E+05    0.8087217702E-01    0.9787870317E-02    0.6957598585E+00    0.1207306091E+00    0.8875859474E-04
    0.2500000000E+05    0.8206628958E-01    0.9944176258E-02    0.6957742773E+00    0.1269871504E+00    0.8917176393E-04
    0.2700000000E+05    0.8301050293E-01    0.1007013955E-01    0.6957865425E+00    0.1329746387E+00    0.8955475341E-04
    0.2900000000E+05    0.8374614140E-01    0.1017069052E-01    0.6957971002E+00    0.1387237968E+00    0.8991177845E-04
    0.3100000000E+05    0.8430642495E-01    0.1024979975E-01    0.6958062817E+00    0.1442601869E+00    0.9024622212E-04
    0.3300000000E+05    0.8471832918E-01    0.1031069749E-01    0.6958143376E+00    0.1496052858E+00    0.9056084166E-04
    0.3500000000E+05    0.8500395984E-01    0.1035603588E-01    0.6958214614E+00    0.1547772986E+00    0.9085791443E-04
    0.3700000000E+05    0.8518158284E-01    0.1038801069E-01    0.6958278046E+00    0.1597917808E+00    0.9113934361E-04
    0.3900000000E+05    0.8526640587E-01    0.1040845371E-01    0.6958334877E+00    0.1646621229E+00    0.9140673621E-04
    0.4100000000E+05    0.8527117847E-01    0.1041890383E-01    0.6958386076E+00    0.1693999290E+00    0.9166146174E-04
    0.4300000000E+05    0.8520665756E-01    0.1042066219E-01    0.6958432432E+00    0.1740153185E+00    0.9190469698E-04
    0.4500000000E+05    0.8508197224E-01    0.1041483541E-01    0.6958474593E+00    0.1785171661E+00    0.9213746068E-04
    0.4700000000E+05    0.8490491219E-01    0.1040236990E-01    0.6958513097E+00    0.1829132970E+00    0.9236064075E-04
    0.4900000000E+05    0.8468215750E-01    0.1038407909E-01    0.6958548394E+00    0.1872106453E+00    0.9257501583E-04
    0.1000000000E+05    0.6150038806E-01    0.7377193140E-02    0.6955242589E+00    0.6980860470E-01    0.8472878321E-04
    0.3000000000E+05    0.8404638829E-01    0.1021270824E-01    0.6958018458E+00    0.1415171604E+00    0.9008163790E-04
    0.5000000000E+05    0.8455547503E-01    0.1037297256E-01    0.6958564961E+00    0.1893242315E+00    0.9267911927E-04
    0.7000000000E+05    0.8066935954E-01    0.9973360845E-02    0.6958794826E+00    0.2276059044E+00    0.9442995982E-04
    0.9000000000E+05    0.7566336799E-01    0.9416809031E-02    0.6958919929E+00    0.2602610365E+00    0.9575893082E-04
    0.1100000000E+06    0.7049359685E-01    0.8824933631E-02    0.6958997805E+00    0.2889327113E+00    0.9683337662E-04
    0.1300000000E+06    0.6549795947E-01    0.8242841550E-02    0.6959050475E+00    0.3144970979E+00    0.9773694747E-04
    0.1500000000E+06    0.6080191082E-01    0.7688690707E-02    0.6959088165E+00    0.3374996895E+00    0.9851761735E-04
    0.1700000000E+06    0.5644601759E-01    0.7169530039E-02    0.6959116254E+00    0.3583195811E+00    0.9920551286E-04
    0.1900000000E+06    0.5243379611E-01    0.6687353535E-02    0.6959137842E+00    0.3772418579E+00    0.9982081871E-04
    0.2100000000E+06    0.4875198549E-01    0.6241724533E-02    0.6959154835E+00    0.3944931860E+00    0.1003777334E-03
    0.2300000000E+06    0.4537992322E-01    0.5831023089E-02    0.6959168468E+00    0.4102608486E+00    0.1008866315E-03
    0.2500000000E+06    0.4229415063E-01    0.5453079987E-02    0.6959179575E+00    0.4247036786E+00    0.1013553283E-03
    0.2700000000E+06    0.3947075676E-01    0.5105514033E-02    0.6959188741E+00    0.4379587606E+00    0.1017898608E-03
    0.2900000000E+06    0.3688658036E-01    0.4785915986E-02    0.6959196385E+00    0.4501458068E+00    0.1021949910E-03
    0.3100000000E+06    0.3451980705E-01    0.4491948989E-02    0.6959202817E+00    0.4613701889E+00    0.1025745426E-03
    0.3300000000E+06    0.3235023511E-01    0.4221401684E-02    0.6959208268E+00    0.4717251605E+00    0.1029316334E-03
    0.3500000000E+06    0.3035935642E-01    0.3972213788E-02    0.6959212918E+00    0.4812935658E+00    0.1032688393E-03
    0.3700000000E+06    0.2853033403E-01    0.3742485419E-02    0.6959216904E+00    0.4901492067E+00    0.1035883138E-03
    0.3900000000E+06    0.2684792360E-01    0.3530476815E-02    0.6959220336E+00    0.4983579704E+00    0.1038918756E-03
    0.4100000000E+06    0.2529836627E-01    0.3334602507E-02    0.6959223302E+00    0.5059787802E+00    0.1041810753E-03
    0.4300000000E+06    0.2386926935E-01    0.3153422437E-02    0.6959225872E+00    0.5130644112E+00    0.1044572454E-03
    0.4500000000E+06    0.2254948471E-01    0.2985631561E-02    0.6959228104E+00    0.5196621956E+00    0.1047215396E-03
    0.4700000000E+06    0.2132899050E-01    0.2830048934E-02    0.6959230045E+00    0.5258146390E+00    0.1049749638E-03
    0.4900000000E+06    0.2019877934E-01    0.2685606838E-02    0.6959231734E+00    0.5315599608E+00    0.1052184002E-03
    0.1000000000E+06    0.7307034883E-01    0.9121526831E-02    0.6958962978E+00    0.2750292812E+00    0.9632157772E-04
    0.3000000000E+06    0.3567732033E-01    0.4635870158E-02    0.6959199736E+00    0.4558722405E+00    0.1023877549E-03
    0.5000000000E+06    0.1966496680E-01    0.2617258206E-02    0.6959232494E+00    0.5342908406E+00    0.1053366197E-03
    0.7000000000E+06    0.1215576924E-01    0.1646049207E-02    0.6959240215E+00    0.5742614338E+00    0.1073251613E-03
    0.9000000000E+06    0.8171287476E-02    0.1121537119E-02    0.6959240916E+00    0.5972964194E+00    0.1088348496E-03
    0.1100000000E+07    0.5839282221E-02    0.8103752563E-03    0.6959239035E+00    0.6118639762E+00    0.1100555344E-03
    0.1300000000E+07    0.4368225591E-02    0.6119230661E-03    0.6959236098E+00    0.6217418621E+00    0.1110821584E-03
    0.1500000000E+07    0.3384974761E-02    0.4780447763E-03    0.6959232728E+00    0.6288054672E+00    0.1119691865E-03
    0.1700000000E+07    0.2697108996E-02    0.3836333463E-03    0.6959229212E+00    0.6340701701E+00    0.1127508279E-03
    0.1900000000E+07    0.2197916500E-02    0.3146330998E-03    0.6959225686E+00    0.6381255624E+00    0.1134500056E-03
    0.2100000000E+07    0.1824600035E-02    0.2627056931E-03    0.6959222221E+00    0.6413340473E+00    0.1140828459E-03
    0.2300000000E+07    0.1538348973E-02    0.2226613326E-03    0.6959218848E+00    0.6439290748E+00    0.1146611329E-03
    0.2500000000E+07    0.1314173094E-02    0.1911372954E-03    0.6959215584E+00    0.6460670282E+00    0.1151937443E-03
    0.2700000000E+07    0.1135412239E-02    0.1658790702E-03    0.6959212435E+00    0.6478561879E+00    0.1156875381E-03
    0.2900000000E+07    0.9906239652E-03    0.1453302430E-03    0.6959209399E+00    0.6493736769E+00    0.1161479240E-03
    0.3100000000E+07    0.8717442385E-03    0.1283887441E-03    0.6959206475E+00    0.6506757832E+00    0.1165792462E-03
    0.3300000000E+07    0.7729605429E-03    0.1142567311E-03    0.6959203658E+00    0.6518044712E+00    0.1169850467E-03
    0.3500000000E+07    0.6899993401E-03    0.1023452182E-03    0.6959200942E+00    0.6527916160E+00    0.1173682522E-03
    0.3700000000E+07    0.6196628395E-03    0.9221180417E-04    0.6959198322E+00    0.6536618326E+00    0.1177313093E-03
    0.3900000000E+07    0.5595203306E-03    0.8351900840E-04    0.6959195793E+00    0.6544344110E+00    0.1180762847E-03
    0.4100000000E+07    0.5076979311E-03    0.7600578420E-04    0.6959193349E+00    0.6551246689E+00    0.1184049399E-03
    0.4300000000E+07    0.4627325112E-03    0.6946765663E-04    0.6959190987E+00    0.6557449146E+00    0.1187187889E-03
    0.4500000000E+07    0.4234683795E-03    0.6374262760E-04    0.6959188699E+00    0.6563051453E+00    0.1190191429E-03
    0.4700000000E+07    0.3889830186E-03    0.5870101214E-04    0.6959186484E+00    0.6568135604E+00    0.1193071446E-03
    0.4900000000E+07    0.3585329093E-03    0.5423800179E-04    0.6959184335E+00    0.6572769453E+00    0.1195837965E-03
    0.1000000000E+07    0.6862516016E-02    0.9473635887E-03    0.6959240171E+00    0.6053384700E+00    0.1094740636E-03
    0.3000000000E+07    0.9283517137E-03    0.1364642537E-03    0.6959207924E+00    0.6500487525E+00    0.1163669804E-03
    0.5000000000E+07    0.3446275909E-03    0.5219613595E-04    0.6959183285E+00    0.6574935581E+00    0.1197181466E-03
    0.7000000000E+07    0.1777856631E-03    0.2746123607E-04    0.6959165037E+00    0.6604445664E+00    0.1219780385E-03
    0.9000000000E+07    0.1081263863E-03    0.1694652209E-04    0.6959150576E+00    0.6620155929E+00    0.1236937542E-03
    0.1100000000E+08    0.7260598256E-04    0.1151109198E-04    0.6959138587E+00    0.6629887559E+00    0.1250810349E-03
    0.1300000000E+08    0.5209051963E-04    0.8336910983E-05    0.6959128335E+00    0.6636500681E+00    0.1262477742E-03
    0.1500000000E+08    0.3918547978E-04    0.6321656948E-05    0.6959119370E+00    0.6641284700E+00    0.1272558679E-03
    0.1700000000E+08    0.3054627039E-04    0.4961767729E-05    0.6959111398E+00    0.6644905198E+00    0.1281441927E-03
    0.1900000000E+08    0.2448174842E-04    0.4000467436E-05    0.6959104216E+00    0.6647740118E+00    0.1289387997E-03
    0.2100000000E+08    0.2006241835E-04    0.3295584906E-05    0.6959097677E+00    0.6650019862E+00    0.1296580157E-03
    0.2300000000E+08    0.1674313254E-04    0.2763192433E-05    0.6959091673E+00    0.6651892832E+00    0.1303152329E-03
    0.2500000000E+08    0.1418708046E-04    0.2351132627E-05    0.6959086120E+00    0.6653458903E+00    0.1309205407E-03
    0.2700000000E+08    0.1217709267E-04    0.2025596414E-05    0.6959080953E+00    0.6654787747E+00    0.1314817327E-03
