     Pressure (Pa)     C7-500 (mol/kg)        3mC6-500 (mol/kg)
    0.1000000000E+01    0.6505568941E-02    0.6376553434E-02
    0.3000000000E+01    0.1880048116E-01    0.1843019409E-01
    0.5000000000E+01    0.3022484200E-01    0.2963355412E-01
    0.7000000000E+01    0.4086784601E-01    0.4007364255E-01
    0.9000000000E+01    0.5080690866E-01    0.4982598512E-01
    0.1100000000E+02    0.6010954842E-01    0.5895645842E-01
    0.1300000000E+02    0.6883491916E-01    0.6752278332E-01
    0.1500000000E+02    0.7703506642E-01    0.7557574938E-01
    0.1700000000E+02    0.8475596387E-01    0.8316022508E-01
    0.1900000000E+02    0.9203837353E-01    0.9031599631E-01
    0.2100000000E+02    0.9891856389E-01    0.9707846640E-01
    0.2300000000E+02    0.1054289124E+00    0.1034792434E+00
    0.2500000000E+02    0.1115984134E+00    0.1095466355E+00
    0.2700000000E+02    0.1174531090E+00    0.1153060707E+00
    0.2900000000E+02    0.1230164552E+00    0.1207804543E+00
    0.3100000000E+02    0.1283096353E+00    0.1259904739E+00
    0.3300000000E+02    0.1333518281E+00    0.1309548618E+00
    0.3500000000E+02    0.1381604403E+00    0.1356906203E+00
    0.3700000000E+02    0.1427513057E+00    0.1402132177E+00
    0.3900000000E+02    0.1471388595E+00    0.1445367565E+00
    0.4100000000E+02    0.1513362890E+00    0.1486741218E+00
    0.4300000000E+02    0.1553556657E+00    0.1526371096E+00
    0.4500000000E+02    0.1592080609E+00    0.1564365392E+00
    0.4700000000E+02    0.1629036471E+00    0.1600823527E+00
    0.4900000000E+02    0.1664517874E+00    0.1635837021E+00
    0.5100000000E+02    0.1698611143E+00    0.1669490260E+00
    0.5300000000E+02    0.1731395998E+00    0.1701861180E+00
    0.5500000000E+02    0.1762946172E+00    0.1733021871E+00
    0.5700000000E+02    0.1793329964E+00    0.1763039117E+00
    0.5900000000E+02    0.1822610728E+00    0.1791974873E+00
    0.6100000000E+02    0.1850847316E+00    0.1819886695E+00
    0.6300000000E+02    0.1878094468E+00    0.1846828124E+00
    0.6500000000E+02    0.1904403164E+00    0.1872849029E+00
    0.6700000000E+02    0.1929820946E+00    0.1897995918E+00
    0.6900000000E+02    0.1954392199E+00    0.1922312216E+00
    0.7100000000E+02    0.1978158409E+00    0.1945838516E+00
    0.7300000000E+02    0.2001158396E+00    0.1968612806E+00
    0.7500000000E+02    0.2023428527E+00    0.1990670677E+00
    0.7700000000E+02    0.2045002905E+00    0.2012045504E+00
    0.7900000000E+02    0.2065913540E+00    0.2032768623E+00
    0.8100000000E+02    0.2086190511E+00    0.2052869478E+00
    0.8300000000E+02    0.2105862109E+00    0.2072375766E+00
    0.8500000000E+02    0.2124954965E+00    0.2091313561E+00
    0.8700000000E+02    0.2143494171E+00    0.2109707436E+00
    0.8900000000E+02    0.2161503394E+00    0.2127580564E+00
    0.9100000000E+02    0.2179004967E+00    0.2144954822E+00
    0.9300000000E+02    0.2196019990E+00    0.2161850875E+00
    0.9500000000E+02    0.2212568410E+00    0.2178288263E+00
    0.9700000000E+02    0.2228669099E+00    0.2194285473E+00
    0.9900000000E+02    0.2244339925E+00    0.2209860013E+00
    0.1000000000E+02    0.5553390416E-01    0.5446517224E-01
    0.3000000000E+02    0.1256955732E+00    0.1234172959E+00
    0.5000000000E+02    0.1681732895E+00    0.1652828658E+00
    0.7000000000E+02    0.1966373448E+00    0.1934171683E+00
    0.9000000000E+02    0.2170316290E+00    0.2136328733E+00
    0.1100000000E+03    0.2323560093E+00    0.2288664856E+00
    0.1300000000E+03    0.2442880006E+00    0.2407616782E+00
    0.1500000000E+03    0.2538389454E+00    0.2503103462E+00
    0.1700000000E+03    0.2616547689E+00    0.2581466026E+00
    0.1900000000E+03    0.2681673066E+00    0.2646947921E+00
    0.2100000000E+03    0.2736761911E+00    0.2702496311E+00
    0.2300000000E+03    0.2783958296E+00    0.2750222107E+00
    0.2500000000E+03    0.2824836829E+00    0.2791677041E+00
    0.2700000000E+03    0.2860579859E+00    0.2828027396E+00
    0.2900000000E+03    0.2892092410E+00    0.2860166751E+00
    0.3100000000E+03    0.2920078947E+00    0.2888791320E+00
    0.3300000000E+03    0.2945095983E+00    0.2914451627E+00
    0.3500000000E+03    0.2967588963E+00    0.2937588738E+00
    0.3700000000E+03    0.2987918635E+00    0.2958560196E+00
    0.3900000000E+03    0.3006380254E+00    0.2977658914E+00
    0.4100000000E+03    0.3023217791E+00    0.2995127152E+00
    0.4300000000E+03    0.3038634592E+00    0.3011167028E+00
    0.4500000000E+03    0.3052801492E+00    0.3025948501E+00
    0.4700000000E+03    0.3065863054E+00    0.3039615536E+00
    0.4900000000E+03    0.3077942433E+00    0.3052290887E+00
    0.5100000000E+03    0.3089145186E+00    0.3064079875E+00
    0.5300000000E+03    0.3099562310E+00    0.3075073376E+00
    0.5500000000E+03    0.3109272665E+00    0.3085350218E+00
    0.5700000000E+03    0.3118344926E+00    0.3094979118E+00
    0.5900000000E+03    0.3126839180E+00    0.3104020253E+00
    0.6100000000E+03    0.3134808220E+00    0.3112526548E+00
    0.6300000000E+03    0.3142298624E+00    0.3120544739E+00
    0.6500000000E+03    0.3149351636E+00    0.3128116252E+00
    0.6700000000E+03    0.3156003913E+00    0.3135277939E+00
    0.6900000000E+03    0.3162288141E+00    0.3142062692E+00
    0.7100000000E+03    0.3168233557E+00    0.3148499959E+00
    0.7300000000E+03    0.3173866396E+00    0.3154616191E+00
    0.7500000000E+03    0.3179210262E+00    0.3160435208E+00
    0.7700000000E+03    0.3184286450E+00    0.3165978520E+00
    0.7900000000E+03    0.3189114224E+00    0.3171265603E+00
    0.8100000000E+03    0.3193711047E+00    0.3176314133E+00
    0.8300000000E+03    0.3198092793E+00    0.3181140189E+00
    0.8500000000E+03    0.3202273920E+00    0.3185758430E+00
    0.8700000000E+03    0.3206267625E+00    0.3190182250E+00
    0.8900000000E+03    0.3210085976E+00    0.3194423909E+00
    0.9100000000E+03    0.3213740034E+00    0.3198494655E+00
    0.9300000000E+03    0.3217239952E+00    0.3202404822E+00
    0.9500000000E+03    0.3220595070E+00    0.3206163923E+00
    0.9700000000E+03    0.3223813989E+00    0.3209780731E+00
    0.9900000000E+03    0.3226904649E+00    0.3213263349E+00
    0.1000000000E+03    0.2252019465E+00    0.2217494000E+00
    0.3000000000E+03    0.2906488674E+00    0.2874881046E+00
    0.5000000000E+03    0.3083647390E+00    0.3058290189E+00
    0.7000000000E+03    0.3165301495E+00    0.3145323042E+00
    0.9000000000E+03    0.3211932887E+00    0.3196479980E+00
    0.1100000000E+04    0.3241912728E+00    0.3230328047E+00
    0.1300000000E+04    0.3262701082E+00    0.3254482268E+00
    0.1500000000E+04    0.3277893826E+00    0.3272649331E+00
    0.1700000000E+04    0.3289434925E+00    0.3286852648E+00
    0.1900000000E+04    0.3298465853E+00    0.3298291863E+00
    0.2100000000E+04    0.3305700147E+00    0.3307724118E+00
    0.2300000000E+04    0.3311606289E+00    0.3315651319E+00
    0.2500000000E+04    0.3316504291E+00    0.3322419606E+00
    0.2700000000E+04    0.3320620001E+00    0.3328275616E+00
    0.2900000000E+04    0.3324117238E+00    0.3333399964E+00
    0.3100000000E+04    0.3327117625E+00    0.3337928032E+00
    0.3300000000E+04    0.3329713291E+00    0.3341963354E+00
    0.3500000000E+04    0.3331975254E+00    0.3345586508E+00
    0.3700000000E+04    0.3333959107E+00    0.3348861171E+00
    0.3900000000E+04    0.3335708960E+00    0.3351838358E+00
    0.4100000000E+04    0.3337260243E+00    0.3354559436E+00
    0.4300000000E+04    0.3338641725E+00    0.3357058317E+00
    0.4500000000E+04    0.3339876995E+00    0.3359363076E+00
    0.4700000000E+04    0.3340985570E+00    0.3361497162E+00
    0.4900000000E+04    0.3341983726E+00    0.3363480323E+00
    0.5100000000E+04    0.3342885143E+00    0.3365329313E+00
    0.5300000000E+04    0.3343701393E+00    0.3367058442E+00
    0.5500000000E+04    0.3344442328E+00    0.3368680012E+00
    0.5700000000E+04    0.3345116384E+00    0.3370204658E+00
    0.5900000000E+04    0.3345730827E+00    0.3371641625E+00
    0.6100000000E+04    0.3346291940E+00    0.3372998992E+00
    0.6300000000E+04    0.3346805189E+00    0.3374283846E+00
    0.6500000000E+04    0.3347275343E+00    0.3375502440E+00
    0.6700000000E+04    0.3347706585E+00    0.3376660306E+00
    0.6900000000E+04    0.3348102596E+00    0.3377762360E+00
    0.7100000000E+04    0.3348466627E+00    0.3378812987E+00
    0.7300000000E+04    0.3348801559E+00    0.3379816112E+00
    0.7500000000E+04    0.3349109954E+00    0.3380775256E+00
    0.7700000000E+04    0.3349394097E+00    0.3381693592E+00
    0.7900000000E+04    0.3349656029E+00    0.3382573985E+00
    0.8100000000E+04    0.3349897584E+00    0.3383419028E+00
    0.8300000000E+04    0.3350120408E+00    0.3384231077E+00
    0.8500000000E+04    0.3350325985E+00    0.3385012274E+00
    0.8700000000E+04    0.3350515658E+00    0.3385764577E+00
    0.8900000000E+04    0.3350690638E+00    0.3386489771E+00
    0.9100000000E+04    0.3350852029E+00    0.3387189495E+00
    0.9300000000E+04    0.3351000831E+00    0.3387865252E+00
    0.9500000000E+04    0.3351137957E+00    0.3388518427E+00
    0.9700000000E+04    0.3351264238E+00    0.3389150294E+00
    0.9900000000E+04    0.3351380435E+00    0.3389762029E+00
    0.1000000000E+04    0.3228404196E+00    0.3214956702E+00
    0.3000000000E+04    0.3325673203E+00    0.3335731437E+00
    0.5000000000E+04    0.3342445759E+00    0.3364420644E+00
    0.7000000000E+04    0.3348288421E+00    0.3378293847E+00
    0.9000000000E+04    0.3350772968E+00    0.3386842719E+00
    0.1100000000E+05    0.3351867690E+00    0.3392811587E+00
    0.1300000000E+05    0.3352288975E+00    0.3397308439E+00
    0.1500000000E+05    0.3352351559E+00    0.3400873416E+00
    0.1700000000E+05    0.3352211545E+00    0.3403804303E+00
    0.1900000000E+05    0.3351953163E+00    0.3406280214E+00
    0.2100000000E+05    0.3351624728E+00    0.3408416133E+00
    0.2300000000E+05    0.3351255244E+00    0.3410289701E+00
    0.2500000000E+05    0.3350862727E+00    0.3411955506E+00
    0.2700000000E+05    0.3350458651E+00    0.3413453215E+00
    0.2900000000E+05    0.3350050450E+00    0.3414812459E+00
    0.3100000000E+05    0.3349642993E+00    0.3416055892E+00
    0.3300000000E+05    0.3349239475E+00    0.3417201181E+00
    0.3500000000E+05    0.3348841982E+00    0.3418262344E+00
    0.3700000000E+05    0.3348451850E+00    0.3419250676E+00
    0.3900000000E+05    0.3348069905E+00    0.3420175395E+00
    0.4100000000E+05    0.3347696621E+00    0.3421044114E+00
    0.4300000000E+05    0.3347332228E+00    0.3421863191E+00
    0.4500000000E+05    0.3346976788E+00    0.3422637981E+00
    0.4700000000E+05    0.3346630246E+00    0.3423373036E+00
    0.4900000000E+05    0.3346292468E+00    0.3424072256E+00
    0.5100000000E+05    0.3345963265E+00    0.3424739004E+00
    0.5300000000E+05    0.3345642414E+00    0.3425376200E+00
    0.5500000000E+05    0.3345329670E+00    0.3425986396E+00
    0.5700000000E+05    0.3345024775E+00    0.3426571832E+00
    0.5900000000E+05    0.3344727466E+00    0.3427134483E+00
    0.6100000000E+05    0.3344437480E+00    0.3427676105E+00
    0.6300000000E+05    0.3344154556E+00    0.3428198258E+00
    0.6500000000E+05    0.3343878438E+00    0.3428702340E+00
    0.6700000000E+05    0.3343608878E+00    0.3429189604E+00
    0.6900000000E+05    0.3343345635E+00    0.3429661180E+00
    0.7100000000E+05    0.3343088478E+00    0.3430118089E+00
    0.7300000000E+05    0.3342837182E+00    0.3430561257E+00
    0.7500000000E+05    0.3342591533E+00    0.3430991526E+00
    0.7700000000E+05    0.3342351328E+00    0.3431409665E+00
    0.7900000000E+05    0.3342116368E+00    0.3431816375E+00
    0.8100000000E+05    0.3341886467E+00    0.3432212300E+00
    0.8300000000E+05    0.3341661445E+00    0.3432598031E+00
    0.8500000000E+05    0.3341441131E+00    0.3432974114E+00
    0.8700000000E+05    0.3341225363E+00    0.3433341051E+00
    0.8900000000E+05    0.3341013983E+00    0.3433699307E+00
    0.9100000000E+05    0.3340806844E+00    0.3434049311E+00
    0.9300000000E+05    0.3340603802E+00    0.3434391465E+00
    0.9500000000E+05    0.3340404723E+00    0.3434726139E+00
    0.9700000000E+05    0.3340209477E+00    0.3435053679E+00
    0.9900000000E+05    0.3340017940E+00    0.3435374409E+00
    0.1000000000E+05    0.3351434972E+00    0.3390060691E+00
    0.3000000000E+05    0.3349846398E+00    0.3415447449E+00
    0.5000000000E+05    0.3346126808E+00    0.3424409497E+00
    0.7000000000E+05    0.3343216310E+00    0.3429891408E+00
    0.9000000000E+05    0.3340909892E+00    0.3433875315E+00
    0.1100000000E+06    0.3339025760E+00    0.3437029237E+00
    0.1300000000E+06    0.3337447572E+00    0.3439656991E+00
    0.1500000000E+06    0.3336099782E+00    0.3441921805E+00
    0.1700000000E+06    0.3334931259E+00    0.3443921327E+00
    0.1900000000E+06    0.3333905993E+00    0.3445718549E+00
    0.2100000000E+06    0.3332997740E+00    0.3447356449E+00
    0.2300000000E+06    0.3332186819E+00    0.3448865646E+00
    0.2500000000E+06    0.3331458101E+00    0.3450268716E+00
    0.2700000000E+06    0.3330799715E+00    0.3451582783E+00
    0.2900000000E+06    0.3330202181E+00    0.3452821137E+00
    0.3100000000E+06    0.3329657806E+00    0.3453994302E+00
    0.3300000000E+06    0.3329160266E+00    0.3455110751E+00
    0.3500000000E+06    0.3328704300E+00    0.3456177406E+00
    0.3700000000E+06    0.3328285483E+00    0.3457199996E+00
    0.3900000000E+06    0.3327900060E+00    0.3458183314E+00
    0.4100000000E+06    0.3327544816E+00    0.3459131413E+00
    0.4300000000E+06    0.3327216979E+00    0.3460047746E+00
    0.4500000000E+06    0.3326914140E+00    0.3460935286E+00
    0.4700000000E+06    0.3326634195E+00    0.3461796603E+00
    0.4900000000E+06    0.3326375292E+00    0.3462633940E+00
    0.5100000000E+06    0.3326135798E+00    0.3463449262E+00
    0.5300000000E+06    0.3325914260E+00    0.3464244304E+00
    0.5500000000E+06    0.3325709382E+00    0.3465020601E+00
    0.5700000000E+06    0.3325520005E+00    0.3465779520E+00
    0.5900000000E+06    0.3325345084E+00    0.3466522287E+00
    0.6100000000E+06    0.3325183679E+00    0.3467249997E+00
    0.6300000000E+06    0.3325034935E+00    0.3467963641E+00
    0.6500000000E+06    0.3324898078E+00    0.3468664114E+00
    0.6700000000E+06    0.3324772402E+00    0.3469352228E+00
    0.6900000000E+06    0.3324657261E+00    0.3470028722E+00
    0.7100000000E+06    0.3324552066E+00    0.3470694270E+00
    0.7300000000E+06    0.3324456272E+00    0.3471349489E+00
    0.7500000000E+06    0.3324369380E+00    0.3471994945E+00
    0.7700000000E+06    0.3324290930E+00    0.3472631160E+00
    0.7900000000E+06    0.3324220494E+00    0.3473258614E+00
    0.8100000000E+06    0.3324157678E+00    0.3473877749E+00
    0.8300000000E+06    0.3324102116E+00    0.3474488976E+00
    0.8500000000E+06    0.3324053466E+00    0.3475092676E+00
    0.8700000000E+06    0.3324011411E+00    0.3475689202E+00
    0.8900000000E+06    0.3323975655E+00    0.3476278885E+00
    0.9100000000E+06    0.3323945921E+00    0.3476862030E+00
    0.9300000000E+06    0.3323921951E+00    0.3477438925E+00
    0.9500000000E+06    0.3323903500E+00    0.3478009837E+00
    0.9700000000E+06    0.3323890343E+00    0.3478575017E+00
    0.9900000000E+06    0.3323882264E+00    0.3479134702E+00
    0.1000000000E+06    0.3339923526E+00    0.3435532315E+00
    0.3000000000E+06    0.3329923771E+00    0.3453415297E+00
    0.5000000000E+06    0.3326253214E+00    0.3463044239E+00
    0.7000000000E+06    0.3324603455E+00    0.3470362824E+00
    0.9000000000E+06    0.3323960052E+00    0.3476571256E+00
    0.1100000000E+07    0.3323920166E+00    0.3482123985E+00
    0.1300000000E+07    0.3324282390E+00    0.3487242621E+00
    0.1500000000E+07    0.3324931470E+00    0.3492052012E+00
    0.1700000000E+07    0.3325795249E+00    0.3496629481E+00
    0.1900000000E+07    0.3326825549E+00    0.3501026256E+00
    0.2100000000E+07    0.3327988593E+00    0.3505278028E+00
    0.2300000000E+07    0.3329259788E+00    0.3509410668E+00
    0.2500000000E+07    0.3330620670E+00    0.3513443526E+00
    0.2700000000E+07    0.3332057021E+00    0.3517391455E+00
    0.2900000000E+07    0.3333557663E+00    0.3521266103E+00
    0.3100000000E+07    0.3335113646E+00    0.3525076779E+00
    0.3300000000E+07    0.3336717694E+00    0.3528831035E+00
    0.3500000000E+07    0.3338363815E+00    0.3532535086E+00
    0.3700000000E+07    0.3340047009E+00    0.3536194108E+00
    0.3900000000E+07    0.3341763068E+00    0.3539812455E+00
    0.4100000000E+07    0.3343508414E+00    0.3543393828E+00
    0.4300000000E+07    0.3345279978E+00    0.3546941398E+00
    0.4500000000E+07    0.3347075110E+00    0.3550457902E+00
    0.4700000000E+07    0.3348891506E+00    0.3553945720E+00
    0.4900000000E+07    0.3350727151E+00    0.3557406934E+00
    0.5100000000E+07    0.3352580268E+00    0.3560843379E+00
    0.5300000000E+07    0.3354449290E+00    0.3564256674E+00
    0.5500000000E+07    0.3356332822E+00    0.3567648262E+00
    0.5700000000E+07    0.3358229619E+00    0.3571019430E+00
    0.5900000000E+07    0.3360138565E+00    0.3574371332E+00
    0.6100000000E+07    0.3362058657E+00    0.3577705009E+00
    0.6300000000E+07    0.3363988987E+00    0.3581021399E+00
    0.6500000000E+07    0.3365928736E+00    0.3584321354E+00
    0.6700000000E+07    0.3367877157E+00    0.3587605650E+00
    0.6900000000E+07    0.3369833570E+00    0.3590874993E+00
    0.7100000000E+07    0.3371797355E+00    0.3594130030E+00
    0.7300000000E+07    0.3373767941E+00    0.3597371354E+00
    0.7500000000E+07    0.3375744808E+00    0.3600599512E+00
    0.7700000000E+07    0.3377727474E+00    0.3603815006E+00
    0.7900000000E+07    0.3379715495E+00    0.3607018301E+00
    0.8100000000E+07    0.3381708462E+00    0.3610209828E+00
    0.8300000000E+07    0.3383705995E+00    0.3613389986E+00
    0.8500000000E+07    0.3385707742E+00    0.3616559147E+00
    0.8700000000E+07    0.3387713376E+00    0.3619717656E+00
    0.8900000000E+07    0.3389722593E+00    0.3622865836E+00
    0.9100000000E+07    0.3391735109E+00    0.3626003990E+00
    0.9300000000E+07    0.3393750658E+00    0.3629132399E+00
    0.9500000000E+07    0.3395768993E+00    0.3632251327E+00
    0.9700000000E+07    0.3397789882E+00    0.3635361025E+00
    0.9900000000E+07    0.3399813108E+00    0.3638461725E+00
    0.1000000000E+07    0.3323880066E+00    0.3479412553E+00
    0.3000000000E+07    0.3334329226E+00    0.3523178930E+00
    0.5000000000E+07    0.3351651628E+00    0.3559128147E+00
    0.7000000000E+07    0.3370814578E+00    0.3592504262E+00
    0.9000000000E+07    0.3390728456E+00    0.3624436148E+00
    0.1100000000E+08    0.3410974079E+00    0.3655363987E+00
    0.1300000000E+08    0.3431347148E+00    0.3685508167E+00
    0.1500000000E+08    0.3451733899E+00    0.3714996550E+00
    0.1700000000E+08    0.3472065395E+00    0.3743911124E+00
    0.1900000000E+08    0.3492297420E+00    0.3772308473E+00
    0.2100000000E+08    0.3512400498E+00    0.3800229940E+00
    0.2300000000E+08    0.3532354469E+00    0.3827707144E+00
    0.2500000000E+08    0.3552145338E+00    0.3854765181E+00
    0.2700000000E+08    0.3571763337E+00    0.3881424604E+00
    0.2900000000E+08    0.3591201688E+00    0.3907702679E+00
    0.3100000000E+08    0.3610455776E+00    0.3933614234E+00
    0.3300000000E+08    0.3629522582E+00    0.3959172240E+00
    0.3500000000E+08    0.3648400289E+00    0.3984388216E+00
    0.3700000000E+08    0.3667087989E+00    0.4009272532E+00
    0.3900000000E+08    0.3685585479E+00    0.4033834626E+00
    0.4100000000E+08    0.3703893098E+00    0.4058083170E+00
    0.4300000000E+08    0.3722011613E+00    0.4082026197E+00
    0.4500000000E+08    0.3739942122E+00    0.4105671196E+00
    0.4700000000E+08    0.3757685989E+00    0.4129025197E+00
    0.4900000000E+08    0.3775244785E+00    0.4152094826E+00
    0.5100000000E+08    0.3792620240E+00    0.4174886358E+00
