  Pressure (Pa) 22mC5-400 (mol/kg) 2mC6-400 (mol/kg) 3mC6-400 (mol/kg) 23mC5-400 (mol/kg) C7-400 (mol/kg)
    0.1000000000E+01    0.5284616467E-03    0.7071906139E-02    0.1041691428E-02    0.2783762777E-03    0.8452227331E-02
    0.3000000000E+01    0.1560297257E-02    0.2030952168E-01    0.2991545805E-02    0.8219204294E-03    0.2427800618E-01
    0.5000000000E+01    0.2560385577E-02    0.3246412772E-01    0.4782523890E-02    0.1348749861E-02    0.3882013379E-01
    0.7000000000E+01    0.3530621284E-02    0.4366453961E-01    0.6434260323E-02    0.1859861991E-02    0.5223702773E-01
    0.9000000000E+01    0.4472744778E-02    0.5401941917E-01    0.7963245226E-02    0.2356173026E-02    0.6466175301E-01
    0.1100000000E+02    0.5388357818E-02    0.6362112844E-01    0.9383431812E-02    0.2838526196E-02    0.7620691865E-01
    0.1300000000E+02    0.6278937283E-02    0.7254872448E-01    0.1070670814E-01    0.3307698992E-02    0.8696847984E-01
    0.1500000000E+02    0.7145847313E-02    0.8087031140E-01    0.1194326721E-01    0.3764409557E-02    0.9702872097E-01
    0.1700000000E+02    0.7990350044E-02    0.8864490581E-01    0.1310190008E-01    0.4209322342E-02    0.1064586185E+00
    0.1900000000E+02    0.8813615136E-02    0.9592392976E-01    0.1419023008E-01    0.4643053116E-02    0.1153197292E+00
    0.2100000000E+02    0.9616728238E-02    0.1027524157E+00    0.1521490150E-01    0.5066173426E-02    0.1236657111E+00
    0.2300000000E+02    0.1040069854E-01    0.1091699863E+00    0.1618173275E-01    0.5479214564E-02    0.1315435588E+00
    0.2500000000E+02    0.1116646549E-01    0.1152116579E+00    0.1709584155E-01    0.5882671120E-02    0.1389946129E+00
    0.2700000000E+02    0.1191490488E-01    0.1209085025E+00    0.1796174802E-01    0.6277004158E-02    0.1460553914E+00
    0.2900000000E+02    0.1264683419E-01    0.1262881979E+00    0.1878345998E-01    0.6662644057E-02    0.1527582773E+00
    0.3100000000E+02    0.1336301749E-01    0.1313754869E+00    0.1956454403E-01    0.7039993081E-02    0.1591320926E+00
    0.3300000000E+02    0.1406416982E-01    0.1361925631E+00    0.2030818511E-01    0.7409427676E-02    0.1652025779E+00
    0.3500000000E+02    0.1475096114E-01    0.1407593968E+00    0.2101723655E-01    0.7771300558E-02    0.1709927969E+00
    0.3700000000E+02    0.1542401988E-01    0.1450940107E+00    0.2169426251E-01    0.8125942585E-02    0.1765234786E+00
    0.3900000000E+02    0.1608393621E-01    0.1492127164E+00    0.2234157401E-01    0.8473664466E-02    0.1818133077E+00
    0.4100000000E+02    0.1673126493E-01    0.1531303156E+00    0.2296125965E-01    0.8814758303E-02    0.1868791728E+00
    0.4300000000E+02    0.1736652820E-01    0.1568602735E+00    0.2355521201E-01    0.9149498992E-02    0.1917363794E+00
    0.4500000000E+02    0.1799021787E-01    0.1604148691E+00    0.2412515029E-01    0.9478145502E-02    0.1963988325E+00
    0.4700000000E+02    0.1860279780E-01    0.1638053248E+00    0.2467263996E-01    0.9800942036E-02    0.2008791953E+00
    0.4900000000E+02    0.1920470576E-01    0.1670419190E+00    0.2519910967E-01    0.1011811909E-01    0.2051890258E+00
    0.1000000000E+02    0.4933770022E-02    0.5890919746E-01    0.8686151668E-02    0.2599044289E-02    0.7053793166E-01
    0.3000000000E+02    0.1300684830E-01    0.1288669504E+00    0.1917887312E-01    0.6852330821E-02    0.1559846429E+00
    0.5000000000E+02    0.1950178792E-01    0.1686054966E+00    0.2545487478E-01    0.1027466884E-01    0.2072833308E+00
    0.7000000000E+02    0.2497244946E-01    0.1937233509E+00    0.2973138304E-01    0.1315765593E-01    0.2423591562E+00
    0.9000000000E+02    0.2973140234E-01    0.2106323043E+00    0.3288652726E-01    0.1566586243E-01    0.2683205267E+00
    0.1100000000E+03    0.3397007955E-01    0.2224836285E+00    0.3534173513E-01    0.1790008382E-01    0.2885830462E+00
    0.1300000000E+03    0.3781320059E-01    0.2310130126E+00    0.3732631718E-01    0.1992599147E-01    0.3050074233E+00
    0.1500000000E+03    0.4134605135E-01    0.2372556605E+00    0.3897666852E-01    0.2178849445E-01    0.3187016755E+00
    0.1700000000E+03    0.4462926881E-01    0.2418665586E+00    0.4037950509E-01    0.2351952351E-01    0.3303710259E+00
    0.1900000000E+03    0.4770736783E-01    0.2452795233E+00    0.4159288608E-01    0.2514252037E-01    0.3404881525E+00
    0.2100000000E+03    0.5061391474E-01    0.2477925833E+00    0.4265732583E-01    0.2667516171E-01    0.3493832417E+00
    0.2300000000E+03    0.5337480199E-01    0.2496167052E+00    0.4360206832E-01    0.2813108331E-01    0.3572948723E+00
    0.2500000000E+03    0.5601039613E-01    0.2509050058E+00    0.4444882531E-01    0.2952101112E-01    0.3644003507E+00
    0.2700000000E+03    0.5853699082E-01    0.2517709947E+00    0.4521410472E-01    0.3085352631E-01    0.3708346187E+00
    0.2900000000E+03    0.6096781604E-01    0.2523003637E+00    0.4591071624E-01    0.3213559667E-01    0.3767024875E+00
    0.3100000000E+03    0.6331375566E-01    0.2525588330E+00    0.4654877662E-01    0.3337295449E-01    0.3820868119E+00
    0.3300000000E+03    0.6558386821E-01    0.2525975063E+00    0.4713639983E-01    0.3457037078E-01    0.3870541048E+00
    0.3500000000E+03    0.6778577180E-01    0.2524566091E+00    0.4768018239E-01    0.3573185795E-01    0.3916584884E+00
    0.3700000000E+03    0.6992593334E-01    0.2521681474E+00    0.4818555203E-01    0.3686082214E-01    0.3959445346E+00
    0.3900000000E+03    0.7200988904E-01    0.2517578348E+00    0.4865702302E-01    0.3796017934E-01    0.3999493460E+00
    0.4100000000E+03    0.7404241486E-01    0.2512465085E+00    0.4909838628E-01    0.3903244511E-01    0.4037041060E+00
    0.4300000000E+03    0.7602765973E-01    0.2506511860E+00    0.4951285311E-01    0.4007980481E-01    0.4072352521E+00
    0.4500000000E+03    0.7796925106E-01    0.2499858632E+00    0.4990316536E-01    0.4110416908E-01    0.4105653753E+00
    0.4700000000E+03    0.7987037887E-01    0.2492621244E+00    0.5027168098E-01    0.4210721823E-01    0.4137139186E+00
    0.4900000000E+03    0.8173386379E-01    0.2484896133E+00    0.5062044110E-01    0.4309043799E-01    0.4166977260E+00
    0.1000000000E+03    0.3190682001E-01    0.2170597429E+00    0.3418435915E-01    0.1681250583E-01    0.2790241036E+00
    0.3000000000E+03    0.6215079267E-01    0.2524599744E+00    0.4623651774E-01    0.3275954660E-01    0.3794506055E+00
    0.5000000000E+03    0.8265228443E-01    0.2480876432E+00    0.5078797742E-01    0.4357503021E-01    0.4181325160E+00
    0.7000000000E+03    0.9952895516E-01    0.2388809974E+00    0.5343315571E-01    0.5248104715E-01    0.4409222064E+00
    0.9000000000E+03    0.1143598659E+00    0.2291374384E+00    0.5523542989E-01    0.6030936915E-01    0.4566202470E+00
    0.1100000000E+04    0.1278021030E+00    0.2197627305E+00    0.5657199438E-01    0.6740612546E-01    0.4683706777E+00
    0.1300000000E+04    0.1401976890E+00    0.2109587854E+00    0.5761725544E-01    0.7395147584E-01    0.4776358570E+00
    0.1500000000E+04    0.1517502384E+00    0.2027417074E+00    0.5846515365E-01    0.8005266657E-01    0.4852075181E+00
    0.1700000000E+04    0.1625926069E+00    0.1950755085E+00    0.5917163620E-01    0.8577966814E-01    0.4915593590E+00
    0.1900000000E+04    0.1728175931E+00    0.1879121865E+00    0.5977249412E-01    0.9118134920E-01    0.4969956913E+00
    0.2100000000E+04    0.1824935893E+00    0.1812044053E+00    0.6029188729E-01    0.9629372203E-01    0.5017227309E+00
    0.2300000000E+04    0.1916732635E+00    0.1749092492E+00    0.6074682178E-01    0.1011445164E+00    0.5058861593E+00
    0.2500000000E+04    0.2003986922E+00    0.1689889231E+00    0.6114967744E-01    0.1057558838E+00    0.5095923901E+00
    0.2700000000E+04    0.2087045500E+00    0.1634104317E+00    0.6150971866E-01    0.1101460779E+00    0.5129213156E+00
    0.2900000000E+04    0.2166201705E+00    0.1581449709E+00    0.6183404040E-01    0.1143305402E+00    0.5159343094E+00
    0.3100000000E+04    0.2241709222E+00    0.1531672963E+00    0.6212818386E-01    0.1183226246E+00    0.5186794469E+00
    0.3300000000E+04    0.2313791506E+00    0.1484551584E+00    0.6239655039E-01    0.1221340943E+00    0.5211950230E+00
    0.3500000000E+04    0.2382648395E+00    0.1439888242E+00    0.6264268766E-01    0.1257754691E+00    0.5235119903E+00
    0.3700000000E+04    0.2448460827E+00    0.1397506833E+00    0.6286949232E-01    0.1292562748E+00    0.5256556890E+00
    0.3900000000E+04    0.2511394277E+00    0.1357249251E+00    0.6307935661E-01    0.1325852238E+00    0.5276471008E+00
    0.4100000000E+04    0.2571601304E+00    0.1318972765E+00    0.6327427639E-01    0.1357703487E+00    0.5295037748E+00
    0.4300000000E+04    0.2629223458E+00    0.1282547881E+00    0.6345593209E-01    0.1388191037E+00    0.5312405231E+00
    0.4500000000E+04    0.2684392745E+00    0.1247856575E+00    0.6362575023E-01    0.1417384405E+00    0.5328699498E+00
    0.4700000000E+04    0.2737232756E+00    0.1214790856E+00    0.6378495092E-01    0.1445348689E+00    0.5344028602E+00
    0.4900000000E+04    0.2787859569E+00    0.1183251554E+00    0.6393458482E-01    0.1472145030E+00    0.5358485800E+00
    0.1000000000E+04    0.1212287198E+00    0.2243841672E+00    0.5594834033E-01    0.6393557694E-01    0.4628751746E+00
    0.3000000000E+04    0.2204396963E+00    0.1556216151E+00    0.6198458646E-01    0.1163498618E+00    0.5173377703E+00
    0.5000000000E+04    0.2812377426E+00    0.1168025482E+00    0.6400610353E-01    0.1485123344E+00    0.5365413166E+00
    0.7000000000E+04    0.3210026977E+00    0.9248109227E-01    0.6510253974E-01    0.1695747589E+00    0.5473219473E+00
    0.9000000000E+04    0.3479145078E+00    0.7630349222E-01    0.6581160701E-01    0.1838482796E+00    0.5544908784E+00
    0.1100000000E+05    0.3667516810E+00    0.6501890483E-01    0.6631566400E-01    0.1938535379E+00    0.5597126967E+00
    0.1300000000E+05    0.3803686809E+00    0.5682098249E-01    0.6669601862E-01    0.2010973163E+00    0.5637412347E+00
    0.1500000000E+05    0.3905047823E+00    0.5065433980E-01    0.6699511482E-01    0.2064982918E+00    0.5669750802E+00
    0.1700000000E+05    0.3982480247E+00    0.4587558384E-01    0.6723754281E-01    0.2106314913E+00    0.5696477191E+00
    0.1900000000E+05    0.4042990482E+00    0.4207709210E-01    0.6743865145E-01    0.2138674067E+00    0.5719063320E+00
    0.2100000000E+05    0.4091221751E+00    0.3899145106E-01    0.6760857466E-01    0.2164517012E+00    0.5738489750E+00
    0.2300000000E+05    0.4130335702E+00    0.3643764309E-01    0.6775430357E-01    0.2185517425E+00    0.5755438687E+00
    0.2500000000E+05    0.4162539531E+00    0.3428964994E-01    0.6788083463E-01    0.2202844370E+00    0.5770401614E+00
    0.2700000000E+05    0.4189409472E+00    0.3245751846E-01    0.6799184405E-01    0.2217333185E+00    0.5783742933E+00
    0.2900000000E+05    0.4212094512E+00    0.3087558734E-01    0.6809010328E-01    0.2229593134E+00    0.5795739403E+00
    0.3100000000E+05    0.4231447870E+00    0.2949495830E-01    0.6817774542E-01    0.2240076909E+00    0.5806605565E+00
    0.3300000000E+05    0.4248113845E+00    0.2827855671E-01    0.6825644175E-01    0.2249126562E+00    0.5816510687E+00
    0.3500000000E+05    0.4262586408E+00    0.2719781443E-01    0.6832752217E-01    0.2257004497E+00    0.5825590377E+00
    0.3700000000E+05    0.4275249533E+00    0.2623039422E-01    0.6839205947E-01    0.2263914810E+00    0.5833954752E+00
    0.3900000000E+05    0.4286405450E+00    0.2535859804E-01    0.6845092949E-01    0.2270018253E+00    0.5841694299E+00
    0.4100000000E+05    0.4296294792E+00    0.2456823372E-01    0.6850485507E-01    0.2275442899E+00    0.5848884171E+00
    0.4300000000E+05    0.4305111159E+00    0.2384779487E-01    0.6855443851E-01    0.2280291853E+00    0.5855587378E+00
    0.4500000000E+05    0.4313011820E+00    0.2318785838E-01    0.6860018607E-01    0.2284648934E+00    0.5861857211E+00
    0.4700000000E+05    0.4320125667E+00    0.2258063575E-01    0.6864252670E-01    0.2288582878E+00    0.5867739090E+00
    0.4900000000E+05    0.4326559198E+00    0.2201963467E-01    0.6868182642E-01    0.2292150522E+00    0.5873272004E+00
    0.1000000000E+05    0.3581305412E+00    0.7018574075E-01    0.6608286972E-01    0.1892726172E+00    0.5572861383E+00
    0.3000000000E+05    0.4222143281E+00    0.3016265927E-01    0.6813513784E-01    0.2235033492E+00    0.5801302289E+00
    0.5000000000E+05    0.4329549148E+00    0.2175472796E-01    0.6870043595E-01    0.2293812097E+00    0.5875918306E+00
    0.7000000000E+05    0.4368940902E+00    0.1792518091E-01    0.6897023128E-01    0.2315999900E+00    0.5916722989E+00
    0.9000000000E+05    0.4388594903E+00    0.1563610089E-01    0.6912652640E-01    0.2327422882E+00    0.5943512214E+00
    0.1100000000E+06    0.4400144284E+00    0.1407085487E-01    0.6922665886E-01    0.2334359661E+00    0.5962885863E+00
    0.1300000000E+06    0.4407654320E+00    0.1291222222E-01    0.6929481107E-01    0.2339025245E+00    0.5977767623E+00
    0.1500000000E+06    0.4412884812E+00    0.1200876323E-01    0.6934303341E-01    0.2342388111E+00    0.5989681169E+00
    0.1700000000E+06    0.4416712547E+00    0.1127795369E-01    0.6937802685E-01    0.2344935832E+00    0.5999510094E+00
    0.1900000000E+06    0.4419620215E+00    0.1067048264E-01    0.6940382048E-01    0.2346939724E+00    0.6007807310E+00
    0.2100000000E+06    0.4421894144E+00    0.1015481653E-01    0.6942298319E-01    0.2348562507E+00    0.6014939151E+00
    0.2300000000E+06    0.4423714321E+00    0.9709713331E-02    0.6943722950E-01    0.2349907620E+00    0.6021159391E+00
    0.2500000000E+06    0.4425199256E+00    0.9320262595E-02    0.6944774643E-01    0.2351043952E+00    0.6026650234E+00
    0.2700000000E+06    0.4426429997E+00    0.8975643180E-02    0.6945538089E-01    0.2352019156E+00    0.6031546396E+00
    0.2900000000E+06    0.4427463751E+00    0.8667782080E-02    0.6946075243E-01    0.2352867264E+00    0.6035949957E+00
    0.3100000000E+06    0.4428341989E+00    0.8390515183E-02    0.6946432408E-01    0.2353613234E+00    0.6039939897E+00
    0.3300000000E+06    0.4429095472E+00    0.8139041931E-02    0.6946644819E-01    0.2354275801E+00    0.6043578428E+00
    0.3500000000E+06    0.4429747472E+00    0.7909559374E-02    0.6946739716E-01    0.2354869303E+00    0.6046915322E+00
    0.3700000000E+06    0.4430315905E+00    0.7699009741E-02    0.6946738453E-01    0.2355404915E+00    0.6049990948E+00
    0.3900000000E+06    0.4430814777E+00    0.7504902078E-02    0.6946657971E-01    0.2355891472E+00    0.6052838445E+00
    0.4100000000E+06    0.4431255185E+00    0.7325183539E-02    0.6946511857E-01    0.2356336062E+00    0.6055485309E+00
    0.4300000000E+06    0.4431646029E+00    0.7158144747E-02    0.6946311111E-01    0.2356744437E+00    0.6057954580E+00
    0.4500000000E+06    0.4431994527E+00    0.7002349060E-02    0.6946064715E-01    0.2357121316E+00    0.6060265728E+00
    0.4700000000E+06    0.4432306588E+00    0.6856578892E-02    0.6945780063E-01    0.2357470612E+00    0.6062435339E+00
    0.4900000000E+06    0.4432587097E+00    0.6719794432E-02    0.6945463281E-01    0.2357795596E+00    0.6064477642E+00
    0.1000000000E+06    0.4395045399E+00    0.1478864368E-01    0.6918168613E-01    0.2331268731E+00    0.5953895944E+00
    0.3000000000E+06    0.4427920181E+00    0.8525651382E-02    0.6946273905E-01    0.2353251725E+00    0.6037992407E+00
    0.5000000000E+06    0.4432716818E+00    0.6654487457E-02    0.6945294471E-01    0.2357949850E+00    0.6065454961E+00
    0.7000000000E+06    0.4434359154E+00    0.5656749123E-02    0.6941110685E-01    0.2360246501E+00    0.6080578038E+00
    0.9000000000E+06    0.4435076940E+00    0.5011162756E-02    0.6936454350E-01    0.2361694427E+00    0.6090580702E+00
    0.1100000000E+07    0.4435417893E+00    0.4549119876E-02    0.6931910436E-01    0.2362728601E+00    0.6097866492E+00
    0.1300000000E+07    0.4435576322E+00    0.4197130608E-02    0.6927622733E-01    0.2363523677E+00    0.6103501010E+00
    0.1500000000E+07    0.4435636577E+00    0.3917305645E-02    0.6923614601E-01    0.2364165142E+00    0.6108040508E+00
    0.1700000000E+07    0.4435640319E+00    0.3687847139E-02    0.6919873005E-01    0.2364700507E+00    0.6111808218E+00
    0.1900000000E+07    0.4435610052E+00    0.3495200942E-02    0.6916374680E-01    0.2365158636E+00    0.6115006851E+00
    0.2100000000E+07    0.4435558757E+00    0.3330433773E-02    0.6913094987E-01    0.2365558252E+00    0.6117771025E+00
    0.2300000000E+07    0.4435494300E+00    0.3187384966E-02    0.6910010905E-01    0.2365912139E+00    0.6120194211E+00
    0.2500000000E+07    0.4435421632E+00    0.3061648810E-02    0.6907101895E-01    0.2366229376E+00    0.6122343679E+00
    0.2700000000E+07    0.4435343961E+00    0.2949979380E-02    0.6904349968E-01    0.2366516631E+00    0.6124269278E+00
    0.2900000000E+07    0.4435263414E+00    0.2849924987E-02    0.6901739478E-01    0.2366778934E+00    0.6126008871E+00
    0.3100000000E+07    0.4435181426E+00    0.2759594342E-02    0.6899256829E-01    0.2367020168E+00    0.6127591817E+00
    0.3300000000E+07    0.4435098975E+00    0.2677501769E-02    0.6896890191E-01    0.2367243386E+00    0.6129041292E+00
    0.3500000000E+07    0.4435016732E+00    0.2602461691E-02    0.6894629239E-01    0.2367451035E+00    0.6130375880E+00
    0.3700000000E+07    0.4434935160E+00    0.2533514854E-02    0.6892464923E-01    0.2367645100E+00    0.6131610685E+00
    0.3900000000E+07    0.4434854573E+00    0.2469875589E-02    0.6890389286E-01    0.2367827214E+00    0.6132758133E+00
    0.4100000000E+07    0.4434775184E+00    0.2410893368E-02    0.6888395293E-01    0.2367998736E+00    0.6133828553E+00
    0.4300000000E+07    0.4434697134E+00    0.2356024279E-02    0.6886476706E-01    0.2368160810E+00    0.6134830620E+00
    0.4500000000E+07    0.4434620510E+00    0.2304809546E-02    0.6884627968E-01    0.2368314403E+00    0.6135771678E+00
    0.4700000000E+07    0.4434545363E+00    0.2256859105E-02    0.6882844110E-01    0.2368460346E+00    0.6136657994E+00
    0.4900000000E+07    0.4434471714E+00    0.2211838906E-02    0.6881120673E-01    0.2368599353E+00    0.6137494958E+00
    0.1000000000E+07    0.4435278431E+00    0.4763000238E-02    0.6934154766E-01    0.2362249216E+00    0.6094479395E+00
    0.3000000000E+07    0.4435222530E+00    0.2803645132E-02    0.6900482951E-01    0.2366901977E+00    0.6126818353E+00
    0.5000000000E+07    0.4434435453E+00    0.2190336079E-02    0.6880280342E-01    0.2368666452E+00    0.6137896415E+00
    0.7000000000E+07    0.4433784390E+00    0.1861311529E-02    0.6865852576E-01    0.2369759351E+00    0.6144194897E+00
    0.9000000000E+07    0.4433250037E+00    0.1648101925E-02    0.6854597101E-01    0.2370550577E+00    0.6148465719E+00
    0.1100000000E+08    0.4432800344E+00    0.1495465873E-02    0.6845353633E-01    0.2371170376E+00    0.6151641258E+00
    0.1300000000E+08    0.4432413103E+00    0.1379199988E-02    0.6837503186E-01    0.2371679654E+00    0.6154140876E+00
    0.1500000000E+08    0.4432073420E+00    0.1286795451E-02    0.6830675858E-01    0.2372111778E+00    0.6156186222E+00
    0.1700000000E+08    0.4431771025E+00    0.1211047158E-02    0.6824632613E-01    0.2372486997E+00    0.6157907530E+00
    0.1900000000E+08    0.4431498602E+00    0.1147472163E-02    0.6819209876E-01    0.2372818522E+00    0.6159387296E+00
    0.2100000000E+08    0.4431250772E+00    0.1093115003E-02    0.6814290700E-01    0.2373115446E+00    0.6160680808E+00
    0.2300000000E+08    0.4431023474E+00    0.1045937310E-02    0.6809788526E-01    0.2373384292E+00    0.6161826783E+00
    0.2500000000E+08    0.4430813572E+00    0.1004481404E-02    0.6805637460E-01    0.2373629901E+00    0.6162853306E+00
    0.2700000000E+08    0.4430618593E+00    0.9676734272E-03    0.6801786163E-01    0.2373855963E+00    0.6163781341E+00
