  Pressure (Pa) 22mC5-400 (mol/kg) 2mC6-400 (mol/kg) 3mC6-400 (mol/kg) 23mC5-400 (mol/kg) C7-400 (mol/kg)
    0.1000000000E+01    0.5305682137E-03    0.3136263615E-02    0.2591290646E-02    0.1863236097E-03    0.1345677702E-01
    0.3000000000E+01    0.1578659043E-02    0.8974219860E-02    0.7372606898E-02    0.5543921416E-03    0.3829623905E-01
    0.5000000000E+01    0.2609814114E-02    0.1430459606E-01    0.1168571123E-01    0.9165166162E-03    0.6071506047E-01
    0.7000000000E+01    0.3624562621E-02    0.1919895220E-01    0.1559736706E-01    0.1272882746E-02    0.8105787669E-01
    0.9000000000E+01    0.4623411081E-02    0.2371559249E-01    0.1916216410E-01    0.1623668287E-02    0.9960652998E-01
    0.1100000000E+02    0.5606844557E-02    0.2790250563E-01    0.2242517571E-01    0.1969043465E-02    0.1165937700E+00
    0.1300000000E+02    0.6575327793E-02    0.3179955766E-01    0.2542394905E-01    0.2309171379E-02    0.1322135155E+00
    0.1500000000E+02    0.7529306285E-02    0.3544014962E-01    0.2819001563E-01    0.2644208369E-02    0.1466286439E+00
    0.1700000000E+02    0.8469207277E-02    0.3885248596E-01    0.3075005183E-01    0.2974304374E-02    0.1599769762E+00
    0.1900000000E+02    0.9395440699E-02    0.4206055610E-01    0.3312678066E-01    0.3299603256E-02    0.1723759287E+00
    0.2100000000E+02    0.1030840005E-01    0.4508490183E-01    0.3533967954E-01    0.3620243109E-02    0.1839261635E+00
    0.2300000000E+02    0.1120846322E-01    0.4794322300E-01    0.3740554114E-01    0.3936356555E-02    0.1947144820E+00
    0.2500000000E+02    0.1209599328E-01    0.5065085991E-01    0.3933892173E-01    0.4248071009E-02    0.2048161384E+00
    0.2700000000E+02    0.1297133920E-01    0.5322118053E-01    0.4115250253E-01    0.4555508938E-02    0.2142967038E+00
    0.2900000000E+02    0.1383483651E-01    0.5566589378E-01    0.4285738302E-01    0.4858788105E-02    0.2232135803E+00
    0.3100000000E+02    0.1468680803E-01    0.5799530481E-01    0.4446332092E-01    0.5158021794E-02    0.2316172391E+00
    0.3300000000E+02    0.1552756439E-01    0.6021852436E-01    0.4597892958E-01    0.5453319025E-02    0.2395522400E+00
    0.3500000000E+02    0.1635740464E-01    0.6234364161E-01    0.4741184160E-01    0.5744784751E-02    0.2470580753E+00
    0.3700000000E+02    0.1717661682E-01    0.6437786764E-01    0.4876884502E-01    0.6032520058E-02    0.2541698731E+00
    0.3900000000E+02    0.1798547843E-01    0.6632765529E-01    0.5005599742E-01    0.6316622337E-02    0.2609189871E+00
    0.4100000000E+02    0.1878425694E-01    0.6819879970E-01    0.5127872203E-01    0.6597185454E-02    0.2673334918E+00
    0.4300000000E+02    0.1957321022E-01    0.6999652315E-01    0.5244188894E-01    0.6874299916E-02    0.2734386026E+00
    0.4500000000E+02    0.2035258701E-01    0.7172554694E-01    0.5354988420E-01    0.7148053017E-02    0.2792570325E+00
    0.4700000000E+02    0.2112262730E-01    0.7339015263E-01    0.5460666875E-01    0.7418528983E-02    0.2848092964E+00
    0.4900000000E+02    0.2188356273E-01    0.7499423436E-01    0.5561582894E-01    0.7685809110E-02    0.2901139723E+00
    0.1000000000E+02    0.5117025182E-02    0.2584760458E-01    0.2082888967E-01    0.1797021815E-02    0.1082823981E+00
    0.3000000000E+02    0.1426224331E-01    0.5684441684E-01    0.4367215670E-01    0.5008903723E-02    0.2274766490E+00
    0.5000000000E+02    0.2226068631E-01    0.7577470091E-01    0.5610357903E-01    0.7818275369E-02    0.2926787966E+00
    0.7000000000E+02    0.2937568936E-01    0.8892404087E-01    0.6400850609E-01    0.1031755542E-01    0.3343467745E+00
    0.9000000000E+02    0.3579285849E-01    0.9867949136E-01    0.6952161116E-01    0.1257188510E-01    0.3635474311E+00
    0.1100000000E+03    0.4164710517E-01    0.1062016475E+00    0.7360930564E-01    0.1462861494E-01    0.3852995469E+00
    0.1300000000E+03    0.4703907280E-01    0.1121469220E+00    0.7677494351E-01    0.1652306913E-01    0.4022215551E+00
    0.1500000000E+03    0.5204552643E-01    0.1169252208E+00    0.7930752303E-01    0.1828219163E-01    0.4158193210E+00
    0.1700000000E+03    0.5672615291E-01    0.1208105838E+00    0.8138533843E-01    0.1992693253E-01    0.4270234023E+00
    0.1900000000E+03    0.6112814475E-01    0.1239954380E+00    0.8312464297E-01    0.2147385676E-01    0.4364415392E+00
    0.2100000000E+03    0.6528937046E-01    0.1266199631E+00    0.8460464110E-01    0.2293625675E-01    0.4444884586E+00
    0.2300000000E+03    0.6924061733E-01    0.1287892304E+00    0.8588125896E-01    0.2432493947E-01    0.4514574652E+00
    0.2500000000E+03    0.7300721012E-01    0.1305838107E+00    0.8699517438E-01    0.2564879463E-01    0.4575622300E+00
    0.2700000000E+03    0.7661020041E-01    0.1320666514E+00    0.8797672325E-01    0.2691521203E-01    0.4629623486E+00
    0.2900000000E+03    0.8006725453E-01    0.1332877069E+00    0.8884901738E-01    0.2813039325E-01    0.4677795983E+00
    0.3100000000E+03    0.8339332630E-01    0.1342871520E+00    0.8962999300E-01    0.2929958774E-01    0.4721086299E+00
    0.3300000000E+03    0.8660117335E-01    0.1350976719E+00    0.9033379595E-01    0.3042727405E-01    0.4760242045E+00
    0.3500000000E+03    0.8970175816E-01    0.1357461283E+00    0.9097174219E-01    0.3151730061E-01    0.4795862164E+00
    0.3700000000E+03    0.9270456314E-01    0.1362547957E+00    0.9155299868E-01    0.3257299630E-01    0.4828432568E+00
    0.3900000000E+03    0.9561784053E-01    0.1366422930E+00    0.9208507546E-01    0.3359725817E-01    0.4858351920E+00
    0.4100000000E+03    0.9844881252E-01    0.1369242962E+00    0.9257418769E-01    0.3459262168E-01    0.4885950624E+00
    0.4300000000E+03    0.1012038329E+00    0.1371140897E+00    0.9302552610E-01    0.3556131747E-01    0.4911505016E+00
    0.4500000000E+03    0.1038885187E+00    0.1372229984E+00    0.9344346192E-01    0.3650531752E-01    0.4935248137E+00
    0.4700000000E+03    0.1065078581E+00    0.1372607297E+00    0.9383170425E-01    0.3742637305E-01    0.4957377999E+00
    0.4900000000E+03    0.1090662995E+00    0.1372356460E+00    0.9419342218E-01    0.3832604586E-01    0.4978064026E+00
    0.1000000000E+03    0.3878339750E-01    0.1026709956E+00    0.7170531114E-01    0.1362251081E-01    0.3751552956E+00
    0.3000000000E+03    0.8174581957E-01    0.1338129344E+00    0.8924995996E-01    0.2872044268E-01    0.4700000701E+00
    0.5000000000E+03    0.1103239446E+00    0.1372018489E+00    0.9436520122E-01    0.3876830648E-01    0.4987911992E+00
    0.7000000000E+03    0.1330582669E+00    0.1345551313E+00    0.9690508560E-01    0.4676426838E-01    0.5135734945E+00
    0.9000000000E+03    0.1524896972E+00    0.1300422201E+00    0.9844792386E-01    0.5360041373E-01    0.5228271511E+00
    0.1100000000E+04    0.1697077533E+00    0.1249416836E+00    0.9949296440E-01    0.5965927408E-01    0.5292721933E+00
    0.1300000000E+04    0.1852824800E+00    0.1197363870E+00    0.1002511632E+00    0.6514099189E-01    0.5340724110E+00
    0.1500000000E+04    0.1995531622E+00    0.1146293258E+00    0.1008279659E+00    0.7016468622E-01    0.5378163248E+00
    0.1700000000E+04    0.2127412358E+00    0.1097091830E+00    0.1012822856E+00    0.7480809681E-01    0.5408363863E+00
    0.1900000000E+04    0.2250017202E+00    0.1050131041E+00    0.1016497667E+00    0.7912564387E-01    0.5433358789E+00
    0.2100000000E+04    0.2364493249E+00    0.1005534201E+00    0.1019533103E+00    0.8315759471E-01    0.5454467502E+00
    0.2300000000E+04    0.2471728131E+00    0.9633002972E-01    0.1022083374E+00    0.8693510765E-01    0.5472587379E+00
    0.2500000000E+04    0.2572434164E+00    0.9233651408E-01    0.1024256320E+00    0.9048318658E-01    0.5488352081E+00
    0.2700000000E+04    0.2667200167E+00    0.8856330579E-01    0.1026129733E+00    0.9382250042E-01    0.5502223083E+00
    0.2900000000E+04    0.2756524719E+00    0.8499939165E-01    0.1027761208E+00    0.9697055094E-01    0.5514545268E+00
    0.3100000000E+04    0.2840838268E+00    0.8163324973E-01    0.1029194344E+00    0.9994244889E-01    0.5525582107E+00
    0.3300000000E+04    0.2920518284E+00    0.7845337142E-01    0.1030462775E+00    0.1027514460E+00    0.5535538721E+00
    0.3500000000E+04    0.2995899940E+00    0.7544855149E-01    0.1031592883E+00    0.1054093100E+00    0.5544577445E+00
    0.3700000000E+04    0.3067283831E+00    0.7260804494E-01    0.1032605666E+00    0.1079265953E+00    0.5552828624E+00
    0.3900000000E+04    0.3134941692E+00    0.6992164616E-01    0.1033518049E+00    0.1103128437E+00    0.5560398259E+00
    0.4100000000E+04    0.3199120727E+00    0.6737972188E-01    0.1034343837E+00    0.1125767365E+00    0.5567373534E+00
    0.4300000000E+04    0.3260046967E+00    0.6497321681E-01    0.1035094400E+00    0.1147262122E+00    0.5573826897E+00
    0.4500000000E+04    0.3317927924E+00    0.6269364295E-01    0.1035779197E+00    0.1167685595E+00    0.5579819098E+00
    0.4700000000E+04    0.3372954732E+00    0.6053305943E-01    0.1036406158E+00    0.1187104924E+00    0.5585401511E+00
    0.4900000000E+04    0.3425303911E+00    0.5848404716E-01    0.1036981985E+00    0.1205582122E+00    0.5590617901E+00
    0.1000000000E+04    0.1613323189E+00    0.1275254323E+00    0.9901587108E-01    0.5671187971E-01    0.5263083783E+00
    0.3000000000E+04    0.2799283178E+00    0.8329232300E-01    0.1028500269E+00    0.9847765219E-01    0.5520210379E+00
    0.5000000000E+04    0.3450525922E+00    0.5749919757E-01    0.1037252539E+00    0.1214485527E+00    0.5593100783E+00
    0.7000000000E+04    0.3848250524E+00    0.4221278311E-01    0.1041001348E+00    0.1354990340E+00    0.5630370632E+00
    0.9000000000E+04    0.4106365645E+00    0.3259835454E-01    0.1042985358E+00    0.1446326015E+00    0.5653761184E+00
    0.1100000000E+05    0.4282676127E+00    0.2621011175E-01    0.1044149177E+00    0.1508825401E+00    0.5670125871E+00
    0.1300000000E+05    0.4408442576E+00    0.2176058780E-01    0.1044869689E+00    0.1553492157E+00    0.5682381309E+00
    0.1500000000E+05    0.4501472972E+00    0.1853599666E-01    0.1045326476E+00    0.1586598745E+00    0.5691998439E+00
    0.1700000000E+05    0.4572412118E+00    0.1612002313E-01    0.1045615633E+00    0.1611896931E+00    0.5699806702E+00
    0.1900000000E+05    0.4627905919E+00    0.1425839908E-01    0.1045792988E+00    0.1631730535E+00    0.5706312655E+00
    0.2100000000E+05    0.4672266675E+00    0.1278936660E-01    0.1045893028E+00    0.1647621344E+00    0.5711844854E+00
    0.2300000000E+05    0.4708388832E+00    0.1160627732E-01    0.1045938095E+00    0.1660591442E+00    0.5716626682E+00
    0.2500000000E+05    0.4738273688E+00    0.1063658381E-01    0.1045943224E+00    0.1671347988E+00    0.5720815889E+00
    0.2700000000E+05    0.4763341536E+00    0.9829563215E-02    0.1045918850E+00    0.1680393175E+00    0.5724527409E+00
    0.2900000000E+05    0.4784623766E+00    0.9148884196E-02    0.1045872399E+00    0.1688091932E+00    0.5727847195E+00
    0.3100000000E+05    0.4802884751E+00    0.8567960839E-02    0.1045809276E+00    0.1694714901E+00    0.5730840969E+00
    0.3300000000E+05    0.4818701319E+00    0.8066964623E-02    0.1045733483E+00    0.1700466461E+00    0.5733559956E+00
    0.3500000000E+05    0.4832515872E+00    0.7630852916E-02    0.1045648030E+00    0.1705503477E+00    0.5736044743E+00
    0.3700000000E+05    0.4844672677E+00    0.7248037883E-02    0.1045555212E+00    0.1709948106E+00    0.5738327966E+00
    0.3900000000E+05    0.4855443178E+00    0.6909468873E-02    0.1045456798E+00    0.1713896737E+00    0.5740436201E+00
    0.4100000000E+05    0.4865043949E+00    0.6607987807E-02    0.1045354166E+00    0.1717426333E+00    0.5742391342E+00
    0.4300000000E+05    0.4873649669E+00    0.6337868511E-02    0.1045248398E+00    0.1720599017E+00    0.5744211609E+00
    0.4500000000E+05    0.4881402622E+00    0.6094482310E-02    0.1045140348E+00    0.1723465431E+00    0.5745912309E+00
    0.4700000000E+05    0.4888419755E+00    0.5874051763E-02    0.1045030699E+00    0.1726067232E+00    0.5747506405E+00
    0.4900000000E+05    0.4894797997E+00    0.5673466906E-02    0.1044919993E+00    0.1728438974E+00    0.5749004960E+00
    0.1000000000E+05    0.4202370629E+00    0.2909961437E-01    0.1043639375E+00    0.1480344119E+00    0.5662590065E+00
    0.3000000000E+05    0.4794092190E+00    0.8847323774E-02    0.1045842644E+00    0.1691523819E+00    0.5729381344E+00
    0.5000000000E+05    0.4897773364E+00    0.5579792390E-02    0.1044864385E+00    0.1729547788E+00    0.5749721435E+00
    0.7000000000E+05    0.4937797834E+00    0.4304114543E-02    0.1043766454E+00    0.1744669464E+00    0.5760770499E+00
    0.9000000000E+05    0.4958565265E+00    0.3614837107E-02    0.1042759295E+00    0.1752760198E+00    0.5768065652E+00
    0.1100000000E+06    0.4971153379E+00    0.3175299508E-02    0.1041857218E+00    0.1757818721E+00    0.5773392404E+00
    0.1300000000E+06    0.4979551189E+00    0.2865933973E-02    0.1041047709E+00    0.1761299474E+00    0.5777529424E+00
    0.1500000000E+06    0.4985529411E+00    0.2633628991E-02    0.1040316057E+00    0.1763854738E+00    0.5780879320E+00
    0.1700000000E+06    0.4989989286E+00    0.2451099667E-02    0.1039649591E+00    0.1765819978E+00    0.5783674698E+00
    0.1900000000E+06    0.4993436190E+00    0.2302819775E-02    0.1039038060E+00    0.1767385300E+00    0.5786060931E+00
    0.2100000000E+06    0.4996174782E+00    0.2179258870E-02    0.1038473272E+00    0.1768666522E+00    0.5788134366E+00
    0.2300000000E+06    0.4998399338E+00    0.2074215669E-02    0.1037948656E+00    0.1769738293E+00    0.5789961840E+00
    0.2500000000E+06    0.5000239432E+00    0.1983464366E-02    0.1037458892E+00    0.1770650929E+00    0.5791591441E+00
    0.2700000000E+06    0.5001784717E+00    0.1904015445E-02    0.1036999632E+00    0.1771439619E+00    0.5793058816E+00
    0.2900000000E+06    0.5003099150E+00    0.1833687551E-02    0.1036567281E+00    0.1772129735E+00    0.5794391057E+00
    0.3100000000E+06    0.5004229556E+00    0.1770847145E-02    0.1036158840E+00    0.1772740048E+00    0.5795609191E+00
    0.3300000000E+06    0.5005210983E+00    0.1714243618E-02    0.1035771781E+00    0.1773284760E+00    0.5796729839E+00
    0.3500000000E+06    0.5006070174E+00    0.1662901153E-02    0.1035403954E+00    0.1773774822E+00    0.5797766346E+00
    0.3700000000E+06    0.5006827881E+00    0.1616045674E-02    0.1035053520E+00    0.1774218820E+00    0.5798729572E+00
    0.3900000000E+06    0.5007500449E+00    0.1573054177E-02    0.1034718890E+00    0.1774623590E+00    0.5799628467E+00
    0.4100000000E+06    0.5008100920E+00    0.1533418795E-02    0.1034398683E+00    0.1774994642E+00    0.5800470483E+00
    0.4300000000E+06    0.5008639828E+00    0.1496720779E-02    0.1034091692E+00    0.1775336473E+00    0.5801261890E+00
    0.4500000000E+06    0.5009125766E+00    0.1462611322E-02    0.1033796856E+00    0.1775652791E+00    0.5802008004E+00
    0.4700000000E+06    0.5009565818E+00    0.1430797200E-02    0.1033513237E+00    0.1775946683E+00    0.5802713370E+00
    0.4900000000E+06    0.5009965872E+00    0.1401029861E-02    0.1033240002E+00    0.1776220741E+00    0.5803381903E+00
    0.1000000000E+06    0.4965553015E+00    0.3373713001E-02    0.1042295744E+00    0.1755548939E+00    0.5770913640E+00
    0.3000000000E+06    0.5003684938E+00    0.1801417071E-02    0.1036360240E+00    0.1772443890E+00    0.5795013260E+00
    0.5000000000E+06    0.5010152472E+00    0.1386846169E-02    0.1033107043E+00    0.1776351031E+00    0.5803703436E+00
    0.7000000000E+06    0.5012646688E+00    0.1172259240E-02    0.1030848496E+00    0.1778306163E+00    0.5808828776E+00
    0.9000000000E+06    0.5013897550E+00    0.1035261028E-02    0.1029113169E+00    0.1779552227E+00    0.5812403057E+00
    0.1100000000E+07    0.5014611441E+00    0.9379606894E-03    0.1027702044E+00    0.1780447512E+00    0.5815121633E+00
    0.1300000000E+07    0.5015049683E+00    0.8642039263E-03    0.1026512005E+00    0.1781138241E+00    0.5817302532E+00
    0.1500000000E+07    0.5015330176E+00    0.8057733643E-03    0.1025482593E+00    0.1781696747E+00    0.5819116352E+00
    0.1700000000E+07    0.5015513392E+00    0.7579843122E-03    0.1024575267E+00    0.1782163534E+00    0.5820664662E+00
    0.1900000000E+07    0.5015633279E+00    0.7179428498E-03    0.1023763925E+00    0.1782563344E+00    0.5822012578E+00
    0.2100000000E+07    0.5015710218E+00    0.6837511159E-03    0.1023030060E+00    0.1782912295E+00    0.5823204215E+00
    0.2300000000E+07    0.5015757098E+00    0.6541053859E-03    0.1022360067E+00    0.1783221428E+00    0.5824270777E+00
    0.2500000000E+07    0.5015782414E+00    0.6280762498E-03    0.1021743646E+00    0.1783498605E+00    0.5825235108E+00
    0.2700000000E+07    0.5015791951E+00    0.6049807353E-03    0.1021172813E+00    0.1783749613E+00    0.5826114411E+00
    0.2900000000E+07    0.5015789766E+00    0.5843041059E-03    0.1020641250E+00    0.1783978824E+00    0.5826921946E+00
    0.3100000000E+07    0.5015778766E+00    0.5656500178E-03    0.1020143871E+00    0.1784189616E+00    0.5827668144E+00
    0.3300000000E+07    0.5015761079E+00    0.5487076264E-03    0.1019676521E+00    0.1784384653E+00    0.5828361349E+00
    0.3500000000E+07    0.5015738286E+00    0.5332292215E-03    0.1019235763E+00    0.1784566068E+00    0.5829008334E+00
    0.3700000000E+07    0.5015711581E+00    0.5190146261E-03    0.1018818718E+00    0.1784735593E+00    0.5829614673E+00
    0.3900000000E+07    0.5015681877E+00    0.5059000656E-03    0.1018422953E+00    0.1784894656E+00    0.5830185003E+00
    0.4100000000E+07    0.5015649878E+00    0.4937500677E-03    0.1018046391E+00    0.1785044446E+00    0.5830723222E+00
    0.4300000000E+07    0.5015616135E+00    0.4824514627E-03    0.1017687247E+00    0.1785185961E+00    0.5831232636E+00
    0.4500000000E+07    0.5015581078E+00    0.4719088701E-03    0.1017343973E+00    0.1785320050E+00    0.5831716074E+00
    0.4700000000E+07    0.5015545051E+00    0.4620412537E-03    0.1017015221E+00    0.1785447439E+00    0.5832175972E+00
    0.4900000000E+07    0.5015508325E+00    0.4527792596E-03    0.1016699807E+00    0.1785568752E+00    0.5832614444E+00
    0.1000000000E+07    0.5014300192E+00    0.9829294873E-03    0.1028374900E+00    0.1780032020E+00    0.5813844493E+00
    0.3000000000E+07    0.5015785220E+00    0.5747453736E-03    0.1020388566E+00    0.1784086342E+00    0.5827302149E+00
    0.5000000000E+07    0.5015489770E+00    0.4483563704E-03    0.1016546771E+00    0.1785627303E+00    0.5832826232E+00
    0.7000000000E+07    0.5015116686E+00    0.3807476894E-03    0.1013986922E+00    0.1786580182E+00    0.5836283191E+00
    0.9000000000E+07    0.5014772058E+00    0.3370006899E-03    0.1012063038E+00    0.1787268990E+00    0.5838786759E+00
    0.1100000000E+08    0.5014464825E+00    0.3057106493E-03    0.1010520752E+00    0.1787807885E+00    0.5840743441E+00
    0.1300000000E+08    0.5014190914E+00    0.2818912949E-03    0.1009233278E+00    0.1788250230E+00    0.5842346354E+00
    0.1500000000E+08    0.5013944940E+00    0.2629691459E-03    0.1008128150E+00    0.1788625236E+00    0.5843702126E+00
    0.1700000000E+08    0.5013722206E+00    0.2474633216E-03    0.1007160025E+00    0.1788950620E+00    0.5844875732E+00
    0.1900000000E+08    0.5013518918E+00    0.2344531133E-03    0.1006298627E+00    0.1789237930E+00    0.5845909637E+00
    0.2100000000E+08    0.5013332065E+00    0.2233318823E-03    0.1005522732E+00    0.1789495110E+00    0.5846833089E+00
    0.2300000000E+08    0.5013159245E+00    0.2136814317E-03    0.1004816883E+00    0.1789727856E+00    0.5847667075E+00
    0.2500000000E+08    0.5012998530E+00    0.2052028183E-03    0.1004169468E+00    0.1789940391E+00    0.5848427153E+00
    0.2700000000E+08    0.5012848351E+00    0.1976758878E-03    0.1003571548E+00    0.1790135934E+00    0.5849125173E+00
