  Pressure (Pa) 22mC5-400 (mol/kg) 2mC6-400 (mol/kg) 3mC6-400 (mol/kg) 23mC5-400 (mol/kg) C7-400 (mol/kg)
    0.1000000000E+01    0.5309528023E-03    0.1579146269E-02    0.1567822282E-02    0.7458346953E-03    0.1017688407E-01
    0.3000000000E+01    0.1582044688E-02    0.4577019565E-02    0.4530595883E-02    0.2222324649E-02    0.2941380041E-01
    0.5000000000E+01    0.2619015033E-02    0.7379807235E-02    0.7283555396E-02    0.3678991850E-02    0.4729498853E-01
    0.7000000000E+01    0.3642209470E-02    0.1000730361E-01    0.9848498957E-02    0.5116321399E-02    0.6396108009E-01
    0.9000000000E+01    0.4651962114E-02    0.1247661910E-01    0.1224429677E-01    0.6534782239E-02    0.7953383162E-01
    0.1100000000E+02    0.5648596043E-02    0.1480262253E-01    0.1448736715E-01    0.7934827817E-02    0.9411919201E-01
    0.1300000000E+02    0.6632423749E-02    0.1699829898E-01    0.1659206261E-01    0.9316896725E-02    0.1078097904E+00
    0.1500000000E+02    0.7603747566E-02    0.1907504128E-01    0.1857098519E-01    0.1068141330E-01    0.1206869681E+00
    0.1700000000E+02    0.8562860087E-02    0.2104288903E-01    0.2043524572E-01    0.1202878822E-01    0.1328224502E+00
    0.1900000000E+02    0.9510044549E-02    0.2291072592E-01    0.2219467834E-01    0.1335941901E-01    0.1442797273E+00
    0.2100000000E+02    0.1044557521E-01    0.2468644341E-01    0.2385801898E-01    0.1467369061E-01    0.1551152069E+00
    0.2300000000E+02    0.1136971769E-01    0.2637707745E-01    0.2543305471E-01    0.1597197583E-01    0.1653791755E+00
    0.2500000000E+02    0.1228272934E-01    0.2798892312E-01    0.2692674937E-01    0.1725463587E-01    0.1751166087E+00
    0.2700000000E+02    0.1318485951E-01    0.2952763131E-01    0.2834534972E-01    0.1852202074E-01    0.1843678559E+00
    0.2900000000E+02    0.1407634993E-01    0.3099829061E-01    0.2969447559E-01    0.1977446968E-01    0.1931692211E+00
    0.3100000000E+02    0.1495743493E-01    0.3240549701E-01    0.3097919673E-01    0.2101231162E-01    0.2015534586E+00
    0.3300000000E+02    0.1582834176E-01    0.3375341340E-01    0.3220409862E-01    0.2223586552E-01    0.2095501978E+00
    0.3500000000E+02    0.1668929086E-01    0.3504582063E-01    0.3337333909E-01    0.2344544078E-01    0.2171863077E+00
    0.3700000000E+02    0.1754049609E-01    0.3628616154E-01    0.3449069714E-01    0.2464133757E-01    0.2244862121E+00
    0.3900000000E+02    0.1838216500E-01    0.3747757887E-01    0.3555961519E-01    0.2582384720E-01    0.2314721622E+00
    0.4100000000E+02    0.1921449904E-01    0.3862294829E-01    0.3658323584E-01    0.2699325243E-01    0.2381644735E+00
    0.4300000000E+02    0.2003769380E-01    0.3972490704E-01    0.3756443387E-01    0.2814982779E-01    0.2445817326E+00
    0.4500000000E+02    0.2085193921E-01    0.4078587893E-01    0.3850584429E-01    0.2929383987E-01    0.2507409776E+00
    0.4700000000E+02    0.2165741976E-01    0.4180809631E-01    0.3940988684E-01    0.3042554762E-01    0.2566578566E+00
    0.4900000000E+02    0.2245431469E-01    0.4279361922E-01    0.4027878762E-01    0.3154520261E-01    0.2623467672E+00
    0.1000000000E+02    0.5151899145E-02    0.1365668280E-01    0.1338398144E-01    0.7237079182E-02    0.8694385999E-01
    0.3000000000E+02    0.1451817874E-01    0.3170955573E-01    0.3034458951E-01    0.2039519636E-01    0.1974115603E+00
    0.5000000000E+02    0.2284959716E-01    0.4327322113E-01    0.4070070728E-01    0.3210058699E-01    0.2651099222E+00
    0.7000000000E+02    0.3034441178E-01    0.5133323116E-01    0.4771565138E-01    0.4263152397E-01    0.3111317439E+00
    0.9000000000E+02    0.3715162303E-01    0.5722307469E-01    0.5280056093E-01    0.5219714929E-01    0.3446093102E+00
    0.1100000000E+03    0.4338544804E-01    0.6164790739E-01    0.5666672494E-01    0.6095778603E-01    0.3701513634E+00
    0.1300000000E+03    0.4913497257E-01    0.6502547797E-01    0.5971234168E-01    0.6903848418E-01    0.3903411028E+00
    0.1500000000E+03    0.5447075544E-01    0.6762387200E-01    0.6217810576E-01    0.7653828955E-01    0.4067418351E+00
    0.1700000000E+03    0.5944945137E-01    0.6962543949E-01    0.6421829515E-01    0.8353673195E-01    0.4203567854E+00
    0.1900000000E+03    0.6411711285E-01    0.7115973930E-01    0.6593648870E-01    0.9009845936E-01    0.4318602952E+00
    0.2100000000E+03    0.6851159140E-01    0.7232195920E-01    0.6740488989E-01    0.9627660834E-01    0.4417229934E+00
    0.2300000000E+03    0.7266431261E-01    0.7318390438E-01    0.6867542045E-01    0.1021152953E+00    0.4502837077E+00
    0.2500000000E+03    0.7660160755E-01    0.7380090407E-01    0.6978640696E-01    0.1076514853E+00    0.4577928395E+00
    0.2700000000E+03    0.8034572503E-01    0.7421634170E-01    0.7076677909E-01    0.1129164130E+00    0.4644396161E+00
    0.2900000000E+03    0.8391561048E-01    0.7446473260E-01    0.7163879819E-01    0.1179366759E+00    0.4703698157E+00
    0.3100000000E+03    0.8732751220E-01    0.7457387741E-01    0.7241988453E-01    0.1227350852E+00    0.4756976458E+00
    0.3300000000E+03    0.9059545791E-01    0.7456640643E-01    0.7312387292E-01    0.1273313347E+00    0.4805139113E+00
    0.3500000000E+03    0.9373163311E-01    0.7446091100E-01    0.7376189560E-01    0.1317425324E+00    0.4848917615E+00
    0.3700000000E+03    0.9674668402E-01    0.7427278746E-01    0.7434301544E-01    0.1359836250E+00    0.4888908152E+00
    0.3900000000E+03    0.9964996214E-01    0.7401487671E-01    0.7487468854E-01    0.1400677417E+00    0.4925601765E+00
    0.4100000000E+03    0.1024497232E+00    0.7369795583E-01    0.7536310748E-01    0.1440064736E+00    0.4959406737E+00
    0.4300000000E+03    0.1051532902E+00    0.7333112046E-01    0.7581345989E-01    0.1478101019E+00    0.4990665474E+00
    0.4500000000E+03    0.1077671876E+00    0.7292208561E-01    0.7623012577E-01    0.1514877874E+00    0.5019667390E+00
    0.4700000000E+03    0.1102972535E+00    0.7247742462E-01    0.7661682979E-01    0.1550477264E+00    0.5046658874E+00
    0.4900000000E+03    0.1127487319E+00    0.7200276066E-01    0.7697676036E-01    0.1584972819E+00    0.5071851068E+00
    0.1000000000E+03    0.4033414106E-01    0.5958791415E-01    0.5485618817E-01    0.5666957397E-01    0.3581790395E+00
    0.3000000000E+03    0.8564038538E-01    0.7453519010E-01    0.7203977105E-01    0.1203623151E+00    0.4731028799E+00
    0.5000000000E+03    0.1139464968E+00    0.7175571368E-01    0.7714755884E-01    0.1601827662E+00    0.5083830314E+00
    0.7000000000E+03    0.1347131841E+00    0.6610730321E-01    0.7965958825E-01    0.1894132437E+00    0.5262277375E+00
    0.9000000000E+03    0.1510334866E+00    0.6025789080E-01    0.8116794995E-01    0.2123965949E+00    0.5372231030E+00
    0.1100000000E+04    0.1643354008E+00    0.5486687350E-01    0.8217849254E-01    0.2311379873E+00    0.5447709119E+00
    0.1300000000E+04    0.1754240046E+00    0.5007737024E-01    0.8290433845E-01    0.2467680171E+00    0.5503195331E+00
    0.1500000000E+04    0.1848132792E+00    0.4587681236E-01    0.8345148772E-01    0.2600085841E+00    0.5545965738E+00
    0.1700000000E+04    0.1928585457E+00    0.4220614672E-01    0.8387883451E-01    0.2713588276E+00    0.5580101993E+00
    0.1900000000E+04    0.1998186371E+00    0.3899686474E-01    0.8422181223E-01    0.2811824090E+00    0.5608082706E+00
    0.2100000000E+04    0.2058889419E+00    0.3618388651E-01    0.8450306154E-01    0.2897539003E+00    0.5631505930E+00
    0.2300000000E+04    0.2112207426E+00    0.3370960552E-01    0.8473774776E-01    0.2972859325E+00    0.5651451466E+00
    0.2500000000E+04    0.2159334076E+00    0.3152457281E-01    0.8493642256E-01    0.3039463111E+00    0.5668677022E+00
    0.2700000000E+04    0.2201225224E+00    0.2958693637E-01    0.8510666102E-01    0.3098694329E+00    0.5683731072E+00
    0.2900000000E+04    0.2238655521E+00    0.2786148753E-01    0.8525404589E-01    0.3151642361E+00    0.5697021107E+00
    0.3100000000E+04    0.2272259141E+00    0.2631865837E-01    0.8538278454E-01    0.3199199193E+00    0.5708856653E+00
    0.3300000000E+04    0.2302559822E+00    0.2493360137E-01    0.8549610929E-01    0.3242101607E+00    0.5719477342E+00
    0.3500000000E+04    0.2329993464E+00    0.2368539226E-01    0.8559654534E-01    0.3280962922E+00    0.5729071799E+00
    0.3700000000E+04    0.2354925406E+00    0.2255635908E-01    0.8568609465E-01    0.3316297264E+00    0.5737790675E+00
    0.3900000000E+04    0.2377663812E+00    0.2153152582E-01    0.8576636517E-01    0.3348538368E+00    0.5745755853E+00
    0.4100000000E+04    0.2398470147E+00    0.2059815437E-01    0.8583866345E-01    0.3378054306E+00    0.5753067080E+00
    0.4300000000E+04    0.2417567471E+00    0.1974536890E-01    0.8590406227E-01    0.3405159134E+00    0.5759806836E+00
    0.4500000000E+04    0.2435147054E+00    0.1896384784E-01    0.8596345078E-01    0.3430122195E+00    0.5766043956E+00
    0.4700000000E+04    0.2451373688E+00    0.1824557113E-01    0.8601757224E-01    0.3453175584E+00    0.5771836379E+00
    0.4900000000E+04    0.2466389997E+00    0.1758361250E-01    0.8606705282E-01    0.3474520206E+00    0.5777233245E+00
    0.1000000000E+04    0.1580022304E+00    0.5749028765E-01    0.8171845750E-01    0.2222139648E+00    0.5413127977E+00
    0.3000000000E+04    0.2255900639E+00    0.2706889912E-01    0.8532052476E-01    0.3176045405E+00    0.5703104332E+00
    0.5000000000E+04    0.2473483663E+00    0.1727184430E-01    0.8609022200E-01    0.3484607215E+00    0.5779796705E+00
    0.7000000000E+04    0.2574710970E+00    0.1289156340E-01    0.8640468596E-01    0.3628904495E+00    0.5817874662E+00
    0.9000000000E+04    0.2631747510E+00    0.1047707965E-01    0.8656367770E-01    0.3710656211E+00    0.5841410958E+00
    0.1100000000E+05    0.2667882325E+00    0.8958837789E-02    0.8665228671E-01    0.3762746217E+00    0.5857727159E+00
    0.1300000000E+05    0.2692644074E+00    0.7915800293E-02    0.8670374430E-01    0.3798652429E+00    0.5869869444E+00
    0.1500000000E+05    0.2710588352E+00    0.7152810028E-02    0.8673359525E-01    0.3824830079E+00    0.5879352054E+00
    0.1700000000E+05    0.2724146466E+00    0.6568173560E-02    0.8675001937E-01    0.3844730600E+00    0.5887020759E+00
    0.1900000000E+05    0.2734726588E+00    0.6104044984E-02    0.8675769437E-01    0.3860356727E+00    0.5893388726E+00
    0.2100000000E+05    0.2743197463E+00    0.5725206550E-02    0.8675946624E-01    0.3872946358E+00    0.5898787232E+00
    0.2300000000E+05    0.2750122638E+00    0.5409024580E-02    0.8675715132E-01    0.3883304053E+00    0.5903440707E+00
    0.2500000000E+05    0.2755882916E+00    0.5140297647E-02    0.8675195367E-01    0.3891974537E+00    0.5907507190E+00
    0.2700000000E+05    0.2760744479E+00    0.4908436286E-02    0.8674469629E-01    0.3899339327E+00    0.5911101548E+00
    0.2900000000E+05    0.2764898771E+00    0.4705833609E-02    0.8673595605E-01    0.3905673368E+00    0.5914309509E+00
    0.3100000000E+05    0.2768486880E+00    0.4526880310E-02    0.8672614583E-01    0.3911179691E+00    0.5917196506E+00
    0.3300000000E+05    0.2771614987E+00    0.4367345776E-02    0.8671556626E-01    0.3916011408E+00    0.5919813446E+00
    0.3500000000E+05    0.2774364485E+00    0.4223976045E-02    0.8670443950E-01    0.3920286127E+00    0.5922200607E+00
    0.3700000000E+05    0.2776798780E+00    0.4094224949E-02    0.8669293166E-01    0.3924095652E+00    0.5924390326E+00
    0.3900000000E+05    0.2778967972E+00    0.3976069682E-02    0.8668116820E-01    0.3927512677E+00    0.5926408900E+00
    0.4100000000E+05    0.2780912163E+00    0.3867881378E-02    0.8666924464E-01    0.3930595503E+00    0.5928277963E+00
    0.4300000000E+05    0.2782663814E+00    0.3768332466E-02    0.8665723417E-01    0.3933391428E+00    0.5930015497E+00
    0.4500000000E+05    0.2784249479E+00    0.3676329131E-02    0.8664519312E-01    0.3935939221E+00    0.5931636587E+00
    0.4700000000E+05    0.2785691081E+00    0.3590961270E-02    0.8663316495E-01    0.3938270960E+00    0.5933153996E+00
    0.4900000000E+05    0.2787006879E+00    0.3511464870E-02    0.8662118325E-01    0.3940413412E+00    0.5934578604E+00
    0.1000000000E+05    0.2651660181E+00    0.9640144087E-02    0.8661408450E-01    0.3739323906E+00    0.5850228468E+00
    0.3000000000E+05    0.2766756283E+00    0.4613691997E-02    0.8673116373E-01    0.3908519452E+00    0.5915789659E+00
    0.5000000000E+05    0.2787622488E+00    0.3473712461E-02    0.8661521818E-01    0.3941420834E+00    0.5935259078E+00
    0.7000000000E+05    0.2796015034E+00    0.2911761939E-02    0.8650213422E-01    0.3955592411E+00    0.5945697544E+00
    0.9000000000E+05    0.2800433318E+00    0.2560902063E-02    0.8640289963E-01    0.3963584850E+00    0.5952528950E+00
    0.1100000000E+06    0.2803105817E+00    0.2314750160E-02    0.8631606454E-01    0.3968768211E+00    0.5957484673E+00
    0.1300000000E+06    0.2804865429E+00    0.2129566558E-02    0.8623928854E-01    0.3972431566E+00    0.5961314012E+00
    0.1500000000E+06    0.2806091808E+00    0.1983600426E-02    0.8617062153E-01    0.3975176109E+00    0.5964402020E+00
    0.1700000000E+06    0.2806981832E+00    0.1864640161E-02    0.8610856592E-01    0.3977320803E+00    0.5966970034E+00
    0.1900000000E+06    0.2807647347E+00    0.1765224130E-02    0.8605198021E-01    0.3979051020E+00    0.5969155788E+00
    0.2100000000E+06    0.2808156366E+00    0.1680498456E-02    0.8599998512E-01    0.3980482086E+00    0.5971050230E+00
    0.2300000000E+06    0.2808552491E+00    0.1607149459E-02    0.8595189317E-01    0.3981689648E+00    0.5972716245E+00
    0.2500000000E+06    0.2808864883E+00    0.1542826365E-02    0.8590715839E-01    0.3982725467E+00    0.5974198949E+00
    0.2700000000E+06    0.2809113731E+00    0.1485808474E-02    0.8586534086E-01    0.3983626214E+00    0.5975531698E+00
    0.2900000000E+06    0.2809313420E+00    0.1434803084E-02    0.8582608130E-01    0.3984418628E+00    0.5976739786E+00
    0.3100000000E+06    0.2809474452E+00    0.1388817451E-02    0.8578908273E-01    0.3985122688E+00    0.5977842802E+00
    0.3300000000E+06    0.2809604659E+00    0.1347074714E-02    0.8575409692E-01    0.3985753644E+00    0.5978856201E+00
    0.3500000000E+06    0.2809709983E+00    0.1308956958E-02    0.8572091439E-01    0.3986323346E+00    0.5979792368E+00
    0.3700000000E+06    0.2809795011E+00    0.1273965646E-02    0.8568935675E-01    0.3986841151E+00    0.5980661368E+00
    0.3900000000E+06    0.2809863328E+00    0.1241693465E-02    0.8565927086E-01    0.3987314555E+00    0.5981471481E+00
    0.4100000000E+06    0.2809917774E+00    0.1211803898E-02    0.8563052429E-01    0.3987749635E+00    0.5982229593E+00
    0.4300000000E+06    0.2809960623E+00    0.1184016127E-02    0.8560300176E-01    0.3988151376E+00    0.5982941488E+00
    0.4500000000E+06    0.2809993712E+00    0.1158093695E-02    0.8557660229E-01    0.3988523909E+00    0.5983612066E+00
    0.4700000000E+06    0.2810018542E+00    0.1133835871E-02    0.8555123693E-01    0.3988870687E+00    0.5984245511E+00
    0.4900000000E+06    0.2810036348E+00    0.1111070990E-02    0.8552682695E-01    0.3989194621E+00    0.5984845423E+00
    0.1000000000E+06    0.2801919679E+00    0.2428230658E-02    0.8635808389E-01    0.3966422873E+00    0.5955182043E+00
    0.3000000000E+06    0.2809398227E+00    0.1411235641E-02    0.8580731592E-01    0.3984780656E+00    0.5977303379E+00
    0.5000000000E+06    0.2810042944E+00    0.1100201400E-02    0.8551495803E-01    0.3989348810E+00    0.5985133794E+00
    0.7000000000E+06    0.2809980969E+00    0.9341395808E-03    0.8531417928E-01    0.3991676084E+00    0.5989716895E+00
    0.9000000000E+06    0.2809761113E+00    0.8267570946E-03    0.8516084461E-01    0.3993171177E+00    0.5992898195E+00
    0.1100000000E+07    0.2809503644E+00    0.7499736465E-03    0.8503665579E-01    0.3994250193E+00    0.5995309983E+00
    0.1300000000E+07    0.2809244083E+00    0.6915309725E-03    0.8493222893E-01    0.3995085069E+00    0.5997239986E+00
    0.1500000000E+07    0.2808994108E+00    0.6451074467E-03    0.8484209956E-01    0.3995761500E+00    0.5998841976E+00
    0.1700000000E+07    0.2808757331E+00    0.6070670500E-03    0.8476280188E-01    0.3996327713E+00    0.6000207244E+00
    0.1900000000E+07    0.2808534367E+00    0.5751498179E-03    0.8469199797E-01    0.3996813270E+00    0.6001394176E+00
    0.2100000000E+07    0.2808324683E+00    0.5478669879E-03    0.8462803531E-01    0.3997237486E+00    0.6002442252E+00
    0.2300000000E+07    0.2808127339E+00    0.5241923904E-03    0.8456970222E-01    0.3997613611E+00    0.6003379349E+00
    0.2500000000E+07    0.2807941291E+00    0.5033925474E-03    0.8451608360E-01    0.3997951102E+00    0.6004225847E+00
    0.2700000000E+07    0.2807765522E+00    0.4849273305E-03    0.8446647126E-01    0.3998256925E+00    0.6004997072E+00
    0.2900000000E+07    0.2807599089E+00    0.4683889639E-03    0.8442030583E-01    0.3998536351E+00    0.6005704824E+00
    0.3100000000E+07    0.2807441141E+00    0.4534630193E-03    0.8437713769E-01    0.3998793457E+00    0.6006358376E+00
    0.3300000000E+07    0.2807290917E+00    0.4399026046E-03    0.8433660004E-01    0.3999031458E+00    0.6006965138E+00
    0.3500000000E+07    0.2807147741E+00    0.4275107763E-03    0.8429838964E-01    0.3999252932E+00    0.6007531122E+00
    0.3700000000E+07    0.2807011013E+00    0.4161282459E-03    0.8426225295E-01    0.3999459974E+00    0.6008061268E+00
    0.3900000000E+07    0.2806880202E+00    0.4056245952E-03    0.8422797581E-01    0.3999654312E+00    0.6008559685E+00
    0.4100000000E+07    0.2806754835E+00    0.3958918743E-03    0.8419537566E-01    0.3999837383E+00    0.6009029825E+00
    0.4300000000E+07    0.2806634489E+00    0.3868398543E-03    0.8416429562E-01    0.4000010399E+00    0.6009474613E+00
    0.4500000000E+07    0.2806518789E+00    0.3783924511E-03    0.8413459987E-01    0.4000174385E+00    0.6009896549E+00
    0.4700000000E+07    0.2806407398E+00    0.3704849948E-03    0.8410617006E-01    0.4000330222E+00    0.6010297788E+00
    0.4900000000E+07    0.2806300012E+00    0.3630621164E-03    0.8407890242E-01    0.4000478668E+00    0.6010680197E+00
    0.1000000000E+07    0.2809633971E+00    0.7855081055E-03    0.8509582019E-01    0.3993748973E+00    0.5994177801E+00
    0.3000000000E+07    0.2807519104E+00    0.4607412150E-03    0.8439837171E-01    0.3998667476E+00    0.6006037875E+00
    0.5000000000E+07    0.2806247735E+00    0.3595172199E-03    0.8406567539E-01    0.4000550328E+00    0.6010864858E+00
    0.7000000000E+07    0.2805358606E+00    0.3053130613E-03    0.8384470015E-01    0.4001717850E+00    0.6013874749E+00
    0.9000000000E+07    0.2804675629E+00    0.2702270202E-03    0.8367893100E-01    0.4002563301E+00    0.6016049708E+00
    0.1100000000E+08    0.2804121213E+00    0.2451278810E-03    0.8354620899E-01    0.4003225593E+00    0.6017746882E+00
    0.1300000000E+08    0.2803654593E+00    0.2260199698E-03    0.8343551781E-01    0.4003769764E+00    0.6019135530E+00
    0.1500000000E+08    0.2803251735E+00    0.2108401331E-03    0.8334057284E-01    0.4004231463E+00    0.6020308936E+00
    0.1700000000E+08    0.2802897289E+00    0.1984008329E-03    0.8325744695E-01    0.4004632334E+00    0.6021323864E+00
    0.1900000000E+08    0.2802580852E+00    0.1879636134E-03    0.8318352109E-01    0.4004986498E+00    0.6022217369E+00
    0.2100000000E+08    0.2802295051E+00    0.1790418642E-03    0.8311696081E-01    0.4005303676E+00    0.6023014951E+00
    0.2300000000E+08    0.2802034470E+00    0.1713001056E-03    0.8305643105E-01    0.4005590842E+00    0.6023734887E+00
    0.2500000000E+08    0.2801795013E+00    0.1644985108E-03    0.8300092982E-01    0.4005853171E+00    0.6024390721E+00
    0.2700000000E+08    0.2801573508E+00    0.1584604547E-03    0.8294968588E-01    0.4006094608E+00    0.6024992759E+00
