  Pressure (Pa) 22mC5-400 (mol/kg) 2mC6-400 (mol/kg) 3mC6-400 (mol/kg) 23mC5-400 (mol/kg) C7-400 (mol/kg)
    0.1000000000E+01    0.5293927316E-03    0.4751931254E-02    0.2101698749E-02    0.6506886922E-03    0.3410477892E-02
    0.3000000000E+01    0.1568361171E-02    0.1385096644E-01    0.6136099267E-02    0.1927722729E-02    0.9958391400E-02
    0.5000000000E+01    0.2581958340E-02    0.2244629456E-01    0.9960711839E-02    0.3173590395E-02    0.1616732442E-01
    0.7000000000E+01    0.3571374169E-02    0.3057720058E-01    0.1359241153E-01    0.4389753239E-02    0.2206450674E-01
    0.9000000000E+01    0.4537722524E-02    0.3827894266E-01    0.1704628784E-01    0.5577579392E-02    0.2767428904E-01
    0.1100000000E+02    0.5482047264E-02    0.4558326169E-01    0.2033587579E-01    0.6738351001E-02    0.3301851525E-01
    0.1300000000E+02    0.6405327722E-02    0.5251881457E-01    0.2347335189E-01    0.7873270967E-02    0.3811683850E-01
    0.1500000000E+02    0.7308483681E-02    0.5911154438E-01    0.2646970122E-01    0.8983469051E-02    0.4298699037E-01
    0.1700000000E+02    0.8192379887E-02    0.6538499799E-01    0.2933486035E-01    0.1007000742E-01    0.4764501131E-01
    0.1900000000E+02    0.9057830161E-02    0.7136059970E-01    0.3207784014E-01    0.1113388569E-01    0.5210544863E-01
    0.2100000000E+02    0.9905601145E-02    0.7705788779E-01    0.3470683165E-01    0.1217604553E-01    0.5638152719E-01
    0.2300000000E+02    0.1073641572E-01    0.8249471987E-01    0.3722929779E-01    0.1319737487E-01    0.6048529719E-01
    0.2500000000E+02    0.1155095612E-01    0.8768745172E-01    0.3965205294E-01    0.1419871173E-01    0.6442776258E-01
    0.2700000000E+02    0.1234986680E-01    0.9265109356E-01    0.4198133229E-01    0.1518084769E-01    0.6821899279E-01
    0.2900000000E+02    0.1313375706E-01    0.9739944695E-01    0.4422285247E-01    0.1614453118E-01    0.7186822059E-01
    0.3100000000E+02    0.1390320342E-01    0.1019452253E+00    0.4638186471E-01    0.1709047037E-01    0.7538392773E-01
    0.3300000000E+02    0.1465875186E-01    0.1063001599E+00    0.4846320153E-01    0.1801933589E-01    0.7877392032E-01
    0.3500000000E+02    0.1540091981E-01    0.1104750940E+00    0.5047131796E-01    0.1893176336E-01    0.8204539524E-01
    0.3700000000E+02    0.1613019808E-01    0.1144800658E+00    0.5241032796E-01    0.1982835564E-01    0.8520499888E-01
    0.3900000000E+02    0.1684705250E-01    0.1183243823E+00    0.5428403662E-01    0.2070968496E-01    0.8825887918E-01
    0.4100000000E+02    0.1755192558E-01    0.1220166857E+00    0.5609596888E-01    0.2157629487E-01    0.9121273182E-01
    0.4300000000E+02    0.1824523796E-01    0.1255650116E+00    0.5784939501E-01    0.2242870208E-01    0.9407184141E-01
    0.4500000000E+02    0.1892738973E-01    0.1289768418E+00    0.5954735339E-01    0.2326739804E-01    0.9684111823E-01
    0.4700000000E+02    0.1959876175E-01    0.1322591518E+00    0.6119267087E-01    0.2409285061E-01    0.9952513101E-01
    0.4900000000E+02    0.2025971676E-01    0.1354184528E+00    0.6278798099E-01    0.2490550536E-01    0.1021281364E+00
    0.1000000000E+02    0.5012575185E-02    0.4197892134E-01    0.1871082708E-01    0.6161270050E-02    0.3037832035E-01
    0.3000000000E+02    0.1352025091E-01    0.9969690293E-01    0.4531236074E-01    0.1661967605E-01    0.7364226134E-01
    0.5000000000E+02    0.2058639657E-01    0.1369538923E+00    0.6356765749E-01    0.2530716706E-01    0.1034005129E+00
    0.7000000000E+02    0.2664909676E-01    0.1624896224E+00    0.7705265851E-01    0.3276187115E-01    0.1254307642E+00
    0.9000000000E+02    0.3197915054E-01    0.1807047131E+00    0.8753263406E-01    0.3931644277E-01    0.1425874321E+00
    0.1100000000E+03    0.3675381459E-01    0.1940609553E+00    0.9598416094E-01    0.4518863555E-01    0.1564508199E+00
    0.1300000000E+03    0.4109450700E-01    0.2040429990E+00    0.1029938379E+00    0.5052761248E-01    0.1679708592E+00
    0.1500000000E+03    0.4508752569E-01    0.2115983189E+00    0.1089367029E+00    0.5543939448E-01    0.1777553138E+00
    0.1700000000E+03    0.4879611367E-01    0.2173589411E+00    0.1140645765E+00    0.6000168065E-01    0.1862125527E+00
    0.1900000000E+03    0.5226782936E-01    0.2217617681E+00    0.1185533635E+00    0.6427290180E-01    0.1936280284E+00
    0.2100000000E+03    0.5553923299E-01    0.2251178194E+00    0.1225300070E+00    0.6829797731E-01    0.2002078774E+00
    0.2300000000E+03    0.5863896995E-01    0.2276540227E+00    0.1260886524E+00    0.7211210279E-01    0.2061050783E+00
    0.2500000000E+03    0.6158985999E-01    0.2295394571E+00    0.1293007615E+00    0.7574331665E-01    0.2114358251E+00
    0.2700000000E+03    0.6441034952E-01    0.2309023960E+00    0.1322216723E+00    0.7921428421E-01    0.2162901527E+00
    0.2900000000E+03    0.6711554419E-01    0.2318416972E+00    0.1348949883E+00    0.8254356624E-01    0.2207390478E+00
    0.3100000000E+03    0.6971795782E-01    0.2324346068E+00    0.1373555942E+00    0.8574653905E-01    0.2248393379E+00
    0.3300000000E+03    0.7222806533E-01    0.2327422255E+00    0.1396317779E+00    0.8883607386E-01    0.2286371324E+00
    0.3500000000E+03    0.7465471763E-01    0.2328134112E+00    0.1417467549E+00    0.9182304647E-01    0.2321702950E+00
    0.3700000000E+03    0.7700545736E-01    0.2326876139E+00    0.1437197837E+00    0.9471672516E-01    0.2354702543E+00
    0.3900000000E+03    0.7928676235E-01    0.2323969676E+00    0.1455669955E+00    0.9752506991E-01    0.2385633504E+00
    0.4100000000E+03    0.8150423567E-01    0.2319678544E+00    0.1473020211E+00    0.1002549658E+00    0.2414718535E+00
    0.4300000000E+03    0.8366275553E-01    0.2314220899E+00    0.1489364704E+00    0.1029124073E+00    0.2442147424E+00
    0.4500000000E+03    0.8576659475E-01    0.2307778314E+00    0.1504803041E+00    0.1055026448E+00    0.2468083095E+00
    0.4700000000E+03    0.8781951686E-01    0.2300502817E+00    0.1519421255E+00    0.1080303032E+00    0.2492666342E+00
    0.4900000000E+03    0.8982485399E-01    0.2292522385E+00    0.1533294107E+00    0.1104994770E+00    0.2516019579E+00
    0.1000000000E+03    0.3442730768E-01    0.1878811550E+00    0.9196886599E-01    0.4232727319E-01    0.1498610259E+00
    0.3000000000E+03    0.6842890159E-01    0.2321773057E+00    0.1361499777E+00    0.8415998480E-01    0.2228296682E+00
    0.5000000000E+03    0.9081061746E-01    0.2288302324E+00    0.1539971766E+00    0.1117132863E+00    0.2527268926E+00
    0.7000000000E+03    0.1086018960E+00    0.2185940892E+00    0.1646648536E+00    0.1336246528E+00    0.2707777787E+00
    0.9000000000E+03    0.1236772217E+00    0.2073615379E+00    0.1720859465E+00    0.1521974823E+00    0.2834355923E+00
    0.1100000000E+04    0.1368308686E+00    0.1965303257E+00    0.1776856412E+00    0.1684077463E+00    0.2930508071E+00
    0.1300000000E+04    0.1484911636E+00    0.1864696189E+00    0.1821311861E+00    0.1827817183E+00    0.3007286933E+00
    0.1500000000E+04    0.1589276336E+00    0.1772466832E+00    0.1857855922E+00    0.1956505423E+00    0.3070728884E+00
    0.1700000000E+04    0.1683288528E+00    0.1688300577E+00    0.1888670103E+00    0.2072459026E+00    0.3124474118E+00
    0.1900000000E+04    0.1768368764E+00    0.1611566302E+00    0.1915161818E+00    0.2177423382E+00    0.3170878613E+00
    0.2100000000E+04    0.1845643355E+00    0.1541560162E+00    0.1938288765E+00    0.2272782480E+00    0.3211550248E+00
    0.2300000000E+04    0.1916037248E+00    0.1477597629E+00    0.1958730243E+00    0.2359673019E+00    0.3247632627E+00
    0.2500000000E+04    0.1980328490E+00    0.1419046885E+00    0.1976984388E+00    0.2439051301E+00    0.3279966516E+00
    0.2700000000E+04    0.2039182436E+00    0.1365338371E+00    0.1993426588E+00    0.2511735237E+00    0.3309187033E+00
    0.2900000000E+04    0.2093174609E+00    0.1315964467E+00    0.2008346250E+00    0.2578432420E+00    0.3335784944E+00
    0.3100000000E+04    0.2142806869E+00    0.1270475240E+00    0.2021970847E+00    0.2639759969E+00    0.3360146824E+00
    0.3300000000E+04    0.2188519414E+00    0.1228472858E+00    0.2034482164E+00    0.2696259265E+00    0.3382582238E+00
    0.3500000000E+04    0.2230700065E+00    0.1189605801E+00    0.2046027586E+00    0.2748407340E+00    0.3403342659E+00
    0.3700000000E+04    0.2269691676E+00    0.1153563385E+00    0.2056728123E+00    0.2796625976E+00    0.3422634947E+00
    0.3900000000E+04    0.2305798202E+00    0.1120070772E+00    0.2066684251E+00    0.2841289154E+00    0.3440631166E+00
    0.4100000000E+04    0.2339289760E+00    0.1088884521E+00    0.2075980228E+00    0.2882729266E+00    0.3457475855E+00
    0.4300000000E+04    0.2370406904E+00    0.1059788679E+00    0.2084687347E+00    0.2921242367E+00    0.3473291511E+00
    0.4500000000E+04    0.2399364281E+00    0.1032591353E+00    0.2092866418E+00    0.2957092658E+00    0.3488182784E+00
    0.4700000000E+04    0.2426353766E+00    0.1007121735E+00    0.2100569687E+00    0.2990516344E+00    0.3502239727E+00
    0.4900000000E+04    0.2451547183E+00    0.9832274988E-01    0.2107842345E+00    0.3021724968E+00    0.3515540341E+00
    0.1000000000E+04    0.1304623350E+00    0.2018614374E+00    0.1750616469E+00    0.1605587150E+00    0.2885377815E+00
    0.3000000000E+04    0.2118506890E+00    0.1292760286E+00    0.2015308150E+00    0.2609731934E+00    0.3348224489E+00
    0.5000000000E+04    0.2463519163E+00    0.9718280421E-01    0.2111329684E+00    0.3036558717E+00    0.3521928611E+00
    0.7000000000E+04    0.2638629861E+00    0.8002631190E-01    0.2165794214E+00    0.3253847913E+00    0.3622680469E+00
    0.9000000000E+04    0.2739561473E+00    0.6942860032E-01    0.2202169603E+00    0.3379511546E+00    0.3691193895E+00
    0.1100000000E+05    0.2803426325E+00    0.6219542500E-01    0.2228700907E+00    0.3459317174E+00    0.3741950193E+00
    0.1300000000E+05    0.2846729551E+00    0.5690036084E-01    0.2249160431E+00    0.3513641555E+00    0.3781639375E+00
    0.1500000000E+05    0.2877671443E+00    0.5282264956E-01    0.2265558076E+00    0.3552619751E+00    0.3813855629E+00
    0.1700000000E+05    0.2900700388E+00    0.4956158528E-01    0.2279078263E+00    0.3581755954E+00    0.3840732770E+00
    0.1900000000E+05    0.2918404689E+00    0.4687709191E-01    0.2290471169E+00    0.3604256557E+00    0.3863631485E+00
    0.2100000000E+05    0.2932378182E+00    0.4461650340E-01    0.2300238475E+00    0.3622098409E+00    0.3883467493E+00
    0.2300000000E+05    0.2943649084E+00    0.4267793997E-01    0.2308730270E+00    0.3636558416E+00    0.3900883587E+00
    0.2500000000E+05    0.2952906945E+00    0.4099066146E-01    0.2316199368E+00    0.3648494015E+00    0.3916346549E+00
    0.2700000000E+05    0.2960629582E+00    0.3950389689E-01    0.2322833557E+00    0.3658500148E+00    0.3930204941E+00
    0.2900000000E+05    0.2967157484E+00    0.3818017499E-01    0.2328775658E+00    0.3667001347E+00    0.3942725205E+00
    0.3100000000E+05    0.2972739209E+00    0.3699117287E-01    0.2334136499E+00    0.3674307953E+00    0.3954115098E+00
    0.3300000000E+05    0.2977560061E+00    0.3591503787E-01    0.2339003584E+00    0.3680651662E+00    0.3964539417E+00
    0.3500000000E+05    0.2981760761E+00    0.3493460543E-01    0.2343447049E+00    0.3686208680E+00    0.3974130845E+00
    0.3700000000E+05    0.2985449936E+00    0.3403618052E-01    0.2347523859E+00    0.3691115231E+00    0.3982997612E+00
    0.3900000000E+05    0.2988712670E+00    0.3320868415E-01    0.2351280824E+00    0.3695478170E+00    0.3991229035E+00
    0.4100000000E+05    0.2991616479E+00    0.3244304293E-01    0.2354756821E+00    0.3699382425E+00    0.3998899588E+00
    0.4300000000E+05    0.2994215572E+00    0.3173174397E-01    0.2357984435E+00    0.3702896288E+00    0.4006071944E+00
    0.4500000000E+05    0.2996553943E+00    0.3106850484E-01    0.2360991214E+00    0.3706075269E+00    0.4012799290E+00
    0.4700000000E+05    0.2998667639E+00    0.3044802508E-01    0.2363800627E+00    0.3708964925E+00    0.4019127108E+00
    0.4900000000E+05    0.3000586461E+00    0.2986579640E-01    0.2366432808E+00    0.3711602978E+00    0.4025094560E+00
    0.1000000000E+05    0.2774815856E+00    0.6550438203E-01    0.2216371022E+00    0.3423528093E+00    0.3718270247E+00
    0.3000000000E+05    0.2970053811E+00    0.3757032713E-01    0.2331522800E+00    0.3670787968E+00    0.3948550287E+00
    0.5000000000E+05    0.3001480720E+00    0.2958779721E-01    0.2367687962E+00    0.3712837702E+00    0.4027953931E+00
    0.7000000000E+05    0.3013437534E+00    0.2533406876E-01    0.2386680807E+00    0.3729794532E+00    0.4072498081E+00
    0.9000000000E+05    0.3019543910E+00    0.2256777293E-01    0.2398688155E+00    0.3738991363E+00    0.4102251070E+00
    0.1100000000E+06    0.3023171049E+00    0.2057690510E-01    0.2407070039E+00    0.3744801767E+00    0.4124054758E+00
    0.1300000000E+06    0.3025532887E+00    0.1905243147E-01    0.2413296706E+00    0.3748831486E+00    0.4140985693E+00
    0.1500000000E+06    0.3027168382E+00    0.1783495947E-01    0.2418124800E+00    0.3751807576E+00    0.4154665512E+00
    0.1700000000E+06    0.3028351589E+00    0.1683259391E-01    0.2421987678E+00    0.3754107162E+00    0.4166043297E+00
    0.1900000000E+06    0.3029235848E+00    0.1598803349E-01    0.2425153226E+00    0.3755945528E+00    0.4175717568E+00
    0.2100000000E+06    0.3029913286E+00    0.1526339876E-01    0.2427796829E+00    0.3757454664E+00    0.4184087548E+00
    0.2300000000E+06    0.3030442392E+00    0.1463248869E-01    0.2430038580E+00    0.3758720095E+00    0.4191431451E+00
    0.2500000000E+06    0.3030861970E+00    0.1407651164E-01    0.2431963729E+00    0.3759799741E+00    0.4197950097E+00
    0.2700000000E+06    0.3031198708E+00    0.1358158461E-01    0.2433634610E+00    0.3760734267E+00    0.4203792690E+00
    0.2900000000E+06    0.3031471516E+00    0.1313719414E-01    0.2435097949E+00    0.3761553097E+00    0.4209072798E+00
    0.3100000000E+06    0.3031694139E+00    0.1273520998E-01    0.2436389515E+00    0.3762278066E+00    0.4213878649E+00
    0.3300000000E+06    0.3031876783E+00    0.1236923070E-01    0.2437537193E+00    0.3762925739E+00    0.4218280012E+00
    0.3500000000E+06    0.3032027171E+00    0.1203413678E-01    0.2438563063E+00    0.3763508916E+00    0.4222332905E+00
    0.3700000000E+06    0.3032151246E+00    0.1172577752E-01    0.2439484857E+00    0.3764037658E+00    0.4226082918E+00
    0.3900000000E+06    0.3032253642E+00    0.1144074672E-01    0.2440316987E+00    0.3764519987E+00    0.4229567595E+00
    0.4100000000E+06    0.3032338026E+00    0.1117621892E-01    0.2441071297E+00    0.3764962381E+00    0.4232818187E+00
    0.4300000000E+06    0.3032407326E+00    0.1092982765E-01    0.2441757615E+00    0.3765370133E+00    0.4235860950E+00
    0.4500000000E+06    0.3032463910E+00    0.1069957359E-01    0.2442384170E+00    0.3765747615E+00    0.4238718140E+00
    0.4700000000E+06    0.3032509707E+00    0.1048375423E-01    0.2442957908E+00    0.3766098471E+00    0.4241408760E+00
    0.4900000000E+06    0.3032546304E+00    0.1028090938E-01    0.2443484732E+00    0.3766425762E+00    0.4243949161E+00
    0.1000000000E+06    0.3021567361E+00    0.2149981262E-01    0.2403216198E+00    0.3742188218E+00    0.4113905338E+00
    0.3000000000E+06    0.3031588395E+00    0.1293133585E-01    0.2435763304E+00    0.3761926176E+00    0.4211530276E+00
    0.5000000000E+06    0.3032561572E+00    0.1018395164E-01    0.2443732160E+00    0.3766581398E+00    0.4245167527E+00
    0.7000000000E+06    0.3032608780E+00    0.8694262918E-02    0.2447131814E+00    0.3768919584E+00    0.4264262687E+00
    0.9000000000E+06    0.3032437154E+00    0.7722606543E-02    0.2448861261E+00    0.3770412347E+00    0.4277178083E+00
    0.1100000000E+07    0.3032203822E+00    0.7023803509E-02    0.2449801960E+00    0.3771486243E+00    0.4286755981E+00
    0.1300000000E+07    0.3031956944E+00    0.6489661718E-02    0.2450314225E+00    0.3772315710E+00    0.4294276015E+00
    0.1500000000E+07    0.3031713549E+00    0.6063971217E-02    0.2450572333E+00    0.3772987113E+00    0.4300414598E+00
    0.1700000000E+07    0.3031479846E+00    0.5714222152E-02    0.2450670384E+00    0.3773548834E+00    0.4305569022E+00
    0.1900000000E+07    0.3031257835E+00    0.5420119768E-02    0.2450663301E+00    0.3774030432E+00    0.4309990804E+00
    0.2100000000E+07    0.3031047774E+00    0.5168247132E-02    0.2450585054E+00    0.3774451168E+00    0.4313848388E+00
    0.2300000000E+07    0.3030849198E+00    0.4949328630E-02    0.2450457611E+00    0.3774824233E+00    0.4317259635E+00
    0.2500000000E+07    0.3030661363E+00    0.4756717367E-02    0.2450295693E+00    0.3775159026E+00    0.4320309966E+00
    0.2700000000E+07    0.3030483445E+00    0.4585507744E-02    0.2450109448E+00    0.3775462463E+00    0.4323063096E+00
    0.2900000000E+07    0.3030314629E+00    0.4431988983E-02    0.2449906034E+00    0.3775739771E+00    0.4325567713E+00
    0.3100000000E+07    0.3030154152E+00    0.4293294790E-02    0.2449690599E+00    0.3775994991E+00    0.4327861787E+00
    0.3300000000E+07    0.3030001313E+00    0.4167171008E-02    0.2449466904E+00    0.3776231307E+00    0.4329975454E+00
    0.3500000000E+07    0.3029855477E+00    0.4051816967E-02    0.2449237728E+00    0.3776451271E+00    0.4331933001E+00
    0.3700000000E+07    0.3029716076E+00    0.3945774404E-02    0.2449005152E+00    0.3776656957E+00    0.4333754264E+00
    0.3900000000E+07    0.3029582598E+00    0.3847847944E-02    0.2448770741E+00    0.3776850074E+00    0.4335455632E+00
    0.4100000000E+07    0.3029454584E+00    0.3757047072E-02    0.2448535682E+00    0.3777032043E+00    0.4337050796E+00
    0.4300000000E+07    0.3029331623E+00    0.3672543039E-02    0.2448300879E+00    0.3777204062E+00    0.4338551297E+00
    0.4500000000E+07    0.3029213346E+00    0.3593636360E-02    0.2448067019E+00    0.3777367147E+00    0.4339966947E+00
    0.4700000000E+07    0.3029099421E+00    0.3519731965E-02    0.2447834627E+00    0.3777522166E+00    0.4341306151E+00
    0.4900000000E+07    0.3028989548E+00    0.3450319948E-02    0.2447604102E+00    0.3777669869E+00    0.4342576165E+00
    0.1000000000E+07    0.3032324039E+00    0.7347618926E-02    0.2449401262E+00    0.3770987703E+00    0.4282283948E+00
    0.3000000000E+07    0.3030233393E+00    0.4360941906E-02    0.2449799557E+00    0.3775869926E+00    0.4326739027E+00
    0.5000000000E+07    0.3028936045E+00    0.3417158747E-02    0.2447489636E+00    0.3777741185E+00    0.4343187226E+00
    0.7000000000E+07    0.3028024942E+00    0.2909070706E-02    0.2445339139E+00    0.3778904358E+00    0.4352945696E+00
    0.9000000000E+07    0.3027324157E+00    0.2579129487E-02    0.2443460215E+00    0.3779748260E+00    0.4359765082E+00
    0.1100000000E+08    0.3026754991E+00    0.2342570608E-02    0.2441812598E+00    0.3780410318E+00    0.4364955489E+00
    0.1300000000E+08    0.3026275860E+00    0.2162170565E-02    0.2440350761E+00    0.3780954945E+00    0.4369119740E+00
    0.1500000000E+08    0.3025862178E+00    0.2018659929E-02    0.2439038543E+00    0.3781417485E+00    0.4372582389E+00
    0.1700000000E+08    0.3025498213E+00    0.1900925374E-02    0.2437848539E+00    0.3781819420E+00    0.4375537129E+00
    0.1900000000E+08    0.3025173295E+00    0.1802045146E-02    0.2436759935E+00    0.3782174778E+00    0.4378108331E+00
    0.2100000000E+08    0.3024879857E+00    0.1717452001E-02    0.2435756700E+00    0.3782493222E+00    0.4380380356E+00
    0.2300000000E+08    0.3024612334E+00    0.1643993581E-02    0.2434826275E+00    0.3782781694E+00    0.4382412919E+00
    0.2500000000E+08    0.3024366519E+00    0.1579414095E-02    0.2433958667E+00    0.3783045346E+00    0.4384249760E+00
    0.2700000000E+08    0.3024139153E+00    0.1522050764E-02    0.2433145801E+00    0.3783288106E+00    0.4385923829E+00
