  Pressure (Pa) 22mC5-400 (mol/kg) 2mC6-400 (mol/kg) 3mC6-400 (mol/kg) 23mC5-400 (mol/kg) C7-400 (mol/kg)
    0.1000000000E+01    0.5305688784E-03    0.3144985002E-02    0.3640171007E-02    0.1863238431E-03    0.1012681046E-01
    0.3000000000E+01    0.1578664903E-02    0.9044663190E-02    0.1042228310E-01    0.5543941991E-03    0.2900080522E-01
    0.5000000000E+01    0.2609830069E-02    0.1448111096E-01    0.1661406010E-01    0.9165222171E-03    0.4623982987E-01
    0.7000000000E+01    0.3624593274E-02    0.1951250239E-01    0.2229095299E-01    0.1272893507E-02    0.6205253361E-01
    0.9000000000E+01    0.4623460763E-02    0.2418734289E-01    0.2751601397E-01    0.1623685727E-02    0.7661330454E-01
    0.1100000000E+02    0.5606917341E-02    0.2854640712E-01    0.3234234667E-01    0.1969069015E-02    0.9006903715E-01
    0.1300000000E+02    0.6575427512E-02    0.3262422939E-01    0.3681499721E-01    0.2309206383E-02    0.1025443557E+00
    0.1500000000E+02    0.7529436545E-02    0.3645026256E-01    0.4097242939E-01    0.2644254094E-02    0.1141456896E+00
    0.1700000000E+02    0.8469371471E-02    0.4004978809E-01    0.4484768709E-01    0.2974362009E-02    0.1249644848E+00
    0.1900000000E+02    0.9395642023E-02    0.4344463725E-01    0.4846931856E-01    0.3299673923E-02    0.1350797577E+00
    0.2100000000E+02    0.1030864151E-01    0.4665376779E-01    0.5186211767E-01    0.3620327864E-02    0.1445601429E+00
    0.2300000000E+02    0.1120874765E-01    0.4969372842E-01    0.5504772297E-01    0.3936456390E-02    0.1534655496E+00
    0.2500000000E+02    0.1209632334E-01    0.5257903602E-01    0.5804510561E-01    0.4248186859E-02    0.1618485095E+00
    0.2700000000E+02    0.1297171739E-01    0.5532248385E-01    0.6087096922E-01    0.4555641683E-02    0.1697552820E+00
    0.2900000000E+02    0.1383526520E-01    0.5793539518E-01    0.6354007995E-01    0.4858938574E-02    0.1772267669E+00
    0.3100000000E+02    0.1468728944E-01    0.6042783326E-01    0.6606554037E-01    0.5158190767E-02    0.1842992614E+00
    0.3300000000E+02    0.1552810060E-01    0.6280877606E-01    0.6845901816E-01    0.5453507234E-02    0.1910050923E+00
    0.3500000000E+02    0.1635799764E-01    0.6508626263E-01    0.7073093800E-01    0.5744992889E-02    0.1973731469E+00
    0.3700000000E+02    0.1717726845E-01    0.6726751616E-01    0.7289064342E-01    0.6032748774E-02    0.2034293202E+00
    0.3900000000E+02    0.1798619043E-01    0.6935904809E-01    0.7494653402E-01    0.6316872242E-02    0.2091968944E+00
    0.4100000000E+02    0.1878503095E-01    0.7136674652E-01    0.7690618218E-01    0.6597457124E-02    0.2146968619E+00
    0.4300000000E+02    0.1957404779E-01    0.7329595159E-01    0.7877643293E-01    0.6874593891E-02    0.2199482016E+00
    0.4500000000E+02    0.2035348958E-01    0.7515152013E-01    0.8056348957E-01    0.7148369806E-02    0.2249681154E+00
    0.4700000000E+02    0.2112359624E-01    0.7693788120E-01    0.8227298757E-01    0.7418869065E-02    0.2297722329E+00
    0.4900000000E+02    0.2188459932E-01    0.7865908409E-01    0.8391005836E-01    0.7686172934E-02    0.2343747877E+00
    0.1000000000E+02    0.5117085921E-02    0.2640405736E-01    0.2997603615E-01    0.1797043137E-02    0.8347104223E-01
    0.3000000000E+02    0.1426269808E-01    0.5919608865E-01    0.6482000600E-01    0.5009063349E-02    0.1808107811E+00
    0.5000000000E+02    0.2226175718E-01    0.7949642311E-01    0.8470291308E-01    0.7818651224E-02    0.2366045837E+00
    0.7000000000E+02    0.2937749630E-01    0.9357848780E-01    0.9770224459E-01    0.1031818960E-01    0.2732399630E+00
    0.9000000000E+02    0.3579546346E-01    0.1039695032E+00    0.1069398073E+00    0.1257279936E-01    0.2993824533E+00
    0.1100000000E+03    0.4165053648E-01    0.1119307916E+00    0.1138842534E+00    0.1462981921E-01    0.3191147864E+00
    0.1300000000E+03    0.4704333895E-01    0.1181829217E+00    0.1193207338E+00    0.1652456639E-01    0.3346227958E+00
    0.1500000000E+03    0.5205062431E-01    0.1231767158E+00    0.1237086952E+00    0.1828398079E-01    0.3471874059E+00
    0.1700000000E+03    0.5673207269E-01    0.1272129372E+00    0.1273357563E+00    0.1992901014E-01    0.3576116294E+00
    0.1900000000E+03    0.6113487292E-01    0.1305019474E+00    0.1303916485E+00    0.2147621809E-01    0.3664259294E+00
    0.2100000000E+03    0.6529689169E-01    0.1331962763E+00    0.1330068792E+00    0.2293889640E-01    0.3739956941E+00
    0.2300000000E+03    0.6924891559E-01    0.1354096997E+00    0.1352743436E+00    0.2432785183E-01    0.3805813646E+00
    0.2500000000E+03    0.7301626943E-01    0.1372290499E+00    0.1372620769E+00    0.2565197409E-01    0.3863739433E+00
    0.2700000000E+03    0.7662000522E-01    0.1387218604E+00    0.1390211233E+00    0.2691865313E-01    0.3915169252E+00
    0.2900000000E+03    0.8007779003E-01    0.1399414976E+00    0.1405905793E+00    0.2813409079E-01    0.3961203634E+00
    0.3100000000E+03    0.8340457850E-01    0.1409307105E+00    0.1420009309E+00    0.2930353682E-01    0.4002701868E+00
    0.3300000000E+03    0.8661312917E-01    0.1417241494E+00    0.1432763258E+00    0.3043147008E-01    0.4040345465E+00
    0.3500000000E+03    0.8971440546E-01    0.1423501932E+00    0.1444361570E+00    0.3152173933E-01    0.4074682452E+00
    0.3700000000E+03    0.9271789069E-01    0.1428322980E+00    0.1454961914E+00    0.3257767377E-01    0.4106158950E+00
    0.3900000000E+03    0.9563183798E-01    0.1431900111E+00    0.1464693895E+00    0.3360217075E-01    0.4135142134E+00
    0.4100000000E+03    0.9846347035E-01    0.1434397428E+00    0.1473665103E+00    0.3459776605E-01    0.4161937194E+00
    0.4300000000E+03    0.1012191424E+00    0.1435953621E+00    0.1481965661E+00    0.3556669056E-01    0.4186800075E+00
    0.4500000000E+03    0.1039044719E+00    0.1436686621E+00    0.1489671667E+00    0.3651091654E-01    0.4209947168E+00
    0.4700000000E+03    0.1065244477E+00    0.1436697263E+00    0.1496847863E+00    0.3743219545E-01    0.4231562784E+00
    0.4900000000E+03    0.1090835189E+00    0.1436072208E+00    0.1503549699E+00    0.3833208931E-01    0.4251804972E+00
    0.1000000000E+03    0.3878641358E-01    0.1082004351E+00    0.1106392644E+00    0.1362356936E-01    0.3098845769E+00
    0.3000000000E+03    0.8175671511E-01    0.1404625758E+00    0.1413140066E+00    0.2872426658E-01    0.3982473602E+00
    0.5000000000E+03    0.1103414766E+00    0.1435545087E+00    0.1506737929E+00    0.3877445965E-01    0.4261454392E+00
    0.7000000000E+03    0.1330818258E+00    0.1405295157E+00    0.1554346658E+00    0.4677253711E-01    0.4407356343E+00
    0.9000000000E+03    0.1525190742E+00    0.1356757092E+00    0.1583784439E+00    0.5361072507E-01    0.4499815659E+00
    0.1100000000E+04    0.1697429184E+00    0.1302810994E+00    0.1604016492E+00    0.5967161779E-01    0.4564803682E+00
    0.1300000000E+04    0.1853234767E+00    0.1248224325E+00    0.1618881586E+00    0.6515538370E-01    0.4613559242E+00
    0.1500000000E+04    0.1996000571E+00    0.1194952799E+00    0.1630318879E+00    0.7018114980E-01    0.4651815433E+00
    0.1700000000E+04    0.2127940917E+00    0.1143820328E+00    0.1639421465E+00    0.7482665461E-01    0.4682833836E+00
    0.1900000000E+04    0.2250605831E+00    0.1095148723E+00    0.1646855849E+00    0.7914631236E-01    0.4708620703E+00
    0.2100000000E+04    0.2365142171E+00    0.1049022690E+00    0.1653053220E+00    0.8318038213E-01    0.4730484932E+00
    0.2300000000E+04    0.2472437314E+00    0.1005411093E+00    0.1658305754E+00    0.8696001313E-01    0.4749320692E+00
    0.2500000000E+04    0.2573203314E+00    0.9642260260E-01    0.1662818946E+00    0.9051020008E-01    0.4765761876E+00
    0.2700000000E+04    0.2668028742E+00    0.9253529277E-01    0.1666741828E+00    0.9385160320E-01    0.4780271761E+00
    0.2900000000E+04    0.2757411951E+00    0.8886664545E-01    0.1670185293E+00    0.9700171626E-01    0.4793197677E+00
    0.3100000000E+04    0.2841783186E+00    0.8540389969E-01    0.1673233676E+00    0.9997564290E-01    0.4804805729E+00
    0.3300000000E+04    0.2921519742E+00    0.8213452708E-01    0.1675952330E+00    0.1027866287E+00    0.4815303631E+00
    0.3500000000E+04    0.2996956644E+00    0.7904647479E-01    0.1678392734E+00    0.1054464360E+00    0.4824856166E+00
    0.3700000000E+04    0.3068394363E+00    0.7612828691E-01    0.1680596024E+00    0.1079656150E+00    0.4833595937E+00
    0.3900000000E+04    0.3136104534E+00    0.7336915654E-01    0.1682595491E+00    0.1103537039E+00    0.4841630997E+00
    0.4100000000E+04    0.3200334285E+00    0.7075893789E-01    0.1684418384E+00    0.1126193814E+00    0.4849050393E+00
    0.4300000000E+04    0.3261309590E+00    0.6828813571E-01    0.1686087235E+00    0.1147705838E+00    0.4855928246E+00
    0.4500000000E+04    0.3319237921E+00    0.6594788174E-01    0.1687620846E+00    0.1168145985E+00    0.4862326816E+00
    0.4700000000E+04    0.3374310389E+00    0.6372990455E-01    0.1689035039E+00    0.1187581387E+00    0.4868298830E+00
    0.4900000000E+04    0.3426703505E+00    0.6162649593E-01    0.1690343228E+00    0.1206074054E+00    0.4873889277E+00
    0.1000000000E+04    0.1613645875E+00    0.1330063212E+00    0.1594746453E+00    0.5672320631E-01    0.4534853856E+00
    0.3000000000E+04    0.2800199386E+00    0.8711032696E-01    0.1671754410E+00    0.9850983649E-01    0.4799152295E+00
    0.5000000000E+04    0.3451946839E+00    0.6061549154E-01    0.1690961216E+00    0.1214984967E+00    0.4876553708E+00
    0.7000000000E+04    0.3850012519E+00    0.4491520013E-01    0.1699820074E+00    0.1355609943E+00    0.4916855152E+00
    0.9000000000E+04    0.4108335349E+00    0.3501971879E-01    0.1704881436E+00    0.1447018902E+00    0.4942500311E+00
    0.1100000000E+05    0.4284764212E+00    0.2842481571E-01    0.1708114537E+00    0.1509560142E+00    0.4960645291E+00
    0.1300000000E+05    0.4410592566E+00    0.2381518511E-01    0.1710325417E+00    0.1554248865E+00    0.4974362427E+00
    0.1500000000E+05    0.4503649660E+00    0.2046185120E-01    0.1711907260E+00    0.1587365013E+00    0.4985213262E+00
    0.1700000000E+05    0.4574593571E+00    0.1793942607E-01    0.1713075230E+00    0.1612665021E+00    0.4994084569E+00
    0.1900000000E+05    0.4630078464E+00    0.1598785324E-01    0.1713957101E+00    0.1632495618E+00    0.5001521432E+00
    0.2100000000E+05    0.4674421824E+00    0.1444148962E-01    0.1714633544E+00    0.1648380418E+00    0.5007879494E+00
    0.2300000000E+05    0.4710521401E+00    0.1319097139E-01    0.1715157978E+00    0.1661342669E+00    0.5013401870E+00
    0.2500000000E+05    0.4740380615E+00    0.1216178931E-01    0.1715567158E+00    0.1672090279E+00    0.5018261104E+00
    0.2700000000E+05    0.4765421144E+00    0.1130176361E-01    0.1715887179E+00    0.1681125930E+00    0.5022583483E+00
    0.2900000000E+05    0.4786675283E+00    0.1057345538E-01    0.1716137054E+00    0.1688814871E+00    0.5026463851E+00
    0.3100000000E+05    0.4804908000E+00    0.9949419745E-02    0.1716330951E+00    0.1695427954E+00    0.5029975014E+00
    0.3300000000E+05    0.4820696513E+00    0.9409150375E-02    0.1716479629E+00    0.1701169698E+00    0.5033173925E+00
    0.3500000000E+05    0.4834483477E+00    0.8937061627E-02    0.1716591393E+00    0.1706197056E+00    0.5036105861E+00
    0.3700000000E+05    0.4846613321E+00    0.8521124799E-02    0.1716672748E+00    0.1710632242E+00    0.5038807346E+00
    0.3900000000E+05    0.4857357584E+00    0.8151927047E-02    0.1716728853E+00    0.1714571681E+00    0.5041308210E+00
    0.4100000000E+05    0.4866932895E+00    0.7822009566E-02    0.1716763847E+00    0.1718092355E+00    0.5043633096E+00
    0.4300000000E+05    0.4875513959E+00    0.7525394110E-02    0.1716781083E+00    0.1721256398E+00    0.5045802567E+00
    0.4500000000E+05    0.4883243065E+00    0.7257238893E-02    0.1716783305E+00    0.1724114452E+00    0.5047833939E+00
    0.4700000000E+05    0.4890237154E+00    0.7013584892E-02    0.1716772772E+00    0.1726708172E+00    0.5049741914E+00
    0.4900000000E+05    0.4896593134E+00    0.6791166324E-02    0.1716751363E+00    0.1729072107E+00    0.5051539066E+00
    0.1000000000E+05    0.4204408327E+00    0.3141050676E-01    0.1706661880E+00    0.1481061032E+00    0.4952266791E+00
    0.3000000000E+05    0.4796129567E+00    0.1024982019E-01    0.1716240260E+00    0.1692241813E+00    0.5028261709E+00
    0.5000000000E+05    0.4899557658E+00    0.6687053324E-02    0.1716737080E+00    0.1730177117E+00    0.5052399528E+00
    0.7000000000E+05    0.4939399886E+00    0.5250812869E-02    0.1716152391E+00    0.1745234836E+00    0.5065774358E+00
    0.9000000000E+05    0.4960033814E+00    0.4456615799E-02    0.1715336230E+00    0.1753278680E+00    0.5074721546E+00
    0.1100000000E+06    0.4972519433E+00    0.3941522507E-02    0.1714484854E+00    0.1758301185E+00    0.5081318712E+00
    0.1300000000E+06    0.4980835461E+00    0.3574346716E-02    0.1713656100E+00    0.1761753188E+00    0.5086482367E+00
    0.1500000000E+06    0.4986746452E+00    0.3295932056E-02    0.1712867556E+00    0.1764284810E+00    0.5090690560E+00
    0.1700000000E+06    0.4991149761E+00    0.3075493527E-02    0.1712123101E+00    0.1766230153E+00    0.5094221450E+00
    0.1900000000E+06    0.4994548181E+00    0.2895317874E-02    0.1711421638E+00    0.1767778416E+00    0.5097249926E+00
    0.2100000000E+06    0.4997244591E+00    0.2744427657E-02    0.1710760317E+00    0.1769044795E+00    0.5099892496E+00
    0.2300000000E+06    0.4999431988E+00    0.2615620553E-02    0.1710135807E+00    0.1770103487E+00    0.5102230352E+00
    0.2500000000E+06    0.5001239008E+00    0.2503952988E-02    0.1709544813E+00    0.1771004481E+00    0.5104322149E+00
    0.2700000000E+06    0.5002754591E+00    0.2405905439E-02    0.1708984269E+00    0.1771782714E+00    0.5106211526E+00
    0.2900000000E+06    0.5004042150E+00    0.2318895443E-02    0.1708451405E+00    0.1772463367E+00    0.5107931760E+00
    0.3100000000E+06    0.5005148078E+00    0.2240979511E-02    0.1707943746E+00    0.1773065060E+00    0.5109508762E+00
    0.3300000000E+06    0.5006107079E+00    0.2170663178E-02    0.1707459096E+00    0.1773601874E+00    0.5110963066E+00
    0.3500000000E+06    0.5006945619E+00    0.2106775770E-02    0.1706995511E+00    0.1774084661E+00    0.5112311205E+00
    0.3700000000E+06    0.5007684224E+00    0.2048385351E-02    0.1706551264E+00    0.1774521930E+00    0.5113566669E+00
    0.3900000000E+06    0.5008339049E+00    0.1994739479E-02    0.1706124823E+00    0.1774920449E+00    0.5114740596E+00
    0.4100000000E+06    0.5008922980E+00    0.1945223003E-02    0.1705714824E+00    0.1775285673E+00    0.5115842286E+00
    0.4300000000E+06    0.5009446416E+00    0.1899327386E-02    0.1705320047E+00    0.1775622053E+00    0.5116879575E+00
    0.4500000000E+06    0.5009917840E+00    0.1856628022E-02    0.1704939402E+00    0.1775933256E+00    0.5117859121E+00
    0.4700000000E+06    0.5010344237E+00    0.1816767189E-02    0.1704571908E+00    0.1776222336E+00    0.5118786629E+00
    0.4900000000E+06    0.5010731411E+00    0.1779441053E-02    0.1704216682E+00    0.1776491854E+00    0.5119667021E+00
    0.1000000000E+06    0.4966967212E+00    0.4174957962E-02    0.1714909836E+00    0.1756048323E+00    0.5078241758E+00
    0.3000000000E+06    0.5004615422E+00    0.2278902937E-02    0.1708194568E+00    0.1772773115E+00    0.5108736774E+00
    0.5000000000E+06    0.5010911840E+00    0.1761645768E-02    0.1704043417E+00    0.1776619969E+00    0.5120090906E+00
    0.7000000000E+06    0.5013309919E+00    0.1491687438E-02    0.1701063605E+00    0.1778541206E+00    0.5126888543E+00
    0.9000000000E+06    0.5014496655E+00    0.1318694100E-02    0.1698734177E+00    0.1779764650E+00    0.5131675285E+00
    0.1100000000E+07    0.5015163656E+00    0.1195565835E-02    0.1696819033E+00    0.1780643389E+00    0.5135341902E+00
    0.1300000000E+07    0.5015565579E+00    0.1102100240E-02    0.1695191378E+00    0.1781321298E+00    0.5138299570E+00
    0.1500000000E+07    0.5015816804E+00    0.1027982798E-02    0.1693775166E+00    0.1781869470E+00    0.5140770417E+00
    0.1700000000E+07    0.5015975742E+00    0.9673186003E-03    0.1692521149E+00    0.1782327683E+00    0.5142887455E+00
    0.1900000000E+07    0.5016075042E+00    0.9164595854E-03    0.1691395576E+00    0.1782720222E+00    0.5144736362E+00
    0.2100000000E+07    0.5016134217E+00    0.8730100647E-03    0.1690374292E+00    0.1783062898E+00    0.5146375427E+00
    0.2300000000E+07    0.5016165553E+00    0.8353225782E-03    0.1689439402E+00    0.1783366538E+00    0.5147846028E+00
    0.2500000000E+07    0.5016177106E+00    0.8022216601E-03    0.1688577279E+00    0.1783638853E+00    0.5149178553E+00
    0.2700000000E+07    0.5016174340E+00    0.7728429108E-03    0.1687777298E+00    0.1783885512E+00    0.5150395950E+00
    0.2900000000E+07    0.5016161064E+00    0.7465344679E-03    0.1687031015E+00    0.1784110803E+00    0.5151515957E+00
    0.3100000000E+07    0.5016139995E+00    0.7227941455E-03    0.1686331605E+00    0.1784318036E+00    0.5152552557E+00
    0.3300000000E+07    0.5016113108E+00    0.7012279146E-03    0.1685673473E+00    0.1784509821E+00    0.5153516960E+00
    0.3500000000E+07    0.5016081864E+00    0.6815216544E-03    0.1685051974E+00    0.1784688247E+00    0.5154418286E+00
    0.3700000000E+07    0.5016047359E+00    0.6634214341E-03    0.1684463209E+00    0.1784855014E+00    0.5155264051E+00
    0.3900000000E+07    0.5016010423E+00    0.6467194370E-03    0.1683903872E+00    0.1785011521E+00    0.5156060520E+00
    0.4100000000E+07    0.5015971693E+00    0.6312437124E-03    0.1683371136E+00    0.1785158930E+00    0.5156812967E+00
    0.4300000000E+07    0.5015931663E+00    0.6168505821E-03    0.1682862566E+00    0.1785298222E+00    0.5157525875E+00
    0.4500000000E+07    0.5015890717E+00    0.6034189252E-03    0.1682376046E+00    0.1785430228E+00    0.5158203079E+00
    0.4700000000E+07    0.5015849155E+00    0.5908458152E-03    0.1681909729E+00    0.1785555659E+00    0.5158847893E+00
    0.4900000000E+07    0.5015807215E+00    0.5790431465E-03    0.1681461990E+00    0.1785675128E+00    0.5159463194E+00
    0.1000000000E+07    0.5014874219E+00    0.1252496779E-02    0.1697734360E+00    0.1780235594E+00    0.5133616595E+00
    0.3000000000E+07    0.5016151366E+00    0.7343700717E-03    0.1686675825E+00    0.1784216500E+00    0.5152043927E+00
    0.5000000000E+07    0.5015786163E+00    0.5734065862E-03    0.1681244632E+00    0.1785732796E+00    0.5159760575E+00
    0.7000000000E+07    0.5015374330E+00    0.4872115850E-03    0.1677598210E+00    0.1786671966E+00    0.5164631073E+00
    0.9000000000E+07    0.5015003977E+00    0.4314033490E-03    0.1674845723E+00    0.1787351669E+00    0.5168176904E+00
    0.1100000000E+08    0.5014677978E+00    0.3914690298E-03    0.1672632667E+00    0.1787883922E+00    0.5170958415E+00
    0.1300000000E+08    0.5014389553E+00    0.3610590314E-03    0.1670781214E+00    0.1788321128E+00    0.5173243399E+00
    0.1500000000E+08    0.5014131893E+00    0.3368946580E-03    0.1669189281E+00    0.1788691996E+00    0.5175180370E+00
    0.1700000000E+08    0.5013899468E+00    0.3170885245E-03    0.1667792776E+00    0.1789013949E+00    0.5176860139E+00
    0.1900000000E+08    0.5013687966E+00    0.3004668372E-03    0.1666548796E+00    0.1789298350E+00    0.5178342224E+00
    0.2100000000E+08    0.5013494026E+00    0.2862560127E-03    0.1665427196E+00    0.1789553019E+00    0.5179667720E+00
    0.2300000000E+08    0.5013315004E+00    0.2739226542E-03    0.1664405985E+00    0.1789783569E+00    0.5180866172E+00
    0.2500000000E+08    0.5013148797E+00    0.2630853980E-03    0.1663468619E+00    0.1789994160E+00    0.5181959523E+00
    0.2700000000E+08    0.5012993709E+00    0.2534633456E-03    0.1662602341E+00    0.1790187963E+00    0.5182964509E+00
