  Pressure (Pa) 22mC5-400 (mol/kg) 2mC6-400 (mol/kg) 3mC6-400 (mol/kg) 23mC5-400 (mol/kg) C7-400 (mol/kg)
    0.1000000000E+01    0.5302070977E-03    0.3157810018E-02    0.1568740744E-02    0.6516891827E-03    0.8485663062E-02
    0.3000000000E+01    0.1575478762E-02    0.9149303215E-02    0.4538411910E-02    0.1936467104E-02    0.2455342670E-01
    0.5000000000E+01    0.2601167215E-02    0.1474554472E-01    0.7304126736E-02    0.3197189742E-02    0.3952284789E-01
    0.7000000000E+01    0.3607969331E-02    0.1998553699E-01    0.9886775112E-02    0.4434713006E-02    0.5350625501E-01
    0.9000000000E+01    0.4596548165E-02    0.2490313886E-01    0.1230446933E-01    0.5649851269E-02    0.6660105206E-01
    0.1100000000E+02    0.5567534995E-02    0.2952789769E-01    0.1457299180E-01    0.6843379880E-02    0.7889212312E-01
    0.1300000000E+02    0.6521531224E-02    0.3388572436E-01    0.1670615877E-01    0.8016037497E-02    0.9045378611E-01
    0.1500000000E+02    0.7459110141E-02    0.3799944482E-01    0.1871611803E-01    0.9168528251E-02    0.1013513915E+00
    0.1700000000E+02    0.8380818564E-02    0.4188925363E-01    0.2061359395E-01    0.1030152376E-01    0.1116426389E+00
    0.1900000000E+02    0.9287178361E-02    0.4557308943E-01    0.2240809061E-01    0.1141566501E-01    0.1213786684E+00
    0.2100000000E+02    0.1017868787E-01    0.4906694737E-01    0.2410806105E-01    0.1251156408E-01    0.1306049696E+00
    0.2300000000E+02    0.1105582325E-01    0.5238514071E-01    0.2572104909E-01    0.1358980580E-01    0.1393621438E+00
    0.2500000000E+02    0.1191903966E-01    0.5554052094E-01    0.2725380878E-01    0.1465094923E-01    0.1476865456E+00
    0.2700000000E+02    0.1276877246E-01    0.5854466391E-01    0.2871240541E-01    0.1569552912E-01    0.1556108262E+00
    0.2900000000E+02    0.1360543830E-01    0.6140802794E-01    0.3010230150E-01    0.1672405720E-01    0.1631643951E+00
    0.3100000000E+02    0.1442943608E-01    0.6414008876E-01    0.3142843007E-01    0.1773702344E-01    0.1703738139E+00
    0.3300000000E+02    0.1524114791E-01    0.6674945517E-01    0.3269525760E-01    0.1873489719E-01    0.1772631348E+00
    0.3500000000E+02    0.1604094004E-01    0.6924396849E-01    0.3390683807E-01    0.1971812827E-01    0.1838541912E+00
    0.3700000000E+02    0.1682916361E-01    0.7163078855E-01    0.3506685973E-01    0.2068714801E-01    0.1901668490E+00
    0.3900000000E+02    0.1760615549E-01    0.7391646812E-01    0.3617868564E-01    0.2164237018E-01    0.1962192245E+00
    0.4100000000E+02    0.1837223898E-01    0.7610701773E-01    0.3724538884E-01    0.2258419187E-01    0.2020278735E+00
    0.4300000000E+02    0.1912772449E-01    0.7820796224E-01    0.3826978317E-01    0.2351299438E-01    0.2076079570E+00
    0.4500000000E+02    0.1987291022E-01    0.8022439031E-01    0.3925445009E-01    0.2442914396E-01    0.2129733857E+00
    0.4700000000E+02    0.2060808271E-01    0.8216099790E-01    0.4020176240E-01    0.2533299259E-01    0.2181369470E+00
    0.4900000000E+02    0.2133351745E-01    0.8402212659E-01    0.4111390491E-01    0.2622487865E-01    0.2231104168E+00
    0.1000000000E+02    0.5084202314E-02    0.2725042599E-01    0.1345647121E-01    0.6249269781E-02    0.7284218110E-01
    0.3000000000E+02    0.1401899643E-01    0.6278991412E-01    0.3077304731E-01    0.1723245575E-01    0.1668105648E+00
    0.5000000000E+02    0.2169266636E-01    0.8492565458E-01    0.4155742343E-01    0.2666643791E-01    0.2255292952E+00
    0.7000000000E+02    0.2842378395E-01    0.9986853675E-01    0.4899617809E-01    0.3494251530E-01    0.2661635004E+00
    0.9000000000E+02    0.3442831563E-01    0.1104440678E+00    0.5448036781E-01    0.4232596693E-01    0.2962149556E+00
    0.1100000000E+03    0.3985822633E-01    0.1181508304E+00    0.5871703274E-01    0.4900346249E-01    0.3195008787E+00
    0.1300000000E+03    0.4482380838E-01    0.1238684599E+00    0.6210508288E-01    0.5511048613E-01    0.3381772872E+00
    0.1500000000E+03    0.4940722920E-01    0.1281515219E+00    0.6488744515E-01    0.6074797575E-01    0.3535585600E+00
    0.1700000000E+03    0.5367108790E-01    0.1313686118E+00    0.6722095736E-01    0.6599283259E-01    0.3664941843E+00
    0.1900000000E+03    0.5766400772E-01    0.1337748713E+00    0.6921166271E-01    0.7090479030E-01    0.3775591294E+00
    0.2100000000E+03    0.6142440079E-01    0.1355526846E+00    0.7093399567E-01    0.7553103911E-01    0.3871573998E+00
    0.2300000000E+03    0.6498306857E-01    0.1368358815E+00    0.7244184713E-01    0.7990942008E-01    0.3955817965E+00
    0.2500000000E+03    0.6836503924E-01    0.1377248175E+00    0.7377526369E-01    0.8407068203E-01    0.4030501218E+00
    0.2700000000E+03    0.7159089226E-01    0.1382961380E+00    0.7496467232E-01    0.8804010867E-01    0.4097280255E+00
    0.2900000000E+03    0.7467773062E-01    0.1386093043E+00    0.7603363810E-01    0.9183871278E-01    0.4157439271E+00
    0.3100000000E+03    0.7763990586E-01    0.1387110773E+00    0.7700071880E-01    0.9548412700E-01    0.4211990578E+00
    0.3300000000E+03    0.8048956695E-01    0.1386386690E+00    0.7788074481E-01    0.9899127795E-01    0.4261743943E+00
    0.3500000000E+03    0.8323708105E-01    0.1384220041E+00    0.7868572275E-01    0.1023729032E+00    0.4307355578E+00
    0.3700000000E+03    0.8589136017E-01    0.1380853719E+00    0.7942548637E-01    0.1056399526E+00    0.4349363452E+00
    0.3900000000E+03    0.8846011750E-01    0.1376486521E+00    0.8010817395E-01    0.1088019031E+00    0.4388213194E+00
    0.4100000000E+03    0.9095007061E-01    0.1371282363E+00    0.8074058406E-01    0.1118670085E+00    0.4424277423E+00
    0.4300000000E+03    0.9336710406E-01    0.1365377318E+00    0.8132844457E-01    0.1148424989E+00    0.4457870361E+00
    0.4500000000E+03    0.9571640062E-01    0.1358885024E+00    0.8187661877E-01    0.1177347425E+00    0.4489259045E+00
    0.4700000000E+03    0.9800254803E-01    0.1351900913E+00    0.8238926523E-01    0.1205493761E+00    0.4518672019E+00
    0.4900000000E+03    0.1002296266E+00    0.1344505522E+00    0.8286996304E-01    0.1232914132E+00    0.4546306158E+00
    0.1000000000E+03    0.3720741847E-01    0.1145911026E+00    0.5672485732E-01    0.4574352495E-01    0.3085426878E+00
    0.3000000000E+03    0.7617359565E-01    0.1386840955E+00    0.7652891189E-01    0.9367957900E-01    0.4185361185E+00
    0.5000000000E+03    0.1013221694E+00    0.1340675352E+00    0.8309931609E-01    0.1246366264E+00    0.4559510382E+00
    0.7000000000E+03    0.1207827326E+00    0.1254514440E+00    0.8658072031E-01    0.1486029669E+00    0.4761730029E+00
    0.9000000000E+03    0.1368818444E+00    0.1165428599E+00    0.8879468028E-01    0.1684372453E+00    0.4892552837E+00
    0.1100000000E+04    0.1506312013E+00    0.1081995791E+00    0.9034955213E-01    0.1853825194E+00    0.4985852092E+00
    0.1300000000E+04    0.1625851751E+00    0.1006162534E+00    0.9151232417E-01    0.2001199295E+00    0.5056611104E+00
    0.1500000000E+04    0.1730960704E+00    0.9379525024E-01    0.9242048158E-01    0.2130823510E+00    0.5112601572E+00
    0.1700000000E+04    0.1824110910E+00    0.8767973952E-01    0.9315276186E-01    0.2245735416E+00    0.5158304614E+00
    0.1900000000E+04    0.1907156392E+00    0.8219748274E-01    0.9375782869E-01    0.2348213428E+00    0.5196507608E+00
    0.2100000000E+04    0.1981551356E+00    0.7727635162E-01    0.9426753835E-01    0.2440044853E+00    0.5229046410E+00
    0.2300000000E+04    0.2048471488E+00    0.7284977590E-01    0.9470370419E-01    0.2522674896E+00    0.5257185474E+00
    0.2500000000E+04    0.2108887277E+00    0.6885832989E-01    0.9508181343E-01    0.2597296706E+00    0.5281827594E+00
    0.2700000000E+04    0.2163611629E+00    0.6524979188E-01    0.9541319435E-01    0.2664909858E+00    0.5303636691E+00
    0.2900000000E+04    0.2213332728E+00    0.6197861658E-01    0.9570634245E-01    0.2726360691E+00    0.5323113252E+00
    0.3100000000E+04    0.2258637847E+00    0.5900521597E-01    0.9596776547E-01    0.2782371559E+00    0.5340642586E+00
    0.3300000000E+04    0.2300031306E+00    0.5629521728E-01    0.9620254036E-01    0.2833562877E+00    0.5356526737E+00
    0.3500000000E+04    0.2337948422E+00    0.5381876789E-01    0.9641469129E-01    0.2880470248E+00    0.5371006241E+00
    0.3700000000E+04    0.2372766590E+00    0.5154991262E-01    0.9660745281E-01    0.2923558080E+00    0.5384275307E+00
    0.3900000000E+04    0.2404814248E+00    0.4946604853E-01    0.9678345711E-01    0.2963230594E+00    0.5396492673E+00
    0.4100000000E+04    0.2434378220E+00    0.4754745384E-01    0.9694486992E-01    0.2999840841E+00    0.5407789500E+00
    0.4300000000E+04    0.2461709783E+00    0.4577688371E-01    0.9709349088E-01    0.3033698164E+00    0.5418275230E+00
    0.4500000000E+04    0.2487029735E+00    0.4413922479E-01    0.9723082883E-01    0.3065074414E+00    0.5428041991E+00
    0.4700000000E+04    0.2510532636E+00    0.4262120059E-01    0.9735815908E-01    0.3094209175E+00    0.5437167956E+00
    0.4900000000E+04    0.2532390392E+00    0.4121112033E-01    0.9747656753E-01    0.3121314157E+00    0.5445719940E+00
    0.1000000000E+04    0.1440090858E+00    0.1122811513E+00    0.8963342855E-01    0.1772204402E+00    0.4942712677E+00
    0.3000000000E+04    0.2236504000E+00    0.6045695650E-01    0.9584067387E-01    0.2755005176E+00    0.5332100787E+00
    0.5000000000E+04    0.2542750623E+00    0.4054328604E-01    0.9753272225E-01    0.3134164950E+00    0.5449798975E+00
    0.7000000000E+04    0.2692578129E+00    0.3090307338E-01    0.9835638786E-01    0.3320337393E+00    0.5511751201E+00
    0.9000000000E+04    0.2777899797E+00    0.2538220681E-01    0.9884869726E-01    0.3426779208E+00    0.5551428236E+00
    0.1100000000E+05    0.2831788157E+00    0.2183788119E-01    0.9917671070E-01    0.3494295167E+00    0.5579614193E+00
    0.1300000000E+05    0.2868422203E+00    0.1937249217E-01    0.9941054498E-01    0.3540401463E+00    0.5600970937E+00
    0.1500000000E+05    0.2894718078E+00    0.1755449233E-01    0.9958511406E-01    0.3573653098E+00    0.5617882450E+00
    0.1700000000E+05    0.2914393964E+00    0.1615372259E-01    0.9971986956E-01    0.3598655454E+00    0.5631710239E+00
    0.1900000000E+05    0.2929605028E+00    0.1503719722E-01    0.9982655103E-01    0.3618081619E+00    0.5643295504E+00
    0.2100000000E+05    0.2941677261E+00    0.1412305353E-01    0.9991268225E-01    0.3633578570E+00    0.5653189586E+00
    0.2300000000E+05    0.2951466876E+00    0.1335825394E-01    0.9998331643E-01    0.3646211334E+00    0.5661770863E+00
    0.2500000000E+05    0.2959549217E+00    0.1270695942E-01    0.1000419776E+00    0.3656696640E+00    0.5669308783E+00
    0.2700000000E+05    0.2966324021E+00    0.1214408626E-01    0.1000912003E+00    0.3665533215E+00    0.5676001121E+00
    0.2900000000E+05    0.2972076999E+00    0.1165154831E-01    0.1001328552E+00    0.3673078080E+00    0.5681996772E+00
    0.3100000000E+05    0.2977017398E+00    0.1121596854E-01    0.1001683538E+00    0.3679593122E+00    0.5687410260E+00
    0.3300000000E+05    0.2981301738E+00    0.1082723272E-01    0.1001987808E+00    0.3685274551E+00    0.5692331317E+00
    0.3500000000E+05    0.2985049286E+00    0.1047754530E-01    0.1002249840E+00    0.3690272124E+00    0.5696831383E+00
    0.3700000000E+05    0.2988352418E+00    0.1016079559E-01    0.1002476356E+00    0.3694702024E+00    0.5700968141E+00
    0.3900000000E+05    0.2991283729E+00    0.9872121523E-02    0.1002672752E+00    0.3698655707E+00    0.5704788750E+00
    0.4100000000E+05    0.2993901011E+00    0.9607602697E-02    0.1002843408E+00    0.3702206108E+00    0.5708332191E+00
    0.4300000000E+05    0.2996250819E+00    0.9364040112E-02    0.1002991919E+00    0.3705412078E+00    0.5711631008E+00
    0.4500000000E+05    0.2998371047E+00    0.9138795266E-02    0.1003121260E+00    0.3708321601E+00    0.5714712614E+00
    0.4700000000E+05    0.3000292840E+00    0.8929670735E-02    0.1003233912E+00    0.3710974189E+00    0.5717600289E+00
    0.4900000000E+05    0.3002042019E+00    0.8734820235E-02    0.1003331964E+00    0.3713402654E+00    0.5720313946E+00
    0.1000000000E+05    0.2807639380E+00    0.2343508622E-01    0.9902765106E-01    0.3464002796E+00    0.5566588705E+00
    0.3000000000E+05    0.2974637964E+00    0.1142733432E-01    0.1001512998E+00    0.3676450790E+00    0.5684770185E+00
    0.5000000000E+05    0.3002858765E+00    0.8642249569E-02    0.1003376079E+00    0.3714541604E+00    0.5721610973E+00
    0.7000000000E+05    0.3013887699E+00    0.7261386497E-02    0.1003805586E+00    0.3730351527E+00    0.5741555920E+00
    0.9000000000E+05    0.3019616055E+00    0.6396287299E-02    0.1003790453E+00    0.3739080697E+00    0.5754624675E+00
    0.1100000000E+06    0.3023059644E+00    0.5787917311E-02    0.1003600285E+00    0.3744663828E+00    0.5764086910E+00
    0.1300000000E+06    0.3025322717E+00    0.5329411345E-02    0.1003334405E+00    0.3748571138E+00    0.5771374357E+00
    0.1500000000E+06    0.3026901650E+00    0.4967494304E-02    0.1003035903E+00    0.3751477045E+00    0.5777227909E+00
    0.1700000000E+06    0.3028051305E+00    0.4672196312E-02    0.1002725399E+00    0.3753734940E+00    0.5782075282E+00
    0.1900000000E+06    0.3028915411E+00    0.4425174820E-02    0.1002413367E+00    0.3755548215E+00    0.5786183342E+00
    0.2100000000E+06    0.3029580888E+00    0.4214481197E-02    0.1002105280E+00    0.3757042415E+00    0.5789728575E+00
    0.2300000000E+06    0.3030103231E+00    0.4031948494E-02    0.1001803994E+00    0.3758299359E+00    0.5792833107E+00
    0.2500000000E+06    0.3030519437E+00    0.3871776888E-02    0.1001510938E+00    0.3759374726E+00    0.5795584571E+00
    0.2700000000E+06    0.3030855060E+00    0.3729717143E-02    0.1001226735E+00    0.3760307779E+00    0.5798047750E+00
    0.2900000000E+06    0.3031128278E+00    0.3602574317E-02    0.1000951549E+00    0.3761127032E+00    0.5800271741E+00
    0.3100000000E+06    0.3031352348E+00    0.3487893009E-02    0.1000685281E+00    0.3761853716E+00    0.5802294547E+00
    0.3300000000E+06    0.3031537146E+00    0.3383750471E-02    0.1000427681E+00    0.3762503986E+00    0.5804146117E+00
    0.3500000000E+06    0.3031690168E+00    0.3288616419E-02    0.1000178420E+00    0.3763090359E+00    0.5805850432E+00
    0.3700000000E+06    0.3031817194E+00    0.3201255513E-02    0.9999371315E-01    0.3763622698E+00    0.5807426956E+00
    0.3900000000E+06    0.3031922749E+00    0.3120657943E-02    0.9997034332E-01    0.3764108882E+00    0.5808891684E+00
    0.4100000000E+06    0.3032010415E+00    0.3045989014E-02    0.9994769448E-01    0.3764555290E+00    0.5810257899E+00
    0.4300000000E+06    0.3032083065E+00    0.2976551877E-02    0.9992572959E-01    0.3764967142E+00    0.5811536745E+00
    0.4500000000E+06    0.3032143023E+00    0.2911759525E-02    0.9990441315E-01    0.3765348758E+00    0.5812737649E+00
    0.4700000000E+06    0.3032192188E+00    0.2851113449E-02    0.9988371142E-01    0.3765703743E+00    0.5813868651E+00
    0.4900000000E+06    0.3032232126E+00    0.2794187168E-02    0.9986359257E-01    0.3766035132E+00    0.5814936657E+00
    0.1000000000E+06    0.3021532776E+00    0.6068539065E-02    0.1003709049E+00    0.3742145423E+00    0.5759693695E+00
    0.3000000000E+06    0.3031245774E+00    0.3543806732E-02    0.1000817313E+00    0.3761500836E+00    0.5801306260E+00
    0.5000000000E+06    0.3032249048E+00    0.2767002142E-02    0.9985374229E-01    0.3766192799E+00    0.5815448934E+00
    0.7000000000E+06    0.3032325939E+00    0.2351328953E-02    0.9968103234E-01    0.3768567455E+00    0.5823488131E+00
    0.9000000000E+06    0.3032177373E+00    0.2082184991E-02    0.9954247171E-01    0.3770088584E+00    0.5828944934E+00
    0.1100000000E+07    0.3031962109E+00    0.1889563099E-02    0.9942674252E-01    0.3771184716E+00    0.5833007791E+00
    0.1300000000E+07    0.3031729776E+00    0.1742854916E-02    0.9932731741E-01    0.3772032085E+00    0.5836210372E+00
    0.1500000000E+07    0.3031498388E+00    0.1626258332E-02    0.9924011744E-01    0.3772718266E+00    0.5838834554E+00
    0.1700000000E+07    0.3031274808E+00    0.1530676842E-02    0.9916242787E-01    0.3773292445E+00    0.5841045922E+00
    0.1900000000E+07    0.3031061481E+00    0.1450452756E-02    0.9909235129E-01    0.3773784729E+00    0.5842949369E+00
    0.2100000000E+07    0.3030858977E+00    0.1381857001E-02    0.9902850923E-01    0.3774214762E+00    0.5844615212E+00
    0.2300000000E+07    0.3030667058E+00    0.1322318023E-02    0.9896986839E-01    0.3774596015E+00    0.5846092707E+00
    0.2500000000E+07    0.3030485146E+00    0.1269997013E-02    0.9891563410E-01    0.3774938092E+00    0.5847417595E+00
    0.2700000000E+07    0.3030312545E+00    0.1223539416E-02    0.9886518186E-01    0.3775248067E+00    0.5848616573E+00
    0.2900000000E+07    0.3030148538E+00    0.1181922282E-02    0.9881801190E-01    0.3775531286E+00    0.5849710066E+00
    0.3100000000E+07    0.3029992438E+00    0.1144356615E-02    0.9877371793E-01    0.3775791886E+00    0.5850714026E+00
    0.3300000000E+07    0.3029843607E+00    0.1110222739E-02    0.9873196512E-01    0.3776033128E+00    0.5851641129E+00
    0.3500000000E+07    0.3029701462E+00    0.1079026233E-02    0.9869247422E-01    0.3776257623E+00    0.5852501607E+00
    0.3700000000E+07    0.3029565472E+00    0.1050367124E-02    0.9865500988E-01    0.3776467499E+00    0.5853303826E+00
    0.3900000000E+07    0.3029435160E+00    0.1023917875E-02    0.9861937187E-01    0.3776664503E+00    0.5854054707E+00
    0.4100000000E+07    0.3029310097E+00    0.9994073282E-03    0.9858538839E-01    0.3776850094E+00    0.5854760041E+00
    0.4300000000E+07    0.3029189895E+00    0.9766088016E-03    0.9855291094E-01    0.3777025499E+00    0.5855424715E+00
    0.4500000000E+07    0.3029074205E+00    0.9553311227E-03    0.9852181024E-01    0.3777191757E+00    0.5856052887E+00
    0.4700000000E+07    0.3028962713E+00    0.9354117755E-03    0.9849197308E-01    0.3777349760E+00    0.5856648127E+00
    0.4900000000E+07    0.3028855133E+00    0.9167115993E-03    0.9846329973E-01    0.3777500276E+00    0.5857213517E+00
    0.1000000000E+07    0.3032073811E+00    0.1978724066E-02    0.9948223709E-01    0.3770675697E+00    0.5831108773E+00
    0.3000000000E+07    0.3030069541E+00    0.1162675118E-02    0.9879552781E-01    0.3775664192E+00    0.5850222379E+00
    0.5000000000E+07    0.3028802729E+00    0.9077805591E-03    0.9844937149E-01    0.3777572938E+00    0.5857485870E+00
    0.7000000000E+07    0.3027908713E+00    0.7711761344E-03    0.9821494310E-01    0.3778757034E+00    0.5861864609E+00
    0.9000000000E+07    0.3027219294E+00    0.6827100992E-03    0.9803714975E-01    0.3779614820E+00    0.5864959500E+00
    0.1100000000E+08    0.3026658424E+00    0.6194039332E-03    0.9789376370E-01    0.3780286986E+00    0.5867335781E+00
    0.1300000000E+08    0.3026185711E+00    0.5711970440E-03    0.9777354604E-01    0.3780839412E+00    0.5869255761E+00
    0.1500000000E+08    0.3025777194E+00    0.5328926270E-03    0.9767001027E-01    0.3781308216E+00    0.5870861673E+00
    0.1700000000E+08    0.3025417510E+00    0.5014985276E-03    0.9757906788E-01    0.3781715331E+00    0.5872238915E+00
    0.1900000000E+08    0.3025096221E+00    0.4751536597E-03    0.9749797366E-01    0.3782075068E+00    0.5873442615E+00
    0.2100000000E+08    0.3024805910E+00    0.4526313998E-03    0.9742479418E-01    0.3782397280E+00    0.5874510341E+00
    0.2300000000E+08    0.3024541124E+00    0.4330859425E-03    0.9735811590E-01    0.3782689041E+00    0.5875468802E+00
    0.2500000000E+08    0.3024297731E+00    0.4159125509E-03    0.9729687379E-01    0.3782955597E+00    0.5876337632E+00
    0.2700000000E+08    0.3024072529E+00    0.4006657971E-03    0.9724024532E-01    0.3783200948E+00    0.5877131677E+00
