  Pressure (Pa) 22mC5-400 (mol/kg) 2mC6-400 (mol/kg) 3mC6-400 (mol/kg) 23mC5-400 (mol/kg) C7-400 (mol/kg)
    0.1000000000E+01    0.5290575803E-03    0.5522541100E-02    0.1046251246E-02    0.5573802016E-03    0.6791248689E-02
    0.3000000000E+01    0.1565449697E-02    0.1597965208E-01    0.3029286025E-02    0.1649267537E-02    0.1966632139E-01
    0.5000000000E+01    0.2574146946E-02    0.2571954528E-01    0.4879271014E-02    0.2711993675E-02    0.3168145866E-01
    0.7000000000E+01    0.3556576930E-02    0.3481287293E-01    0.6609822111E-02    0.3747061626E-02    0.4292454037E-01
    0.9000000000E+01    0.4514066933E-02    0.4332110475E-01    0.8232737715E-02    0.4755868792E-02    0.5347172432E-01
    0.1100000000E+02    0.5447852701E-02    0.5129799569E-01    0.9758293281E-02    0.5739716206E-02    0.6338934517E-01
    0.1300000000E+02    0.6359086306E-02    0.5879077838E-01    0.1119548032E-01    0.6699816820E-02    0.7273545521E-01
    0.1500000000E+02    0.7248843214E-02    0.6584113898E-01    0.1255220166E-01    0.7637302930E-02    0.8156108348E-01
    0.1700000000E+02    0.8118128635E-02    0.7248602114E-01    0.1383543213E-01    0.8553232875E-02    0.8991127165E-01
    0.1900000000E+02    0.8967883256E-02    0.7875829276E-01    0.1505135149E-01    0.9448597063E-02    0.9782593135E-01
    0.2100000000E+02    0.9798988412E-02    0.8468730198E-01    0.1620545514E-01    0.1032432342E-01    0.1053405581E+00
    0.2300000000E+02    0.1061227077E-01    0.9029934376E-01    0.1730264678E-01    0.1118128232E-01    0.1124868290E+00
    0.2500000000E+02    0.1140850655E-01    0.9561805326E-01    0.1834731639E-01    0.1202029102E-01    0.1192931054E+00
    0.2700000000E+02    0.1218842542E-01    0.1006647392E+00    0.1934340616E-01    0.1284211778E-01    0.1257848588E+00
    0.2900000000E+02    0.1295271394E-01    0.1054586679E+00    0.2029446652E-01    0.1364748547E-01    0.1319850313E+00
    0.3100000000E+02    0.1370201880E-01    0.1100173058E+00    0.2120370389E-01    0.1443707496E-01    0.1379143447E+00
    0.3300000000E+02    0.1443694967E-01    0.1143565285E+00    0.2207402165E-01    0.1521152820E-01    0.1435915641E+00
    0.3500000000E+02    0.1515808191E-01    0.1184908003E+00    0.2290805534E-01    0.1597145097E-01    0.1490337254E+00
    0.3700000000E+02    0.1586595894E-01    0.1224333300E+00    0.2370820307E-01    0.1671741545E-01    0.1542563311E+00
    0.3900000000E+02    0.1656109453E-01    0.1261962065E+00    0.2447665187E-01    0.1744996259E-01    0.1592735208E+00
    0.4100000000E+02    0.1724397476E-01    0.1297905161E+00    0.2521540054E-01    0.1816960419E-01    0.1640982186E+00
    0.4300000000E+02    0.1791505996E-01    0.1332264465E+00    0.2592627968E-01    0.1887682493E-01    0.1687422621E+00
    0.4500000000E+02    0.1857478637E-01    0.1365133766E+00    0.2661096915E-01    0.1957208416E-01    0.1732165152E+00
    0.4700000000E+02    0.1922356776E-01    0.1396599569E+00    0.2727101336E-01    0.2025581754E-01    0.1775309669E+00
    0.4900000000E+02    0.1986179688E-01    0.1426741791E+00    0.2790783482E-01    0.2092843861E-01    0.1816948187E+00
    0.1000000000E+02    0.4983848967E-02    0.4737287530E-01    0.9007095918E-02    0.5250834685E-02    0.5850542372E-01
    0.3000000000E+02    0.1332920039E-01    0.1077663709E+00    0.2075412495E-01    0.1404421149E-01    0.1349823296E+00
    0.5000000000E+02    0.2017707166E-01    0.1441339888E+00    0.2821795117E-01    0.2126070556E-01    0.1837229488E+00
    0.7000000000E+02    0.2601001005E-01    0.1679135126E+00    0.3347142282E-01    0.2740839740E-01    0.2181282799E+00
    0.9000000000E+02    0.3111615690E-01    0.1842710142E+00    0.3742194673E-01    0.3279068872E-01    0.2440708865E+00
    0.1100000000E+03    0.3567930788E-01    0.1958994101E+00    0.4053275645E-01    0.3760111708E-01    0.2645517350E+00
    0.1300000000E+03    0.3982288553E-01    0.2043438204E+00    0.4306658444E-01    0.4196965162E-01    0.2812745353E+00
    0.1500000000E+03    0.4363325732E-01    0.2105542333E+00    0.4518436030E-01    0.4598724391E-01    0.2952838321E+00
    0.1700000000E+03    0.4717293663E-01    0.2151461273E+00    0.4699062564E-01    0.4971972730E-01    0.3072587978E+00
    0.1900000000E+03    0.5048846445E-01    0.2185350105E+00    0.4855651911E-01    0.5321611583E-01    0.3176620129E+00
    0.2100000000E+03    0.5361532748E-01    0.2210108783E+00    0.4993230427E-01    0.5651378279E-01    0.3268206058E+00
    0.2300000000E+03    0.5658114343E-01    0.2227817653E+00    0.5115461634E-01    0.5964181477E-01    0.3349732143E+00
    0.2500000000E+03    0.5940779084E-01    0.2240003964E+00    0.5225086369E-01    0.6262325446E-01    0.3422985253E+00
    0.2700000000E+03    0.6211287305E-01    0.2247811221E+00    0.5324201288E-01    0.6547664220E-01    0.3489333429E+00
    0.2900000000E+03    0.6471074901E-01    0.2252110270E+00    0.5414441302E-01    0.6821710148E-01    0.3549844304E+00
    0.3100000000E+03    0.6721327467E-01    0.2253574204E+00    0.5497102713E-01    0.7085711976E-01    0.3605365070E+00
    0.3300000000E+03    0.6963034646E-01    0.2252730074E+00    0.5573228501E-01    0.7340712073E-01    0.3656577905E+00
    0.3500000000E+03    0.7197030644E-01    0.2249995347E+00    0.5643668780E-01    0.7587589100E-01    0.3704039268E+00
    0.3700000000E+03    0.7424024894E-01    0.2245704098E+00    0.5709124496E-01    0.7827090304E-01    0.3748208332E+00
    0.3900000000E+03    0.7644625585E-01    0.2240126118E+00    0.5770179616E-01    0.8059856300E-01    0.3789467926E+00
    0.4100000000E+03    0.7859357956E-01    0.2233481090E+00    0.5827325203E-01    0.8286440332E-01    0.3828140209E+00
    0.4300000000E+03    0.8068678657E-01    0.2225949220E+00    0.5880977692E-01    0.8507323406E-01    0.3864498585E+00
    0.4500000000E+03    0.8272987176E-01    0.2217679328E+00    0.5931492953E-01    0.8722926314E-01    0.3898776859E+00
    0.4700000000E+03    0.8472634980E-01    0.2208795062E+00    0.5979177239E-01    0.8933619274E-01    0.3931176378E+00
    0.4900000000E+03    0.8667932931E-01    0.2199399723E+00    0.6024295800E-01    0.9139729729E-01    0.3961871656E+00
    0.1000000000E+03    0.3345681750E-01    0.1905614216E+00    0.3906273276E-01    0.3525813030E-01    0.2548670787E+00
    0.3000000000E+03    0.6597327148E-01    0.2253160750E+00    0.5456649015E-01    0.6954897149E-01    0.3578182471E+00
    0.5000000000E+03    0.8764038260E-01    0.2194538066E+00    0.6045966327E-01    0.9241158737E-01    0.3976628519E+00
    0.7000000000E+03    0.1051119587E+00    0.2085525019E+00    0.6387804132E-01    0.1108542571E+00    0.4210722944E+00
    0.9000000000E+03    0.1201292648E+00    0.1972497350E+00    0.6620383292E-01    0.1267111301E+00    0.4371640853E+00
    0.1100000000E+04    0.1334209320E+00    0.1865427410E+00    0.6792721822E-01    0.1407496744E+00    0.4491927021E+00
    0.1300000000E+04    0.1453729446E+00    0.1766500296E+00    0.6927439925E-01    0.1533764129E+00    0.4586682568E+00
    0.1500000000E+04    0.1562228806E+00    0.1675789457E+00    0.7036698700E-01    0.1648415428E+00    0.4664065592E+00
    0.1700000000E+04    0.1661333063E+00    0.1592756297E+00    0.7127729796E-01    0.1753162543E+00    0.4728948596E+00
    0.1900000000E+04    0.1752244474E+00    0.1516712084E+00    0.7205154029E-01    0.1849271476E+00    0.4784457503E+00
    0.2100000000E+04    0.1835904612E+00    0.1446970322E+00    0.7272087731E-01    0.1937733751E+00    0.4832708345E+00
    0.2300000000E+04    0.1913082462E+00    0.1382895812E+00    0.7330722948E-01    0.2019359195E+00    0.4875194771E+00
    0.2500000000E+04    0.1984425354E+00    0.1323917018E+00    0.7382654563E-01    0.2094829590E+00    0.4913007120E+00
    0.2700000000E+04    0.2050490148E+00    0.1269525232E+00    0.7429075611E-01    0.2164731494E+00    0.4946963568E+00
    0.2900000000E+04    0.2111763308E+00    0.1219269321E+00    0.7470899477E-01    0.2229577388E+00    0.4977692380E+00
    0.3100000000E+04    0.2168674479E+00    0.1172749373E+00    0.7508839349E-01    0.2289819956E+00    0.5005685518E+00
    0.3300000000E+04    0.2221606101E+00    0.1129610519E+00    0.7543461614E-01    0.2345862200E+00    0.5031334749E+00
    0.3500000000E+04    0.2270900510E+00    0.1089537332E+00    0.7575222747E-01    0.2398064913E+00    0.5054956640E+00
    0.3700000000E+04    0.2316865407E+00    0.1052248909E+00    0.7604495424E-01    0.2446752433E+00    0.5076810297E+00
    0.3900000000E+04    0.2359778209E+00    0.1017494601E+00    0.7631587408E-01    0.2492217213E+00    0.5097110214E+00
    0.4100000000E+04    0.2399889623E+00    0.9850503205E-01    0.7656755462E-01    0.2534723585E+00    0.5116035756E+00
    0.4300000000E+04    0.2437426636E+00    0.9547153503E-01    0.7680215764E-01    0.2574510903E+00    0.5133738280E+00
    0.4500000000E+04    0.2472595080E+00    0.9263095814E-01    0.7702151832E-01    0.2611796238E+00    0.5150346556E+00
    0.4700000000E+04    0.2505581851E+00    0.8996711152E-01    0.7722720631E-01    0.2646776718E+00    0.5165970952E+00
    0.4900000000E+04    0.2536556849E+00    0.8746541769E-01    0.7742057333E-01    0.2679631564E+00    0.5180706708E+00
    0.1000000000E+04    0.1269618587E+00    0.1918000064E+00    0.6712319625E-01    0.1339272078E+00    0.4435687599E+00
    0.3000000000E+04    0.2140739226E+00    0.1195565518E+00    0.7490316568E-01    0.2260247834E+00    0.4992004410E+00
    0.5000000000E+04    0.2551338807E+00    0.8627121823E-01    0.7751300869E-01    0.2695313434E+00    0.5187767617E+00
    0.7000000000E+04    0.2772219045E+00    0.6831722574E-01    0.7893144248E-01    0.2929918191E+00    0.5297675761E+00
    0.9000000000E+04    0.2903433957E+00    0.5738412994E-01    0.7985042489E-01    0.3069658742E+00    0.5370820971E+00
    0.1100000000E+05    0.2987775047E+00    0.5009717014E-01    0.8050479548E-01    0.3159742855E+00    0.5424153591E+00
    0.1300000000E+05    0.3045424420E+00    0.4490140699E-01    0.8099934432E-01    0.3221512161E+00    0.5465340120E+00
    0.1500000000E+05    0.3086775624E+00    0.4100233658E-01    0.8138881393E-01    0.3265967464E+00    0.5498432310E+00
    0.1700000000E+05    0.3117596060E+00    0.3795850228E-01    0.8170494156E-01    0.3299218826E+00    0.5525803838E+00
    0.1900000000E+05    0.3141291141E+00    0.3550734127E-01    0.8196754985E-01    0.3324877431E+00    0.5548951624E+00
    0.2100000000E+05    0.3159978194E+00    0.3348374313E-01    0.8218973430E-01    0.3345190765E+00    0.5568873553E+00
    0.2300000000E+05    0.3175031861E+00    0.3177897805E-01    0.8238053433E-01    0.3361619452E+00    0.5586264341E+00
    0.2500000000E+05    0.3187377830E+00    0.3031862433E-01    0.8254641376E-01    0.3375148112E+00    0.5601624826E+00
    0.2700000000E+05    0.3197659217E+00    0.2905004932E-01    0.8269213091E-01    0.3386461542E+00    0.5615326583E+00
    0.2900000000E+05    0.3206334994E+00    0.2793497429E-01    0.8282127484E-01    0.3396049002E+00    0.5627651992E+00
    0.3100000000E+05    0.3213740455E+00    0.2694487962E-01    0.8293660927E-01    0.3404268321E+00    0.5638820080E+00
    0.3300000000E+05    0.3220125610E+00    0.2605806577E-01    0.8304030057E-01    0.3411386622E+00    0.5649003742E+00
    0.3500000000E+05    0.3225680275E+00    0.2525771546E-01    0.8313407345E-01    0.3417606955E+00    0.5658341561E+00
    0.3700000000E+05    0.3230550894E+00    0.2453058169E-01    0.8321931975E-01    0.3423086167E+00    0.5666946120E+00
    0.3900000000E+05    0.3234852084E+00    0.2386607808E-01    0.8329717634E-01    0.3427947165E+00    0.5674909971E+00
    0.4100000000E+05    0.3238674711E+00    0.2325563469E-01    0.8336858185E-01    0.3432287516E+00    0.5682310009E+00
    0.4300000000E+05    0.3242091661E+00    0.2269223327E-01    0.8343431876E-01    0.3436185578E+00    0.5689210732E+00
    0.4500000000E+05    0.3245162014E+00    0.2217006594E-01    0.8349504505E-01    0.3439704951E+00    0.5695666701E+00
    0.4700000000E+05    0.3247934123E+00    0.2168428084E-01    0.8355131842E-01    0.3442897756E+00    0.5701724436E+00
    0.4900000000E+05    0.3250447915E+00    0.2123078975E-01    0.8360361496E-01    0.3445807087E+00    0.5707423880E+00
    0.1000000000E+05    0.2949878997E+00    0.5340740748E-01    0.8020245026E-01    0.3119232501E+00    0.5399363306E+00
    0.3000000000E+05    0.3210179233E+00    0.2742579401E-01    0.8288052095E-01    0.3400311223E+00    0.5633368974E+00
    0.5000000000E+05    0.3251618550E+00    0.2101504871E-01    0.8362840206E-01    0.3447166914E+00    0.5710150216E+00
    0.7000000000E+05    0.3267214182E+00    0.1777391163E-01    0.8398991688E-01    0.3465705667E+00    0.5752222073E+00
    0.9000000000E+05    0.3275143827E+00    0.1572087942E-01    0.8420214870E-01    0.3475635989E+00    0.5779880486E+00
    0.1100000000E+06    0.3279852180E+00    0.1426649935E-01    0.8434009555E-01    0.3481856017E+00    0.5799904239E+00
    0.1300000000E+06    0.3282925228E+00    0.1316455125E-01    0.8443550770E-01    0.3486142925E+00    0.5815299513E+00
    0.1500000000E+06    0.3285062514E+00    0.1229119251E-01    0.8450426402E-01    0.3489294043E+00    0.5827634201E+00
    0.1700000000E+06    0.3286618077E+00    0.1157628025E-01    0.8455522583E-01    0.3491719940E+00    0.5837818102E+00
    0.1900000000E+06    0.3287789343E+00    0.1097665124E-01    0.8459373999E-01    0.3493653614E+00    0.5846420829E+00
    0.2100000000E+06    0.3288694646E+00    0.1046406266E-01    0.8462322766E-01    0.3495237217E+00    0.5853819955E+00
    0.2300000000E+06    0.3289409000E+00    0.1001913798E-01    0.8464598035E-01    0.3496562481E+00    0.5860277151E+00
    0.2500000000E+06    0.3289982125E+00    0.9628072661E-02    0.8466359026E-01    0.3497691315E+00    0.5865980361E+00
    0.2700000000E+06    0.3290448202E+00    0.9280724727E-02    0.8467719755E-01    0.3498667055E+00    0.5871068596E+00
    0.2900000000E+06    0.3290831452E+00    0.8969449947E-02    0.8468763947E-01    0.3499520973E+00    0.5875647225E+00
    0.3100000000E+06    0.3291149485E+00    0.8688360814E-02    0.8469554409E-01    0.3500276228E+00    0.5879797800E+00
    0.3300000000E+06    0.3291415389E+00    0.8432838091E-02    0.8470139124E-01    0.3500950347E+00    0.5883584576E+00
    0.3500000000E+06    0.3291639078E+00    0.8199199001E-02    0.8470555341E-01    0.3501556857E+00    0.5887058978E+00
    0.3700000000E+06    0.3291828186E+00    0.7984465883E-02    0.8470832375E-01    0.3502106369E+00    0.5890262722E+00
    0.3900000000E+06    0.3291988680E+00    0.7786201187E-02    0.8470993587E-01    0.3502607330E+00    0.5893230067E+00
    0.4100000000E+06    0.3292125283E+00    0.7602387412E-02    0.8471057791E-01    0.3503066556E+00    0.5895989442E+00
    0.4300000000E+06    0.3292241781E+00    0.7431338186E-02    0.8471040292E-01    0.3503489611E+00    0.5898564677E+00
    0.4500000000E+06    0.3292341235E+00    0.7271631356E-02    0.8470953646E-01    0.3503881080E+00    0.5900975913E+00
    0.4700000000E+06    0.3292426148E+00    0.7122057923E-02    0.8470808236E-01    0.3504244785E+00    0.5903240311E+00
    0.4900000000E+06    0.3292498583E+00    0.6981582554E-02    0.8470612711E-01    0.3504583935E+00    0.5905372601E+00
    0.1000000000E+06    0.3277769742E+00    0.1493845389E-01    0.8427788041E-01    0.3479063711E+00    0.5790610218E+00
    0.3000000000E+06    0.3290997715E+00    0.8825446116E-02    0.8469187603E-01    0.3499909728E+00    0.5877771658E+00
    0.5000000000E+06    0.3292530668E+00    0.6914472852E-02    0.8470498467E-01    0.3504745167E+00    0.5906393249E+00
    0.7000000000E+06    0.3292811802E+00    0.5886250905E-02    0.8466843414E-01    0.3507164293E+00    0.5922211280E+00
    0.9000000000E+06    0.3292769374E+00    0.5218424141E-02    0.8462157666E-01    0.3508705898E+00    0.5932703043E+00
    0.1100000000E+07    0.3292618278E+00    0.4739486907E-02    0.8457361225E-01    0.3509813676E+00    0.5940363062E+00
    0.1300000000E+07    0.3292428474E+00    0.4374163648E-02    0.8452723120E-01    0.3510668613E+00    0.5946299065E+00
    0.1500000000E+07    0.3292227072E+00    0.4083487696E-02    0.8448321688E-01    0.3511360185E+00    0.5951090099E+00
    0.1700000000E+07    0.3292025594E+00    0.3844982679E-02    0.8444170492E-01    0.3511938466E+00    0.5955073053E+00
    0.1900000000E+07    0.3291829107E+00    0.3644646961E-02    0.8440259916E-01    0.3512434028E+00    0.5958459439E+00
    0.2100000000E+07    0.3291639773E+00    0.3473239902E-02    0.8436572543E-01    0.3512866781E+00    0.5961389864E+00
    0.2300000000E+07    0.3291458365E+00    0.3324382305E-02    0.8433089182E-01    0.3513250356E+00    0.5963962051E+00
    0.2500000000E+07    0.3291284986E+00    0.3193508475E-02    0.8429791252E-01    0.3513594461E+00    0.5966246389E+00
    0.2700000000E+07    0.3291119406E+00    0.3077252410E-02    0.8426661661E-01    0.3513906238E+00    0.5968295085E+00
    0.2900000000E+07    0.3290961245E+00    0.2973070353E-02    0.8423685046E-01    0.3514191083E+00    0.5970147820E+00
    0.3100000000E+07    0.3290810059E+00    0.2878999100E-02    0.8420847738E-01    0.3514453167E+00    0.5971835388E+00
    0.3300000000E+07    0.3290665393E+00    0.2793495895E-02    0.8418137631E-01    0.3514695776E+00    0.5973382117E+00
    0.3500000000E+07    0.3290526802E+00    0.2715329199E-02    0.8415544006E-01    0.3514921542E+00    0.5974807524E+00
    0.3700000000E+07    0.3290393863E+00    0.2643502288E-02    0.8413057369E-01    0.3515132604E+00    0.5976127484E+00
    0.3900000000E+07    0.3290266185E+00    0.2577198594E-02    0.8410669284E-01    0.3515330726E+00    0.5977355063E+00
    0.4100000000E+07    0.3290143403E+00    0.2515741858E-02    0.8408372245E-01    0.3515517372E+00    0.5978501133E+00
    0.4300000000E+07    0.3290025186E+00    0.2458566541E-02    0.8406159545E-01    0.3515693777E+00    0.5979574825E+00
    0.4500000000E+07    0.3289911228E+00    0.2405195539E-02    0.8404025178E-01    0.3515860988E+00    0.5980583877E+00
    0.4700000000E+07    0.3289801250E+00    0.2355223144E-02    0.8401963744E-01    0.3516019902E+00    0.5981534895E+00
    0.4900000000E+07    0.3289694998E+00    0.2308301852E-02    0.8399970379E-01    0.3516171290E+00    0.5982433561E+00
    0.1000000000E+07    0.3292701469E+00    0.4961279327E-02    0.8459749402E-01    0.3509299534E+00    0.5936799931E+00
    0.3000000000E+07    0.3290884809E+00    0.2924875678E-02    0.8422249770E-01    0.3514324747E+00    0.5971010600E+00
    0.5000000000E+07    0.3289643195E+00    0.2285890105E-02    0.8398997831E-01    0.3516244375E+00    0.5982864826E+00
    0.7000000000E+07    0.3288755650E+00    0.1942887747E-02    0.8382245986E-01    0.3517435575E+00    0.5989650259E+00
    0.9000000000E+07    0.3288067526E+00    0.1720554315E-02    0.8369118846E-01    0.3518298818E+00    0.5994274069E+00
    0.1100000000E+08    0.3287506040E+00    0.1561356466E-02    0.8358307912E-01    0.3518975471E+00    0.5997725592E+00
    0.1300000000E+08    0.3287031911E+00    0.1440075946E-02    0.8349108083E-01    0.3519531732E+00    0.6000451317E+00
    0.1500000000E+08    0.3286621636E+00    0.1343675931E-02    0.8341095376E-01    0.3520003898E+00    0.6002687904E+00
    0.1700000000E+08    0.3286260057E+00    0.1264645761E-02    0.8333994631E-01    0.3520414011E+00    0.6004574739E+00
    0.1900000000E+08    0.3285936838E+00    0.1198311696E-02    0.8327616955E-01    0.3520776458E+00    0.6006200306E+00
    0.2100000000E+08    0.3285644615E+00    0.1141592143E-02    0.8321826962E-01    0.3521101146E+00    0.6007624022E+00
    0.2300000000E+08    0.3285377959E+00    0.1092361539E-02    0.8316524246E-01    0.3521395187E+00    0.6008887565E+00
    0.2500000000E+08    0.3285132753E+00    0.1049099728E-02    0.8311632247E-01    0.3521663858E+00    0.6010021217E+00
    0.2700000000E+08    0.3284905800E+00    0.1010686753E-02    0.8307091232E-01    0.3521911182E+00    0.6011047616E+00
