  Pressure (Pa) 22mC5-400 (mol/kg) 2mC6-400 (mol/kg) 3mC6-400 (mol/kg) 23mC5-400 (mol/kg) C7-400 (mol/kg)
    0.1000000000E+01    0.5296812101E-03    0.4741665011E-02    0.4190459095E-02    0.2790184050E-03    0.3400031615E-02
    0.3000000000E+01    0.1570881015E-02    0.1376498666E-01    0.1216274943E-01    0.8274930453E-03    0.9870016897E-02
    0.5000000000E+01    0.2588755306E-02    0.2222357772E-01    0.1963508905E-01    0.1363687322E-02    0.1593610627E-01
    0.7000000000E+01    0.3584317131E-02    0.3016932270E-01    0.2665526353E-01    0.1888134519E-02    0.2163684991E-01
    0.9000000000E+01    0.4558519336E-02    0.3764776497E-01    0.3326509168E-01    0.2401336233E-02    0.2700598782E-01
    0.1100000000E+02    0.5512259028E-02    0.4469906244E-01    0.3950133171E-01    0.2903764719E-02    0.3207318014E-01
    0.1300000000E+02    0.6446381656E-02    0.5135877397E-01    0.4539642710E-01    0.3395865042E-02    0.3686460812E-01
    0.1500000000E+02    0.7361684730E-02    0.5765851085E-01    0.5097912400E-01    0.3878057031E-02    0.4140347168E-01
    0.1700000000E+02    0.8258921226E-02    0.6362647951E-01    0.5627498552E-01    0.4350737075E-02    0.4571040392E-01
    0.1900000000E+02    0.9138802692E-02    0.6928793625E-01    0.6130682227E-01    0.4814279754E-02    0.4980381814E-01
    0.2100000000E+02    0.1000200211E-01    0.7466557028E-01    0.6609505484E-01    0.5269039349E-02    0.5370019999E-01
    0.2300000000E+02    0.1084915652E-01    0.7977982797E-01    0.7065802026E-01    0.5715351216E-02    0.5741435452E-01
    0.2500000000E+02    0.1168086940E-01    0.8464918859E-01    0.7501223251E-01    0.6153533057E-02    0.6095961619E-01
    0.2700000000E+02    0.1249771293E-01    0.8929039995E-01    0.7917260468E-01    0.6583886082E-02    0.6434802802E-01
    0.2900000000E+02    0.1330022998E-01    0.9371868046E-01    0.8315263950E-01    0.7006696086E-02    0.6759049512E-01
    0.3100000000E+02    0.1408893603E-01    0.9794789332E-01    0.8696459309E-01    0.7422234440E-02    0.7069691682E-01
    0.3300000000E+02    0.1486432089E-01    0.1019906970E+00    0.9061961647E-01    0.7830759002E-02    0.7367630071E-01
    0.3500000000E+02    0.1562685031E-01    0.1058586760E+00    0.9412787810E-01    0.8232514965E-02    0.7653686147E-01
    0.3700000000E+02    0.1637696746E-01    0.1095624547E+00    0.9749867045E-01    0.8627735639E-02    0.7928610687E-01
    0.3900000000E+02    0.1711509433E-01    0.1131117964E+00    0.1007405030E+00    0.9016643174E-02    0.8193091268E-01
    0.4100000000E+02    0.1784163295E-01    0.1165156911E+00    0.1038611835E+00    0.9399449233E-02    0.8447758832E-01
    0.4300000000E+02    0.1855696665E-01    0.1197824317E+00    0.1068678894E+00    0.9776355613E-02    0.8693193440E-01
    0.4500000000E+02    0.1926146109E-01    0.1229196817E+00    0.1097672306E+00    0.1014755483E-01    0.8929929339E-01
    0.4700000000E+02    0.1995546534E-01    0.1259345349E+00    0.1125653051E+00    0.1051323064E-01    0.9158459434E-01
    0.4900000000E+02    0.2063931278E-01    0.1288335685E+00    0.1152677475E+00    0.1087355857E-01    0.9379239243E-01
    0.1000000000E+02    0.5037892990E-02    0.4122448481E-01    0.3642778916E-01    0.2653868699E-02    0.2957561560E-01
    0.3000000000E+02    0.1369627818E-01    0.9585735257E-01    0.8507890513E-01    0.7215357797E-02    0.6916012900E-01
    0.5000000000E+02    0.2097752782E-01    0.1302415787E+00    0.1165847518E+00    0.1105176979E-01    0.9486855789E-01
    0.7000000000E+02    0.2727903057E-01    0.1535953373E+00    0.1389847741E+00    0.1437231187E-01    0.1131967954E+00
    0.9000000000E+02    0.3285328834E-01    0.1702414278E+00    0.1559228475E+00    0.1730992007E-01    0.1270920061E+00
    0.1100000000E+03    0.3786922661E-01    0.1824999827E+00    0.1693009737E+00    0.1995353265E-01    0.1380939844E+00
    0.1300000000E+03    0.4244462455E-01    0.1917353957E+00    0.1802144286E+00    0.2236516164E-01    0.1470902429E+00
    0.1500000000E+03    0.4666442999E-01    0.1988048103E+00    0.1893414114E+00    0.2458953434E-01    0.1546308255E+00
    0.1700000000E+03    0.5059166850E-01    0.2042743609E+00    0.1971260130E+00    0.2665983631E-01    0.1610762224E+00
    0.1900000000E+03    0.5427423487E-01    0.2085329876E+00    0.2038722388E+00    0.2860128678E-01    0.1666734219E+00
    0.2100000000E+03    0.5774928176E-01    0.2118565349E+00    0.2097958608E+00    0.3043344910E-01    0.1715978755E+00
    0.2300000000E+03    0.6104614761E-01    0.2144458483E+00    0.2150546921E+00    0.3217177229E-01    0.1759780132E+00
    0.2500000000E+03    0.6418836478E-01    0.2164504358E+00    0.2197671124E+00    0.3382864823E-01    0.1799102525E+00
    0.2700000000E+03    0.6719507044E-01    0.2179837111E+00    0.2240238619E+00    0.3541415456E-01    0.1834685583E+00
    0.2900000000E+03    0.7008201924E-01    0.2191331219E+00    0.2278958058E+00    0.3693658781E-01    0.1867107408E+00
    0.3100000000E+03    0.7286232407E-01    0.2199670624E+00    0.2314391962E+00    0.3840285347E-01    0.1896827248E+00
    0.3300000000E+03    0.7554700708E-01    0.2205396995E+00    0.2346993306E+00    0.3981875609E-01    0.1924215201E+00
    0.3500000000E+03    0.7814541595E-01    0.2208944127E+00    0.2377131513E+00    0.4118921848E-01    0.1949573327E+00
    0.3700000000E+03    0.8066554270E-01    0.2210662897E+00    0.2405111301E+00    0.4251844956E-01    0.1973150964E+00
    0.3900000000E+03    0.8311427092E-01    0.2210839657E+00    0.2431186586E+00    0.4381007455E-01    0.1995156035E+00
    0.4100000000E+03    0.8549756967E-01    0.2209709994E+00    0.2455570903E+00    0.4506723709E-01    0.2015763522E+00
    0.4300000000E+03    0.8782064727E-01    0.2207469150E+00    0.2478445330E+00    0.4629268018E-01    0.2035121914E+00
    0.4500000000E+03    0.9008807432E-01    0.2204280015E+00    0.2499964588E+00    0.4748881100E-01    0.2053358177E+00
    0.4700000000E+03    0.9230388310E-01    0.2200279310E+00    0.2520261798E+00    0.4865775322E-01    0.2070581627E+00
    0.4900000000E+03    0.9447164843E-01    0.2195582439E+00    0.2539452225E+00    0.4980138961E-01    0.2086886981E+00
    0.1000000000E+03    0.3542274952E-01    0.1768183588E+00    0.1629755710E+00    0.1866410692E-01    0.1328887624E+00
    0.3000000000E+03    0.7148476970E-01    0.2195858529E+00    0.2297055170E+00    0.3767635586E-01    0.1882280137E+00
    0.5000000000E+03    0.9553852344E-01    0.2193004131E+00    0.2548664280E+00    0.5036424935E-01    0.2094721588E+00
    0.7000000000E+03    0.1149709784E+00    0.2122215132E+00    0.2693519662E+00    0.6061797625E-01    0.2218626388E+00
    0.9000000000E+03    0.1317925692E+00    0.2037294384E+00    0.2791571783E+00    0.6949640194E-01    0.2303384656E+00
    0.1100000000E+04    0.1468445155E+00    0.1951721007E+00    0.2863970737E+00    0.7744259340E-01    0.2366533545E+00
    0.1300000000E+04    0.1605641797E+00    0.1869546632E+00    0.2920425087E+00    0.8468690074E-01    0.2416167541E+00
    0.1500000000E+04    0.1732120352E+00    0.1791966908E+00    0.2966130119E+00    0.9136650155E-01    0.2456639328E+00
    0.1700000000E+04    0.1849587426E+00    0.1719188045E+00    0.3004162929E+00    0.9757126678E-01    0.2490538319E+00
    0.1900000000E+04    0.1959244749E+00    0.1651054994E+00    0.3036482996E+00    0.1033644753E+00    0.2519520129E+00
    0.2100000000E+04    0.2061988031E+00    0.1587286217E+00    0.3064407946E+00    0.1087932887E+00    0.2544702252E+00
    0.2300000000E+04    0.2158516198E+00    0.1527566795E+00    0.3088862264E+00    0.1138945055E+00    0.2566871531E+00
    0.2500000000E+04    0.2249395310E+00    0.1471585973E+00    0.3110517106E+00    0.1186979281E+00    0.2586601106E+00
    0.2700000000E+04    0.2335097869E+00    0.1419051642E+00    0.3129873558E+00    0.1232284332E+00    0.2604320245E+00
    0.2900000000E+04    0.2416027999E+00    0.1369694955E+00    0.3147314605E+00    0.1275072979E+00    0.2620358038E+00
    0.3100000000E+04    0.2492538125E+00    0.1323270741E+00    0.3163138841E+00    0.1315530784E+00    0.2634971808E+00
    0.3300000000E+04    0.2564940358E+00    0.1279556176E+00    0.3177583088E+00    0.1353822093E+00    0.2648366213E+00
    0.3500000000E+04    0.2633514487E+00    0.1238348861E+00    0.3190837985E+00    0.1390094242E+00    0.2660706447E+00
    0.3700000000E+04    0.2698513713E+00    0.1199464783E+00    0.3203059012E+00    0.1424480581E+00    0.2672127590E+00
    0.3900000000E+04    0.2760168881E+00    0.1162736378E+00    0.3214374449E+00    0.1457102695E+00    0.2682741370E+00
    0.4100000000E+04    0.2818691673E+00    0.1128010781E+00    0.3224891225E+00    0.1488072089E+00    0.2692641150E+00
    0.4300000000E+04    0.2874277066E+00    0.1095148261E+00    0.3234699304E+00    0.1517491477E+00    0.2701905663E+00
    0.4500000000E+04    0.2927105280E+00    0.1064020858E+00    0.3243875006E+00    0.1545455812E+00    0.2710601857E+00
    0.4700000000E+04    0.2977343351E+00    0.1034511177E+00    0.3252483568E+00    0.1572053107E+00    0.2718787086E+00
    0.4900000000E+04    0.3025146425E+00    0.1006511340E+00    0.3260581140E+00    0.1597365120E+00    0.2726510823E+00
    0.1000000000E+04    0.1395066838E+00    0.1994230965E+00    0.2830220177E+00    0.7356861252E-01    0.2337029416E+00
    0.3000000000E+04    0.2454815217E+00    0.1346130718E+00    0.3155412785E+00    0.1295582524E+00    0.2627829078E+00
    0.5000000000E+04    0.3048180342E+00    0.9930462751E-01    0.3264453759E+00    0.1609563127E+00    0.2730213275E+00
    0.7000000000E+04    0.3411203768E+00    0.7827013122E-01    0.3324064777E+00    0.1801956124E+00    0.2787998025E+00
    0.9000000000E+04    0.3645905652E+00    0.6476658027E-01    0.3362955581E+00    0.1926549882E+00    0.2826669098E+00
    0.1100000000E+05    0.3805300827E+00    0.5555062481E-01    0.3390848233E+00    0.2011319339E+00    0.2855018857E+00
    0.1300000000E+05    0.3918283773E+00    0.4893596621E-01    0.3412080585E+00    0.2071522661E+00    0.2877026831E+00
    0.1500000000E+05    0.4001331947E+00    0.4398793970E-01    0.3428920738E+00    0.2115866839E+00    0.2894798536E+00
    0.1700000000E+05    0.4064275682E+00    0.4015852032E-01    0.3442685470E+00    0.2149549755E+00    0.2909569018E+00
    0.1900000000E+05    0.4113232196E+00    0.3711015884E-01    0.3454198614E+00    0.2175808016E+00    0.2922118184E+00
    0.2100000000E+05    0.4152155418E+00    0.3462584407E-01    0.3464005442E+00    0.2196734986E+00    0.2932966674E+00
    0.2300000000E+05    0.4183688493E+00    0.3256077185E-01    0.3472483089E+00    0.2213730966E+00    0.2942477482E+00
    0.2500000000E+05    0.4209651536E+00    0.3081514275E-01    0.3479901789E+00    0.2227760872E+00    0.2950912692E+00
    0.2700000000E+05    0.4231331129E+00    0.2931820492E-01    0.3486460896E+00    0.2239507236E+00    0.2958467047E+00
    0.2900000000E+05    0.4249657970E+00    0.2801854163E-01    0.3492311098E+00    0.2249464141E+00    0.2965288773E+00
    0.3100000000E+05    0.4265319263E+00    0.2687796247E-01    0.3497568680E+00    0.2257996667E+00    0.2971493022E+00
    0.3300000000E+05    0.4278831769E+00    0.2586754664E-01    0.3502324992E+00    0.2265379544E+00    0.2977170835E+00
    0.3500000000E+05    0.4290590478E+00    0.2496501215E-01    0.3506652917E+00    0.2271822922E+00    0.2982395302E+00
    0.3700000000E+05    0.4300901771E+00    0.2415292494E-01    0.3510611400E+00    0.2277489934E+00    0.2987225893E+00
    0.3900000000E+05    0.4310006467E+00    0.2341745345E-01    0.3514248689E+00    0.2282508902E+00    0.2991711574E+00
    0.4100000000E+05    0.4318096140E+00    0.2274748587E-01    0.3517604708E+00    0.2286981990E+00    0.2995893092E+00
    0.4300000000E+05    0.4325324863E+00    0.2213399336E-01    0.3520712807E+00    0.2290991431E+00    0.2999804676E+00
    0.4500000000E+05    0.4331817795E+00    0.2156956330E-01    0.3523601091E+00    0.2294604078E+00    0.3003475326E+00
    0.4700000000E+05    0.4337677536E+00    0.2104805231E-01    0.3526293433E+00    0.2297874782E+00    0.3006929808E+00
    0.4900000000E+05    0.4342988908E+00    0.2056432463E-01    0.3528810253E+00    0.2300848929E+00    0.3010189416E+00
    0.1000000000E+05    0.3732822441E+00    0.5975199714E-01    0.3377935782E+00    0.1972754234E+00    0.2841822497E+00
    0.3000000000E+05    0.4257786181E+00    0.2743035549E-01    0.3495007760E+00    0.2253889515E+00    0.2968461910E+00
    0.5000000000E+05    0.4345461511E+00    0.2033525004E-01    0.3530008435E+00    0.2302236872E+00    0.3011752000E+00
    0.7000000000E+05    0.4378348106E+00    0.1697290720E-01    0.3547974351E+00    0.2320983170E+00    0.3036175526E+00
    0.9000000000E+05    0.4395049858E+00    0.1491426356E-01    0.3559153831E+00    0.2330843614E+00    0.3052613259E+00
    0.1100000000E+06    0.4404995246E+00    0.1348476216E-01    0.3566859483E+00    0.2336931190E+00    0.3064752805E+00
    0.1300000000E+06    0.4411527198E+00    0.1241542859E-01    0.3572521592E+00    0.2341078829E+00    0.3074250056E+00
    0.1500000000E+06    0.4416111346E+00    0.1157526619E-01    0.3576868900E+00    0.2344099364E+00    0.3081978251E+00
    0.1700000000E+06    0.4419485897E+00    0.1089178414E-01    0.3580315423E+00    0.2346407028E+00    0.3088449184E+00
    0.1900000000E+06    0.4422061039E+00    0.1032114067E-01    0.3583115358E+00    0.2348234757E+00    0.3093986226E+00
    0.2100000000E+06    0.4424082039E+00    0.9835027745E-02    0.3585434145E+00    0.2349723535E+00    0.3098805545E+00
    0.2300000000E+06    0.4425704141E+00    0.9414225790E-02    0.3587384473E+00    0.2350963699E+00    0.3103058141E+00
    0.2500000000E+06    0.4427030178E+00    0.9045156110E-02    0.3589045957E+00    0.2352015833E+00    0.3106853273E+00
    0.2700000000E+06    0.4428130847E+00    0.8717910335E-02    0.3590476559E+00    0.2352922113E+00    0.3110272320E+00
    0.2900000000E+06    0.4429056279E+00    0.8425062235E-02    0.3591719551E+00    0.2353712819E+00    0.3113377379E+00
    0.3100000000E+06    0.4429842966E+00    0.8160919058E-02    0.3592807932E+00    0.2354410274E+00    0.3116216812E+00
    0.3300000000E+06    0.4430518073E+00    0.7921032117E-02    0.3593767335E+00    0.2355031306E+00    0.3118828953E+00
    0.3500000000E+06    0.4431102220E+00    0.7701866643E-02    0.3594617993E+00    0.2355588850E+00    0.3121244660E+00
    0.3700000000E+06    0.4431611326E+00    0.7500572994E-02    0.3595376095E+00    0.2356093021E+00    0.3123489104E+00
    0.3900000000E+06    0.4432057868E+00    0.7314824332E-02    0.3596054764E+00    0.2356551845E+00    0.3125583064E+00
    0.4100000000E+06    0.4432451753E+00    0.7142699051E-02    0.3596664749E+00    0.2356971780E+00    0.3127543875E+00
    0.4300000000E+06    0.4432800947E+00    0.6982594062E-02    0.3597214945E+00    0.2357358081E+00    0.3129386136E+00
    0.4500000000E+06    0.4433111920E+00    0.6833159767E-02    0.3597712779E+00    0.2357715074E+00    0.3131122246E+00
    0.4700000000E+06    0.4433389979E+00    0.6693250598E-02    0.3598164501E+00    0.2358046350E+00    0.3132762821E+00
    0.4900000000E+06    0.4433639517E+00    0.6561886878E-02    0.3598575411E+00    0.2358354920E+00    0.3134317010E+00
    0.1000000000E+06    0.4400590690E+00    0.1414248836E-01    0.3563327618E+00    0.2334207887E+00    0.3059090462E+00
    0.3000000000E+06    0.4429465087E+00    0.8289705258E-02    0.3592281319E+00    0.2354072044E+00    0.3114827702E+00
    0.5000000000E+06    0.4433754760E+00    0.6499141316E-02    0.3598767002E+00    0.2358501501E+00    0.3135064232E+00
    0.7000000000E+06    0.4435197888E+00    0.5538458196E-02    0.3601270698E+00    0.2360692577E+00    0.3146945330E+00
    0.9000000000E+06    0.4435804874E+00    0.4914844432E-02    0.3602371661E+00    0.2362081782E+00    0.3155187449E+00
    0.1100000000E+07    0.4436073058E+00    0.4467584929E-02    0.3602834248E+00    0.2363077389E+00    0.3161425595E+00
    0.1300000000E+07    0.4436178909E+00    0.4126328889E-02    0.3602963717E+00    0.2363844598E+00    0.3166407807E+00
    0.1500000000E+07    0.4436198777E+00    0.3854705080E-02    0.3602904364E+00    0.2364464656E+00    0.3170534959E+00
    0.1700000000E+07    0.4436170158E+00    0.3631747460E-02    0.3602732280E+00    0.2364982869E+00    0.3174045360E+00
    0.1900000000E+07    0.4436113153E+00    0.3444399217E-02    0.3602490781E+00    0.2365426824E+00    0.3177091510E+00
    0.2100000000E+07    0.4436039243E+00    0.3284044287E-02    0.3602205951E+00    0.2365814452E+00    0.3179776540E+00
    0.2300000000E+07    0.4435955305E+00    0.3144734692E-02    0.3601894171E+00    0.2366158010E+00    0.3182173256E+00
    0.2500000000E+07    0.4435865607E+00    0.3022213107E-02    0.3601566067E+00    0.2366466219E+00    0.3184334860E+00
    0.2700000000E+07    0.4435772869E+00    0.2913340552E-02    0.3601228706E+00    0.2366745486E+00    0.3186301339E+00
    0.2900000000E+07    0.4435678856E+00    0.2815744518E-02    0.3600886870E+00    0.2367000650E+00    0.3188103466E+00
    0.3100000000E+07    0.4435584731E+00    0.2727593697E-02    0.3600543841E+00    0.2367235447E+00    0.3189765400E+00
    0.3300000000E+07    0.4435491259E+00    0.2647448749E-02    0.3600201888E+00    0.2367452822E+00    0.3191306438E+00
    0.3500000000E+07    0.4435398945E+00    0.2574160498E-02    0.3599862580E+00    0.2367655130E+00    0.3192742220E+00
    0.3700000000E+07    0.4435308118E+00    0.2506798721E-02    0.3599527003E+00    0.2367844287E+00    0.3194085595E+00
    0.3900000000E+07    0.4435218985E+00    0.2444601202E-02    0.3599195897E+00    0.2368021869E+00    0.3195347236E+00
    0.4100000000E+07    0.4435131670E+00    0.2386936584E-02    0.3598869756E+00    0.2368189189E+00    0.3196536101E+00
    0.4300000000E+07    0.4435046239E+00    0.2333276791E-02    0.3598548895E+00    0.2368347348E+00    0.3197659780E+00
    0.4500000000E+07    0.4434962719E+00    0.2283176247E-02    0.3598233501E+00    0.2368497284E+00    0.3198724756E+00
    0.4700000000E+07    0.4434881107E+00    0.2236255992E-02    0.3597923668E+00    0.2368639799E+00    0.3199736609E+00
    0.4900000000E+07    0.4434801380E+00    0.2192191380E-02    0.3597619418E+00    0.2368775582E+00    0.3200700171E+00
    0.1000000000E+07    0.4435966696E+00    0.4674719588E-02    0.3602658083E+00    0.2362615547E+00    0.3158498639E+00
    0.3000000000E+07    0.4435631752E+00    0.2770586227E-02    0.3600715344E+00    0.2367120394E+00    0.3188950653E+00
    0.5000000000E+07    0.4434762214E+00    0.2171140928E-02    0.3597469381E+00    0.2368841140E+00    0.3201165182E+00
    0.7000000000E+07    0.4434066353E+00    0.1848694107E-02    0.3594741706E+00    0.2369910280E+00    0.3208718640E+00
    0.9000000000E+07    0.4433502501E+00    0.1639370102E-02    0.3592448603E+00    0.2370685859E+00    0.3214146383E+00
    0.1100000000E+08    0.4433031368E+00    0.1489310392E-02    0.3590479277E+00    0.2371294287E+00    0.3218364417E+00
    0.1300000000E+08    0.4432627575E+00    0.1374880336E-02    0.3588755049E+00    0.2371794786E+00    0.3221804663E+00
    0.1500000000E+08    0.4432274574E+00    0.1283850209E-02    0.3587221608E+00    0.2372219848E+00    0.3224704204E+00
    0.1700000000E+08    0.4431961142E+00    0.1209168667E-02    0.3585840566E+00    0.2372589215E+00    0.3227206805E+00
    0.1900000000E+08    0.4431679362E+00    0.1146444717E-02    0.3584583974E+00    0.2372915780E+00    0.3229406043E+00
    0.2100000000E+08    0.4431423458E+00    0.1092781394E-02    0.3583430907E+00    0.2373208423E+00    0.3231366145E+00
    0.2300000000E+08    0.4431189092E+00    0.1046179373E-02    0.3582365314E+00    0.2373473523E+00    0.3233133053E+00
    0.2500000000E+08    0.4430972930E+00    0.1005208055E-02    0.3581374619E+00    0.2373715816E+00    0.3234740731E+00
    0.2700000000E+08    0.4430772352E+00    0.9688129740E-03    0.3580448789E+00    0.2373938910E+00    0.3236214984E+00
