  Pressure (Pa) 22mC5-400 (mol/kg) 2mC6-400 (mol/kg) 3mC6-400 (mol/kg) 23mC5-400 (mol/kg) C7-400 (mol/kg)
    0.1000000000E+01    0.5306895552E-03    0.2378300445E-02    0.4202439020E-02    0.5590987432E-03    0.3409714661E-02
    0.3000000000E+01    0.1579723710E-02    0.6945790535E-02    0.1226364491E-01    0.1664298782E-02    0.9951576882E-02
    0.5000000000E+01    0.2612698000E-02    0.1127769543E-01    0.1989789323E-01    0.2752590059E-02    0.1614856980E-01
    0.7000000000E+01    0.3630075804E-02    0.1539204862E-01    0.2713919654E-01    0.3824460382E-02    0.2202812589E-01
    0.9000000000E+01    0.4632302255E-02    0.1930502674E-01    0.3401802343E-01    0.4880378357E-02    0.2761482145E-01
    0.1100000000E+02    0.5619805136E-02    0.2303118605E-01    0.4056174933E-01    0.5920794322E-02    0.3293073966E-01
    0.1300000000E+02    0.6592995724E-02    0.2658366354E-01    0.4679504015E-01    0.6946141241E-02    0.3799577976E-01
    0.1500000000E+02    0.7552269582E-02    0.2997434868E-01    0.5274018015E-01    0.7956835540E-02    0.4282792112E-01
    0.1700000000E+02    0.8498007312E-02    0.3321403058E-01    0.5841735335E-01    0.8953277893E-02    0.4744345001E-01
    0.1900000000E+02    0.9430575257E-02    0.3631252479E-01    0.6384488588E-01    0.9935853968E-02    0.5185715485E-01
    0.2100000000E+02    0.1035032617E-01    0.3927878274E-01    0.6903945550E-01    0.1090493513E-01    0.5608249504E-01
    0.2300000000E+02    0.1125759986E-01    0.4212098667E-01    0.7401627339E-01    0.1186087909E-01    0.6013174748E-01
    0.2500000000E+02    0.1215272373E-01    0.4484663222E-01    0.7878924236E-01    0.1280403056E-01    0.6401613401E-01
    0.2700000000E+02    0.1303601344E-01    0.4746260053E-01    0.8337109499E-01    0.1373472181E-01    0.6774593283E-01
    0.2900000000E+02    0.1390777332E-01    0.4997522127E-01    0.8777351462E-01    0.1465327327E-01    0.7133057590E-01
    0.3100000000E+02    0.1476829697E-01    0.5239032813E-01    0.9200724160E-01    0.1555999400E-01    0.7477873467E-01
    0.3300000000E+02    0.1561786768E-01    0.5471330753E-01    0.9608216690E-01    0.1645518227E-01    0.7809839550E-01
    0.3500000000E+02    0.1645675892E-01    0.5694914174E-01    0.1000074147E+00    0.1733912595E-01    0.8129692624E-01
    0.3700000000E+02    0.1728523473E-01    0.5910244702E-01    0.1037914157E+00    0.1821210302E-01    0.8438113525E-01
    0.3900000000E+02    0.1810355014E-01    0.6117750744E-01    0.1074419717E+00    0.1907438200E-01    0.8735732373E-01
    0.4100000000E+02    0.1891195158E-01    0.6317830502E-01    0.1109663140E+00    0.1992622229E-01    0.9023133229E-01
    0.4300000000E+02    0.1971067719E-01    0.6510854656E-01    0.1143711541E+00    0.2076787462E-01    0.9300858246E-01
    0.4500000000E+02    0.2049995724E-01    0.6697168764E-01    0.1176627302E+00    0.2159958142E-01    0.9569411381E-01
    0.4700000000E+02    0.2128001439E-01    0.6877095413E-01    0.1208468486E+00    0.2242157708E-01    0.9829261716E-01
    0.4900000000E+02    0.2205106403E-01    0.7050936147E-01    0.1239289200E+00    0.2323408839E-01    0.1008084644E+00
    0.1000000000E+02    0.5127868060E-02    0.2119060656E-01    0.3733017297E-01    0.5402496633E-02    0.3030533613E-01
    0.3000000000E+02    0.1433942173E-01    0.5119461733E-01    0.8991082761E-01    0.1510809358E-01    0.7307120144E-01
    0.5000000000E+02    0.2243327643E-01    0.7135663206E-01    0.1254332792E+00    0.2363685626E-01    0.1020366776E+00
    0.7000000000E+02    0.2965195164E-01    0.8570504786E-01    0.1512257139E+00    0.3124410489E-01    0.1231203733E+00
    0.9000000000E+02    0.3617018531E-01    0.9629818418E-01    0.1709181284E+00    0.3811380606E-01    0.1392565767E+00
    0.1100000000E+03    0.4211725524E-01    0.1043126866E+00    0.1865193215E+00    0.4438206904E-01    0.1520704566E+00
    0.1300000000E+03    0.4759099875E-01    0.1104766432E+00    0.1992340103E+00    0.5015190379E-01    0.1625374667E+00
    0.1500000000E+03    0.5266692676E-01    0.1152677220E+00    0.2098302540E+00    0.5550281541E-01    0.1712800096E+00
    0.1700000000E+03    0.5740432772E-01    0.1190136446E+00    0.2188218777E+00    0.6049722975E-01    0.1787148046E+00
    0.1900000000E+03    0.6185046284E-01    0.1219473245E+00    0.2265662677E+00    0.6518491002E-01    0.1851319289E+00
    0.2100000000E+03    0.6604351630E-01    0.1242390718E+00    0.2333201147E+00    0.6960606258E-01    0.1907398943E+00
    0.2300000000E+03    0.7001471213E-01    0.1260163729E+00    0.2392728237E+00    0.7379356564E-01    0.1956926768E+00
    0.2500000000E+03    0.7378986104E-01    0.1273765518E+00    0.2445673975E+00    0.7777459772E-01    0.2001066206E+00
    0.2700000000E+03    0.7739050916E-01    0.1283951581E+00    0.2493139614E+00    0.8157184712E-01    0.2040713908E+00
    0.2900000000E+03    0.8083480377E-01    0.1291316885E+00    0.2535987950E+00    0.8520442336E-01    0.2076572907E+00
    0.3100000000E+03    0.8413815452E-01    0.1296335886E+00    0.2574905259E+00    0.8868855338E-01    0.2109202827E+00
    0.3300000000E+03    0.8731374458E-01    0.1299391130E+00    0.2610444766E+00    0.9203811972E-01    0.2139055137E+00
    0.3500000000E+03    0.9037293028E-01    0.1300794074E+00    0.2643057794E+00    0.9526508129E-01    0.2166498420E+00
    0.3700000000E+03    0.9332555672E-01    0.1300800514E+00    0.2673116495E+00    0.9837980566E-01    0.2191836828E+00
    0.3900000000E+03    0.9618020940E-01    0.1299622174E+00    0.2700930714E+00    0.1013913341E+00    0.2215323777E+00
    0.4100000000E+03    0.9894441656E-01    0.1297435540E+00    0.2726760684E+00    0.1043075944E+00    0.2237172262E+00
    0.4300000000E+03    0.1016248134E+00    0.1294388655E+00    0.2750826721E+00    0.1071355741E+00    0.2257562734E+00
    0.4500000000E+03    0.1042272758E+00    0.1290606430E+00    0.2773316702E+00    0.1098814613E+00    0.2276649190E+00
    0.4700000000E+03    0.1067570311E+00    0.1286194810E+00    0.2794391923E+00    0.1125507607E+00    0.2294563926E+00
    0.4900000000E+03    0.1092187491E+00    0.1281244090E+00    0.2814191705E+00    0.1151483902E+00    0.2311421302E+00
    0.1000000000E+03    0.3920838904E-01    0.1005747406E+00    0.1791415727E+00    0.4131603505E-01    0.1460071228E+00
    0.3000000000E+03    0.8250322615E-01    0.1294093885E+00    0.2555900702E+00    0.8696412697E-01    0.2093261086E+00
    0.5000000000E+03    0.1104254199E+00    0.1278591168E+00    0.2823651759E+00    0.1164217250E+00    0.2319485061E+00
    0.7000000000E+03    0.1318087749E+00    0.1211096560E+00    0.2968336300E+00    0.1389913122E+00    0.2443708162E+00
    0.9000000000E+03    0.1493473148E+00    0.1134597536E+00    0.3061525162E+00    0.1575100316E+00    0.2524835586E+00
    0.1100000000E+04    0.1642316593E+00    0.1060329473E+00    0.3127631694E+00    0.1732317700E+00    0.2583102476E+00
    0.1300000000E+04    0.1771135626E+00    0.9915302246E-01    0.3177494816E+00    0.1868429203E+00    0.2627549954E+00
    0.1500000000E+04    0.1884035129E+00    0.9289162661E-01    0.3216740383E+00    0.1987758004E+00    0.2662898380E+00
    0.1700000000E+04    0.1983860080E+00    0.8723248801E-01    0.3248610116E+00    0.2093300577E+00    0.2691882737E+00
    0.1900000000E+04    0.2072716584E+00    0.8212894393E-01    0.3275117801E+00    0.2187275391E+00    0.2716210894E+00
    0.2100000000E+04    0.2152236373E+00    0.7752603276E-01    0.3297587572E+00    0.2271401440E+00    0.2737011418E+00
    0.2300000000E+04    0.2223724325E+00    0.7336931630E-01    0.3316929739E+00    0.2347053573E+00    0.2755063851E+00
    0.2500000000E+04    0.2288247520E+00    0.6960830850E-01    0.3333792974E+00    0.2415356248E+00    0.2770926206E+00
    0.2700000000E+04    0.2346692754E+00    0.6619759774E-01    0.3348653362E+00    0.2477244085E+00    0.2785009818E+00
    0.2900000000E+04    0.2399805869E+00    0.6309696420E-01    0.3361869076E+00    0.2533503265E+00    0.2797625441E+00
    0.3100000000E+04    0.2448219929E+00    0.6027107073E-01    0.3373715308E+00    0.2584801189E+00    0.2809012802E+00
    0.3300000000E+04    0.2492476193E+00    0.5768899274E-01    0.3384407363E+00    0.2631708556E+00    0.2819360186E+00
    0.3500000000E+04    0.2533040196E+00    0.5532371058E-01    0.3394116368E+00    0.2674716291E+00    0.2828817808E+00
    0.3700000000E+04    0.2570314371E+00    0.5315162043E-01    0.3402980233E+00    0.2714248838E+00    0.2837507163E+00
    0.3900000000E+04    0.2604648142E+00    0.5115208734E-01    0.3411111472E+00    0.2750674778E+00    0.2845527723E+00
    0.4100000000E+04    0.2636346097E+00    0.4930704801E-01    0.3418602884E+00    0.2784315446E+00    0.2852961812E+00
    0.4300000000E+04    0.2665674700E+00    0.4760066344E-01    0.3425531768E+00    0.2815451992E+00    0.2859878229E+00
    0.4500000000E+04    0.2692867836E+00    0.4601901799E-01    0.3431963082E+00    0.2844331222E+00    0.2866334973E+00
    0.4700000000E+04    0.2718131430E+00    0.4454986005E-01    0.3437951853E+00    0.2871170468E+00    0.2872381333E+00
    0.4900000000E+04    0.2741647324E+00    0.4318237936E-01    0.3443545037E+00    0.2896161667E+00    0.2878059495E+00
    0.1000000000E+04    0.1570727785E+00    0.1096890191E+00    0.3097110281E+00    0.1656694640E+00    0.2556115899E+00
    0.3000000000E+04    0.2424564508E+00    0.6165170521E-01    0.3367948729E+00    0.2559734668E+00    0.2803459862E+00
    0.5000000000E+04    0.2752800937E+00    0.4253373626E-01    0.3446206115E+00    0.2908018144E+00    0.2880772061E+00
    0.7000000000E+04    0.2914773345E+00    0.3308596181E-01    0.3486009580E+00    0.3080493367E+00    0.2922351664E+00
    0.9000000000E+04    0.3007769828E+00    0.2758083747E-01    0.3510752044E+00    0.3179903291E+00    0.2949432536E+00
    0.1100000000E+05    0.3066912518E+00    0.2399404610E-01    0.3527858507E+00    0.3243386040E+00    0.2968942746E+00
    0.1300000000E+05    0.3107350670E+00    0.2146733756E-01    0.3540498205E+00    0.3286980304E+00    0.2983907418E+00
    0.1500000000E+05    0.3136518151E+00    0.1958369241E-01    0.3550273186E+00    0.3318566339E+00    0.2995886762E+00
    0.1700000000E+05    0.3158433169E+00    0.1811857300E-01    0.3558088528E+00    0.3342409154E+00    0.3005778505E+00
    0.1900000000E+05    0.3175435983E+00    0.1694111363E-01    0.3564497695E+00    0.3360996055E+00    0.3014141032E+00
    0.2100000000E+05    0.3188972573E+00    0.1597011490E-01    0.3569859883E+00    0.3375865978E+00    0.3021342561E+00
    0.2300000000E+05    0.3199980147E+00    0.1515258278E-01    0.3574419276E+00    0.3388017785E+00    0.3027637222E+00
    0.2500000000E+05    0.3209090598E+00    0.1445246458E-01    0.3578348173E+00    0.3398125897E+00    0.3033206936E+00
    0.2700000000E+05    0.3216744277E+00    0.1384436815E-01    0.3581771928E+00    0.3406660991E+00    0.3038185892E+00
    0.2900000000E+05    0.3223256788E+00    0.1330987770E-01    0.3584784103E+00    0.3413960911E+00    0.3042675580E+00
    0.3100000000E+05    0.3228859846E+00    0.1283529813E-01    0.3587456063E+00    0.3420274073E+00    0.3046754408E+00
    0.3300000000E+05    0.3233727175E+00    0.1241022197E-01    0.3589843271E+00    0.3425787010E+00    0.3050484064E+00
    0.3500000000E+05    0.3237991424E+00    0.1202658950E-01    0.3591989532E+00    0.3430642373E+00    0.3053913862E+00
    0.3700000000E+05    0.3241755534E+00    0.1167805483E-01    0.3593929946E+00    0.3434951041E+00    0.3057083768E+00
    0.3900000000E+05    0.3245100549E+00    0.1135954763E-01    0.3595692987E+00    0.3438800444E+00    0.3060026578E+00
    0.4100000000E+05    0.3248091096E+00    0.1106696359E-01    0.3597302021E+00    0.3442260414E+00    0.3062769497E+00
    0.4300000000E+05    0.3250779311E+00    0.1079694131E-01    0.3598776411E+00    0.3445387382E+00    0.3065335314E+00
    0.4500000000E+05    0.3253207699E+00    0.1054669872E-01    0.3600132354E+00    0.3448227422E+00    0.3067743288E+00
    0.4700000000E+05    0.3255411237E+00    0.1031391128E-01    0.3601383505E+00    0.3450818520E+00    0.3070009828E+00
    0.4900000000E+05    0.3257418965E+00    0.1009661987E-01    0.3602541467E+00    0.3453192258E+00    0.3072149014E+00
    0.1000000000E+05    0.3040363574E+00    0.2561639468E-01    0.3520008179E+00    0.3214855668E+00    0.2959895184E+00
    0.3000000000E+05    0.3226160014E+00    0.1306581371E-01    0.3586158828E+00    0.3417227975E+00    0.3044762163E+00
    0.5000000000E+05    0.3258357152E+00    0.9993255196E-02    0.3603088661E+00    0.3454306062E+00    0.3073174714E+00
    0.7000000000E+05    0.3271078217E+00    0.8441363377E-02    0.3610935102E+00    0.3469801612E+00    0.3089241315E+00
    0.9000000000E+05    0.3277735740E+00    0.7459845352E-02    0.3615397984E+00    0.3478384576E+00    0.3100119089E+00
    0.1100000000E+06    0.3281763516E+00    0.6765564018E-02    0.3618218168E+00    0.3483883543E+00    0.3108206737E+00
    0.1300000000E+06    0.3284426275E+00    0.6240212303E-02    0.3620115667E+00    0.3487735648E+00    0.3114576738E+00
    0.1500000000E+06    0.3286294976E+00    0.5824308525E-02    0.3621444245E+00    0.3490602079E+00    0.3119793878E+00
    0.1700000000E+06    0.3287663779E+00    0.5484187057E-02    0.3622398481E+00    0.3492829988E+00    0.3124189210E+00
    0.1900000000E+06    0.3288699044E+00    0.5199148540E-02    0.3623094329E+00    0.3494619467E+00    0.3127972111E+00
    0.2100000000E+06    0.3289501633E+00    0.4955660389E-02    0.3623605165E+00    0.3496094156E+00    0.3131282757E+00
    0.2300000000E+06    0.3290136087E+00    0.4744446043E-02    0.3623979644E+00    0.3497334691E+00    0.3134219241E+00
    0.2500000000E+06    0.3290645525E+00    0.4558901792E-02    0.3624251260E+00    0.3498395984E+00    0.3136852684E+00
    0.2700000000E+06    0.3291059788E+00    0.4394179602E-02    0.3624443785E+00    0.3499316770E+00    0.3139236172E+00
    0.2900000000E+06    0.3291400142E+00    0.4246627954E-02    0.3624574529E+00    0.3500125193E+00    0.3141410302E+00
    0.3100000000E+06    0.3291682127E+00    0.4113436312E-02    0.3624656371E+00    0.3500842212E+00    0.3143406760E+00
    0.3300000000E+06    0.3291917340E+00    0.3992400910E-02    0.3624699075E+00    0.3501483777E+00    0.3145250723E+00
    0.3500000000E+06    0.3292114598E+00    0.3881765742E-02    0.3624710159E+00    0.3502062250E+00    0.3146962500E+00
    0.3700000000E+06    0.3292280713E+00    0.3780111754E-02    0.3624695494E+00    0.3502587372E+00    0.3148558695E+00
    0.3900000000E+06    0.3292421025E+00    0.3686277859E-02    0.3624659723E+00    0.3503066925E+00    0.3150053045E+00
    0.4100000000E+06    0.3292539772E+00    0.3599303492E-02    0.3624606557E+00    0.3503507209E+00    0.3151457036E+00
    0.4300000000E+06    0.3292640355E+00    0.3518386088E-02    0.3624538990E+00    0.3503913381E+00    0.3152780360E+00
    0.4500000000E+06    0.3292725534E+00    0.3442849095E-02    0.3624459460E+00    0.3504289707E+00    0.3154031269E+00
    0.4700000000E+06    0.3292797567E+00    0.3372117580E-02    0.3624369967E+00    0.3504639749E+00    0.3155216839E+00
    0.4900000000E+06    0.3292858318E+00    0.3305699370E-02    0.3624272162E+00    0.3504966503E+00    0.3156343184E+00
    0.1000000000E+06    0.3279974626E+00    0.7086216388E-02    0.3616955801E+00    0.3481402270E+00    0.3104427531E+00
    0.3000000000E+06    0.3291547630E+00    0.4178386938E-02    0.3624620891E+00    0.3500494033E+00    0.3142429036E+00
    0.5000000000E+06    0.3292884957E+00    0.3273972886E-02    0.3624220581E+00    0.3505121958E+00    0.3156885835E+00
    0.7000000000E+06    0.3293092356E+00    0.2788152227E-02    0.3622987632E+00    0.3507462861E+00    0.3165618546E+00
    0.9000000000E+06    0.3293010038E+00    0.2472854850E-02    0.3621651410E+00    0.3508962147E+00    0.3171801749E+00
    0.1100000000E+07    0.3292833240E+00    0.2246825141E-02    0.3620361554E+00    0.3510042657E+00    0.3176556460E+00
    0.1300000000E+07    0.3292625116E+00    0.2074448959E-02    0.3619151836E+00    0.3510878158E+00    0.3180403203E+00
    0.1500000000E+07    0.3292409780E+00    0.1937307467E-02    0.3618025460E+00    0.3511554947E+00    0.3183624407E+00
    0.1700000000E+07    0.3292197221E+00    0.1824783350E-02    0.3616976906E+00    0.3512121471E+00    0.3186389767E+00
    0.1900000000E+07    0.3291991631E+00    0.1730265681E-02    0.3615998547E+00    0.3512607373E+00    0.3188808898E+00
    0.2100000000E+07    0.3291794632E+00    0.1649392999E-02    0.3615082787E+00    0.3513031992E+00    0.3190956551E+00
    0.2300000000E+07    0.3291606646E+00    0.1579155220E-02    0.3614222728E+00    0.3513408586E+00    0.3192885895E+00
    0.2500000000E+07    0.3291427533E+00    0.1517398427E-02    0.3613412315E+00    0.3513746606E+00    0.3194636048E+00
    0.2700000000E+07    0.3291256892E+00    0.1462534931E-02    0.3612646304E+00    0.3514053011E+00    0.3196236595E+00
    0.2900000000E+07    0.3291094216E+00    0.1413365030E-02    0.3611920168E+00    0.3514333065E+00    0.3197710439E+00
    0.3100000000E+07    0.3290938968E+00    0.1368962921E-02    0.3611229999E+00    0.3514590838E+00    0.3199075655E+00
    0.3300000000E+07    0.3290790618E+00    0.1328601128E-02    0.3610572409E+00    0.3514829536E+00    0.3200346751E+00
    0.3500000000E+07    0.3290648664E+00    0.1291698961E-02    0.3609944453E+00    0.3515051733E+00    0.3201535543E+00
    0.3700000000E+07    0.3290512639E+00    0.1257786468E-02    0.3609343559E+00    0.3515259519E+00    0.3202651778E+00
    0.3900000000E+07    0.3290382113E+00    0.1226478655E-02    0.3608767470E+00    0.3515454617E+00    0.3203703589E+00
    0.4100000000E+07    0.3290256692E+00    0.1197456683E-02    0.3608214196E+00    0.3515638461E+00    0.3204697827E+00
    0.4300000000E+07    0.3290136019E+00    0.1170453920E-02    0.3607681975E+00    0.3515812259E+00    0.3205640318E+00
    0.4500000000E+07    0.3290019767E+00    0.1145245429E-02    0.3607169240E+00    0.3515977035E+00    0.3206536055E+00
    0.4700000000E+07    0.3289907640E+00    0.1121639932E-02    0.3606674592E+00    0.3516133667E+00    0.3207389352E+00
    0.4900000000E+07    0.3289799368E+00    0.1099473592E-02    0.3606196778E+00    0.3516282911E+00    0.3208203954E+00
    0.1000000000E+07    0.3292928072E+00    0.2351490303E-02    0.3620997396E+00    0.3509540866E+00    0.3174317192E+00
    0.3000000000E+07    0.3291015697E+00    0.1390617421E-02    0.3611570811E+00    0.3514464519E+00    0.3198405647E+00
    0.5000000000E+07    0.3289746599E+00    0.1088885192E-02    0.3605963826E+00    0.3516354971E+00    0.3208597786E+00
    0.7000000000E+07    0.3288844186E+00    0.9267644068E-03    0.3601966208E+00    0.3517530384E+00    0.3215059412E+00
    0.9000000000E+07    0.3288146277E+00    0.8215921260E-03    0.3598848919E+00    0.3518383236E+00    0.3219776771E+00
    0.1100000000E+08    0.3287577678E+00    0.7462323443E-03    0.3596288933E+00    0.3519052336E+00    0.3223484722E+00
    0.1300000000E+08    0.3287098053E+00    0.6887861599E-03    0.3594114424E+00    0.3519602761E+00    0.3226535510E+00
    0.1500000000E+08    0.3286683351E+00    0.6430999632E-03    0.3592222879E+00    0.3520070226E+00    0.3229124915E+00
    0.1700000000E+08    0.3286318100E+00    0.6056272920E-03    0.3590548123E+00    0.3520476440E+00    0.3231372859E+00
    0.1900000000E+08    0.3285991764E+00    0.5741604865E-03    0.3589044902E+00    0.3520835579E+00    0.3233358055E+00
    0.2100000000E+08    0.3285696850E+00    0.5472434681E-03    0.3587680879E+00    0.3521157410E+00    0.3235134914E+00
    0.2300000000E+08    0.3285427835E+00    0.5238715830E-03    0.3586432125E+00    0.3521448948E+00    0.3236742598E+00
    0.2500000000E+08    0.3285180538E+00    0.5033261162E-03    0.3585280431E+00    0.3521715400E+00    0.3238210217E+00
    0.2700000000E+08    0.3284951712E+00    0.4850774171E-03    0.3584211609E+00    0.3521960737E+00    0.3239559995E+00
