  Pressure (Pa) 22mC5-400 (mol/kg) 2mC6-400 (mol/kg) 3mC6-400 (mol/kg) 23mC5-400 (mol/kg) C7-400 (mol/kg)
    0.1000000000E+01    0.5296552514E-03    0.3960652293E-02    0.1050853662E-02    0.8370145161E-03    0.5115742808E-02
    0.3000000000E+01    0.1570646284E-02    0.1154848502E-01    0.3068052625E-02    0.2482111060E-02    0.1493764659E-01
    0.5000000000E+01    0.2588100881E-02    0.1872098862E-01    0.4980277112E-02    0.4090035633E-02    0.2425072506E-01
    0.7000000000E+01    0.3583030960E-02    0.2551011283E-01    0.6795900664E-02    0.5662386196E-02    0.3309550879E-01
    0.9000000000E+01    0.4556389212E-02    0.3194456448E-01    0.8522419689E-02    0.7200667190E-02    0.4150828582E-01
    0.1100000000E+02    0.5509073416E-02    0.3805021466E-01    0.1016656577E-01    0.8706296350E-02    0.4952164466E-01
    0.1300000000E+02    0.6441930377E-02    0.4385044545E-01    0.1173440111E-01    0.1018061092E-01    0.5716493579E-01
    0.1500000000E+02    0.7355759532E-02    0.4936644655E-01    0.1323140008E-01    0.1162487336E-01    0.6446466572E-01
    0.1700000000E+02    0.8251316250E-02    0.5461746994E-01    0.1466251900E-01    0.1304027652E-01    0.7144483478E-01
    0.1900000000E+02    0.9129314860E-02    0.5962104958E-01    0.1603225630E-01    0.1442794848E-01    0.7812722773E-01
    0.2100000000E+02    0.9990431433E-02    0.6439319151E-01    0.1734470442E-01    0.1578895687E-01    0.8453166489E-01
    0.2300000000E+02    0.1083530633E-01    0.6894853903E-01    0.1860359481E-01    0.1712431297E-01    0.9067621971E-01
    0.2500000000E+02    0.1166454658E-01    0.7330051660E-01    0.1981233705E-01    0.1843497539E-01    0.9657740806E-01
    0.2700000000E+02    0.1247872802E-01    0.7746145580E-01    0.2097405302E-01    0.1972185350E-01    0.1022503533E+00
    0.2900000000E+02    0.1327839729E-01    0.8144270574E-01    0.2209160672E-01    0.2098581059E-01    0.1077089310E+00
    0.3100000000E+02    0.1406407373E-01    0.8525473020E-01    0.2316763058E-01    0.2222766681E-01    0.1129658953E+00
    0.3300000000E+02    0.1483625104E-01    0.8890719339E-01    0.2420454844E-01    0.2344820183E-01    0.1180329911E+00
    0.3500000000E+02    0.1559539888E-01    0.9240903579E-01    0.2520459599E-01    0.2464815736E-01    0.1229210524E+00
    0.3700000000E+02    0.1634196434E-01    0.9576854146E-01    0.2616983877E-01    0.2582823945E-01    0.1276400893E+00
    0.3900000000E+02    0.1707637327E-01    0.9899339782E-01    0.2710218811E-01    0.2698912067E-01    0.1321993655E+00
    0.4100000000E+02    0.1779903159E-01    0.1020907490E+00    0.2800341542E-01    0.2813144205E-01    0.1366074671E+00
    0.4300000000E+02    0.1851032642E-01    0.1050672437E+00    0.2887516479E-01    0.2925581496E-01    0.1408723638E+00
    0.4500000000E+02    0.1921062719E-01    0.1079290774E+00    0.2971896433E-01    0.3036282283E-01    0.1450014634E+00
    0.4700000000E+02    0.1990028664E-01    0.1106820310E+00    0.3053623626E-01    0.3145302276E-01    0.1490016614E+00
    0.4900000000E+02    0.2057964179E-01    0.1133315055E+00    0.3132830603E-01    0.3252694699E-01    0.1528793842E+00
    0.1000000000E+02    0.5035261494E-02    0.3503697374E-01    0.9354395786E-02    0.7957477854E-02    0.4556298714E-01
    0.3000000000E+02    0.1367295318E-01    0.8336924934E-01    0.2263465375E-01    0.2160945166E-01    0.1103618583E+00
    0.5000000000E+02    0.2091555648E-01    0.1146190295E+00    0.3171527986E-01    0.3305796558E-01    0.1547742073E+00
    0.7000000000E+02    0.2716412618E-01    0.1360053014E+00    0.3839201168E-01    0.4293639196E-01    0.1875034527E+00
    0.9000000000E+02    0.3267418763E-01    0.1511935910E+00    0.4355449439E-01    0.5164828990E-01    0.2128649281E+00
    0.1100000000E+03    0.3761687602E-01    0.1622495456E+00    0.4769579683E-01    0.5946394838E-01    0.2332521860E+00
    0.1300000000E+03    0.4211151710E-01    0.1704268046E+00    0.5111232402E-01    0.6657183527E-01    0.2501051826E+00
    0.1500000000E+03    0.4624411984E-01    0.1765297189E+00    0.5399360280E-01    0.7310780059E-01    0.2643453331E+00
    0.1700000000E+03    0.5007842861E-01    0.1810972546E+00    0.5646684841E-01    0.7917253039E-01    0.2765915632E+00
    0.1900000000E+03    0.5366281878E-01    0.1845033633E+00    0.5862086526E-01    0.8484243681E-01    0.2872762307E+00
    0.2100000000E+03    0.5703475880E-01    0.1870150471E+00    0.6051968168E-01    0.9017670499E-01    0.2967112856E+00
    0.2300000000E+03    0.6022378914E-01    0.1888275756E+00    0.6221073166E-01    0.9522199801E-01    0.3051279889E+00
    0.2500000000E+03    0.6325356590E-01    0.1900866992E+00    0.6372997604E-01    0.1000156844E+00    0.3127017845E+00
    0.2700000000E+03    0.6614329650E-01    0.1909031328E+00    0.6510522479E-01    0.1045881058E+00    0.3195684417E+00
    0.2900000000E+03    0.6890876966E-01    0.1913622695E+00    0.6635835951E-01    0.1089642038E+00    0.3258348577E+00
    0.3100000000E+03    0.7156310833E-01    0.1915308588E+00    0.6750686044E-01    0.1131647089E+00    0.3315864841E+00
    0.3300000000E+03    0.7411732933E-01    0.1914616964E+00    0.6856488044E-01    0.1172070248E+00    0.3368925513E+00
    0.3500000000E+03    0.7658076578E-01    0.1911969814E+00    0.6954401614E-01    0.1211058956E+00    0.3418098220E+00
    0.3700000000E+03    0.7896139013E-01    0.1907707607E+00    0.7045387201E-01    0.1248739159E+00    0.3463853371E+00
    0.3900000000E+03    0.8126606447E-01    0.1902107353E+00    0.7130247969E-01    0.1285219262E+00    0.3506584588E+00
    0.4100000000E+03    0.8350073663E-01    0.1895396144E+00    0.7209661451E-01    0.1320593228E+00    0.3546624127E+00
    0.4300000000E+03    0.8567059539E-01    0.1887761420E+00    0.7284203765E-01    0.1354943029E+00    0.3584254681E+00
    0.4500000000E+03    0.8778019457E-01    0.1879358851E+00    0.7354368361E-01    0.1388340605E+00    0.3619718527E+00
    0.4700000000E+03    0.8983355305E-01    0.1870318446E+00    0.7420580706E-01    0.1420849447E+00    0.3653224684E+00
    0.4900000000E+03    0.9183423611E-01    0.1860749334E+00    0.7483209904E-01    0.1452525878E+00    0.3684954590E+00
    0.1000000000E+03    0.3520804556E-01    0.1571462047E+00    0.4573102365E-01    0.5565486944E-01    0.2235746009E+00
    0.3000000000E+03    0.7024909840E-01    0.1914793005E+00    0.6694473690E-01    0.1110852484E+00    0.3287703623E+00
    0.5000000000E+03    0.9281583113E-01    0.1855795851E+00    0.7513283078E-01    0.1468067845E+00    0.3700203740E+00
    0.7000000000E+03    0.1103006341E+00    0.1745034504E+00    0.7986833122E-01    0.1744974449E+00    0.3941575955E+00
    0.9000000000E+03    0.1247312721E+00    0.1631866847E+00    0.8307942203E-01    0.1973606438E+00    0.4106817491E+00
    0.1100000000E+04    0.1369941035E+00    0.1526981324E+00    0.8545251858E-01    0.2167965868E+00    0.4229938822E+00
    0.1300000000E+04    0.1475853936E+00    0.1432470736E+00    0.8730387479E-01    0.2335892345E+00    0.4326687256E+00
    0.1500000000E+04    0.1568285584E+00    0.1348061609E+00    0.8880306940E-01    0.2482495208E+00    0.4405544176E+00
    0.1700000000E+04    0.1649555475E+00    0.1272814665E+00    0.9005067839E-01    0.2611439205E+00    0.4471560234E+00
    0.1900000000E+04    0.1721430818E+00    0.1205662065E+00    0.9111081504E-01    0.2725516899E+00    0.4527967078E+00
    0.2100000000E+04    0.1785310765E+00    0.1145586390E+00    0.9202662890E-01    0.2826939622E+00    0.4576947251E+00
    0.2300000000E+04    0.1842330943E+00    0.1091675996E+00    0.9282841769E-01    0.2917502529E+00    0.4620038236E+00
    0.2500000000E+04    0.1893428510E+00    0.1043135048E+00    0.9353819152E-01    0.2998687316E+00    0.4658360381E+00
    0.2700000000E+04    0.1939385850E+00    0.9992769519E-01    0.9417239306E-01    0.3071731192E+00    0.4692753062E+00
    0.2900000000E+04    0.1980861712E+00    0.9595123316E-01    0.9474359624E-01    0.3137676045E+00    0.4723859926E+00
    0.3100000000E+04    0.2018414427E+00    0.9233360489E-01    0.9526160921E-01    0.3197405086E+00    0.4752184346E+00
    0.3300000000E+04    0.2052519781E+00    0.8903149908E-01    0.9573421434E-01    0.3251671080E+00    0.4778126723E+00
    0.3500000000E+04    0.2083585110E+00    0.8600772356E-01    0.9616767890E-01    0.3301118595E+00    0.4802010270E+00
    0.3700000000E+04    0.2111960595E+00    0.8323027058E-01    0.9656711609E-01    0.3346301847E+00    0.4824099283E+00
    0.3900000000E+04    0.2137948430E+00    0.8067152241E-01    0.9693674592E-01    0.3387699175E+00    0.4844612364E+00
    0.4100000000E+04    0.2161810325E+00    0.7830758150E-01    0.9728008710E-01    0.3425724904E+00    0.4863732173E+00
    0.4300000000E+04    0.2183773696E+00    0.7611770773E-01    0.9760010074E-01    0.3460739114E+00    0.4881612732E+00
    0.4500000000E+04    0.2204036797E+00    0.7408384639E-01    0.9789929945E-01    0.3493055762E+00    0.4898384992E+00
    0.4700000000E+04    0.2222772996E+00    0.7219023239E-01    0.9817983143E-01    0.3522949434E+00    0.4914161125E+00
    0.4900000000E+04    0.2240134357E+00    0.7042305785E-01    0.9844354590E-01    0.3550661005E+00    0.4929037867E+00
    0.1000000000E+04    0.1310971031E+00    0.1578167176E+00    0.8434605351E-01    0.2074492674E+00    0.4172416563E+00
    0.3000000000E+04    0.2000096973E+00    0.9410042714E-01    0.9500872449E-01    0.3168267722E+00    0.4738342849E+00
    0.5000000000E+04    0.2248341916E+00    0.6958303590E-01    0.9856960565E-01    0.3563765744E+00    0.4936165639E+00
    0.7000000000E+04    0.2365471232E+00    0.5714328549E-01    0.1005039207E+00    0.3751166832E+00    0.5047067127E+00
    0.9000000000E+04    0.2430843166E+00    0.4959166692E-01    0.1017574496E+00    0.3856250603E+00    0.5120838699E+00
    0.1100000000E+05    0.2471629829E+00    0.4445895255E-01    0.1026505214E+00    0.3922146417E+00    0.5174618542E+00
    0.1300000000E+05    0.2499134676E+00    0.4069863056E-01    0.1033259355E+00    0.3966822064E+00    0.5216147687E+00
    0.1500000000E+05    0.2518765656E+00    0.3779569151E-01    0.1038582512E+00    0.3998886870E+00    0.5249514639E+00
    0.1700000000E+05    0.2533392174E+00    0.3546752111E-01    0.1042906817E+00    0.4022915982E+00    0.5277113791E+00
    0.1900000000E+05    0.2544661920E+00    0.3354577506E-01    0.1046502128E+00    0.4041540808E+00    0.5300454817E+00
    0.2100000000E+05    0.2553581643E+00    0.3192359425E-01    0.1049546708E+00    0.4056371841E+00    0.5320543966E+00
    0.2300000000E+05    0.2560797980E+00    0.3052963672E-01    0.1052163606E+00    0.4068445275E+00    0.5338081711E+00
    0.2500000000E+05    0.2566743648E+00    0.2931428411E-01    0.1054440814E+00    0.4078455728E+00    0.5353572995E+00
    0.2700000000E+05    0.2571718284E+00    0.2824184320E-01    0.1056443109E+00    0.4086885062E+00    0.5367392414E+00
    0.2900000000E+05    0.2575935470E+00    0.2728590283E-01    0.1058219357E+00    0.4094077380E+00    0.5379824629E+00
    0.3100000000E+05    0.2579551275E+00    0.2642644691E-01    0.1059807192E+00    0.4100284593E+00    0.5391090421E+00
    0.3300000000E+05    0.2582682214E+00    0.2564799149E-01    0.1061236115E+00    0.4105695130E+00    0.5401364063E+00
    0.3500000000E+05    0.2585416926E+00    0.2493834394E-01    0.1062529619E+00    0.4110452613E+00    0.5410785238E+00
    0.3700000000E+05    0.2587823965E+00    0.2428775319E-01    0.1063706664E+00    0.4114668339E+00    0.5419467415E+00
    0.3900000000E+05    0.2589957137E+00    0.2368831351E-01    0.1064782741E+00    0.4118429836E+00    0.5427503873E+00
    0.4100000000E+05    0.2591859231E+00    0.2313353718E-01    0.1065770641E+00    0.4121806849E+00    0.5434972108E+00
    0.4300000000E+05    0.2593564679E+00    0.2261804228E-01    0.1066681030E+00    0.4124855612E+00    0.5441937118E+00
    0.4500000000E+05    0.2595101483E+00    0.2213732066E-01    0.1067522879E+00    0.4127621954E+00    0.5448453891E+00
    0.4700000000E+05    0.2596492637E+00    0.2168756290E-01    0.1068303791E+00    0.4130143588E+00    0.5454569305E+00
    0.4900000000E+05    0.2597757191E+00    0.2126552438E-01    0.1069030260E+00    0.4132451821E+00    0.5460323611E+00
    0.1000000000E+05    0.2453400362E+00    0.4680656492E-01    0.1022378167E+00    0.3892652174E+00    0.5149621060E+00
    0.3000000000E+05    0.2577810496E+00    0.2684517140E-01    0.1059034820E+00    0.4097291116E+00    0.5385591506E+00
    0.5000000000E+05    0.2598347071E+00    0.2106401428E-01    0.1069374855E+00    0.4133534270E+00    0.5463076406E+00
    0.7000000000E+05    0.2606264250E+00    0.1798226623E-01    0.1074426037E+00    0.4148552462E+00    0.5505578390E+00
    0.9000000000E+05    0.2610319721E+00    0.1598181018E-01    0.1077424837E+00    0.4156837973E+00    0.5533549521E+00
    0.1100000000E+06    0.2612721472E+00    0.1454512652E-01    0.1079397783E+00    0.4162134180E+00    0.5553820727E+00
    0.1300000000E+06    0.2614274310E+00    0.1344718127E-01    0.1080780651E+00    0.4165838750E+00    0.5569421753E+00
    0.1500000000E+06    0.2615338470E+00    0.1257190100E-01    0.1081791992E+00    0.4168592566E+00    0.5581933131E+00
    0.1700000000E+06    0.2616098131E+00    0.1185241014E-01    0.1082554119E+00    0.4170731345E+00    0.5592272237E+00
    0.1900000000E+06    0.2616656711E+00    0.1124704854E-01    0.1083141046E+00    0.4172448263E+00    0.5601013593E+00
    0.2100000000E+06    0.2617076478E+00    0.1072830606E-01    0.1083600275E+00    0.4173862532E+00    0.5608538142E+00
    0.2300000000E+06    0.2617397006E+00    0.1027717487E-01    0.1083963713E+00    0.4175051824E+00    0.5615109972E+00
    0.2500000000E+06    0.2617644556E+00    0.9880037107E-02    0.1084253601E+00    0.4176068987E+00    0.5620918826E+00
    0.2700000000E+06    0.2617837179E+00    0.9526842480E-02    0.1084485915E+00    0.4176951277E+00    0.5626105086E+00
    0.2900000000E+06    0.2617987653E+00    0.9209987582E-02    0.1084672421E+00    0.4177725747E+00    0.5630775197E+00
    0.3100000000E+06    0.2618105247E+00    0.8923598067E-02    0.1084821978E+00    0.4178412536E+00    0.5635011566E+00
    0.3300000000E+06    0.2618196834E+00    0.8663052851E-02    0.1084941373E+00    0.4179026962E+00    0.5638879147E+00
    0.3500000000E+06    0.2618267598E+00    0.8424659361E-02    0.1085035894E+00    0.4179580894E+00    0.5642429935E+00
    0.3700000000E+06    0.2618321518E+00    0.8205426179E-02    0.1085109718E+00    0.4180083681E+00    0.5645706126E+00
    0.3900000000E+06    0.2618361688E+00    0.8002900325E-02    0.1085166184E+00    0.4180542790E+00    0.5648742379E+00
    0.4100000000E+06    0.2618390546E+00    0.7815048492E-02    0.1085207991E+00    0.4180964267E+00    0.5651567469E+00
    0.4300000000E+06    0.2618410032E+00    0.7640168843E-02    0.1085237345E+00    0.4181353057E+00    0.5654205518E+00
    0.4500000000E+06    0.2618421707E+00    0.7476824497E-02    0.1085256060E+00    0.4181713251E+00    0.5656676921E+00
    0.4700000000E+06    0.2618426838E+00    0.7323792639E-02    0.1085265643E+00    0.4182048264E+00    0.5658999064E+00
    0.4900000000E+06    0.2618426464E+00    0.7180025121E-02    0.1085267355E+00    0.4182360969E+00    0.5661186867E+00
    0.1000000000E+06    0.2611661158E+00    0.1521076368E-01    0.1078504880E+00    0.4159745558E+00    0.5544409298E+00
    0.3000000000E+06    0.2618050084E+00    0.9063298459E-02    0.1084751353E+00    0.4178079050E+00    0.5632943191E+00
    0.5000000000E+06    0.2618424485E+00    0.7111327962E-02    0.1085265598E+00    0.4182509733E+00    0.5662234490E+00
    0.7000000000E+06    0.2618240565E+00    0.6057699028E-02    0.1085003330E+00    0.4184749349E+00    0.5678507760E+00
    0.9000000000E+06    0.2617951664E+00    0.5372415833E-02    0.1084547449E+00    0.4186183201E+00    0.5689346745E+00
    0.1100000000E+07    0.2617650049E+00    0.4880569874E-02    0.1084043222E+00    0.4187216241E+00    0.5697288239E+00
    0.1300000000E+07    0.2617360039E+00    0.4505205947E-02    0.1083537720E+00    0.4188014828E+00    0.5703461286E+00
    0.1500000000E+07    0.2617087945E+00    0.4206430991E-02    0.1083047768E+00    0.4188661567E+00    0.5708457246E+00
    0.1700000000E+07    0.2616834487E+00    0.3961212472E-02    0.1082579160E+00    0.4189202821E+00    0.5712620790E+00
    0.1900000000E+07    0.2616598581E+00    0.3755192567E-02    0.1082133273E+00    0.4189666961E+00    0.5716168669E+00
    0.2100000000E+07    0.2616378635E+00    0.3578890731E-02    0.1081709647E+00    0.4190072491E+00    0.5719245190E+00
    0.2300000000E+07    0.2616173009E+00    0.3425759537E-02    0.1081307080E+00    0.4190432095E+00    0.5721950789E+00
    0.2500000000E+07    0.2615980184E+00    0.3291111375E-02    0.1080924111E+00    0.4190754816E+00    0.5724357905E+00
    0.2700000000E+07    0.2615798805E+00    0.3171489444E-02    0.1080559247E+00    0.4191047312E+00    0.5726520332E+00
    0.2900000000E+07    0.2615627684E+00    0.3064280783E-02    0.1080211055E+00    0.4191314616E+00    0.5728479006E+00
    0.3100000000E+07    0.2615465788E+00    0.2967468394E-02    0.1079878207E+00    0.4191560623E+00    0.5730265731E+00
    0.3300000000E+07    0.2615312218E+00    0.2879466982E-02    0.1079559490E+00    0.4191788400E+00    0.5731905657E+00
    0.3500000000E+07    0.2615166192E+00    0.2799010869E-02    0.1079253807E+00    0.4192000406E+00    0.5733418985E+00
    0.3700000000E+07    0.2615027027E+00    0.2725075566E-02    0.1078960167E+00    0.4192198642E+00    0.5734822159E+00
    0.3900000000E+07    0.2614894125E+00    0.2656821666E-02    0.1078677678E+00    0.4192384754E+00    0.5736128728E+00
    0.4100000000E+07    0.2614766959E+00    0.2593553918E-02    0.1078405538E+00    0.4192560114E+00    0.5737349974E+00
    0.4300000000E+07    0.2614645065E+00    0.2534690851E-02    0.1078143022E+00    0.4192725877E+00    0.5738495384E+00
    0.4500000000E+07    0.2614528030E+00    0.2479741874E-02    0.1077889476E+00    0.4192883022E+00    0.5739573001E+00
    0.4700000000E+07    0.2614415489E+00    0.2428289780E-02    0.1077644308E+00    0.4193032387E+00    0.5740589700E+00
    0.4900000000E+07    0.2614307114E+00    0.2379977190E-02    0.1077406980E+00    0.4193174696E+00    0.5741551396E+00
    0.1000000000E+07    0.2617800240E+00    0.5108377802E-02    0.1084297337E+00    0.4186736531E+00    0.5693590964E+00
    0.3000000000E+07    0.2615545642E+00    0.3014682740E-02    0.1080042791E+00    0.4191440074E+00    0.5729392157E+00
    0.5000000000E+07    0.2614254395E+00    0.2356900230E-02    0.1077291102E+00    0.4193243404E+00    0.5742013247E+00
    0.7000000000E+07    0.2613361272E+00    0.2003663080E-02    0.1075287314E+00    0.4194363781E+00    0.5749310796E+00
    0.9000000000E+07    0.2612678860E+00    0.1774640244E-02    0.1073708631E+00    0.4195176284E+00    0.5754320089E+00
    0.1100000000E+08    0.2612126687E+00    0.1610624758E-02    0.1072404125E+00    0.4195813489E+00    0.5758080985E+00
    0.1300000000E+08    0.2611662979E+00    0.1485657782E-02    0.1071291418E+00    0.4196337525E+00    0.5761065197E+00
    0.1500000000E+08    0.2611263285E+00    0.1386317108E-02    0.1070320589E+00    0.4196782476E+00    0.5763523816E+00
    0.1700000000E+08    0.2610912064E+00    0.1304868938E-02    0.1069459071E+00    0.4197169050E+00    0.5765605270E+00
    0.1900000000E+08    0.2610598821E+00    0.1236500122E-02    0.1068684417E+00    0.4197510771E+00    0.5767404086E+00
    0.2100000000E+08    0.2610316141E+00    0.1178036835E-02    0.1067980492E+00    0.4197816950E+00    0.5768983919E+00
    0.2300000000E+08    0.2610058585E+00    0.1127289720E-02    0.1067335299E+00    0.4198094275E+00    0.5770389538E+00
    0.2500000000E+08    0.2609822050E+00    0.1082692879E-02    0.1066739674E+00    0.4198347710E+00    0.5771653545E+00
    0.2700000000E+08    0.2609603360E+00    0.1043092583E-02    0.1066186454E+00    0.4198581039E+00    0.5772800368E+00
