  Pressure (Pa) 22mC5-400 (mol/kg) 2mC6-400 (mol/kg) 3mC6-400 (mol/kg) 23mC5-400 (mol/kg) C7-400 (mol/kg)
    0.1000000000E+01    0.5297527168E-03    0.4725848385E-02    0.3651311840E-02    0.1860373585E-03    0.6771753616E-02
    0.3000000000E+01    0.1571506446E-02    0.1363388201E-01    0.1051439951E-01    0.5518814663E-03    0.1950377547E-01
    0.5000000000E+01    0.2590444469E-02    0.2188714353E-01    0.1685004461E-01    0.9097175333E-03    0.3126186378E-01
    0.7000000000E+01    0.3587537611E-02    0.2955842800E-01    0.2271902555E-01    0.1259886268E-02    0.4215808423E-01
    0.9000000000E+01    0.4563700103E-02    0.3670976170E-01    0.2817304707E-01    0.1602708518E-02    0.5228778440E-01
    0.1100000000E+02    0.5519793709E-02    0.4339434960E-01    0.3325637710E-01    0.1938486721E-02    0.6173260834E-01
    0.1300000000E+02    0.6456631495E-02    0.4965811310E-01    0.3800714137E-01    0.2267506222E-02    0.7056288086E-01
    0.1500000000E+02    0.7374981272E-02    0.5554091526E-01    0.4245835631E-01    0.2590036489E-02    0.7883951017E-01
    0.1700000000E+02    0.8275568750E-02    0.6107754535E-01    0.4663876010E-01    0.2906332213E-02    0.8661551875E-01
    0.1900000000E+02    0.9159080434E-02    0.6629851610E-01    0.5057348644E-01    0.3216634328E-02    0.9393728453E-01
    0.2100000000E+02    0.1002616628E-01    0.7123071418E-01    0.5428461462E-01    0.3521170938E-02    0.1008455545E+00
    0.2300000000E+02    0.1087744212E-01    0.7589793439E-01    0.5779162178E-01    0.3820158181E-02    0.1073762777E+00
    0.2500000000E+02    0.1171349194E-01    0.8032132137E-01    0.6111175693E-01    0.4113801008E-02    0.1135612949E+00
    0.2700000000E+02    0.1253486991E-01    0.8451973688E-01    0.6426035217E-01    0.4402293918E-02    0.1194289117E+00
    0.2900000000E+02    0.1334210234E-01    0.8851006704E-01    0.6725108307E-01    0.4685821621E-02    0.1250043786E+00
    0.3100000000E+02    0.1413568940E-01    0.9230748071E-01    0.7009618764E-01    0.4964559661E-02    0.1303102946E+00
    0.3300000000E+02    0.1491610677E-01    0.9592564782E-01    0.7280665139E-01    0.5238674986E-02    0.1353669485E+00
    0.3500000000E+02    0.1568380714E-01    0.9937692485E-01    0.7539236445E-01    0.5508326478E-02    0.1401926078E+00
    0.3700000000E+02    0.1643922162E-01    0.1026725130E+00    0.7786225560E-01    0.5773665442E-02    0.1448037669E+00
    0.3900000000E+02    0.1718276103E-01    0.1058225939E+00    0.8022440695E-01    0.6034836062E-02    0.1492153576E+00
    0.4100000000E+02    0.1791481708E-01    0.1088364460E+00    0.8248615266E-01    0.6291975824E-02    0.1534409315E+00
    0.4300000000E+02    0.1863576354E-01    0.1117225454E+00    0.8465416403E-01    0.6545215905E-02    0.1574928172E+00
    0.4500000000E+02    0.1934595722E-01    0.1144886534E+00    0.8673452327E-01    0.6794681539E-02    0.1613822557E+00
    0.4700000000E+02    0.2004573898E-01    0.1171418922E+00    0.8873278755E-01    0.7040492358E-02    0.1651195189E+00
    0.4900000000E+02    0.2073543460E-01    0.1196888111E+00    0.9065404487E-01    0.7282762706E-02    0.1687140128E+00
    0.1000000000E+02    0.5044203600E-02    0.4010737376E-01    0.3075853492E-01    0.1771459905E-02    0.5709116965E-01
    0.3000000000E+02    0.1374057126E-01    0.9043200126E-01    0.6869112466E-01    0.4825778720E-02    0.1276897119E+00
    0.5000000000E+02    0.2107659801E-01    0.1209243053E+00    0.9158726978E-01    0.7402604564E-02    0.1704604462E+00
    0.7000000000E+02    0.2743932124E-01    0.1412933827E+00    0.1071599389E+00    0.9637776812E-02    0.1996524960E+00
    0.9000000000E+02    0.3307641292E-01    0.1557065525E+00    0.1185750101E+00    0.1161822475E-01    0.2211219667E+00
    0.1100000000E+03    0.3815450695E-01    0.1662928659E+00    0.1273820713E+00    0.1340243650E-01    0.2377387037E+00
    0.1300000000E+03    0.4279032306E-01    0.1742684559E+00    0.1344339690E+00    0.1503138172E-01    0.2510840530E+00
    0.1500000000E+03    0.4706836974E-01    0.1803838529E+00    0.1402413056E+00    0.1653472451E-01    0.2621058680E+00
    0.1700000000E+03    0.5105155104E-01    0.1851292859E+00    0.1451298226E+00    0.1793454599E-01    0.2714095237E+00
    0.1900000000E+03    0.5478780285E-01    0.1888391824E+00    0.1493179096E+00    0.1924767347E-01    0.2794013389E+00
    0.2100000000E+03    0.5831439954E-01    0.1917496728E+00    0.1529579459E+00    0.2048719196E-01    0.2863651296E+00
    0.2300000000E+03    0.6166083782E-01    0.1940322146E+00    0.1561597964E+00    0.2166345639E-01    0.2925057461E+00
    0.2500000000E+03    0.6485082098E-01    0.1958142337E+00    0.1590048739E+00    0.2278478805E-01    0.2979751489E+00
    0.2700000000E+03    0.6790365697E-01    0.1971923116E+00    0.1615549263E+00    0.2385796535E-01    0.3028887132E+00
    0.2900000000E+03    0.7083526444E-01    0.1982408957E+00    0.1638577305E+00    0.2488857691E-01    0.3073358008E+00
    0.3100000000E+03    0.7365891025E-01    0.1990182174E+00    0.1659508995E+00    0.2588128046E-01    0.3113868339E+00
    0.3300000000E+03    0.7638575928E-01    0.1995704117E+00    0.1678644968E+00    0.2683999584E-01    0.3150981560E+00
    0.3500000000E+03    0.7902529045E-01    0.1999344467E+00    0.1696228761E+00    0.2776805101E-01    0.3185154537E+00
    0.3700000000E+03    0.8158561595E-01    0.2001402457E+00    0.1712460014E+00    0.2866829412E-01    0.3216762152E+00
    0.3900000000E+03    0.8407372906E-01    0.2002122498E+00    0.1727504140E+00    0.2954318053E-01    0.3246115307E+00
    0.4100000000E+03    0.8649569896E-01    0.2001705858E+00    0.1741499510E+00    0.3039484116E-01    0.3273474318E+00
    0.4300000000E+03    0.8885682526E-01    0.2000319507E+00    0.1754562881E+00    0.3122513674E-01    0.3299059045E+00
    0.4500000000E+03    0.9116176186E-01    0.1998102895E+00    0.1766793554E+00    0.3203570132E-01    0.3323056642E+00
    0.4700000000E+03    0.9341461708E-01    0.1995173205E+00    0.1778276590E+00    0.3282797741E-01    0.3345627569E+00
    0.4900000000E+03    0.9561903530E-01    0.1991629462E+00    0.1789085334E+00    0.3360324461E-01    0.3366910308E+00
    0.1000000000E+03    0.3567712256E-01    0.1613876399E+00    0.1232404898E+00    0.1253197766E-01    0.2299182028E+00
    0.3000000000E+03    0.7225984090E-01    0.1986603364E+00    0.1649284881E+00    0.2538940680E-01    0.3094070184E+00
    0.5000000000E+03    0.9670410927E-01    0.1989654115E+00    0.1794257063E+00    0.3398486109E-01    0.3377106808E+00
    0.7000000000E+03    0.1164927513E+00    0.1932832306E+00    0.1874074226E+00    0.4094547212E-01    0.3535708959E+00
    0.9000000000E+03    0.1336785344E+00    0.1862543407E+00    0.1926374855E+00    0.4699202776E-01    0.3641172819E+00
    0.1100000000E+04    0.1491220857E+00    0.1790643890E+00    0.1964010786E+00    0.5242673191E-01    0.3718048016E+00
    0.1300000000E+04    0.1632700488E+00    0.1720824893E+00    0.1992738635E+00    0.5740641951E-01    0.3777410430E+00
    0.1500000000E+04    0.1763869383E+00    0.1654268767E+00    0.2015576901E+00    0.6202396866E-01    0.3825105275E+00
    0.1700000000E+04    0.1886444220E+00    0.1591270561E+00    0.2034282230E+00    0.6633965261E-01    0.3864554330E+00
    0.1900000000E+04    0.2001617985E+00    0.1531789921E+00    0.2049955984E+00    0.7039535448E-01    0.3897914700E+00
    0.2100000000E+04    0.2110265602E+00    0.1475660451E+00    0.2063328504E+00    0.7422178842E-01    0.3926624168E+00
    0.2300000000E+04    0.2213057510E+00    0.1422674521E+00    0.2074905776E+00    0.7784248846E-01    0.3951683696E+00
    0.2500000000E+04    0.2310526548E+00    0.1372618624E+00    0.2085050921E+00    0.8127615734E-01    0.3973814946E+00
    0.2700000000E+04    0.2403109371E+00    0.1325287867E+00    0.2094032179E+00    0.8453812109E-01    0.3993553390E+00
    0.2900000000E+04    0.2491173159E+00    0.1280491356E+00    0.2102052560E+00    0.8764126692E-01    0.4011306020E+00
    0.3100000000E+04    0.2575033423E+00    0.1238053538E+00    0.2109268908E+00    0.9059666850E-01    0.4027388564E+00
    0.3300000000E+04    0.2654966208E+00    0.1197813807E+00    0.2115804557E+00    0.9341401453E-01    0.4042050299E+00
    0.3500000000E+04    0.2731216670E+00    0.1159625409E+00    0.2121758003E+00    0.9610190981E-01    0.4055491067E+00
    0.3700000000E+04    0.2804005221E+00    0.1123354144E+00    0.2127208973E+00    0.9866809106E-01    0.4067873248E+00
    0.3900000000E+04    0.2873532032E+00    0.1088877068E+00    0.2132222783E+00    0.1011195849E+00    0.4079330356E+00
    0.4100000000E+04    0.2939980373E+00    0.1056081303E+00    0.2136853514E+00    0.1034628251E+00    0.4089973341E+00
    0.4300000000E+04    0.3003519159E+00    0.1024862958E+00    0.2141146378E+00    0.1057037422E+00    0.4099895284E+00
    0.4500000000E+04    0.3064304901E+00    0.9951262004E-01    0.2145139498E+00    0.1078478314E+00    0.4109174942E+00
    0.4700000000E+04    0.3122483234E+00    0.9667824300E-01    0.2148865275E+00    0.1099002067E+00    0.4117879478E+00
    0.4900000000E+04    0.3178190143E+00    0.9397495694E-01    0.2152351442E+00    0.1118656434E+00    0.4126066569E+00
    0.1000000000E+04    0.1415842845E+00    0.1826472467E+00    0.1946573904E+00    0.4977399102E-01    0.3682315947E+00
    0.3000000000E+04    0.2533610668E+00    0.1258987988E+00    0.2105752862E+00    0.8913680176E-01    0.4019539145E+00
    0.5000000000E+04    0.3205156916E+00    0.9267007102E-01    0.2154012271E+00    0.1128171683E+00    0.4129981920E+00
    0.7000000000E+04    0.3641824481E+00    0.7186690550E-01    0.2179024589E+00    0.1282347259E+00    0.4190305185E+00
    0.9000000000E+04    0.3937228784E+00    0.5811586650E-01    0.2194729925E+00    0.1386786421E+00    0.4229833804E+00
    0.1100000000E+05    0.4144445087E+00    0.4859987810E-01    0.2205652466E+00    0.1460152194E+00    0.4258372057E+00
    0.1300000000E+05    0.4294736483E+00    0.4174706987E-01    0.2213751177E+00    0.1513445183E+00    0.4280265919E+00
    0.1500000000E+05    0.4407036312E+00    0.3663958147E-01    0.2220026565E+00    0.1553331514E+00    0.4297778593E+00
    0.1700000000E+05    0.4493164967E+00    0.3271897039E-01    0.2225048312E+00    0.1583975304E+00    0.4312220549E+00
    0.1900000000E+05    0.4560735456E+00    0.2963234760E-01    0.2229166945E+00    0.1608059940E+00    0.4324410320E+00
    0.2100000000E+05    0.4614799816E+00    0.2714889091E-01    0.2232611093E+00    0.1627367096E+00    0.4334889190E+00
    0.2300000000E+05    0.4658804905E+00    0.2511286131E-01    0.2235536817E+00    0.1643113012E+00    0.4344031446E+00
    0.2500000000E+05    0.4695162619E+00    0.2341622054E-01    0.2238054616E+00    0.1656149201E+00    0.4352105356E+00
    0.2700000000E+05    0.4725599650E+00    0.2198213927E-01    0.2240245113E+00    0.1667085605E+00    0.4359308967E+00
    0.2900000000E+05    0.4751377859E+00    0.2075475761E-01    0.2242168628E+00    0.1676368217E+00    0.4365792144E+00
    0.3100000000E+05    0.4773436663E+00    0.1969264793E-01    0.2243871269E+00    0.1684329257E+00    0.4371670698E+00
    0.3300000000E+05    0.4792487222E+00    0.1876453371E-01    0.2245388931E+00    0.1691220372E+00    0.4377035759E+00
    0.3500000000E+05    0.4809076105E+00    0.1794641996E-01    0.2246750009E+00    0.1697235081E+00    0.4381960168E+00
    0.3700000000E+05    0.4823629175E+00    0.1721962886E-01    0.2247977283E+00    0.1702524261E+00    0.4386502957E+00
    0.3900000000E+05    0.4836482411E+00    0.1656942875E-01    0.2249089254E+00    0.1707207014E+00    0.4390712553E+00
    0.4100000000E+05    0.4847903907E+00    0.1598406018E-01    0.2250101117E+00    0.1711378441E+00    0.4394629118E+00
    0.4300000000E+05    0.4858109824E+00    0.1545403293E-01    0.2251025476E+00    0.1715115270E+00    0.4398286284E+00
    0.4500000000E+05    0.4867276122E+00    0.1497161085E-01    0.2251872878E+00    0.1718480000E+00    0.4401712463E+00
    0.4700000000E+05    0.4875547299E+00    0.1453042922E-01    0.2252652222E+00    0.1721523989E+00    0.4404931852E+00
    0.4900000000E+05    0.4883042984E+00    0.1412520692E-01    0.2253371073E+00    0.1724289785E+00    0.4407965201E+00
    0.1000000000E+05    0.4049533792E+00    0.5294697034E-01    0.2200634016E+00    0.1426534956E+00    0.4245134746E+00
    0.3000000000E+05    0.4762823253E+00    0.2020519745E-01    0.2243045111E+00    0.1680496621E+00    0.4368800811E+00
    0.5000000000E+05    0.4886531861E+00    0.1393467147E-01    0.2253709872E+00    0.1725579693E+00    0.4409417808E+00
    0.7000000000E+05    0.4932878380E+00    0.1124234129E-01    0.2258480868E+00    0.1742931658E+00    0.4431998037E+00
    0.9000000000E+05    0.4956361293E+00    0.9692024201E-02    0.2261074133E+00    0.1751981009E+00    0.4447068786E+00
    0.1100000000E+06    0.4970331884E+00    0.8658017040E-02    0.2262623071E+00    0.1757527868E+00    0.4458137121E+00
    0.1300000000E+06    0.4979512226E+00    0.7905878175E-02    0.2263594057E+00    0.1761285197E+00    0.4466761477E+00
    0.1500000000E+06    0.4985965945E+00    0.7326837738E-02    0.2264214622E+00    0.1764008617E+00    0.4473757706E+00
    0.1700000000E+06    0.4990729342E+00    0.6862962778E-02    0.2264608876E+00    0.1766081264E+00    0.4479601339E+00
    0.1900000000E+06    0.4994376796E+00    0.6480271686E-02    0.2264850095E+00    0.1767717601E+00    0.4484591524E+00
    0.2100000000E+06    0.4997251053E+00    0.6157361855E-02    0.2264984178E+00    0.1769046901E+00    0.4488927528E+00
    0.2300000000E+06    0.4999568714E+00    0.5879997002E-02    0.2265041233E+00    0.1770151697E+00    0.4492748128E+00
    0.2500000000E+06    0.5001473087E+00    0.5638289991E-02    0.2265041743E+00    0.1771087160E+00    0.4496153485E+00
    0.2700000000E+06    0.5003062610E+00    0.5425129921E-02    0.2265000068E+00    0.1771891584E+00    0.4499218038E+00
    0.2900000000E+06    0.5004407053E+00    0.5235252788E-02    0.2264926529E+00    0.1772592395E+00    0.4501998474E+00
    0.3100000000E+06    0.5005557187E+00    0.5064666196E-02    0.2264828697E+00    0.1773209761E+00    0.4504538869E+00
    0.3300000000E+06    0.5006550807E+00    0.4910279069E-02    0.2264712227E+00    0.1773758856E+00    0.4506874109E+00
    0.3500000000E+06    0.5007416608E+00    0.4769655269E-02    0.2264581406E+00    0.1774251319E+00    0.4509032232E+00
    0.3700000000E+06    0.5008176750E+00    0.4640844911E-02    0.2264439527E+00    0.1774696238E+00    0.4511036083E+00
    0.3900000000E+06    0.5008848610E+00    0.4522265982E-02    0.2264289147E+00    0.1775100812E+00    0.4512904500E+00
    0.4100000000E+06    0.5009446000E+00    0.4412619424E-02    0.2264132271E+00    0.1775470825E+00    0.4514653181E+00
    0.4300000000E+06    0.5009980029E+00    0.4310827050E-02    0.2263970487E+00    0.1775810977E+00    0.4516295333E+00
    0.4500000000E+06    0.5010459730E+00    0.4215985356E-02    0.2263805056E+00    0.1776125133E+00    0.4517842165E+00
    0.4700000000E+06    0.5010892523E+00    0.4127330643E-02    0.2263636991E+00    0.1776416498E+00    0.4519303263E+00
    0.4900000000E+06    0.5011284552E+00    0.4044212298E-02    0.2263467109E+00    0.1776687756E+00    0.4520686885E+00
    0.1000000000E+06    0.4964144871E+00    0.9129589172E-02    0.2261941761E+00    0.1755050828E+00    0.4452980775E+00
    0.3000000000E+06    0.5005003796E+00    0.5147759138E-02    0.2264880259E+00    0.1772910464E+00    0.4503296312E+00
    0.5000000000E+06    0.5011466918E+00    0.4004551672E-02    0.2263381697E+00    0.1776816566E+00    0.4521351917E+00
    0.7000000000E+06    0.5013866999E+00    0.3400367431E-02    0.2261684675E+00    0.1778738665E+00    0.4531910859E+00
    0.9000000000E+06    0.5015031419E+00    0.3010927053E-02    0.2260111608E+00    0.1779954307E+00    0.4539220219E+00
    0.1100000000E+07    0.5015673262E+00    0.2732788323E-02    0.2258691213E+00    0.1780824207E+00    0.4544744882E+00
    0.1300000000E+07    0.5016051644E+00    0.2521171720E-02    0.2257408446E+00    0.1781493830E+00    0.4549153048E+00
    0.1500000000E+07    0.5016281774E+00    0.2353084212E-02    0.2256243078E+00    0.1782034571E+00    0.4552802077E+00
    0.1700000000E+07    0.5016421993E+00    0.2215333605E-02    0.2255176996E+00    0.1782486186E+00    0.4555904086E+00
    0.1900000000E+07    0.5016504666E+00    0.2099732587E-02    0.2254195244E+00    0.1782872861E+00    0.4558594656E+00
    0.2100000000E+07    0.5016549006E+00    0.2000892757E-02    0.2253285701E+00    0.1783210304E+00    0.4560965390E+00
    0.2300000000E+07    0.5016567027E+00    0.1915102190E-02    0.2252438543E+00    0.1783509247E+00    0.4563080907E+00
    0.2500000000E+07    0.5016566560E+00    0.1839708661E-02    0.2251645756E+00    0.1783777319E+00    0.4564988394E+00
    0.2700000000E+07    0.5016552880E+00    0.1772759500E-02    0.2250900740E+00    0.1784020126E+00    0.4566723298E+00
    0.2900000000E+07    0.5016529640E+00    0.1712780678E-02    0.2250198014E+00    0.1784241900E+00    0.4568312887E+00
    0.3100000000E+07    0.5016499431E+00    0.1658635642E-02    0.2249532978E+00    0.1784445906E+00    0.4569778556E+00
    0.3300000000E+07    0.5016464121E+00    0.1609431948E-02    0.2248901741E+00    0.1784634716E+00    0.4571137391E+00
    0.3500000000E+07    0.5016425082E+00    0.1564457664E-02    0.2248300982E+00    0.1784810390E+00    0.4572403234E+00
    0.3700000000E+07    0.5016383337E+00    0.1523136936E-02    0.2247727848E+00    0.1784974600E+00    0.4573587454E+00
    0.3900000000E+07    0.5016339652E+00    0.1484998234E-02    0.2247179868E+00    0.1785128723E+00    0.4574699491E+00
    0.4100000000E+07    0.5016294612E+00    0.1449651221E-02    0.2246654888E+00    0.1785273903E+00    0.4575747268E+00
    0.4300000000E+07    0.5016248664E+00    0.1416769600E-02    0.2246151023E+00    0.1785411105E+00    0.4576737496E+00
    0.4500000000E+07    0.5016202153E+00    0.1386078190E-02    0.2245666608E+00    0.1785541146E+00    0.4577675906E+00
    0.4700000000E+07    0.5016155346E+00    0.1357343063E-02    0.2245200172E+00    0.1785664724E+00    0.4578567428E+00
    0.4900000000E+07    0.5016108450E+00    0.1330363909E-02    0.2244750403E+00    0.1785782442E+00    0.4579416334E+00
    0.1000000000E+07    0.5015396335E+00    0.2861484898E-02    0.2259382967E+00    0.1780420810E+00    0.4542153455E+00
    0.3000000000E+07    0.5016515276E+00    0.1685039577E-02    0.2249861043E+00    0.1784345949E+00    0.4569060057E+00
    0.5000000000E+07    0.5016085020E+00    0.1317477920E-02    0.2244531398E+00    0.1785839269E+00    0.4579825988E+00
    0.7000000000E+07    0.5015635957E+00    0.1120291677E-02    0.2240797702E+00    0.1786765284E+00    0.4586478205E+00
    0.9000000000E+07    0.5015240625E+00    0.9924881764E-03    0.2237913149E+00    0.1787436160E+00    0.4591256081E+00
    0.1100000000E+08    0.5014896318E+00    0.9009720837E-03    0.2235558466E+00    0.1787961942E+00    0.4594967851E+00
    0.1300000000E+08    0.5014593696E+00    0.8312457174E-03    0.2233566925E+00    0.1788394132E+00    0.4597994401E+00
    0.1500000000E+08    0.5014324590E+00    0.7758166167E-03    0.2231840218E+00    0.1788760955E+00    0.4600544716E+00
    0.1700000000E+08    0.5014082670E+00    0.7303689668E-03    0.2230315408E+00    0.1789079553E+00    0.4602745490E+00
    0.1900000000E+08    0.5013863115E+00    0.6922173276E-03    0.2228949726E+00    0.1789361109E+00    0.4604679172E+00
    0.2100000000E+08    0.5013662227E+00    0.6595911282E-03    0.2227712759E+00    0.1789613325E+00    0.4606402338E+00
    0.2300000000E+08    0.5013477126E+00    0.6312691011E-03    0.2226582096E+00    0.1789841728E+00    0.4607955451E+00
    0.2500000000E+08    0.5013305538E+00    0.6063778068E-03    0.2225540736E+00    0.1790050419E+00    0.4609368426E+00
    0.2700000000E+08    0.5013145640E+00    0.5842737290E-03    0.2224575476E+00    0.1790242524E+00    0.4610663982E+00
