  Pressure (Pa) 22mC5-400 (mol/kg) 2mC6-400 (mol/kg) 3mC6-400 (mol/kg) 23mC5-400 (mol/kg) C7-400 (mol/kg)
    0.1000000000E+01    0.5281290210E-03    0.7860477215E-02    0.1563728455E-02    0.1854674173E-03    0.6766904957E-02
    0.3000000000E+01    0.1557433276E-02    0.2258862980E-01    0.4497206571E-02    0.5469415477E-03    0.1946493003E-01
    0.5000000000E+01    0.2552766370E-02    0.3612720742E-01    0.7199212236E-02    0.8964918159E-03    0.3116546830E-01
    0.7000000000E+01    0.3516304133E-02    0.4861477539E-01    0.9697685294E-02    0.1234881849E-02    0.4198875660E-01
    0.9000000000E+01    0.4450032295E-02    0.6016874853E-01    0.1201618475E-01    0.1562808562E-02    0.5203619255E-01
    0.1100000000E+02    0.5355767152E-02    0.7088933700E-01    0.1417471866E-01    0.1880909409E-02    0.6139390180E-01
    0.1300000000E+02    0.6235173561E-02    0.8086263271E-01    0.1619039197E-01    0.2189768698E-02    0.7013552288E-01
    0.1500000000E+02    0.7089780675E-02    0.9016304823E-01    0.1807791719E-01    0.2489923115E-02    0.7832440279E-01
    0.1700000000E+02    0.7920995745E-02    0.9885526204E-01    0.1985002076E-01    0.2781866563E-02    0.8601534420E-01
    0.1900000000E+02    0.8730116242E-02    0.1069957837E+00    0.2151776912E-01    0.3066054420E-02    0.9325600742E-01
    0.2100000000E+02    0.9518340562E-02    0.1146342233E+00    0.2309083241E-01    0.3342907293E-02    0.1000880445E+00
    0.2300000000E+02    0.1028677749E-01    0.1218143289E+00    0.2457769935E-01    0.3612814338E-02    0.1065480233E+00
    0.2500000000E+02    0.1103645456E-01    0.1285748403E+00    0.2598585348E-01    0.3876136204E-02    0.1126681856E+00
    0.2700000000E+02    0.1176832555E-01    0.1349501957E+00    0.2732191874E-01    0.4133207646E-02    0.1184770730E+00
    0.2900000000E+02    0.1248327708E-01    0.1409711218E+00    0.2859178030E-01    0.4384339856E-02    0.1240000472E+00
    0.3100000000E+02    0.1318213458E-01    0.1466651269E+00    0.2980068556E-01    0.4629822541E-02    0.1292597241E+00
    0.3300000000E+02    0.1386566754E-01    0.1520569176E+00    0.3095332897E-01    0.4869925791E-02    0.1342763388E+00
    0.3500000000E+02    0.1453459432E-01    0.1571687513E+00    0.3205392355E-01    0.5104901738E-02    0.1390680535E+00
    0.3700000000E+02    0.1518958639E-01    0.1620207363E+00    0.3310626166E-01    0.5334986065E-02    0.1436512187E+00
    0.3900000000E+02    0.1583127220E-01    0.1666310879E+00    0.3411376662E-01    0.5560399351E-02    0.1480405959E+00
    0.4100000000E+02    0.1646024062E-01    0.1710163493E+00    0.3507953702E-01    0.5781348290E-02    0.1522495477E+00
    0.4300000000E+02    0.1707704411E-01    0.1751915809E+00    0.3600638465E-01    0.5998026795E-02    0.1562902012E+00
    0.4500000000E+02    0.1768220155E-01    0.1791705247E+00    0.3689686728E-01    0.6210616987E-02    0.1601735895E+00
    0.4700000000E+02    0.1827620079E-01    0.1829657471E+00    0.3775331704E-01    0.6419290108E-02    0.1639097732E+00
    0.4900000000E+02    0.1885950103E-01    0.1865887634E+00    0.3857786495E-01    0.6624207332E-02    0.1675079468E+00
    0.1000000000E+02    0.4906291479E-02    0.6562753552E-01    0.1311431686E-01    0.1723049522E-02    0.5679639616E-01
    0.3000000000E+02    0.1283466824E-01    0.1438573840E+00    0.2920354700E-01    0.4507770069E-02    0.1266614812E+00
    0.5000000000E+02    0.1914727520E-01    0.1883390323E+00    0.3897879203E-01    0.6725305285E-02    0.1692579391E+00
    0.7000000000E+02    0.2443395678E-01    0.2164611500E+00    0.4571880691E-01    0.8582687088E-02    0.1987227743E+00
    0.9000000000E+02    0.2901822101E-01    0.2354134708E+00    0.5074037731E-01    0.1019347086E-01    0.2207404944E+00
    0.1100000000E+03    0.3309426620E-01    0.2487303136E+00    0.5468139000E-01    0.1162582579E-01    0.2380679892E+00
    0.1300000000E+03    0.3678677378E-01    0.2583546563E+00    0.5789137059E-01    0.1292352046E-01    0.2522175354E+00
    0.1500000000E+03    0.4018007137E-01    0.2654423613E+00    0.6057938485E-01    0.1411615863E-01    0.2640946460E+00
    0.1700000000E+03    0.4333361215E-01    0.2707228297E+00    0.6287897716E-01    0.1522461244E-01    0.2742783263E+00
    0.1900000000E+03    0.4629075758E-01    0.2746779780E+00    0.6487992733E-01    0.1626410522E-01    0.2831582200E+00
    0.2100000000E+03    0.4908403712E-01    0.2776381593E+00    0.6664511536E-01    0.1724605771E-01    0.2910074906E+00
    0.2300000000E+03    0.5173844199E-01    0.2798367848E+00    0.6822008203E-01    0.1817924432E-01    0.2980241629E+00
    0.2500000000E+03    0.5427356691E-01    0.2814429966E+00    0.6963874426E-01    0.1907054491E-01    0.3043558537E+00
    0.2700000000E+03    0.5670504823E-01    0.2825820241E+00    0.7092696580E-01    0.1992544965E-01    0.3101152308E+00
    0.2900000000E+03    0.5904555666E-01    0.2833483115E+00    0.7210487238E-01    0.2074840752E-01    0.3153900427E+00
    0.3100000000E+03    0.6130549952E-01    0.2838142360E+00    0.7318840143E-01    0.2154307285E-01    0.3202498363E+00
    0.3300000000E+03    0.6349352800E-01    0.2840360475E+00    0.7419036821E-01    0.2231248339E-01    0.3247505808E+00
    0.3500000000E+03    0.6561691080E-01    0.2840580070E+00    0.7512121733E-01    0.2305919149E-01    0.3289379292E+00
    0.3700000000E+03    0.6768181381E-01    0.2839153267E+00    0.7598956364E-01    0.2378536231E-01    0.3328495665E+00
    0.3900000000E+03    0.6969351289E-01    0.2836362963E+00    0.7680258905E-01    0.2449284848E-01    0.3365169339E+00
    0.4100000000E+03    0.7165655777E-01    0.2832438451E+00    0.7756633854E-01    0.2518324768E-01    0.3399665155E+00
    0.4300000000E+03    0.7357490007E-01    0.2827567056E+00    0.7828594433E-01    0.2585794757E-01    0.3432208134E+00
    0.4500000000E+03    0.7545199434E-01    0.2821902919E+00    0.7896579807E-01    0.2651816129E-01    0.3462990963E+00
    0.4700000000E+03    0.7729087861E-01    0.2815573700E+00    0.7960968460E-01    0.2716495570E-01    0.3492179828E+00
    0.4900000000E+03    0.7909423934E-01    0.2808685755E+00    0.8022088722E-01    0.2779927421E-01    0.3519918991E+00
    0.1000000000E+03    0.3111078312E-01    0.2426302169E+00    0.5281968603E-01    0.1092879684E-01    0.2298769065E+00
    0.3000000000E+03    0.6018502184E-01    0.2836149810E+00    0.7265757001E-01    0.2114907416E-01    0.3178680440E+00
    0.5000000000E+03    0.7998335493E-01    0.2805060681E+00    0.8051514188E-01    0.2811202070E-01    0.3533284935E+00
    0.7000000000E+03    0.9636245271E-01    0.2718639528E+00    0.8522091992E-01    0.3387413334E-01    0.3748117433E+00
    0.9000000000E+03    0.1108284248E+00    0.2624512112E+00    0.8849896473E-01    0.3896433697E-01    0.3899127565E+00
    0.1100000000E+04    0.1240102319E+00    0.2532962732E+00    0.9097288800E-01    0.4360352396E-01    0.4013961120E+00
    0.1300000000E+04    0.1362361542E+00    0.2446445686E+00    0.9293574758E-01    0.4790698664E-01    0.4105676994E+00
    0.1500000000E+04    0.1477016255E+00    0.2365305140E+00    0.9454761251E-01    0.5194335889E-01    0.4181439627E+00
    0.1700000000E+04    0.1585336959E+00    0.2289268828E+00    0.9590498866E-01    0.5575725637E-01    0.4245585399E+00
    0.1900000000E+04    0.1688204142E+00    0.2217904363E+00    0.9707029019E-01    0.5937959613E-01    0.4300928738E+00
    0.2100000000E+04    0.1786258874E+00    0.2150768403E+00    0.9808606297E-01    0.6283288640E-01    0.4349394366E+00
    0.2300000000E+04    0.1879986915E+00    0.2087453945E+00    0.9898252207E-01    0.6613418054E-01    0.4392353275E+00
    0.2500000000E+04    0.1969768833E+00    0.2027601788E+00    0.9978184206E-01    0.6929683768E-01    0.4430814444E+00
    0.2700000000E+04    0.2055911446E+00    0.1970899373E+00    0.1005007413E+00    0.7233162700E-01    0.4465540596E+00
    0.2900000000E+04    0.2138668361E+00    0.1917075607E+00    0.1011521116E+00    0.7524744920E-01    0.4497121353E+00
    0.3100000000E+04    0.2218253843E+00    0.1865894903E+00    0.1017460861E+00    0.7805182367E-01    0.4526021270E+00
    0.3300000000E+04    0.2294852444E+00    0.1817151611E+00    0.1022907616E+00    0.8075122667E-01    0.4552612394E+00
    0.3500000000E+04    0.2368625837E+00    0.1770665182E+00    0.1027927009E+00    0.8335133140E-01    0.4577196945E+00
    0.3700000000E+04    0.2439717765E+00    0.1726276123E+00    0.1032572906E+00    0.8585718178E-01    0.4600023508E+00
    0.3900000000E+04    0.2508257680E+00    0.1683842653E+00    0.1036890013E+00    0.8827332030E-01    0.4621298816E+00
    0.4100000000E+04    0.2574363462E+00    0.1643237959E+00    0.1040915803E+00    0.9060388342E-01    0.4641196494E+00
    0.4300000000E+04    0.2638143470E+00    0.1604347950E+00    0.1044681964E+00    0.9285267366E-01    0.4659863657E+00
    0.4500000000E+04    0.2699698111E+00    0.1567069415E+00    0.1048215512E+00    0.9502321470E-01    0.4677425954E+00
    0.4700000000E+04    0.2759121051E+00    0.1531308510E+00    0.1051539645E+00    0.9711879384E-01    0.4693991474E+00
    0.4900000000E+04    0.2816500162E+00    0.1496979499E+00    0.1054674413E+00    0.9914249518E-01    0.4709653818E+00
    0.1000000000E+04    0.1175550491E+00    0.2578180802E+00    0.8981370813E-01    0.4133159772E-01    0.3960054731E+00
    0.3000000000E+04    0.2178845392E+00    0.1891168367E+00    0.1014557263E+00    0.7666314138E-01    0.4511881300E+00
    0.5000000000E+04    0.2844449343E+00    0.1480327122E+00    0.1056176326E+00    0.1001283064E+00    0.4717172196E+00
    0.7000000000E+04    0.3314138261E+00    0.1206280760E+00    0.1079517352E+00    0.1167031107E+00    0.4835342126E+00
    0.9000000000E+04    0.3652380541E+00    0.1013963923E+00    0.1094967277E+00    0.1286514387E+00    0.4915188702E+00
    0.1100000000E+05    0.3900717870E+00    0.8741155393E-01    0.1106151792E+00    0.1374333076E+00    0.4974017059E+00
    0.1300000000E+05    0.4086798582E+00    0.7693136869E-01    0.1114720373E+00    0.1440211243E+00    0.5019799522E+00
    0.1500000000E+05    0.4229080466E+00    0.6886592067E-01    0.1121547582E+00    0.1490644400E+00    0.5056807091E+00
    0.1700000000E+05    0.4339980223E+00    0.6251075348E-01    0.1127146592E+00    0.1530004390E+00    0.5087568022E+00
    0.1900000000E+05    0.4427962628E+00    0.5739776284E-01    0.1131841191E+00    0.1561273030E+00    0.5113689818E+00
    0.2100000000E+05    0.4498894471E+00    0.5320787628E-01    0.1135847172E+00    0.1586517905E+00    0.5136251200E+00
    0.2300000000E+05    0.4556914763E+00    0.4971838933E-01    0.1139314644E+00    0.1607198340E+00    0.5156007301E+00
    0.2500000000E+05    0.4604995985E+00    0.4677040717E-01    0.1142351695E+00    0.1624362827E+00    0.5173505050E+00
    0.2700000000E+05    0.4645309842E+00    0.4424824333E-01    0.1145038394E+00    0.1638777734E+00    0.5189151856E+00
    0.2900000000E+05    0.4679468960E+00    0.4206609062E-01    0.1147435484E+00    0.1651012389E+00    0.5203258427E+00
    0.3100000000E+05    0.4708689120E+00    0.4015921240E-01    0.1149589987E+00    0.1661496208E+00    0.5216066519E+00
    0.3300000000E+05    0.4733899918E+00    0.3847800284E-01    0.1151538946E+00    0.1670557672E+00    0.5227767510E+00
    0.3500000000E+05    0.4755821451E+00    0.3698390560E-01    0.1153311988E+00    0.1678451355E+00    0.5238515194E+00
    0.3700000000E+05    0.4775018286E+00    0.3564655946E-01    0.1154933125E+00    0.1685376937E+00    0.5248434804E+00
    0.3900000000E+05    0.4791937996E+00    0.3444176894E-01    0.1156422051E+00    0.1691492796E+00    0.5257629516E+00
    0.4100000000E+05    0.4806939074E+00    0.3335003926E-01    0.1157795092E+00    0.1696925849E+00    0.5266185224E+00
    0.4300000000E+05    0.4820311400E+00    0.3235550348E-01    0.1159065905E+00    0.1701778774E+00    0.5274174109E+00
    0.4500000000E+05    0.4832291450E+00    0.3144512642E-01    0.1160246016E+00    0.1706135373E+00    0.5281657342E+00
    0.4700000000E+05    0.4843073712E+00    0.3060810657E-01    0.1161345229E+00    0.1710064606E+00    0.5288687161E+00
    0.4900000000E+05    0.4852819368E+00    0.2983542163E-01    0.1162371938E+00    0.1713623652E+00    0.5295308490E+00
    0.1000000000E+05    0.3785798119E+00    0.9387663203E-01    0.1100963646E+00    0.1333682332E+00    0.4946608288E+00
    0.3000000000E+05    0.4694632634E+00    0.4108164214E-01    0.1148540544E+00    0.1656450621E+00    0.5209811814E+00
    0.5000000000E+05    0.4857346398E+00    0.2947078418E-01    0.1162860406E+00    0.1715279591E+00    0.5298478328E+00
    0.7000000000E+05    0.4916760151E+00    0.2421987124E-01    0.1170149408E+00    0.1737240058E+00    0.5347605730E+00
    0.9000000000E+05    0.4946129537E+00    0.2110297636E-01    0.1174631628E+00    0.1748366492E+00    0.5380126932E+00
    0.1100000000E+06    0.4963247861E+00    0.1898170502E-01    0.1177679933E+00    0.1755024488E+00    0.5403787652E+00
    0.1300000000E+06    0.4974309018E+00    0.1741634229E-01    0.1179887835E+00    0.1759445950E+00    0.5422048205E+00
    0.1500000000E+06    0.4981977238E+00    0.1619823202E-01    0.1181557534E+00    0.1762598339E+00    0.5436723165E+00
    0.1700000000E+06    0.4987571121E+00    0.1521425721E-01    0.1182860428E+00    0.1764964387E+00    0.5448869973E+00
    0.1900000000E+06    0.4991812029E+00    0.1439711039E-01    0.1183901502E+00    0.1766810428E+00    0.5459152995E+00
    0.2100000000E+06    0.4995125416E+00    0.1370389468E-01    0.1184748893E+00    0.1768294930E+00    0.5468013904E+00
    0.2300000000E+06    0.4997777351E+00    0.1310579155E-01    0.1185448870E+00    0.1769517889E+00    0.5475759570E+00
    0.2500000000E+06    0.4999942218E+00    0.1258261638E-01    0.1186034011E+00    0.1770545449E+00    0.5482610884E+00
    0.2700000000E+06    0.5001738790E+00    0.1211974623E-01    0.1186527953E+00    0.1771423085E+00    0.5488731546E+00
    0.2900000000E+06    0.5003250598E+00    0.1170628739E-01    0.1186948275E+00    0.1772183083E+00    0.5494245855E+00
    0.3100000000E+06    0.5004538001E+00    0.1133393182E-01    0.1187308336E+00    0.1772849000E+00    0.5499250164E+00
    0.3300000000E+06    0.5005645644E+00    0.1099621550E-01    0.1187618471E+00    0.1773438428E+00    0.5503820502E+00
    0.3500000000E+06    0.5006607221E+00    0.1068802176E-01    0.1187886804E+00    0.1773964774E+00    0.5508017791E+00
    0.3700000000E+06    0.5007448613E+00    0.1040523925E-01    0.1188119812E+00    0.1774438440E+00    0.5511891518E+00
    0.3900000000E+06    0.5008190012E+00    0.1014452057E-01    0.1188322722E+00    0.1774867621E+00    0.5515482360E+00
    0.4100000000E+06    0.5008847392E+00    0.9903108274E-02    0.1188499799E+00    0.1775258863E+00    0.5518824117E+00
    0.4300000000E+06    0.5009433545E+00    0.9678707164E-02    0.1188654557E+00    0.1775617463E+00    0.5521945140E+00
    0.4500000000E+06    0.5009958832E+00    0.9469388832E-02    0.1188789918E+00    0.1775947754E+00    0.5524869417E+00
    0.4700000000E+06    0.5010431728E+00    0.9273519328E-02    0.1188908328E+00    0.1776253315E+00    0.5527617405E+00
    0.4900000000E+06    0.5010859232E+00    0.9089703566E-02    0.1189011856E+00    0.1776537131E+00    0.5530206674E+00
    0.1000000000E+06    0.4955705436E+00    0.1995349416E-01    0.1176288017E+00    0.1752068946E+00    0.5392793104E+00
    0.3000000000E+06    0.5003919257E+00    0.1151541218E-01    0.1187135133E+00    0.1772526587E+00    0.5496806602E+00
    0.5000000000E+06    0.5011057820E+00    0.9001934344E-02    0.1189058598E+00    0.1776671685E+00    0.5531446616E+00
    0.7000000000E+06    0.5013654254E+00    0.7660292603E-02    0.1189525669E+00    0.1778663322E+00    0.5550710834E+00
    0.9000000000E+06    0.5014902365E+00    0.6791261518E-02    0.1189525566E+00    0.1779908624E+00    0.5563540450E+00
    0.1100000000E+07    0.5015587725E+00    0.6168747097E-02    0.1189336287E+00    0.1780793956E+00    0.5572935675E+00
    0.1300000000E+07    0.5015991700E+00    0.5694158616E-02    0.1189062571E+00    0.1781472661E+00    0.5580233893E+00
    0.1500000000E+07    0.5016238204E+00    0.5316635104E-02    0.1188750757E+00    0.1782019215E+00    0.5586136193E+00
    0.1700000000E+07    0.5016389561E+00    0.5006898658E-02    0.1188423458E+00    0.1782474787E+00    0.5591051404E+00
    0.1900000000E+07    0.5016480174E+00    0.4746733829E-02    0.1188092403E+00    0.1782864284E+00    0.5595236692E+00
    0.2100000000E+07    0.5016530386E+00    0.4524129045E-02    0.1187763885E+00    0.1783203817E+00    0.5598863288E+00
    0.2300000000E+07    0.5016552882E+00    0.4330796913E-02    0.1187441305E+00    0.1783504352E+00    0.5602050371E+00
    0.2500000000E+07    0.5016555910E+00    0.4160808313E-02    0.1187126462E+00    0.1783773670E+00    0.5604883892E+00
    0.2700000000E+07    0.5016545017E+00    0.4009793253E-02    0.1186820237E+00    0.1784017471E+00    0.5607427673E+00
    0.2900000000E+07    0.5016524041E+00    0.3874449847E-02    0.1186522972E+00    0.1784240052E+00    0.5609730274E+00
    0.3100000000E+07    0.5016495697E+00    0.3752230115E-02    0.1186234692E+00    0.1784444724E+00    0.5611829413E+00
    0.3300000000E+07    0.5016461946E+00    0.3641131917E-02    0.1185955239E+00    0.1784634092E+00    0.5613754916E+00
    0.3500000000E+07    0.5016424226E+00    0.3539557088E-02    0.1185684344E+00    0.1784810238E+00    0.5615530731E+00
    0.3700000000E+07    0.5016383607E+00    0.3446212210E-02    0.1185421684E+00    0.1784974852E+00    0.5617176349E+00
    0.3900000000E+07    0.5016340894E+00    0.3360037661E-02    0.1185166906E+00    0.1785129323E+00    0.5618707825E+00
    0.4100000000E+07    0.5016296699E+00    0.3280155878E-02    0.1184919651E+00    0.1785274807E+00    0.5620138528E+00
    0.4300000000E+07    0.5016251492E+00    0.3205832972E-02    0.1184679558E+00    0.1785412275E+00    0.5621479693E+00
    0.4500000000E+07    0.5016205636E+00    0.3136449794E-02    0.1184446280E+00    0.1785542551E+00    0.5622740843E+00
    0.4700000000E+07    0.5016159410E+00    0.3071479830E-02    0.1184219483E+00    0.1785666339E+00    0.5623930119E+00
    0.4900000000E+07    0.5016113033E+00    0.3010472089E-02    0.1183998847E+00    0.1785784244E+00    0.5625054523E+00
    0.1000000000E+07    0.5015292165E+00    0.6456971994E-02    0.1189445971E+00    0.1780383950E+00    0.5568562308E+00
    0.3000000000E+07    0.5016510653E+00    0.3811835533E-02    0.1186377716E+00    0.1784344450E+00    0.5610803254E+00
    0.5000000000E+07    0.5016089843E+00    0.2981330410E-02    0.1183890744E+00    0.1785841158E+00    0.5625594326E+00
    0.7000000000E+07    0.5015643842E+00    0.2535189560E-02    0.1181987844E+00    0.1786768286E+00    0.5634106003E+00
    0.9000000000E+07    0.5015250015E+00    0.2245846496E-02    0.1180452455E+00    0.1787439716E+00    0.5639927427E+00
    0.1100000000E+08    0.5014906628E+00    0.2038583132E-02    0.1179165129E+00    0.1787965843E+00    0.5644285136E+00
    0.1300000000E+08    0.5014604647E+00    0.1880634083E-02    0.1178056043E+00    0.1788398275E+00    0.5647734323E+00
    0.1500000000E+08    0.5014336026E+00    0.1755054602E-02    0.1177081202E+00    0.1788765285E+00    0.5650569950E+00
    0.1700000000E+08    0.5014094496E+00    0.1652079540E-02    0.1176211150E+00    0.1789084034E+00    0.5652966081E+00
    0.1900000000E+08    0.5013875268E+00    0.1565630582E-02    0.1175425212E+00    0.1789365718E+00    0.5655033397E+00
    0.2100000000E+08    0.5013674661E+00    0.1491699091E-02    0.1174708311E+00    0.1789618044E+00    0.5656846327E+00
    0.2300000000E+08    0.5013489808E+00    0.1427519496E-02    0.1174049115E+00    0.1789846545E+00    0.5658457150E+00
    0.2500000000E+08    0.5013318443E+00    0.1371113551E-02    0.1173438887E+00    0.1790055324E+00    0.5659903892E+00
    0.2700000000E+08    0.5013158746E+00    0.1321023565E-02    0.1172870746E+00    0.1790247510E+00    0.5661215014E+00
