  Pressure (Pa) 22mC5-400 (mol/kg) 2mC6-400 (mol/kg) 3mC6-400 (mol/kg) 23mC5-400 (mol/kg) C7-400 (mol/kg)
    0.1000000000E+01    0.5283192287E-03    0.7109378149E-02    0.1572990810E-02    0.4638355421E-03    0.3403398379E-02
    0.3000000000E+01    0.1559067172E-02    0.2061970942E-01    0.4574405327E-02    0.1368788427E-02    0.9898723460E-02
    0.5000000000E+01    0.2557103284E-02    0.3325926049E-01    0.7398420275E-02    0.2245037413E-02    0.1601179650E-01
    0.7000000000E+01    0.3524435751E-02    0.4510712993E-01    0.1006144074E-01    0.3094344435E-02    0.2177792011E-01
    0.9000000000E+01    0.4462904869E-02    0.5623307067E-01    0.1257787805E-01    0.3918324134E-02    0.2722810946E-01
    0.1100000000E+02    0.5374200493E-02    0.6669884160E-01    0.1496044534E-01    0.4718459166E-02    0.3238972755E-01
    0.1300000000E+02    0.6259877336E-02    0.7655932948E-01    0.1722040195E-01    0.5496113628E-02    0.3728701059E-01
    0.1500000000E+02    0.7121368430E-02    0.8586348582E-01    0.1936775663E-01    0.6252544858E-02    0.4194150488E-01
    0.1700000000E+02    0.7959996990E-02    0.9465511348E-01    0.2141143762E-01    0.6988913853E-02    0.4637243238E-01
    0.1900000000E+02    0.8776986914E-02    0.1029735306E+00    0.2335943550E-01    0.7706294472E-02    0.5059699794E-01
    0.2100000000E+02    0.9573472086E-02    0.1108541336E+00    0.2521892400E-01    0.8405681604E-02    0.5463064898E-01
    0.2300000000E+02    0.1035050464E-01    0.1183288771E+00    0.2699636247E-01    0.9087998414E-02    0.5848729593E-01
    0.2500000000E+02    0.1110906234E-01    0.1254266847E+00    0.2869758334E-01    0.9754102815E-02    0.6217950019E-01
    0.2700000000E+02    0.1185005515E-01    0.1321738013E+00    0.3032786690E-01    0.1040479323E-01    0.6571863505E-01
    0.2900000000E+02    0.1257433110E-01    0.1385940981E+00    0.3189200565E-01    0.1104081377E-01    0.6911502407E-01
    0.3100000000E+02    0.1328268159E-01    0.1447093357E+00    0.3339435983E-01    0.1166285883E-01    0.7237806047E-01
    0.3300000000E+02    0.1397584614E-01    0.1505393937E+00    0.3483890547E-01    0.1227157731E-01    0.7551631051E-01
    0.3500000000E+02    0.1465451662E-01    0.1561024696E+00    0.3622927617E-01    0.1286757628E-01    0.7853760338E-01
    0.3700000000E+02    0.1531934114E-01    0.1614152543E+00    0.3756879948E-01    0.1345142442E-01    0.8144910950E-01
    0.3900000000E+02    0.1597092748E-01    0.1664930849E+00    0.3886052883E-01    0.1402365506E-01    0.8425740907E-01
    0.4100000000E+02    0.1660984631E-01    0.1713500794E+00    0.4010727139E-01    0.1458476892E-01    0.8696855216E-01
    0.4300000000E+02    0.1723663398E-01    0.1759992560E+00    0.4131161264E-01    0.1513523664E-01    0.8958811156E-01
    0.4500000000E+02    0.1785179515E-01    0.1804526381E+00    0.4247593813E-01    0.1567550105E-01    0.9212122946E-01
    0.4700000000E+02    0.1845580513E-01    0.1847213480E+00    0.4360245253E-01    0.1620597922E-01    0.9457265865E-01
    0.4900000000E+02    0.1904911203E-01    0.1888156891E+00    0.4469319673E-01    0.1672706436E-01    0.9694679915E-01
    0.1000000000E+02    0.4921849197E-02    0.6154489766E-01    0.1378516023E-01    0.4321284344E-02    0.2984340737E-01
    0.3000000000E+02    0.1293044964E-01    0.1416885652E+00    0.3265064882E-01    0.1135354166E-01    0.7076265769E-01
    0.5000000000E+02    0.1934188492E-01    0.1908004859E+00    0.4522575173E-01    0.1698420134E-01    0.9810617274E-01
    0.7000000000E+02    0.2472652122E-01    0.2233312926E+00    0.5439232329E-01    0.2171373816E-01    0.1180843692E+00
    0.9000000000E+02    0.2940249577E-01    0.2460066880E+00    0.6148097237E-01    0.2582131997E-01    0.1335671982E+00
    0.1100000000E+03    0.3356295907E-01    0.2623792453E+00    0.6719623190E-01    0.2947644544E-01    0.1460754853E+00
    0.1300000000E+03    0.3733290175E-01    0.2744988254E+00    0.7194862988E-01    0.3278880419E-01    0.1564960998E+00
    0.1500000000E+03    0.4079733524E-01    0.2836283827E+00    0.7599497854E-01    0.3583300351E-01    0.1653842538E+00
    0.1700000000E+03    0.4401643570E-01    0.2905865711E+00    0.7950498446E-01    0.3866185662E-01    0.1731071096E+00
    0.1900000000E+03    0.4703421807E-01    0.2959260046E+00    0.8259579682E-01    0.4131399412E-01    0.1799183006E+00
    0.2100000000E+03    0.4988376906E-01    0.3000322908E+00    0.8535121387E-01    0.4381845601E-01    0.1859993790E+00
    0.2300000000E+03    0.5259054349E-01    0.3031820437E+00    0.8783297651E-01    0.4619758439E-01    0.1914841988E+00
    0.2500000000E+03    0.5517451773E-01    0.3055783895E+00    0.9008772374E-01    0.4846891324E-01    0.1964739397E+00
    0.2700000000E+03    0.5765164110E-01    0.3073735131E+00    0.9215144640E-01    0.5064644216E-01    0.2010467312E+00
    0.2900000000E+03    0.6003484101E-01    0.3086834339E+00    0.9405243543E-01    0.5274151845E-01    0.2052640262E+00
    0.3100000000E+03    0.6233473558E-01    0.3095979559E+00    0.9581329015E-01    0.5476346255E-01    0.2091749448E+00
    0.3300000000E+03    0.6456014962E-01    0.3101875300E+00    0.9745232102E-01    0.5672002090E-01    0.2128193088E+00
    0.3500000000E+03    0.6671849522E-01    0.3105080866E+00    0.9898455115E-01    0.5861769991E-01    0.2162298100E+00
    0.3700000000E+03    0.6881605708E-01    0.3106045035E+00    0.1004224455E+00    0.6046201646E-01    0.2194335892E+00
    0.3900000000E+03    0.7085820976E-01    0.3105131352E+00    0.1017764511E+00    0.6225768853E-01    0.2224534061E+00
    0.4100000000E+03    0.7284958529E-01    0.3102636866E+00    0.1030554035E+00    0.6400878231E-01    0.2253085204E+00
    0.4300000000E+03    0.7479420405E-01    0.3098806192E+00    0.1042668373E+00    0.6571882711E-01    0.2280153649E+00
    0.4500000000E+03    0.7669557817E-01    0.3093842200E+00    0.1054172260E+00    0.6739090608E-01    0.2305880655E+00
    0.4700000000E+03    0.7855679406E-01    0.3087914232E+00    0.1065121695E+00    0.6902772868E-01    0.2330388484E+00
    0.4900000000E+03    0.8038057886E-01    0.3081164478E+00    0.1075565427E+00    0.7063168899E-01    0.2353783621E+00
    0.1000000000E+03    0.3153817458E-01    0.2548284927E+00    0.6447989060E-01    0.2769754884E-01    0.1401275331E+00
    0.3000000000E+03    0.6119461289E-01    0.3091853276E+00    0.9494914797E-01    0.5376111537E-01    0.2072551046E+00
    0.5000000000E+03    0.8127920211E-01    0.3077519695E+00    0.1080611202E+00    0.7142201956E-01    0.2365093538E+00
    0.7000000000E+03    0.9775424453E-01    0.2982557038E+00    0.1163015819E+00    0.8591395387E-01    0.2550460113E+00
    0.9000000000E+03    0.1121438931E+00    0.2872403401E+00    0.1222589026E+00    0.9857493596E-01    0.2685300721E+00
    0.1100000000E+04    0.1250816181E+00    0.2762799834E+00    0.1268943248E+00    0.1099610626E+00    0.2790751039E+00
    0.1300000000E+04    0.1368989985E+00    0.2658282745E+00    0.1306690106E+00    0.1203633899E+00    0.2876989468E+00
    0.1500000000E+04    0.1477960897E+00    0.2560077252E+00    0.1338395602E+00    0.1299575044E+00    0.2949697797E+00
    0.1700000000E+04    0.1579062719E+00    0.2468288940E+00    0.1365633599E+00    0.1388604592E+00    0.3012370858E+00
    0.1900000000E+04    0.1673254517E+00    0.2382628629E+00    0.1389438493E+00    0.1471564127E+00    0.3067311403E+00
    0.2100000000E+04    0.1761267953E+00    0.2302678670E+00    0.1410526149E+00    0.1549095637E+00    0.3116116757E+00
    0.2300000000E+04    0.1843687946E+00    0.2227996414E+00    0.1429412253E+00    0.1621712338E+00    0.3159940018E+00
    0.2500000000E+04    0.1920999637E+00    0.2158154654E+00    0.1446480382E+00    0.1689839906E+00    0.3199640567E+00
    0.2700000000E+04    0.1993617097E+00    0.2092756305E+00    0.1462023423E+00    0.1753841669E+00    0.3235875813E+00
    0.2900000000E+04    0.2061901573E+00    0.2031438295E+00    0.1476269956E+00    0.1814034633E+00    0.3269159705E+00
    0.3100000000E+04    0.2126173509E+00    0.1973870954E+00    0.1489401705E+00    0.1870700022E+00    0.3299901503E+00
    0.3300000000E+04    0.2186720711E+00    0.1919755673E+00    0.1501565448E+00    0.1924090446E+00    0.3328432286E+00
    0.3500000000E+04    0.2243804071E+00    0.1868822029E+00    0.1512881387E+00    0.1974434916E+00    0.3355023579E+00
    0.3700000000E+04    0.2297661695E+00    0.1820824894E+00    0.1523449149E+00    0.2021942475E+00    0.3379900750E+00
    0.3900000000E+04    0.2348511989E+00    0.1775541755E+00    0.1533352192E+00    0.2066804888E+00    0.3403252850E+00
    0.4100000000E+04    0.2396556021E+00    0.1732770291E+00    0.1542661100E+00    0.2109198722E+00    0.3425239964E+00
    0.4300000000E+04    0.2441979395E+00    0.1692326234E+00    0.1551436072E+00    0.2149286986E+00    0.3445998801E+00
    0.4500000000E+04    0.2484953779E+00    0.1654041484E+00    0.1559728848E+00    0.2187220467E+00    0.3465646998E+00
    0.4700000000E+04    0.2525638185E+00    0.1617762445E+00    0.1567584206E+00    0.2223138851E+00    0.3484286477E+00
    0.4900000000E+04    0.2564180062E+00    0.1583348575E+00    0.1575041145E+00    0.2257171684E+00    0.3502006106E+00
    0.1000000000E+04    0.1187692587E+00    0.2817126617E+00    0.1247062710E+00    0.1044054220E+00    0.2740915139E+00
    0.3000000000E+04    0.2094520432E+00    0.2002205149E+00    0.1482965298E+00    0.1842791883E+00    0.3284826089E+00
    0.5000000000E+04    0.2582690704E+00    0.1566800406E+00    0.1578631049E+00    0.2273518936E+00    0.3510545708E+00
    0.7000000000E+04    0.2868797477E+00    0.1307662586E+00    0.1635949623E+00    0.2526412064E+00    0.3647758696E+00
    0.9000000000E+04    0.3047575004E+00    0.1138920578E+00    0.1675641165E+00    0.2684746632E+00    0.3743864079E+00
    0.1100000000E+05    0.3165915661E+00    0.1020951816E+00    0.1705376924E+00    0.2789781144E+00    0.3816566691E+00
    0.1300000000E+05    0.3248190893E+00    0.9337580034E-01    0.1728797508E+00    0.2862976033E+00    0.3874324909E+00
    0.1500000000E+05    0.3307775005E+00    0.8664398783E-01    0.1747897870E+00    0.2916116927E+00    0.3921799179E+00
    0.1700000000E+05    0.3352410596E+00    0.8126494233E-01    0.1763880586E+00    0.2956031720E+00    0.3961812340E+00
    0.1900000000E+05    0.3386803257E+00    0.7684737366E-01    0.1777521896E+00    0.2986873152E+00    0.3996194357E+00
    0.2100000000E+05    0.3413937876E+00    0.7313819553E-01    0.1789349404E+00    0.3011277401E+00    0.4026193989E+00
    0.2300000000E+05    0.3435779742E+00    0.6996687298E-01    0.1799736523E+00    0.3030981497E+00    0.4052698342E+00
    0.2500000000E+05    0.3453665438E+00    0.6721440932E-01    0.1808956303E+00    0.3047167720E+00    0.4076358355E+00
    0.2700000000E+05    0.3468530010E+00    0.6479524058E-01    0.1817213844E+00    0.3060663843E+00    0.4097664596E+00
    0.2900000000E+05    0.3481043977E+00    0.6264622554E-01    0.1824666715E+00    0.3072063956E+00    0.4116995146E+00
    0.3100000000E+05    0.3491698759E+00    0.6071970609E-01    0.1831438318E+00    0.3081803837E+00    0.4134646992E+00
    0.3300000000E+05    0.3500861524E+00    0.5897899281E-01    0.1837626908E+00    0.3090209370E+00    0.4150857290E+00
    0.3500000000E+05    0.3508811359E+00    0.5739534474E-01    0.1843311852E+00    0.3097528485E+00    0.4165818140E+00
    0.3700000000E+05    0.3515763680E+00    0.5594589768E-01    0.1848558079E+00    0.3103952726E+00    0.4179687122E+00
    0.3900000000E+05    0.3521887074E+00    0.5461221131E-01    0.1853419305E+00    0.3109632141E+00    0.4192594941E+00
    0.4100000000E+05    0.3527315136E+00    0.5337922946E-01    0.1857940418E+00    0.3114685748E+00    0.4204651098E+00
    0.4300000000E+05    0.3532154938E+00    0.5223452261E-01    0.1862159266E+00    0.3119209030E+00    0.4215948151E+00
    0.4500000000E+05    0.3536493182E+00    0.5116772688E-01    0.1866108027E+00    0.3123279383E+00    0.4226564969E+00
    0.4700000000E+05    0.3540400747E+00    0.5017012231E-01    0.1869814254E+00    0.3126960142E+00    0.4236569253E+00
    0.4900000000E+05    0.3543936074E+00    0.4923431155E-01    0.1873301704E+00    0.3130303585E+00    0.4246019503E+00
    0.1000000000E+05    0.3112426273E+00    0.1075133126E+00    0.1691471515E+00    0.2742276885E+00    0.3782486628E+00
    0.3000000000E+05    0.3486578400E+00    0.6165766297E-01    0.1828131029E+00    0.3077118918E+00    0.4126014881E+00
    0.5000000000E+05    0.3545579657E+00    0.4878756662E-01    0.1874969936E+00    0.3131862698E+00    0.4250553021E+00
    0.7000000000E+05    0.3567281301E+00    0.4195241471E-01    0.1900666406E+00    0.3152847707E+00    0.4321596051E+00
    0.9000000000E+05    0.3578149107E+00    0.3749896460E-01    0.1917423252E+00    0.3163830706E+00    0.4369435414E+00
    0.1100000000E+06    0.3584539821E+00    0.3428424080E-01    0.1929415816E+00    0.3170592315E+00    0.4404647097E+00
    0.1300000000E+06    0.3588686285E+00    0.3181503831E-01    0.1938517451E+00    0.3175190879E+00    0.4432055371E+00
    0.1500000000E+06    0.3591560863E+00    0.2983741759E-01    0.1945711009E+00    0.3178535568E+00    0.4454228012E+00
    0.1700000000E+06    0.3593650616E+00    0.2820495685E-01    0.1951568346E+00    0.3181088481E+00    0.4472678539E+00
    0.1900000000E+06    0.3595224864E+00    0.2682626314E-01    0.1956447750E+00    0.3183108980E+00    0.4488366559E+00
    0.2100000000E+06    0.3596443920E+00    0.2564083450E-01    0.1960586566E+00    0.3184753817E+00    0.4501934836E+00
    0.2300000000E+06    0.3597408823E+00    0.2460675468E-01    0.1964149035E+00    0.3186123321E+00    0.4513832788E+00
    0.2500000000E+06    0.3598186223E+00    0.2369391079E-01    0.1967252863E+00    0.3187284718E+00    0.4524385685E+00
    0.2700000000E+06    0.3598821757E+00    0.2288001875E-01    0.1969984879E+00    0.3188284769E+00    0.4533835722E+00
    0.2900000000E+06    0.3599347657E+00    0.2214817565E-01    0.1972410701E+00    0.3189157030E+00    0.4542367573E+00
    0.3100000000E+06    0.3599787292E+00    0.2148528964E-01    0.1974580946E+00    0.3189926221E+00    0.4550124923E+00
    0.3300000000E+06    0.3600157987E+00    0.2088103725E-01    0.1976535358E+00    0.3190610970E+00    0.4557221527E+00
    0.3500000000E+06    0.3600472843E+00    0.2032715051E-01    0.1978305627E+00    0.3191225592E+00    0.4563748817E+00
    0.3700000000E+06    0.3600741933E+00    0.1981691691E-01    0.1979917364E+00    0.3191781274E+00    0.4569781259E+00
    0.3900000000E+06    0.3600973121E+00    0.1934482080E-01    0.1981391519E+00    0.3192286892E+00    0.4575380225E+00
    0.4100000000E+06    0.3601172624E+00    0.1890628129E-01    0.1982745410E+00    0.3192749585E+00    0.4580596821E+00
    0.4300000000E+06    0.3601345423E+00    0.1849745714E-01    0.1983993492E+00    0.3193175161E+00    0.4585474009E+00
    0.4500000000E+06    0.3601495544E+00    0.1811509942E-01    0.1985147938E+00    0.3193568397E+00    0.4590048212E+00
    0.4700000000E+06    0.3601626278E+00    0.1775643858E-01    0.1986219072E+00    0.3193933264E+00    0.4594350547E+00
    0.4900000000E+06    0.3601740336E+00    0.1741909687E-01    0.1987215722E+00    0.3194273085E+00    0.4598407783E+00
    0.1000000000E+06    0.3581719137E+00    0.3577573681E-01    0.1923868014E+00    0.3167569274E+00    0.4388242604E+00
    0.3000000000E+06    0.3599577058E+00    0.2180881349E-01    0.1973525070E+00    0.3189553226E+00    0.4546335352E+00
    0.5000000000E+06    0.3601791831E+00    0.1725776754E-01    0.1987688531E+00    0.3194434499E+00    0.4600351855E+00
    0.7000000000E+06    0.3602333906E+00    0.1477215383E-01    0.1994620342E+00    0.3196846358E+00    0.4630647254E+00
    0.9000000000E+06    0.3602426951E+00    0.1314377523E-01    0.1998730440E+00    0.3198374666E+00    0.4650910793E+00
    0.1100000000E+07    0.3602358005E+00    0.1196911483E-01    0.2001426168E+00    0.3199469572E+00    0.4665787902E+00
    0.1300000000E+07    0.3602222969E+00    0.1106921805E-01    0.2003307171E+00    0.3200313094E+00    0.4677363231E+00
    0.1500000000E+07    0.3602060496E+00    0.1035077044E-01    0.2004674910E+00    0.3200994705E+00    0.4686734592E+00
    0.1700000000E+07    0.3601887997E+00    0.9759648727E-02    0.2005698372E+00    0.3201564283E+00    0.4694544288E+00
    0.1900000000E+07    0.3601713853E+00    0.9261988078E-02    0.2006479927E+00    0.3202052189E+00    0.4701197381E+00
    0.2100000000E+07    0.3601542221E+00    0.8835357668E-02    0.2007085311E+00    0.3202478156E+00    0.4706964119E+00
    0.2300000000E+07    0.3601375153E+00    0.8464225192E-02    0.2007558702E+00    0.3202855667E+00    0.4712032903E+00
    0.2500000000E+07    0.3601213601E+00    0.8137444696E-02    0.2007930893E+00    0.3203194315E+00    0.4716539791E+00
    0.2700000000E+07    0.3601057927E+00    0.7846780125E-02    0.2008224000E+00    0.3203501147E+00    0.4720585922E+00
    0.2900000000E+07    0.3600908168E+00    0.7585994708E-02    0.2008454312E+00    0.3203781484E+00    0.4724248322E+00
    0.3100000000E+07    0.3600764190E+00    0.7350266385E-02    0.2008634080E+00    0.3204039437E+00    0.4727586870E+00
    0.3300000000E+07    0.3600625765E+00    0.7135799630E-02    0.2008772690E+00    0.3204278241E+00    0.4730648942E+00
    0.3500000000E+07    0.3600492625E+00    0.6939560122E-02    0.2008877448E+00    0.3204500486E+00    0.4733472606E+00
    0.3700000000E+07    0.3600364484E+00    0.6759088773E-02    0.2008954119E+00    0.3204708279E+00    0.4736088857E+00
    0.3900000000E+07    0.3600241055E+00    0.6592368494E-02    0.2009007309E+00    0.3204903353E+00    0.4738523242E+00
    0.4100000000E+07    0.3600122061E+00    0.6437726865E-02    0.2009040737E+00    0.3205087148E+00    0.4740797037E+00
    0.4300000000E+07    0.3600007237E+00    0.6293763820E-02    0.2009057437E+00    0.3205260879E+00    0.4742928128E+00
    0.4500000000E+07    0.3599896333E+00    0.6159297058E-02    0.2009059905E+00    0.3205425574E+00    0.4744931687E+00
    0.4700000000E+07    0.3599789118E+00    0.6033320279E-02    0.2009050208E+00    0.3205582115E+00    0.4746820677E+00
    0.4900000000E+07    0.3599685373E+00    0.5914970815E-02    0.2009030076E+00    0.3205731260E+00    0.4748606259E+00
    0.1000000000E+07    0.3602404651E+00    0.1251380786E-01    0.2000207441E+00    0.3198961706E+00    0.4658859134E+00
    0.3000000000E+07    0.3600835469E+00    0.7465256110E-02    0.2008549871E+00    0.3203913039E+00    0.4725954866E+00
    0.5000000000E+07    0.3599634739E+00    0.5858419661E-02    0.2009016560E+00    0.3205803268E+00    0.4749463343E+00
    0.7000000000E+07    0.3598762787E+00    0.4991124303E-02    0.2008452248E+00    0.3206977545E+00    0.4762963704E+00
    0.9000000000E+07    0.3598082528E+00    0.4427095393E-02    0.2007650795E+00    0.3207829338E+00    0.4772177192E+00
    0.1100000000E+08    0.3597525634E+00    0.4022309388E-02    0.2006804907E+00    0.3208497530E+00    0.4779060329E+00
    0.1300000000E+08    0.3597054439E+00    0.3713402897E-02    0.2005974312E+00    0.3209047180E+00    0.4784498564E+00
    0.1500000000E+08    0.3596646156E+00    0.3467532380E-02    0.2005178627E+00    0.3209513976E+00    0.4788962072E+00
    0.1700000000E+08    0.3596285993E+00    0.3265737494E-02    0.2004423281E+00    0.3209919603E+00    0.4792728136E+00
    0.1900000000E+08    0.3595963813E+00    0.3096200070E-02    0.2003708282E+00    0.3210278223E+00    0.4795972944E+00
    0.2100000000E+08    0.3595672375E+00    0.2951117164E-02    0.2003031562E+00    0.3210599590E+00    0.4798814888E+00
    0.2300000000E+08    0.3595406323E+00    0.2825100308E-02    0.2002390349E+00    0.3210890709E+00    0.4801337066E+00
    0.2500000000E+08    0.3595161591E+00    0.2714291873E-02    0.2001781751E+00    0.3211156779E+00    0.4803599878E+00
    0.2700000000E+08    0.3594935014E+00    0.2615847255E-02    0.2001202994E+00    0.3211401767E+00    0.4805648497E+00
