  Pressure (Pa) 22mC5-400 (mol/kg) 2mC6-400 (mol/kg) 3mC6-400 (mol/kg) 23mC5-400 (mol/kg) C7-400 (mol/kg)
    0.1000000000E+01    0.5308082113E-03    0.1585298584E-02    0.1575641260E-02    0.9320397149E-03    0.6818258948E-02
    0.3000000000E+01    0.1580764168E-02    0.4628471310E-02    0.4596482173E-02    0.2775659406E-02    0.1989294303E-01
    0.5000000000E+01    0.2615514338E-02    0.7512908982E-02    0.7455285670E-02    0.4592598562E-02    0.3226962829E-01
    0.7000000000E+01    0.3635455684E-02    0.1025076553E-01    0.1016497959E-01    0.6383553600E-02    0.4400391807E-01
    0.9000000000E+01    0.4640971080E-02    0.1285294150E-01    0.1273714614E-01    0.8149196225E-02    0.5514563249E-01
    0.1100000000E+02    0.5632429934E-02    0.1532924380E-01    0.1518219273E-01    0.9890174516E-02    0.6573954239E-01
    0.1300000000E+02    0.6610188773E-02    0.1768852156E-01    0.1750949745E-01    0.1160711396E-01    0.7582599419E-01
    0.1500000000E+02    0.7574591800E-02    0.1993878213E-01    0.1972753342E-01    0.1330061842E-01    0.8544144419E-01
    0.1700000000E+02    0.8525971426E-02    0.2208729052E-01    0.2184397556E-01    0.1497127108E-01    0.9461891723E-01
    0.1900000000E+02    0.9464648768E-02    0.2414065507E-01    0.2386579253E-01    0.1661963531E-01    0.1033884019E+00
    0.2100000000E+02    0.1039093413E-01    0.2610490139E-01    0.2579932632E-01    0.1824625550E-01    0.1117771923E+00
    0.2300000000E+02    0.1130512744E-01    0.2798553647E-01    0.2765036124E-01    0.1985165786E-01    0.1198101848E+00
    0.2500000000E+02    0.1220751872E-01    0.2978760451E-01    0.2942418405E-01    0.2143635120E-01    0.1275101360E+00
    0.2700000000E+02    0.1309838843E-01    0.3151573556E-01    0.3112563638E-01    0.2300082758E-01    0.1348978884E+00
    0.2900000000E+02    0.1397800793E-01    0.3317418816E-01    0.3275916076E-01    0.2454556306E-01    0.1419925683E+00
    0.3100000000E+02    0.1484663978E-01    0.3476688672E-01    0.3432884099E-01    0.2607101832E-01    0.1488117587E+00
    0.3300000000E+02    0.1570453816E-01    0.3629745451E-01    0.3583843769E-01    0.2757763928E-01    0.1553716530E+00
    0.3500000000E+02    0.1655194915E-01    0.3776924268E-01    0.3729141974E-01    0.2906585767E-01    0.1616871893E+00
    0.3700000000E+02    0.1738911108E-01    0.3918535603E-01    0.3869099212E-01    0.3053609163E-01    0.1677721707E+00
    0.3900000000E+02    0.1821625482E-01    0.4054867585E-01    0.4004012056E-01    0.3198874623E-01    0.1736393709E+00
    0.4100000000E+02    0.1903360408E-01    0.4186188022E-01    0.4134155355E-01    0.3342421394E-01    0.1793006290E+00
    0.4300000000E+02    0.1984137568E-01    0.4312746211E-01    0.4259784191E-01    0.3484287518E-01    0.1847669336E+00
    0.4500000000E+02    0.2063977982E-01    0.4434774558E-01    0.4381135630E-01    0.3624509873E-01    0.1900484980E+00
    0.4700000000E+02    0.2142902032E-01    0.4552490027E-01    0.4498430290E-01    0.3763124222E-01    0.1951548279E+00
    0.4900000000E+02    0.2220929490E-01    0.4666095438E-01    0.4611873746E-01    0.3900165249E-01    0.2000947814E+00
    0.1000000000E+02    0.5138434997E-02    0.1410625279E-01    0.1397495072E-01    0.9022728801E-02    0.6050844433E-01
    0.3000000000E+02    0.1441368123E-01    0.3397852354E-01    0.3355173917E-01    0.2531067251E-01    0.1454355567E+00
    0.5000000000E+02    0.2259613012E-01    0.4721416677E-01    0.4667211716E-01    0.3968106322E-01    0.2025049717E+00
    0.7000000000E+02    0.2990591657E-01    0.5652304571E-01    0.5612141861E-01    0.5252012010E-01    0.2437135554E+00
    0.9000000000E+02    0.3650582913E-01    0.6329063975E-01    0.6327768319E-01    0.6411345868E-01    0.2750020558E+00
    0.1100000000E+03    0.4251891936E-01    0.6831067008E-01    0.6890215698E-01    0.7467698119E-01    0.2996551118E+00
    0.1300000000E+03    0.4803999948E-01    0.7207585077E-01    0.7345040406E-01    0.8437704623E-01    0.3196401171E+00
    0.1500000000E+03    0.5314336505E-01    0.7491063789E-01    0.7721217643E-01    0.9334401672E-01    0.3362094758E+00
    0.1700000000E+03    0.5788811260E-01    0.7703849120E-01    0.8038082075E-01    0.1016815888E+00    0.3501996155E+00
    0.1900000000E+03    0.6232188249E-01    0.7861880191E-01    0.8309045655E-01    0.1094733581E+00    0.3621912406E+00
    0.2100000000E+03    0.6648354538E-01    0.7976849423E-01    0.8543714659E-01    0.1167875334E+00    0.3726006326E+00
    0.2300000000E+03    0.7040516458E-01    0.8057532505E-01    0.8749157101E-01    0.1236803788E+00    0.3817343384E+00
    0.2500000000E+03    0.7411345232E-01    0.8110642308E-01    0.8930693919E-01    0.1301987694E+00    0.3898233260E+00
    0.2700000000E+03    0.7763086593E-01    0.8141396622E-01    0.9092410690E-01    0.1363821143E+00    0.3970450881E+00
    0.2900000000E+03    0.8097644403E-01    0.8153906887E-01    0.9237498860E-01    0.1422638236E+00    0.4035383883E+00
    0.3100000000E+03    0.8416645172E-01    0.8151451130E-01    0.9368489379E-01    0.1478724407E+00    0.4094133625E+00
    0.3300000000E+03    0.8721488412E-01    0.8136669772E-01    0.9487416433E-01    0.1532325257E+00    0.4147586026E+00
    0.3500000000E+03    0.9013386325E-01    0.8111708781E-01    0.9595934574E-01    0.1583653520E+00    0.4196462256E+00
    0.3700000000E+03    0.9293395373E-01    0.8078326070E-01    0.9695404053E-01    0.1632894598E+00    0.4241355692E+00
    0.3900000000E+03    0.9562441612E-01    0.8037971735E-01    0.9786954025E-01    0.1680211011E+00    0.4282759294E+00
    0.4100000000E+03    0.9821341186E-01    0.7991849370E-01    0.9871530051E-01    0.1725745991E+00    0.4321086207E+00
    0.4300000000E+03    0.1007081702E+00    0.7940963463E-01    0.9949930296E-01    0.1769626410E+00    0.4356685447E+00
    0.4500000000E+03    0.1031151255E+00    0.7886156421E-01    0.1002283343E+00    0.1811965191E+00    0.4389854020E+00
    0.4700000000E+03    0.1054400298E+00    0.7828137786E-01    0.1009082041E+00    0.1852863288E+00    0.4420846363E+00
    0.4900000000E+03    0.1076880479E+00    0.7767507467E-01    0.1015439161E+00    0.1892411341E+00    0.4449881799E+00
    0.1000000000E+03    0.3957924426E-01    0.6598325794E-01    0.6624788331E-01    0.6951257228E-01    0.2880133344E+00
    0.3000000000E+03    0.8258997138E-01    0.8154371680E-01    0.9304619103E-01    0.1451006492E+00    0.4065471915E+00
    0.5000000000E+03    0.1087846973E+00    0.7736375087E-01    0.1018465904E+00    0.1911704949E+00    0.4463726097E+00
    0.7000000000E+03    0.1276041213E+00    0.7065955476E-01    0.1063812936E+00    0.2242898692E+00    0.4672996794E+00
    0.9000000000E+03    0.1421000007E+00    0.6414345978E-01    0.1091930304E+00    0.2498149875E+00    0.4805071730E+00
    0.1100000000E+04    0.1536912102E+00    0.5836244756E-01    0.1111250419E+00    0.2702364565E+00    0.4897323584E+00
    0.1300000000E+04    0.1631833955E+00    0.5336504528E-01    0.1125426855E+00    0.2869686849E+00    0.4966066290E+00
    0.1500000000E+04    0.1710912113E+00    0.4907293935E-01    0.1136315581E+00    0.3009153849E+00    0.5019645558E+00
    0.1700000000E+04    0.1777681680E+00    0.4538332004E-01    0.1144965624E+00    0.3126974351E+00    0.5062810187E+00
    0.1900000000E+04    0.1834687865E+00    0.4219896347E-01    0.1152017379E+00    0.3227619534E+00    0.5098477755E+00
    0.2100000000E+04    0.1883823527E+00    0.3943608024E-01    0.1157885268E+00    0.3314415300E+00    0.5128547966E+00
    0.2300000000E+04    0.1926530184E+00    0.3702496017E-01    0.1162850047E+00    0.3389895056E+00    0.5154315434E+00
    0.2500000000E+04    0.1963926020E+00    0.3490840522E-01    0.1167109076E+00    0.3456024370E+00    0.5176695433E+00
    0.2700000000E+04    0.1996891480E+00    0.3303968465E-01    0.1170805379E+00    0.3514351229E+00    0.5196354935E+00
    0.2900000000E+04    0.2026128621E+00    0.3138060209E-01    0.1174045287E+00    0.3566110232E+00    0.5213792469E+00
    0.3100000000E+04    0.2052203434E+00    0.2989984486E-01    0.1176909590E+00    0.3612296893E+00    0.5229388795E+00
    0.3300000000E+04    0.2075576666E+00    0.2857163358E-01    0.1179460832E+00    0.3653721779E+00    0.5243440188E+00
    0.3500000000E+04    0.2096626691E+00    0.2737463889E-01    0.1181748227E+00    0.3691050671E+00    0.5256180946E+00
    0.3700000000E+04    0.2115666726E+00    0.2629111991E-01    0.1183811063E+00    0.3724834805E+00    0.5267799013E+00
    0.3900000000E+04    0.2132957953E+00    0.2530624081E-01    0.1185681100E+00    0.3755533934E+00    0.5278447060E+00
    0.4100000000E+04    0.2148719645E+00    0.2440752843E-01    0.1187384310E+00    0.3783534108E+00    0.5288250508E+00
    0.4300000000E+04    0.2163137053E+00    0.2358444070E-01    0.1188942146E+00    0.3809161542E+00    0.5297313438E+00
    0.4500000000E+04    0.2176367600E+00    0.2282802207E-01    0.1190372492E+00    0.3832693502E+00    0.5305723009E+00
    0.4700000000E+04    0.2188545802E+00    0.2213062702E-01    0.1191690382E+00    0.3854366951E+00    0.5313552817E+00
    0.4900000000E+04    0.2199787188E+00    0.2148569744E-01    0.1192908550E+00    0.3874385448E+00    0.5320865473E+00
    0.1000000000E+04    0.1481992066E+00    0.6115291219E-01    0.1102400560E+00    0.2605592550E+00    0.4854885581E+00
    0.3000000000E+04    0.2039530356E+00    0.3061965982E-01    0.1175520120E+00    0.3589845637E+00    0.5221800591E+00
    0.5000000000E+04    0.2205088279E+00    0.2118111003E-01    0.1193483696E+00    0.3883829959E+00    0.5324344935E+00
    0.7000000000E+04    0.2280139698E+00    0.1681518754E-01    0.1201705786E+00    0.4017942087E+00    0.5376511563E+00
    0.9000000000E+04    0.2322016356E+00    0.1429208344E-01    0.1206385640E+00    0.4093271503E+00    0.5409242961E+00
    0.1100000000E+05    0.2348439771E+00    0.1263031499E-01    0.1209371098E+00    0.4141131075E+00    0.5432171022E+00
    0.1300000000E+05    0.2366515387E+00    0.1144004529E-01    0.1211413671E+00    0.4174102333E+00    0.5449366311E+00
    0.1500000000E+05    0.2379604783E+00    0.1053697896E-01    0.1212878097E+00    0.4198150473E+00    0.5462876054E+00
    0.1700000000E+05    0.2389491721E+00    0.9822757140E-02    0.1213963161E+00    0.4216447803E+00    0.5473854292E+00
    0.1900000000E+05    0.2397205993E+00    0.9240001804E-02    0.1214786514E+00    0.4230829856E+00    0.5483006519E+00
    0.2100000000E+05    0.2403381774E+00    0.8752891772E-02    0.1215422226E+00    0.4242429585E+00    0.5490791045E+00
    0.2300000000E+05    0.2408430060E+00    0.8337839238E-02    0.1215919233E+00    0.4251982929E+00    0.5497520035E+00
    0.2500000000E+05    0.2412628457E+00    0.7978630905E-02    0.1216311137E+00    0.4259988137E+00    0.5503414333E+00
    0.2700000000E+05    0.2416170989E+00    0.7663722899E-02    0.1216621755E+00    0.4266794271E+00    0.5508635116E+00
    0.2900000000E+05    0.2419197220E+00    0.7384650874E-02    0.1216868418E+00    0.4272653006E+00    0.5513303107E+00
    0.3100000000E+05    0.2421810022E+00    0.7135052287E-02    0.1217064024E+00    0.4277750301E+00    0.5517510746E+00
    0.3300000000E+05    0.2424086841E+00    0.6910041626E-02    0.1217218358E+00    0.4282226489E+00    0.5521330166E+00
    0.3500000000E+05    0.2426087059E+00    0.6705797840E-02    0.1217338969E+00    0.4286189434E+00    0.5524818588E+00
    0.3700000000E+05    0.2427856953E+00    0.6519284002E-02    0.1217431764E+00    0.4289723395E+00    0.5528022059E+00
    0.3900000000E+05    0.2429433101E+00    0.6348052035E-02    0.1217501429E+00    0.4292895142E+00    0.5530978111E+00
    0.4100000000E+05    0.2430844789E+00    0.6190103648E-02    0.1217551720E+00    0.4295758261E+00    0.5533717683E+00
    0.4300000000E+05    0.2432115731E+00    0.6043789357E-02    0.1217585681E+00    0.4298356253E+00    0.5536266536E+00
    0.4500000000E+05    0.2433265333E+00    0.5907733881E-02    0.1217605801E+00    0.4300724801E+00    0.5538646323E+00
    0.4700000000E+05    0.2434309619E+00    0.5780780133E-02    0.1217614131E+00    0.4302893448E+00    0.5540875389E+00
    0.4900000000E+05    0.2435261939E+00    0.5661946589E-02    0.1217612377E+00    0.4304886862E+00    0.5542969397E+00
    0.1000000000E+05    0.2336585455E+00    0.1338507055E-01    0.1208029815E+00    0.4119618751E+00    0.5421608683E+00
    0.3000000000E+05    0.2420549964E+00    0.7256501733E-02    0.1216971931E+00    0.4275287174E+00    0.5515459559E+00
    0.5000000000E+05    0.2435707184E+00    0.5605307924E-02    0.1217608173E+00    0.4305824475E+00    0.5543970037E+00
    0.7000000000E+05    0.2441748041E+00    0.4747085068E-02    0.1217241935E+00    0.4319032751E+00    0.5559350181E+00
    0.9000000000E+05    0.2444888983E+00    0.4197774232E-02    0.1216647152E+00    0.4326497099E+00    0.5569439550E+00
    0.1100000000E+06    0.2446760807E+00    0.3806907915E-02    0.1216005133E+00    0.4331343256E+00    0.5576765102E+00
    0.1300000000E+06    0.2447972290E+00    0.3510186569E-02    0.1215371126E+00    0.4334770368E+00    0.5582426466E+00
    0.1500000000E+06    0.2448800299E+00    0.3274844144E-02    0.1214763263E+00    0.4337338781E+00    0.5586990726E+00
    0.1700000000E+06    0.2449387989E+00    0.3082173402E-02    0.1214186754E+00    0.4339346190E+00    0.5590784641E+00
    0.1900000000E+06    0.2449816410E+00    0.2920603637E-02    0.1213641921E+00    0.4340965774E+00    0.5594011898E+00
    0.2100000000E+06    0.2450134659E+00    0.2782538385E-02    0.1213127218E+00    0.4342305353E+00    0.5596807162E+00
    0.2300000000E+06    0.2450374081E+00    0.2662754278E-02    0.1212640460E+00    0.4343435683E+00    0.5599263631E+00
    0.2500000000E+06    0.2450555548E+00    0.2557524453E-02    0.1212179334E+00    0.4344405204E+00    0.5601448209E+00
    0.2700000000E+06    0.2450693443E+00    0.2464108139E-02    0.1211741621E+00    0.4345248240E+00    0.5603410391E+00
    0.2900000000E+06    0.2450797963E+00    0.2380438264E-02    0.1211325269E+00    0.4345989826E+00    0.5605187714E+00
    0.3100000000E+06    0.2450876513E+00    0.2304922191E-02    0.1210928428E+00    0.4346648671E+00    0.5606809261E+00
    0.3300000000E+06    0.2450934588E+00    0.2236310126E-02    0.1210549436E+00    0.4347239058E+00    0.5608297979E+00
    0.3500000000E+06    0.2450976333E+00    0.2173605588E-02    0.1210186815E+00    0.4347772083E+00    0.5609672257E+00
    0.3700000000E+06    0.2451004927E+00    0.2116002917E-02    0.1209839244E+00    0.4348256513E+00    0.5610947040E+00
    0.3900000000E+06    0.2451022840E+00    0.2062842665E-02    0.1209505547E+00    0.4348699369E+00    0.5612134623E+00
    0.4100000000E+06    0.2451032019E+00    0.2013579116E-02    0.1209184673E+00    0.4349106343E+00    0.5613245230E+00
    0.4300000000E+06    0.2451034009E+00    0.1967756214E-02    0.1208875682E+00    0.4349482104E+00    0.5614287446E+00
    0.4500000000E+06    0.2451030051E+00    0.1924989450E-02    0.1208577728E+00    0.4349830523E+00    0.5615268544E+00
    0.4700000000E+06    0.2451021153E+00    0.1884952029E-02    0.1208290052E+00    0.4350154832E+00    0.5616194735E+00
    0.4900000000E+06    0.2451008135E+00    0.1847364177E-02    0.1208011967E+00    0.4350457759E+00    0.5617071359E+00
    0.1000000000E+06    0.2445933727E+00    0.3987631099E-02    0.1216327225E+00    0.4329150026E+00    0.5573360981E+00
    0.3000000000E+06    0.2450840104E+00    0.2341745940E-02    0.1211124518E+00    0.4346328612E+00    0.5606016403E+00
    0.5000000000E+06    0.2451000297E+00    0.1829412170E-02    0.1207876326E+00    0.4350601942E+00    0.5617492553E+00
    0.7000000000E+06    0.2450741009E+00    0.1554781792E-02    0.1205543600E+00    0.4352777746E+00    0.5624168650E+00
    0.9000000000E+06    0.2450417397E+00    0.1376862053E-02    0.1203720541E+00    0.4354175195E+00    0.5628780650E+00
    0.1100000000E+07    0.2450097763E+00    0.1249498966E-02    0.1202222308E+00    0.4355183710E+00    0.5632263514E+00
    0.1300000000E+07    0.2449797926E+00    0.1152484720E-02    0.1200949484E+00    0.4355964106E+00    0.5635041595E+00
    0.1500000000E+07    0.2449520492E+00    0.1075379191E-02    0.1199842414E+00    0.4356596494E+00    0.5637341137E+00
    0.1700000000E+07    0.2449264343E+00    0.1012170053E-02    0.1198862461E+00    0.4357125942E+00    0.5639296154E+00
    0.1900000000E+07    0.2449027392E+00    0.9591169350E-03    0.1197983147E+00    0.4357580068E+00    0.5640992182E+00
    0.2100000000E+07    0.2448807462E+00    0.9137541105E-03    0.1197185523E+00    0.4357976910E+00    0.5642486952E+00
    0.2300000000E+07    0.2448602555E+00    0.8743810504E-03    0.1196455558E+00    0.4358328844E+00    0.5643821158E+00
    0.2500000000E+07    0.2448410920E+00    0.8397816980E-03    0.1195782563E+00    0.4358644698E+00    0.5645024499E+00
    0.2700000000E+07    0.2448231053E+00    0.8090602075E-03    0.1195158211E+00    0.4358930977E+00    0.5646119277E+00
    0.2900000000E+07    0.2448061662E+00    0.7815400239E-03    0.1194575882E+00    0.4359192601E+00    0.5647122643E+00
    0.3100000000E+07    0.2447901642E+00    0.7566993170E-03    0.1194030228E+00    0.4359433377E+00    0.5648048051E+00
    0.3300000000E+07    0.2447750045E+00    0.7341282367E-03    0.1193516866E+00    0.4359656306E+00    0.5648906243E+00
    0.3500000000E+07    0.2447606053E+00    0.7134997746E-03    0.1193032155E+00    0.4359863794E+00    0.5649705922E+00
    0.3700000000E+07    0.2447468956E+00    0.6945493923E-03    0.1192573042E+00    0.4360057799E+00    0.5650454234E+00
    0.3900000000E+07    0.2447338137E+00    0.6770604580E-03    0.1192136938E+00    0.4360239931E+00    0.5651157114E+00
    0.4100000000E+07    0.2447213056E+00    0.6608536309E-03    0.1191721630E+00    0.4360411534E+00    0.5651819544E+00
    0.4300000000E+07    0.2447093238E+00    0.6457789880E-03    0.1191325211E+00    0.4360573738E+00    0.5652445741E+00
    0.4500000000E+07    0.2446978265E+00    0.6317100916E-03    0.1190946025E+00    0.4360727502E+00    0.5653039308E+00
    0.4700000000E+07    0.2446867763E+00    0.6185394580E-03    0.1190582625E+00    0.4360873647E+00    0.5653603346E+00
    0.4900000000E+07    0.2446761403E+00    0.6061750510E-03    0.1190233742E+00    0.4361012882E+00    0.5654140540E+00
    0.1000000000E+07    0.2450255581E+00    0.1308455119E-02    0.1202938300E+00    0.4354715234E+00    0.5630630051E+00
    0.3000000000E+07    0.2447980543E+00    0.7688125826E-03    0.1194298765E+00    0.4359315392E+00    0.5647594366E+00
    0.5000000000E+07    0.2446709682E+00    0.6002699574E-03    0.1190064388E+00    0.4361080103E+00    0.5654399814E+00
    0.7000000000E+07    0.2445834866E+00    0.5099518912E-03    0.1187224540E+00    0.4362175994E+00    0.5658614038E+00
    0.9000000000E+07    0.2445167820E+00    0.4514641750E-03    0.1185082418E+00    0.4362970417E+00    0.5661645678E+00
    0.1100000000E+08    0.2444628699E+00    0.4096116576E-03    0.1183361016E+00    0.4363593237E+00    0.5664003722E+00
    0.1300000000E+08    0.2444176280E+00    0.3777420014E-03    0.1181921481E+00    0.4364105303E+00    0.5665928310E+00
    0.1500000000E+08    0.2443786511E+00    0.3524191267E-03    0.1180684149E+00    0.4364539991E+00    0.5667551339E+00
    0.1700000000E+08    0.2443444136E+00    0.3316647307E-03    0.1179599027E+00    0.4364917577E+00    0.5668952843E+00
    0.1900000000E+08    0.2443138867E+00    0.3142483711E-03    0.1178632661E+00    0.4365251295E+00    0.5670184946E+00
    0.2100000000E+08    0.2442863441E+00    0.2993590960E-03    0.1177761555E+00    0.4365550261E+00    0.5671283444E+00
    0.2300000000E+08    0.2442612539E+00    0.2864377331E-03    0.1176968571E+00    0.4365821017E+00    0.5672273954E+00
    0.2500000000E+08    0.2442382147E+00    0.2750844901E-03    0.1176240821E+00    0.4366068420E+00    0.5673175425E+00
    0.2700000000E+08    0.2442169162E+00    0.2650048976E-03    0.1175568369E+00    0.4366296172E+00    0.5674002257E+00
