  Pressure (Pa) 22mC5-400 (mol/kg) 2mC6-400 (mol/kg) 3mC6-400 (mol/kg) 23mC5-400 (mol/kg) C7-400 (mol/kg)
    0.1000000000E+01    0.5292018573E-03    0.5524349574E-02    0.2616089885E-02    0.3716880427E-03    0.5094331418E-02
    0.3000000000E+01    0.1566704985E-02    0.1599507930E-01    0.7577084764E-02    0.1100392548E-02    0.1475724121E-01
    0.5000000000E+01    0.2577520067E-02    0.2576024388E-01    0.1220821348E-01    0.1810362756E-02    0.2378054735E-01
    0.7000000000E+01    0.3562976572E-02    0.3488876961E-01    0.1654296671E-01    0.2502531808E-02    0.3222909686E-01
    0.9000000000E+01    0.4524313509E-02    0.4344067729E-01    0.2061039813E-01    0.3177769358E-02    0.4015915171E-01
    0.1100000000E+02    0.5462687108E-02    0.5146849811E-01    0.2443583835E-01    0.3836886964E-02    0.4761976957E-01
    0.1300000000E+02    0.6379177721E-02    0.5901842530E-01    0.2804147510E-01    0.4480642928E-02    0.5465392593E-01
    0.1500000000E+02    0.7274796038E-02    0.6613125778E-01    0.3144682801E-01    0.5109746658E-02    0.6129943257E-01
    0.1700000000E+02    0.8150488701E-02    0.7284317835E-01    0.3466913977E-01    0.5724862614E-02    0.6758969408E-01
    0.1900000000E+02    0.9007143377E-02    0.7918639969E-01    0.3772370023E-01    0.6326613860E-02    0.7355433499E-01
    0.2100000000E+02    0.9845593353E-02    0.8518970359E-01    0.4062411665E-01    0.6915585296E-02    0.7921972250E-01
    0.2300000000E+02    0.1066662171E-01    0.9087889376E-01    0.4338254014E-01    0.7492326580E-02    0.8460940468E-01
    0.2500000000E+02    0.1147096510E-01    0.9627717791E-01    0.4600985639E-01    0.8057354790E-02    0.8974447955E-01
    0.2700000000E+02    0.1225931720E-01    0.1014054918E+00    0.4851584723E-01    0.8611156840E-02    0.9464390758E-01
    0.2900000000E+02    0.1303233187E-01    0.1062827755E+00    0.5090932785E-01    0.9154191688E-02    0.9932477739E-01
    0.3100000000E+02    0.1379062600E-01    0.1109262096E+00    0.5319826409E-01    0.9686892352E-02    0.1038025327E+00
    0.3300000000E+02    0.1453478214E-01    0.1153514182E+00    0.5538987300E-01    0.1020966774E-01    0.1080911670E+00
    0.3500000000E+02    0.1526535088E-01    0.1195726447E+00    0.5749070938E-01    0.1072290435E-01    0.1122033908E+00
    0.3700000000E+02    0.1598285311E-01    0.1236029030E+00    0.5950674056E-01    0.1122696781E-01    0.1161507769E+00
    0.3900000000E+02    0.1668778195E-01    0.1274541098E+00    0.6144341127E-01    0.1172220426E-01    0.1199438854E+00
    0.4100000000E+02    0.1738060470E-01    0.1311371997E+00    0.6330570001E-01    0.1220894173E-01    0.1235923734E+00
    0.4300000000E+02    0.1806176447E-01    0.1346622258E+00    0.6509816835E-01    0.1268749125E-01    0.1271050899E+00
    0.4500000000E+02    0.1873168179E-01    0.1380384482E+00    0.6682500396E-01    0.1315814803E-01    0.1304901595E+00
    0.4700000000E+02    0.1939075606E-01    0.1412744120E+00    0.6849005854E-01    0.1362119242E-01    0.1337550557E+00
    0.4900000000E+02    0.2003936686E-01    0.1443780157E+00    0.7009688108E-01    0.1407689088E-01    0.1369066653E+00
    0.1000000000E+02    0.4996301502E-02    0.4751707489E-01    0.2255191277E-01    0.3509294566E-02    0.4394532339E-01
    0.3000000000E+02    0.1341328182E-01    0.1086327130E+00    0.5206639647E-01    0.9421807692E-02    0.1015881379E+00
    0.5000000000E+02    0.2035986198E-01    0.1458824893E+00    0.7087948894E-01    0.1430206507E-01    0.1384419936E+00
    0.7000000000E+02    0.2629945009E-01    0.1705396892E+00    0.8414967252E-01    0.1847535585E-01    0.1645116605E+00
    0.9000000000E+02    0.3151238734E-01    0.1877234833E+00    0.9414459470E-01    0.2213847402E-01    0.1841997633E+00
    0.1100000000E+03    0.3617930719E-01    0.2001156954E+00    0.1020250966E+00    0.2541822568E-01    0.1997623042E+00
    0.1300000000E+03    0.4042248882E-01    0.2092624314E+00    0.1084508711E+00    0.2840045479E-01    0.2124825729E+00
    0.1500000000E+03    0.4432806343E-01    0.2161186367E+00    0.1138265942E+00    0.3114563024E-01    0.2231485131E+00
    0.1700000000E+03    0.4795871467E-01    0.2213057171E+00    0.1184154527E+00    0.3369776071E-01    0.2322730416E+00
    0.1900000000E+03    0.5136132565E-01    0.2252449530E+00    0.1223967084E+00    0.3608976261E-01    0.2402058271E+00
    0.2100000000E+03    0.5457178478E-01    0.2282315662E+00    0.1258971180E+00    0.3834683366E-01    0.2471943381E+00
    0.2300000000E+03    0.5761811730E-01    0.2304781767E+00    0.1290091307E+00    0.4048865119E-01    0.2534192177E+00
    0.2500000000E+03    0.6052259021E-01    0.2321414770E+00    0.1318019508E+00    0.4253084987E-01    0.2590158033E+00
    0.2700000000E+03    0.6330316579E-01    0.2333392303E+00    0.1343285438E+00    0.4448604204E-01    0.2640877604E+00
    0.2900000000E+03    0.6597452917E-01    0.2341614541E+00    0.1366302288E+00    0.4636453918E-01    0.2687160255E+00
    0.3100000000E+03    0.6854883008E-01    0.2346779805E+00    0.1387397804E+00    0.4817487263E-01    0.2729648488E+00
    0.3300000000E+03    0.7103622834E-01    0.2349436905E+00    0.1406835780E+00    0.4992417656E-01    0.2768859843E+00
    0.3500000000E+03    0.7344530163E-01    0.2350022145E+00    0.1424831302E+00    0.5161847424E-01    0.2805216619E+00
    0.3700000000E+03    0.7578335496E-01    0.2348885956E+00    0.1441561771E+00    0.5326289535E-01    0.2839067389E+00
    0.3900000000E+03    0.7805665872E-01    0.2346312401E+00    0.1457175024E+00    0.5486184311E-01    0.2870702854E+00
    0.4100000000E+03    0.8027063406E-01    0.2342533655E+00    0.1471795413E+00    0.5641912440E-01    0.2900367709E+00
    0.4300000000E+03    0.8242999885E-01    0.2337740913E+00    0.1485528421E+00    0.5793805229E-01    0.2928269671E+00
    0.4500000000E+03    0.8453888385E-01    0.2332092690E+00    0.1498464210E+00    0.5942152757E-01    0.2954586413E+00
    0.4700000000E+03    0.8660092599E-01    0.2325721227E+00    0.1510680393E+00    0.6087210428E-01    0.2979470981E+00
    0.4900000000E+03    0.8861934397E-01    0.2318737465E+00    0.1522244205E+00    0.6229204276E-01    0.3003056050E+00
    0.1000000000E+03    0.3390541154E-01    0.1944036969E+00    0.9830000161E-01    0.2382017154E-01    0.1924011521E+00
    0.3000000000E+03    0.6727313614E-01    0.2344541984E+00    0.1377072430E+00    0.4727775148E-01    0.2708843795E+00
    0.5000000000E+03    0.8961310083E-01    0.2315045798E+00    0.1527800080E+00    0.6299115956E-01    0.3014398013E+00
    0.7000000000E+03    0.1077516449E+00    0.2225442153E+00    0.1615607098E+00    0.7575381539E-01    0.3194640988E+00
    0.9000000000E+03    0.1234920971E+00    0.2126402378E+00    0.1675558729E+00    0.8683213130E-01    0.3318944854E+00
    0.1100000000E+04    0.1375855000E+00    0.2029693159E+00    0.1720116031E+00    0.9675353785E-01    0.3412120253E+00
    0.1300000000E+04    0.1504233844E+00    0.1938439929E+00    0.1755039461E+00    0.1057929786E+00    0.3485698510E+00
    0.1500000000E+04    0.1622405094E+00    0.1853295279E+00    0.1783430894E+00    0.1141152937E+00    0.3545918412E+00
    0.1700000000E+04    0.1731922061E+00    0.1774121299E+00    0.1807137588E+00    0.1218295415E+00    0.3596511187E+00
    0.1900000000E+04    0.1833891944E+00    0.1700529941E+00    0.1827341515E+00    0.1290134520E+00    0.3639873585E+00
    0.2100000000E+04    0.1929151394E+00    0.1632072941E+00    0.1844840844E+00    0.1357257580E+00    0.3677629949E+00
    0.2300000000E+04    0.2018362651E+00    0.1568310505E+00    0.1860197697E+00    0.1420129470E+00    0.3710928116E+00
    0.2500000000E+04    0.2102069591E+00    0.1508834802E+00    0.1873821536E+00    0.1479131976E+00    0.3740606866E+00
    0.2700000000E+04    0.2180732064E+00    0.1453275968E+00    0.1886018991E+00    0.1534587912E+00    0.3767296231E+00
    0.2900000000E+04    0.2254747802E+00    0.1401301392E+00    0.1897025066E+00    0.1586776498E+00    0.3791480462E+00
    0.3100000000E+04    0.2324466896E+00    0.1352612627E+00    0.1907023439E+00    0.1635943529E+00    0.3813539098E+00
    0.3300000000E+04    0.2390201669E+00    0.1306941704E+00    0.1916160121E+00    0.1682308306E+00    0.3833774644E+00
    0.3500000000E+04    0.2452233616E+00    0.1264047546E+00    0.1924552897E+00    0.1726068502E+00    0.3852431749E+00
    0.3700000000E+04    0.2510818422E+00    0.1223712726E+00    0.1932298014E+00    0.1767403683E+00    0.3869710822E+00
    0.3900000000E+04    0.2566189684E+00    0.1185740640E+00    0.1939475023E+00    0.1806477927E+00    0.3885777897E+00
    0.4100000000E+04    0.2618561773E+00    0.1149953061E+00    0.1946150348E+00    0.1843441822E+00    0.3900771929E+00
    0.4300000000E+04    0.2668132076E+00    0.1116188035E+00    0.1952379957E+00    0.1878434042E+00    0.3914810263E+00
    0.4500000000E+04    0.2715082801E+00    0.1084298077E+00    0.1958211401E+00    0.1911582611E+00    0.3927992809E+00
    0.4700000000E+04    0.2759582480E+00    0.1054148613E+00    0.1963685380E+00    0.1943005957E+00    0.3940405263E+00
    0.4900000000E+04    0.2801787228E+00    0.1025616624E+00    0.1968836969E+00    0.1972813796E+00    0.3952121627E+00
    0.1000000000E+04    0.1307151263E+00    0.2077468227E+00    0.1699312909E+00    0.9191669458E-01    0.3368526525E+00
    0.3000000000E+04    0.2290124117E+00    0.1376563702E+00    0.1902140334E+00    0.1611723446E+00    0.3802755025E+00
    0.5000000000E+04    0.2822074663E+00    0.1011921607E+00    0.1971301531E+00    0.1987143993E+00    0.3957739201E+00
    0.7000000000E+04    0.3137363008E+00    0.8001309452E-01    0.2009298254E+00    0.2210040742E+00    0.4045491825E+00
    0.9000000000E+04    0.3336433849E+00    0.6661069493E-01    0.2034130711E+00    0.2351040741E+00    0.4104255746E+00
    0.1100000000E+05    0.3469353120E+00    0.5752639809E-01    0.2051946455E+00    0.2445378935E+00    0.4147317931E+00
    0.1300000000E+05    0.3562422731E+00    0.5101958290E-01    0.2065502349E+00    0.2511580108E+00    0.4180715973E+00
    0.1500000000E+05    0.3630222089E+00    0.4614761475E-01    0.2076244696E+00    0.2559920130E+00    0.4207652343E+00
    0.1700000000E+05    0.3681264347E+00    0.4236663592E-01    0.2085015141E+00    0.2596403474E+00    0.4230008757E+00
    0.1900000000E+05    0.3720760976E+00    0.3934532416E-01    0.2092341138E+00    0.2624708477E+00    0.4248974904E+00
    0.2100000000E+05    0.3752038009E+00    0.3687221976E-01    0.2098572230E+00    0.2647184388E+00    0.4265345640E+00
    0.2300000000E+05    0.3777296771E+00    0.3480687375E-01    0.2103950390E+00    0.2665387189E+00    0.4279675458E+00
    0.2500000000E+05    0.3798041101E+00    0.3305274675E-01    0.2108649117E+00    0.2680380649E+00    0.4292364849E+00
    0.2700000000E+05    0.3815327172E+00    0.3154148253E-01    0.2112796461E+00    0.2692912447E+00    0.4303711459E+00
    0.2900000000E+05    0.3829914978E+00    0.3022341361E-01    0.2116489242E+00    0.2703521019E+00    0.4313941853E+00
    0.3100000000E+05    0.3842363221E+00    0.2906162551E-01    0.2119802187E+00    0.2712602510E+00    0.4323232035E+00
    0.3300000000E+05    0.3853090490E+00    0.2802812934E-01    0.2122794008E+00    0.2720453965E+00    0.4331721145E+00
    0.3500000000E+05    0.3862415747E+00    0.2710132502E-01    0.2125511545E+00    0.2727301926E+00    0.4339520864E+00
    0.3700000000E+05    0.3870585748E+00    0.2626427812E-01    0.2127992677E+00    0.2733321798E+00    0.4346722043E+00
    0.3900000000E+05    0.3877794007E+00    0.2550352330E-01    0.2130268408E+00    0.2738651265E+00    0.4353399465E+00
    0.4100000000E+05    0.3884194167E+00    0.2480821679E-01    0.2132364387E+00    0.2743399741E+00    0.4359615338E+00
    0.4300000000E+05    0.3889909587E+00    0.2416952514E-01    0.2134302034E+00    0.2747655154E+00    0.4365421904E+00
    0.4500000000E+05    0.3895040323E+00    0.2358017716E-01    0.2136099397E+00    0.2751488891E+00    0.4370863410E+00
    0.4700000000E+05    0.3899668297E+00    0.2303413063E-01    0.2137771801E+00    0.2754959454E+00    0.4375977620E+00
    0.4900000000E+05    0.3903861154E+00    0.2252632078E-01    0.2139332351E+00    0.2758115199E+00    0.4380796997E+00
    0.1000000000E+05    0.3409146554E+00    0.6166332337E-01    0.2043699253E+00    0.2402623055E+00    0.4127277126E+00
    0.3000000000E+05    0.3836377652E+00    0.2962490835E-01    0.2118189205E+00    0.2708232152E+00    0.4318695037E+00
    0.5000000000E+05    0.3905812387E+00    0.2228539096E-01    0.2140074269E+00    0.2759587873E+00    0.4383105049E+00
    0.7000000000E+05    0.3931718892E+00    0.1871465754E-01    0.2151102755E+00    0.2779485029E+00    0.4418967786E+00
    0.9000000000E+05    0.3944831339E+00    0.1649636037E-01    0.2157841181E+00    0.2789965257E+00    0.4442839183E+00
    0.1100000000E+06    0.3952613501E+00    0.1494229865E-01    0.2162401932E+00    0.2796445929E+00    0.4460301378E+00
    0.1300000000E+06    0.3957706311E+00    0.1377301617E-01    0.2165692277E+00    0.2800868041E+00    0.4473848411E+00
    0.1500000000E+06    0.3961266406E+00    0.1285061072E-01    0.2168171994E+00    0.2804092753E+00    0.4484789301E+00
    0.1700000000E+06    0.3963875913E+00    0.1209802243E-01    0.2170100883E+00    0.2806559274E+00    0.4493887855E+00
    0.1900000000E+06    0.3965858074E+00    0.1146829852E-01    0.2171637603E+00    0.2808514809E+00    0.4501624665E+00
    0.2100000000E+06    0.3967406033E+00    0.1093094583E-01    0.2172884863E+00    0.2810109110E+00    0.4508319745E+00
    0.2300000000E+06    0.3968641951E+00    0.1046516517E-01    0.2173912250E+00    0.2811438216E+00    0.4514195809E+00
    0.2500000000E+06    0.3969646680E+00    0.1005620660E-01    0.2174768671E+00    0.2812566590E+00    0.4519413443E+00
    0.2700000000E+06    0.3970475756E+00    0.9693273751E-02    0.2175489543E+00    0.2813539138E+00    0.4524091856E+00
    0.2900000000E+06    0.3971168523E+00    0.9368253934E-02    0.2176101168E+00    0.2814388129E+00    0.4528321723E+00
    0.3100000000E+06    0.3971753592E+00    0.9074914586E-02    0.2176623502E+00    0.2815137365E+00    0.4532173450E+00
    0.3300000000E+06    0.3972252237E+00    0.8808376104E-02    0.2177071964E+00    0.2815804799E+00    0.4535702683E+00
    0.3500000000E+06    0.3972680588E+00    0.8564755108E-02    0.2177458661E+00    0.2816404241E+00    0.4538954088E+00
    0.3700000000E+06    0.3973051085E+00    0.8340916558E-02    0.2177793231E+00    0.2816946496E+00    0.4541964004E+00
    0.3900000000E+06    0.3973373464E+00    0.8134297459E-02    0.2178083445E+00    0.2817440141E+00    0.4544762350E+00
    0.4100000000E+06    0.3973655448E+00    0.7942778912E-02    0.2178335636E+00    0.2817892081E+00    0.4547374027E+00
    0.4300000000E+06    0.3973903236E+00    0.7764591561E-02    0.2178555017E+00    0.2818307938E+00    0.4549819951E+00
    0.4500000000E+06    0.3974121857E+00    0.7598244576E-02    0.2178745917E+00    0.2818692340E+00    0.4552117849E+00
    0.4700000000E+06    0.3974315430E+00    0.7442471553E-02    0.2178911962E+00    0.2819049133E+00    0.4554282860E+00
    0.4900000000E+06    0.3974487359E+00    0.7296188744E-02    0.2179056208E+00    0.2819381541E+00    0.4556328007E+00
    0.1000000000E+06    0.3949170273E+00    0.1565867257E-01    0.2160321812E+00    0.2793545514E+00    0.4452175603E+00
    0.3000000000E+06    0.3971473049E+00    0.9217956058E-02    0.2176372443E+00    0.2814773981E+00    0.4530291081E+00
    0.5000000000E+06    0.3974566113E+00    0.7226309269E-02    0.2179120984E+00    0.2819539470E+00    0.4557309213E+00
    0.7000000000E+06    0.3975495404E+00    0.6155882912E-02    0.2179734811E+00    0.2821901848E+00    0.4572722829E+00
    0.9000000000E+06    0.3975810812E+00    0.5460678287E-02    0.2179673071E+00    0.2823401070E+00    0.4583194035E+00
    0.1100000000E+07    0.3975888175E+00    0.4962004378E-02    0.2179342235E+00    0.2824475997E+00    0.4590989331E+00
    0.1300000000E+07    0.3975857782E+00    0.4581522094E-02    0.2178894172E+00    0.2825304493E+00    0.4597130676E+00
    0.1500000000E+07    0.3975774496E+00    0.4278697814E-02    0.2178395457E+00    0.2825974128E+00    0.4602159166E+00
    0.1700000000E+07    0.3975664412E+00    0.4030155371E-02    0.2177878222E+00    0.2826533770E+00    0.4606393134E+00
    0.1900000000E+07    0.3975540997E+00    0.3821333023E-02    0.2177358901E+00    0.2827013192E+00    0.4610034439E+00
    0.2100000000E+07    0.3975411598E+00    0.3642620025E-02    0.2176846141E+00    0.2827431757E+00    0.4613218476E+00
    0.2300000000E+07    0.3975280372E+00    0.3487381093E-02    0.2176344484E+00    0.2827802700E+00    0.4616040124E+00
    0.2500000000E+07    0.3975149723E+00    0.3350866714E-02    0.2175856220E+00    0.2828135443E+00    0.4618568243E+00
    0.2700000000E+07    0.3975021043E+00    0.3229574932E-02    0.2175382357E+00    0.2828436908E+00    0.4620854270E+00
    0.2900000000E+07    0.3974895129E+00    0.3120858898E-02    0.2174923174E+00    0.2828712325E+00    0.4622937557E+00
    0.3100000000E+07    0.3974772415E+00    0.3022675577E-02    0.2174478523E+00    0.2828965733E+00    0.4624848836E+00
    0.3300000000E+07    0.3974653110E+00    0.2933419259E-02    0.2174048016E+00    0.2829200312E+00    0.4626612525E+00
    0.3500000000E+07    0.3974537285E+00    0.2851807986E-02    0.2173631132E+00    0.2829418609E+00    0.4628248327E+00
    0.3700000000E+07    0.3974424924E+00    0.2776804088E-02    0.2173227286E+00    0.2829622696E+00    0.4629772350E+00
    0.3900000000E+07    0.3974315958E+00    0.2707557351E-02    0.2172835870E+00    0.2829814275E+00    0.4631197922E+00
    0.4100000000E+07    0.3974210284E+00    0.2643363557E-02    0.2172456274E+00    0.2829994765E+00    0.4632536182E+00
    0.4300000000E+07    0.3974107786E+00    0.2583633719E-02    0.2172087903E+00    0.2830165359E+00    0.4633796534E+00
    0.4500000000E+07    0.3974008332E+00    0.2527870894E-02    0.2171730185E+00    0.2830327069E+00    0.4634986978E+00
    0.4700000000E+07    0.3973911793E+00    0.2475652451E-02    0.2171382575E+00    0.2830480761E+00    0.4636114376E+00
    0.4900000000E+07    0.3973818037E+00    0.2426616356E-02    0.2171044561E+00    0.2830627181E+00    0.4637184654E+00
    0.1000000000E+07    0.3975868385E+00    0.5192952608E-02    0.2179528789E+00    0.2823977321E+00    0.4587346127E+00
    0.3000000000E+07    0.3974833355E+00    0.3070559722E-02    0.2174699052E+00    0.2828841564E+00    0.4623913045E+00
    0.5000000000E+07    0.3973772163E+00    0.2403192429E-02    0.2170878999E+00    0.2830697871E+00    0.4637700010E+00
    0.7000000000E+07    0.3972972403E+00    0.2044521746E-02    0.2167969119E+00    0.2831850281E+00    0.4645966328E+00
    0.9000000000E+07    0.3972338783E+00    0.1811835064E-02    0.2165625726E+00    0.2832685764E+00    0.4651785703E+00
    0.1100000000E+08    0.3971815593E+00    0.1645115187E-02    0.2163663001E+00    0.2833340885E+00    0.4656239991E+00
    0.1300000000E+08    0.3971370454E+00    0.1518036810E-02    0.2161973127E+00    0.2833879600E+00    0.4659829879E+00
    0.1500000000E+08    0.3970983243E+00    0.1416983213E-02    0.2160488433E+00    0.2834336982E+00    0.4662826206E+00
    0.1700000000E+08    0.3970640673E+00    0.1334105994E-02    0.2159163730E+00    0.2834734334E+00    0.4665391253E+00
    0.1900000000E+08    0.3970333538E+00    0.1264519290E-02    0.2157967348E+00    0.2835085566E+00    0.4667629582E+00
    0.2100000000E+08    0.3970055204E+00    0.1205000512E-02    0.2156876225E+00    0.2835400257E+00    0.4669612332E+00
    0.2300000000E+08    0.3969800736E+00    0.1153326151E-02    0.2155873042E+00    0.2835685283E+00    0.4671389996E+00
    0.2500000000E+08    0.3969566366E+00    0.1107905554E-02    0.2154944457E+00    0.2835945748E+00    0.4672999652E+00
    0.2700000000E+08    0.3969349151E+00    0.1067566523E-02    0.2154079969E+00    0.2836185544E+00    0.4674469292E+00
