  Pressure (Pa) 22mC5-400 (mol/kg) 2mC6-400 (mol/kg) 3mC6-400 (mol/kg) 23mC5-400 (mol/kg) C7-400 (mol/kg)
    0.1000000000E+01    0.5287951533E-03    0.6292686186E-02    0.1042675218E-02    0.3714025244E-03    0.8460179211E-02
    0.3000000000E+01    0.1563177999E-02    0.1810698055E-01    0.2999605452E-02    0.1097916484E-02    0.2434316129E-01
    0.5000000000E+01    0.2568072651E-02    0.2899535836E-01    0.4802986588E-02    0.1803730310E-02    0.3898558080E-01
    0.7000000000E+01    0.3545107698E-02    0.3906358664E-01    0.6471056052E-02    0.2489987107E-02    0.5253457463E-01
    0.9000000000E+01    0.4495788997E-02    0.4840149402E-01    0.8019241937E-02    0.3157743840E-02    0.6511463081E-01
    0.1100000000E+02    0.5421511191E-02    0.5708591092E-01    0.9460685759E-02    0.3807979420E-02    0.7683180100E-01
    0.1300000000E+02    0.6323567949E-02    0.6518297680E-01    0.1080665252E-01    0.4441601887E-02    0.8777700522E-01
    0.1500000000E+02    0.7203161089E-02    0.7274996865E-01    0.1206685543E-01    0.5059454815E-02    0.9802864922E-01
    0.1700000000E+02    0.8061408710E-02    0.7983676319E-01    0.1324971542E-01    0.5662323021E-02    0.1076547158E+00
    0.1900000000E+02    0.8899352486E-02    0.8648701594E-01    0.1436257006E-01    0.6250937680E-02    0.1167144494E+00
    0.2100000000E+02    0.9717964188E-02    0.9273911957E-01    0.1541184324E-01    0.6825980904E-02    0.1252597239E+00
    0.2300000000E+02    0.1051815155E-01    0.9862698840E-01    0.1640318384E-01    0.7388089864E-02    0.1333361605E+00
    0.2500000000E+02    0.1130076357E-01    0.1041807051E+00    0.1734157979E-01    0.7937860492E-02    0.1409840476E+00
    0.2700000000E+02    0.1206659523E-01    0.1094270571E+00    0.1823145256E-01    0.8475850825E-02    0.1482391024E+00
    0.2900000000E+02    0.1281639184E-01    0.1143899843E+00    0.1907673585E-01    0.9002584028E-02    0.1551331062E+00
    0.3100000000E+02    0.1355085292E-01    0.1190909549E+00    0.1988094148E-01    0.9518551118E-02    0.1616944349E+00
    0.3300000000E+02    0.1427063571E-01    0.1235492820E+00    0.2064721483E-01    0.1002421345E-01    0.1679485069E+00
    0.3500000000E+02    0.1497635839E-01    0.1277823930E+00    0.2137838176E-01    0.1052000497E-01    0.1739181610E+00
    0.3700000000E+02    0.1566860302E-01    0.1318060580E+00    0.2207698846E-01    0.1100633424E-01    0.1796239787E+00
    0.3900000000E+02    0.1634791815E-01    0.1356345862E+00    0.2274533550E-01    0.1148358632E-01    0.1850845577E+00
    0.4100000000E+02    0.1701482128E-01    0.1392809942E+00    0.2338550694E-01    0.1195212449E-01    0.1903167481E+00
    0.4300000000E+02    0.1766980104E-01    0.1427571511E+00    0.2399939548E-01    0.1241229175E-01    0.1953358542E+00
    0.4500000000E+02    0.1831331924E-01    0.1460739049E+00    0.2458872404E-01    0.1286441227E-01    0.2001558093E+00
    0.4700000000E+02    0.1894581274E-01    0.1492411913E+00    0.2515506462E-01    0.1330879272E-01    0.2047893277E+00
    0.4900000000E+02    0.1956769509E-01    0.1522681298E+00    0.2569985456E-01    0.1374572340E-01    0.2092480360E+00
    0.1000000000E+02    0.4961686873E-02    0.5282102795E-01    0.8752562729E-02    0.3484993439E-02    0.7107507309E-01
    0.3000000000E+02    0.1318549729E-01    0.1167719600E+00    0.1948376879E-01    0.9261883834E-02    0.1584537017E+00
    0.5000000000E+02    0.1987478036E-01    0.1537316158E+00    0.2596458395E-01    0.1396148161E-01    0.2114152010E+00
    0.7000000000E+02    0.2554450271E-01    0.1773501906E+00    0.3039548996E-01    0.1794527375E-01    0.2477473841E+00
    0.9000000000E+02    0.3049425791E-01    0.1933675401E+00    0.3366646173E-01    0.2142357345E-01    0.2746534670E+00
    0.1100000000E+03    0.3491157924E-01    0.2046495957E+00    0.3620983190E-01    0.2452803371E-01    0.2956368032E+00
    0.1300000000E+03    0.3892064210E-01    0.2127941637E+00    0.3826264348E-01    0.2734583198E-01    0.3126204487E+00
    0.1500000000E+03    0.4260741533E-01    0.2187636032E+00    0.3996659349E-01    0.2993732489E-01    0.3267552300E+00
    0.1700000000E+03    0.4603361009E-01    0.2231717960E+00    0.4141206579E-01    0.3234583964E-01    0.3387760196E+00
    0.1900000000E+03    0.4924487273E-01    0.2264281512E+00    0.4265970670E-01    0.3460342535E-01    0.3491764303E+00
    0.2100000000E+03    0.5227582977E-01    0.2288156043E+00    0.4375189446E-01    0.3673439455E-01    0.3583017453E+00
    0.2300000000E+03    0.5515332002E-01    0.2305354734E+00    0.4471924347E-01    0.3875759218E-01    0.3664016537E+00
    0.2500000000E+03    0.5789853615E-01    0.2317345353E+00    0.4558449212E-01    0.4068789907E-01    0.3736617924E+00
    0.2700000000E+03    0.6052848565E-01    0.2325220357E+00    0.4636493047E-01    0.4253725760E-01    0.3802234558E+00
    0.2900000000E+03    0.6305701294E-01    0.2329807427E+00    0.4707397318E-01    0.4431538929E-01    0.3861963731E+00
    0.3100000000E+03    0.6549553046E-01    0.2331743376E+00    0.4772221140E-01    0.4603030805E-01    0.3916672585E+00
    0.3300000000E+03    0.6785355217E-01    0.2331524823E+00    0.4831813561E-01    0.4768869477E-01    0.3967056914E+00
    0.3500000000E+03    0.7013908958E-01    0.2329543698E+00    0.4886864450E-01    0.4929617541E-01    0.4013682567E+00
    0.3700000000E+03    0.7235895053E-01    0.2326112600E+00    0.4937941072E-01    0.5085753068E-01    0.4057015246E+00
    0.3900000000E+03    0.7451896773E-01    0.2321483221E+00    0.4985514884E-01    0.5237685663E-01    0.4097442329E+00
    0.4100000000E+03    0.7662417601E-01    0.2315859938E+00    0.5029981496E-01    0.5385768897E-01    0.4135289153E+00
    0.4300000000E+03    0.7867895114E-01    0.2309409977E+00    0.5071675758E-01    0.5530310070E-01    0.4170831317E+00
    0.4500000000E+03    0.8068712008E-01    0.2302271114E+00    0.5110883335E-01    0.5671577933E-01    0.4204304126E+00
    0.4700000000E+03    0.8265204904E-01    0.2294557571E+00    0.5147849679E-01    0.5809808892E-01    0.4235909932E+00
    0.4900000000E+03    0.8457671480E-01    0.2286364582E+00    0.5182787082E-01    0.5945211999E-01    0.4265823882E+00
    0.1000000000E+03    0.3276059572E-01    0.1994807946E+00    0.3501128184E-01    0.2301630141E-01    0.2857409980E+00
    0.3000000000E+03    0.6428688900E-01    0.2331072943E+00    0.4740511976E-01    0.4518030513E-01    0.3889898748E+00
    0.5000000000E+03    0.8552478723E-01    0.2282113757E+00    0.5199553605E-01    0.6011911977E-01    0.4280194852E+00
    0.7000000000E+03    0.1028836897E+00    0.2185737109E+00    0.5462765822E-01    0.7233355623E-01    0.4507236997E+00
    0.9000000000E+03    0.1180291039E+00    0.2084528576E+00    0.5640350995E-01    0.8299328790E-01    0.4662213629E+00
    0.1100000000E+04    0.1316533616E+00    0.1987565903E+00    0.5771046900E-01    0.9258453508E-01    0.4777415130E+00
    0.1300000000E+04    0.1441172287E+00    0.1896886312E+00    0.5872626304E-01    0.1013606473E+00    0.4867747725E+00
    0.1500000000E+04    0.1556367027E+00    0.1812646984E+00    0.5954598892E-01    0.1094732962E+00    0.4941230495E+00
    0.1700000000E+04    0.1663542847E+00    0.1734468806E+00    0.6022595925E-01    0.1170225348E+00    0.5002635181E+00
    0.1900000000E+04    0.1763711356E+00    0.1661843114E+00    0.6080201897E-01    0.1240793829E+00    0.5055012753E+00
    0.2100000000E+04    0.1857633413E+00    0.1594262419E+00    0.6129825740E-01    0.1306972523E+00    0.5100422113E+00
    0.2300000000E+04    0.1945908517E+00    0.1531260478E+00    0.6173156391E-01    0.1369182251E+00    0.5140312421E+00
    0.2500000000E+04    0.2029027094E+00    0.1472421008E+00    0.6211418953E-01    0.1427767259E+00    0.5175738733E+00
    0.2700000000E+04    0.2107402604E+00    0.1417375638E+00    0.6245527251E-01    0.1483017774E+00    0.5207490803E+00
    0.2900000000E+04    0.2181392067E+00    0.1365798646E+00    0.6276179041E-01    0.1535184414E+00    0.5236173680E+00
    0.3100000000E+04    0.2251309612E+00    0.1317401223E+00    0.6303917785E-01    0.1584487703E+00    0.5262260142E+00
    0.3300000000E+04    0.2317435703E+00    0.1271926221E+00    0.6329174057E-01    0.1631124546E+00    0.5286125930E+00
    0.3500000000E+04    0.2380023575E+00    0.1229143628E+00    0.6352294103E-01    0.1675272751E+00    0.5308074106E+00
    0.3700000000E+04    0.2439303855E+00    0.1188846786E+00    0.6373560008E-01    0.1717094268E+00    0.5328352291E+00
    0.3900000000E+04    0.2495487958E+00    0.1150849249E+00    0.6393204256E-01    0.1756737573E+00    0.5347165143E+00
    0.4100000000E+04    0.2548770654E+00    0.1114982171E+00    0.6411420434E-01    0.1794339466E+00    0.5364683547E+00
    0.4300000000E+04    0.2599332043E+00    0.1081092139E+00    0.6428371235E-01    0.1830026460E+00    0.5381051498E+00
    0.4500000000E+04    0.2647339137E+00    0.1049039348E+00    0.6444194535E-01    0.1863915888E+00    0.5396391344E+00
    0.4700000000E+04    0.2692947141E+00    0.1018696071E+00    0.6459008063E-01    0.1896116798E+00    0.5410807816E+00
    0.4900000000E+04    0.2736300521E+00    0.9899453434E-01    0.6472913041E-01    0.1926730707E+00    0.5424391185E+00
    0.1000000000E+04    0.1250041394E+00    0.2035316701E+00    0.5710172948E-01    0.8790334368E-01    0.4723624684E+00
    0.3000000000E+04    0.2216841598E+00    0.1341219245E+00    0.6290383371E-01    0.1560181177E+00    0.5249516032E+00
    0.5000000000E+04    0.2757174163E+00    0.9761332999E-01    0.6479552659E-01    0.1941472358E+00    0.5430895331E+00
    0.7000000000E+04    0.3084481737E+00    0.7616548138E-01    0.6580797032E-01    0.2172812112E+00    0.5531740010E+00
    0.9000000000E+04    0.3293979665E+00    0.6254245514E-01    0.6645671773E-01    0.2321143064E+00    0.5598415889E+00
    0.1100000000E+05    0.3435026220E+00    0.5332387083E-01    0.6691458570E-01    0.2421198174E+00    0.5646796542E+00
    0.1300000000E+05    0.3534277890E+00    0.4675281407E-01    0.6725801269E-01    0.2491749511E+00    0.5684018540E+00
    0.1500000000E+05    0.3606789828E+00    0.4186515645E-01    0.6752665629E-01    0.2543406591E+00    0.5713835259E+00
    0.1700000000E+05    0.3661465977E+00    0.3810027467E-01    0.6774337779E-01    0.2582448325E+00    0.5738436505E+00
    0.1900000000E+05    0.3703805463E+00    0.3511524538E-01    0.6792238678E-01    0.2612755198E+00    0.5759198325E+00
    0.2100000000E+05    0.3737339769E+00    0.3269088379E-01    0.6807303060E-01    0.2636820899E+00    0.5777035183E+00
    0.2300000000E+05    0.3764416511E+00    0.3068165780E-01    0.6820173685E-01    0.2656304292E+00    0.5792581996E+00
    0.2500000000E+05    0.3786644497E+00    0.2898769201E-01    0.6831308584E-01    0.2672342987E+00    0.5806295392E+00
    0.2700000000E+05    0.3805156136E+00    0.2753844178E-01    0.6841043862E-01    0.2685738306E+00    0.5818513432E+00
    0.2900000000E+05    0.3820767550E+00    0.2628280693E-01    0.6849632289E-01    0.2697068180E+00    0.5829492541E+00
    0.3100000000E+05    0.3834079341E+00    0.2518294100E-01    0.6857267969E-01    0.2706758248E+00    0.5839431273E+00
    0.3300000000E+05    0.3845541802E+00    0.2421025713E-01    0.6864102663E-01    0.2715127874E+00    0.5848486124E+00
    0.3500000000E+05    0.3855498198E+00    0.2334278152E-01    0.6870256890E-01    0.2722420706E+00    0.5856782358E+00
    0.3700000000E+05    0.3864214135E+00    0.2256335724E-01    0.6875827687E-01    0.2728825424E+00    0.5864421609E+00
    0.3900000000E+05    0.3871897918E+00    0.2185839867E-01    0.6880894136E-01    0.2734490128E+00    0.5871487329E+00
    0.4100000000E+05    0.3878714916E+00    0.2121701076E-01    0.6885521390E-01    0.2739532488E+00    0.5878048781E+00
    0.4300000000E+05    0.3884797875E+00    0.2063035514E-01    0.6889763652E-01    0.2744047047E+00    0.5884163999E+00
    0.4500000000E+05    0.3890254438E+00    0.2009118651E-01    0.6893666408E-01    0.2748110533E+00    0.5889882038E+00
    0.4700000000E+05    0.3895172706E+00    0.1959350855E-01    0.6897268141E-01    0.2751785802E+00    0.5895244682E+00
    0.4900000000E+05    0.3899625400E+00    0.1913231500E-01    0.6900601640E-01    0.2755124787E+00    0.5900287781E+00
    0.1000000000E+05    0.3371029266E+00    0.5751778762E-01    0.6670349123E-01    0.2375775757E+00    0.5624333272E+00
    0.3000000000E+05    0.3827679822E+00    0.2571537044E-01    0.6853558895E-01    0.2702096156E+00    0.5834581333E+00
    0.5000000000E+05    0.3901696471E+00    0.1891405665E-01    0.6902176749E-01    0.2756681975E+00    0.5902699342E+00
    0.7000000000E+05    0.3929117029E+00    0.1572149855E-01    0.6924705691E-01    0.2777647117E+00    0.5939847353E+00
    0.9000000000E+05    0.3942928399E+00    0.1377735666E-01    0.6937374328E-01    0.2788620519E+00    0.5964200810E+00
    0.1100000000E+06    0.3951098829E+00    0.1243225068E-01    0.6945230930E-01    0.2795375220E+00    0.5981797968E+00
    0.1300000000E+06    0.3956434279E+00    0.1142872297E-01    0.6950382830E-01    0.2799968603E+00    0.5995307937E+00
    0.1500000000E+06    0.3960158862E+00    0.1064189412E-01    0.6953870514E-01    0.2803309432E+00    0.6006119631E+00
    0.1700000000E+06    0.3962886711E+00    0.1000287250E-01    0.6956267607E-01    0.2805859500E+00    0.6015037597E+00
    0.1900000000E+06    0.3964957955E+00    0.9470096177E-02    0.6957916158E-01    0.2807877927E+00    0.6022564849E+00
    0.2100000000E+06    0.3966575393E+00    0.9016783926E-02    0.6959032482E-01    0.2809521281E+00    0.6029034436E+00
    0.2300000000E+06    0.3967867063E+00    0.8624784108E-02    0.6959759784E-01    0.2810889749E+00    0.6034676945E+00
    0.2500000000E+06    0.3968917582E+00    0.8281291534E-02    0.6960196408E-01    0.2812050452E+00    0.6039657858E+00
    0.2700000000E+06    0.3969784999E+00    0.7976974347E-02    0.6960411944E-01    0.2813050070E+00    0.6044099477E+00
    0.2900000000E+06    0.3970510396E+00    0.7704846403E-02    0.6960456876E-01    0.2813922099E+00    0.6048094450E+00
    0.3100000000E+06    0.3971123620E+00    0.7459557780E-02    0.6960368610E-01    0.2814691212E+00    0.6051714438E+00
    0.3300000000E+06    0.3971646849E+00    0.7236931549E-02    0.6960175363E-01    0.2815376004E+00    0.6055015875E+00
    0.3500000000E+06    0.3972096890E+00    0.7033651644E-02    0.6959898753E-01    0.2815990760E+00    0.6058043903E+00
    0.3700000000E+06    0.3972486694E+00    0.6847046780E-02    0.6959555566E-01    0.2816546645E+00    0.6060835125E+00
    0.3900000000E+06    0.3972826396E+00    0.6674937289E-02    0.6959158992E-01    0.2817052521E+00    0.6063419589E+00
    0.4100000000E+06    0.3973124032E+00    0.6515524273E-02    0.6958719501E-01    0.2817515511E+00    0.6065822221E+00
    0.4300000000E+06    0.3973386050E+00    0.6367307917E-02    0.6958245481E-01    0.2817941415E+00    0.6068063905E+00
    0.4500000000E+06    0.3973617680E+00    0.6229026282E-02    0.6957743706E-01    0.2818335002E+00    0.6070162288E+00
    0.4700000000E+06    0.3973823206E+00    0.6099608766E-02    0.6957219686E-01    0.2818700234E+00    0.6072132401E+00
    0.4900000000E+06    0.3974006168E+00    0.5978140259E-02    0.6956677931E-01    0.2819040431E+00    0.6073987141E+00
    0.1000000000E+06    0.3947486403E+00    0.1305064174E-01    0.6941735793E-01    0.2792355384E+00    0.5973633816E+00
    0.3000000000E+06    0.3970829495E+00    0.7579131495E-02    0.6960427449E-01    0.2814318240E+00    0.6049947486E+00
    0.5000000000E+06    0.3974090129E+00    0.5920136422E-02    0.6956401590E-01    0.2819202036E+00    0.6074874785E+00
    0.7000000000E+06    0.3975094742E+00    0.5033330542E-02    0.6950566259E-01    0.2821617594E+00    0.6088618639E+00
    0.9000000000E+06    0.3975455539E+00    0.4459031292E-02    0.6944833824E-01    0.2823148863E+00    0.6097720486E+00
    0.1100000000E+07    0.3975564275E+00    0.4047854775E-02    0.6939516888E-01    0.2824245943E+00    0.6104357987E+00
    0.1300000000E+07    0.3975557350E+00    0.3734559686E-02    0.6934638971E-01    0.2825091010E+00    0.6109496798E+00
    0.1500000000E+07    0.3975492538E+00    0.3485473710E-02    0.6930160952E-01    0.2825773692E+00    0.6113641162E+00
    0.1700000000E+07    0.3975397526E+00    0.3281212866E-02    0.6926033666E-01    0.2826343978E+00    0.6117084196E+00
    0.1900000000E+07    0.3975286737E+00    0.3109719172E-02    0.6922211306E-01    0.2826832319E+00    0.6120009801E+00
    0.2100000000E+07    0.3975168131E+00    0.2963043338E-02    0.6918654335E-01    0.2827258507E+00    0.6122540150E+00
    0.2300000000E+07    0.3975046283E+00    0.2835702298E-02    0.6915329439E-01    0.2827636074E+00    0.6124760111E+00
    0.2500000000E+07    0.3974923887E+00    0.2723774424E-02    0.6912208706E-01    0.2827974646E+00    0.6126730783E+00
    0.2700000000E+07    0.3974802551E+00    0.2624370183E-02    0.6909268708E-01    0.2828281299E+00    0.6128497462E+00
    0.2900000000E+07    0.3974683232E+00    0.2535306935E-02    0.6906489687E-01    0.2828561374E+00    0.6130094565E+00
    0.3100000000E+07    0.3974566486E+00    0.2454900868E-02    0.6903854873E-01    0.2828818997E+00    0.6131548789E+00
    0.3300000000E+07    0.3974452618E+00    0.2381829245E-02    0.6901349939E-01    0.2829057417E+00    0.6132881218E+00
    0.3500000000E+07    0.3974341776E+00    0.2315036494E-02    0.6898962569E-01    0.2829279235E+00    0.6134108764E+00
    0.3700000000E+07    0.3974234005E+00    0.2253668536E-02    0.6896682100E-01    0.2829486564E+00    0.6135245175E+00
    0.3900000000E+07    0.3974129286E+00    0.2197025841E-02    0.6894499250E-01    0.2829681144E+00    0.6136301766E+00
    0.4100000000E+07    0.3974027561E+00    0.2144529201E-02    0.6892405893E-01    0.2829864423E+00    0.6137287948E+00
    0.4300000000E+07    0.3973928744E+00    0.2095694335E-02    0.6890394874E-01    0.2830037617E+00    0.6138211624E+00
    0.4500000000E+07    0.3973832736E+00    0.2050112767E-02    0.6888459864E-01    0.2830201761E+00    0.6139079490E+00
    0.4700000000E+07    0.3973739432E+00    0.2007437199E-02    0.6886595237E-01    0.2830357738E+00    0.6139897261E+00
    0.4900000000E+07    0.3973648720E+00    0.1967370209E-02    0.6884795970E-01    0.2830506308E+00    0.6140669850E+00
    0.1000000000E+07    0.3975530057E+00    0.4238201501E-02    0.6942119316E-01    0.2823737079E+00    0.6101271335E+00
    0.3000000000E+07    0.3974624514E+00    0.2494111619E-02    0.6905155201E-01    0.2828692772E+00    0.6130838107E+00
    0.5000000000E+07    0.3973604302E+00    0.1948233404E-02    0.6883919422E-01    0.2830578027E+00    0.6141040554E+00
    0.7000000000E+07    0.3972827085E+00    0.1655433196E-02    0.6868937660E-01    0.2831746359E+00    0.6146868024E+00
    0.9000000000E+07    0.3972208378E+00    0.1465719965E-02    0.6857323453E-01    0.2832592372E+00    0.6150833195E+00
    0.1100000000E+08    0.3971696049E+00    0.1329916994E-02    0.6847823353E-01    0.2833255161E+00    0.6153789723E+00
    0.1300000000E+08    0.3971259306E+00    0.1226480352E-02    0.6839777551E-01    0.2833799799E+00    0.6156122410E+00
    0.1500000000E+08    0.3970878852E+00    0.1144276671E-02    0.6832795053E-01    0.2834261948E+00    0.6158035024E+00
    0.1700000000E+08    0.3970541885E+00    0.1076893591E-02    0.6826624676E-01    0.2834663251E+00    0.6159647484E+00
    0.1900000000E+08    0.3970239500E+00    0.1020341652E-02    0.6821095292E-01    0.2835017831E+00    0.6161035868E+00
    0.2100000000E+08    0.3969965265E+00    0.9719908759E-03    0.6816084972E-01    0.2835335409E+00    0.6162251229E+00
    0.2300000000E+08    0.3969714385E+00    0.9300274652E-03    0.6811503724E-01    0.2835622962E+00    0.6163329362E+00
    0.2500000000E+08    0.3969483192E+00    0.8931543879E-03    0.6807283202E-01    0.2835885664E+00    0.6164296259E+00
    0.2700000000E+08    0.3969268819E+00    0.8604161703E-03    0.6803370258E-01    0.2836127460E+00    0.6165171347E+00
