  Pressure (Pa) 22mC5-400 (mol/kg) 2mC6-400 (mol/kg) 3mC6-400 (mol/kg) 23mC5-400 (mol/kg) C7-400 (mol/kg)
    0.1000000000E+01    0.5290582403E-03    0.5538109727E-02    0.2099697379E-02    0.5573808966E-03    0.3407242612E-02
    0.3000000000E+01    0.1565455435E-02    0.1611019807E-01    0.6119166904E-02    0.1649273581E-02    0.9931017106E-02
    0.5000000000E+01    0.2574162358E-02    0.2605821122E-01    0.9916416654E-02    0.2712009908E-02    0.1609570645E-01
    0.7000000000E+01    0.3556606157E-02    0.3543418392E-01    0.1351050810E-01    0.3747092408E-02    0.2193207047E-01
    0.9000000000E+01    0.4514113708E-02    0.4428446393E-01    0.1691835364E-01    0.4755918055E-02    0.2746740348E-01
    0.1100000000E+02    0.5447920391E-02    0.5265047723E-01    0.2015501256E-01    0.5739787497E-02    0.3272601124E-01
    0.1300000000E+02    0.6359177949E-02    0.6056937187E-01    0.2323393922E-01    0.6699913337E-02    0.3772961112E-01
    0.1500000000E+02    0.7248961551E-02    0.6807456243E-01    0.2616719243E-01    0.7637427560E-02    0.4249766956E-01
    0.1700000000E+02    0.8118276140E-02    0.7519619257E-01    0.2896561272E-01    0.8553388223E-02    0.4704768784E-01
    0.1900000000E+02    0.8968062160E-02    0.8196152993E-01    0.3163897324E-01    0.9448785479E-02    0.5139544543E-01
    0.2100000000E+02    0.9799200728E-02    0.8839530465E-01    0.3419610872E-01    0.1032454702E-01    0.5555520789E-01
    0.2300000000E+02    0.1061251831E-01    0.9452000071E-01    0.3664502613E-01    0.1118154302E-01    0.5953990526E-01
    0.2500000000E+02    0.1140879096E-01    0.1003561077E+00    0.3899300001E-01    0.1202059055E-01    0.6336128583E-01
    0.2700000000E+02    0.1218874817E-01    0.1059223393E+00    0.4124665485E-01    0.1284245768E-01    0.6703004897E-01
    0.2900000000E+02    0.1295307635E-01    0.1112358231E+00    0.4341203662E-01    0.1364786714E-01    0.7055596051E-01
    0.3100000000E+02    0.1370242206E-01    0.1163122666E+00    0.4549467499E-01    0.1443749966E-01    0.7394795305E-01
    0.3300000000E+02    0.1443739486E-01    0.1211661027E+00    0.4749963770E-01    0.1521199705E-01    0.7721421365E-01
    0.3500000000E+02    0.1515856998E-01    0.1258106175E+00    0.4943157811E-01    0.1597196498E-01    0.8036226062E-01
    0.3700000000E+02    0.1586649076E-01    0.1302580623E+00    0.5129477710E-01    0.1671797552E-01    0.8339901096E-01
    0.3900000000E+02    0.1656167085E-01    0.1345197536E+00    0.5309317983E-01    0.1745056953E-01    0.8633083979E-01
    0.4100000000E+02    0.1724459628E-01    0.1386061612E+00    0.5483042833E-01    0.1817025872E-01    0.8916363284E-01
    0.4300000000E+02    0.1791572727E-01    0.1425269859E+00    0.5650989026E-01    0.1887752769E-01    0.9190283291E-01
    0.4500000000E+02    0.1857550001E-01    0.1462912297E+00    0.5813468454E-01    0.1957283570E-01    0.9455348118E-01
    0.4700000000E+02    0.1922432821E-01    0.1499072578E+00    0.5970770404E-01    0.2025661837E-01    0.9712025386E-01
    0.4900000000E+02    0.1986260455E-01    0.1533828541E+00    0.6123163595E-01    0.2092928917E-01    0.9960749499E-01
    0.1000000000E+02    0.4983905800E-02    0.4852558872E-01    0.1855720554E-01    0.5250894541E-02    0.3012988424E-01
    0.3000000000E+02    0.1332958309E-01    0.1138027445E+00    0.4446337176E-01    0.1404461452E-01    0.7226816844E-01
    0.5000000000E+02    0.2017790307E-01    0.1550702762E+00    0.6197598204E-01    0.2126158112E-01    0.1008225652E+00
    0.7000000000E+02    0.2601132748E-01    0.1829681631E+00    0.7480880872E-01    0.2740978477E-01    0.1217942525E+00
    0.9000000000E+02    0.3111796336E-01    0.2026813708E+00    0.8473984668E-01    0.3279259106E-01    0.1380587231E+00
    0.1100000000E+03    0.3568159267E-01    0.2170428876E+00    0.9273271765E-01    0.3760352311E-01    0.1511756433E+00
    0.1300000000E+03    0.3982563301E-01    0.2277307474E+00    0.9935789184E-01    0.4197254486E-01    0.1620690496E+00
    0.1500000000E+03    0.4363645078E-01    0.2358006671E+00    0.1049762336E+00    0.4599060677E-01    0.1713238951E+00
    0.1700000000E+03    0.4717655999E-01    0.2419487473E+00    0.1098281182E+00    0.4972354286E-01    0.1793301034E+00
    0.1900000000E+03    0.5049250300E-01    0.2466515706E+00    0.1140804343E+00    0.5322036858E-01    0.1863585826E+00
    0.2100000000E+03    0.5361976805E-01    0.2502456622E+00    0.1178530530E+00    0.5651845886E-01    0.1926040521E+00
    0.2300000000E+03    0.5658597441E-01    0.2529748681E+00    0.1212345510E+00    0.5964690196E-01    0.1982104935E+00
    0.2500000000E+03    0.5941300214E-01    0.2550197961E+00    0.1242919726E+00    0.6262874212E-01    0.2032869593E+00
    0.2700000000E+03    0.6211845590E-01    0.2565167616E+00    0.1270771209E+00    0.6548252111E-01    0.2079177665E+00
    0.2900000000E+03    0.6471669586E-01    0.2575703488E+00    0.1296307454E+00    0.6822336370E-01    0.2121692824E+00
    0.3100000000E+03    0.6721957905E-01    0.2582619574E+00    0.1319854056E+00    0.7086375847E-01    0.2160945694E+00
    0.3300000000E+03    0.6963700286E-01    0.2586557504E+00    0.1341674791E+00    0.7341413012E-01    0.2197366415E+00
    0.3500000000E+03    0.7197731016E-01    0.2588028781E+00    0.1361985994E+00    0.7588326614E-01    0.2231307977E+00
    0.3700000000E+03    0.7424759602E-01    0.2587445298E+00    0.1380967043E+00    0.7827863977E-01    0.2263063245E+00
    0.3900000000E+03    0.7645394300E-01    0.2585141761E+00    0.1398768152E+00    0.8060665785E-01    0.2292877613E+00
    0.4100000000E+03    0.7860160402E-01    0.2581392387E+00    0.1415516240E+00    0.8287285341E-01    0.2320958535E+00
    0.4300000000E+03    0.8069514613E-01    0.2576423507E+00    0.1431319411E+00    0.8508203703E-01    0.2347482816E+00
    0.4500000000E+03    0.8273856459E-01    0.2570423191E+00    0.1446270430E+00    0.8723841711E-01    0.2372602256E+00
    0.4700000000E+03    0.8473537450E-01    0.2563548680E+00    0.1460449436E+00    0.8934569622E-01    0.2396448068E+00
    0.4900000000E+03    0.8668868480E-01    0.2555932183E+00    0.1473926095E+00    0.9140714916E-01    0.2419134376E+00
    0.1000000000E+03    0.3345886490E-01    0.2104072590E+00    0.8893649474E-01    0.3526028635E-01    0.1449425174E+00
    0.3000000000E+03    0.6597939785E-01    0.2579570426E+00    0.1308311716E+00    0.6955542274E-01    0.2141698116E+00
    0.5000000000E+03    0.8764990318E-01    0.2551881300E+00    0.1480420379E+00    0.9242161311E-01    0.2430074406E+00
    0.7000000000E+03    0.1051247803E+00    0.2451543760E+00    0.1584868306E+00    0.1108677600E+00    0.2606763117E+00
    0.9000000000E+03    0.1201454606E+00    0.2339382007E+00    0.1658393147E+00    0.1267281881E+00    0.2732072068E+00
    0.1100000000E+04    0.1334406070E+00    0.2229886734E+00    0.1714399352E+00    0.1407703990E+00    0.2828116910E+00
    0.1300000000E+04    0.1453961878E+00    0.2127035027E+00    0.1759209967E+00    0.1534008990E+00    0.2905374148E+00
    0.1500000000E+04    0.1562497482E+00    0.2031716442E+00    0.1796289430E+00    0.1648698504E+00    0.2969605179E+00
    0.1700000000E+04    0.1661638167E+00    0.1943797568E+00    0.1827733193E+00    0.1753484036E+00    0.3024306288E+00
    0.1900000000E+04    0.1752585823E+00    0.1862801845E+00    0.1854901105E+00    0.1849631201E+00    0.3071753208E+00
    0.2100000000E+04    0.1836281697E+00    0.1788157003E+00    0.1878723440E+00    0.1938131178E+00    0.3113507067E+00
    0.2300000000E+04    0.1913494494E+00    0.1719289506E+00    0.1899863263E+00    0.2019793498E+00    0.3150683427E+00
    0.2500000000E+04    0.1984871318E+00    0.1655660099E+00    0.1918808973E+00    0.2095299704E+00    0.3184105953E+00
    0.2700000000E+04    0.2050968853E+00    0.1596775468E+00    0.1935930131E+00    0.2165236170E+00    0.3214399298E+00
    0.2900000000E+04    0.2112273432E+00    0.1542190000E+00    0.1951512736E+00    0.2230115236E+00    0.3242047898E+00
    0.3100000000E+04    0.2169214612E+00    0.1491503505E+00    0.1965782373E+00    0.2290389491E+00    0.3267434627E+00
    0.3300000000E+04    0.2222174775E+00    0.1444357461E+00    0.1978919912E+00    0.2346461878E+00    0.3290867053E+00
    0.3500000000E+04    0.2271496232E+00    0.1400430878E+00    0.1991072444E+00    0.2398693163E+00    0.3312595759E+00
    0.3700000000E+04    0.2317486680E+00    0.1359436288E+00    0.2002361087E+00    0.2447407677E+00    0.3332827445E+00
    0.3900000000E+04    0.2360423550E+00    0.1321116031E+00    0.2012886681E+00    0.2492897890E+00    0.3351734481E+00
    0.4100000000E+04    0.2400557580E+00    0.1285238907E+00    0.2022734004E+00    0.2535428164E+00    0.3369462023E+00
    0.4300000000E+04    0.2438115796E+00    0.1251597192E+00    0.2031974964E+00    0.2575237895E+00    0.3386133372E+00
    0.4500000000E+04    0.2473304081E+00    0.1220004006E+00    0.2040671034E+00    0.2612544207E+00    0.3401854097E+00
    0.4700000000E+04    0.2506309382E+00    0.1190290980E+00    0.2048875148E+00    0.2647544283E+00    0.3416715229E+00
    0.4900000000E+04    0.2537301660E+00    0.1162306209E+00    0.2056633186E+00    0.2680417405E+00    0.3430795773E+00
    0.1000000000E+04    0.1269797814E+00    0.2283937607E+00    0.1688096013E+00    0.1339460855E+00    0.2782941415E+00
    0.3000000000E+04    0.2141264535E+00    0.1516382717E+00    0.1958799470E+00    0.2260801715E+00    0.3255003254E+00
    0.5000000000E+04    0.2552091807E+00    0.1148918501E+00    0.2060357629E+00    0.2696107938E+00    0.3437565226E+00
    0.7000000000E+04    0.2773084548E+00    0.9448479994E-01    0.2118904464E+00    0.2930831843E+00    0.3544896763E+00
    0.9000000000E+04    0.2904347130E+00    0.8169982294E-01    0.2158425663E+00    0.3070623081E+00    0.3618497888E+00
    0.1100000000E+05    0.2988702698E+00    0.7294688223E-01    0.2187480229E+00    0.3160722787E+00    0.3673344328E+00
    0.1300000000E+05    0.3046349737E+00    0.6655010228E-01    0.2210026277E+00    0.3222489886E+00    0.3716421744E+00
    0.1500000000E+05    0.3087690125E+00    0.6164155716E-01    0.2228189971E+00    0.3266933985E+00    0.3751510151E+00
    0.1700000000E+05    0.3118495588E+00    0.5773230038E-01    0.2243232491E+00    0.3300169715E+00    0.3780866359E+00
    0.1900000000E+05    0.3142173830E+00    0.5452747335E-01    0.2255957003E+00    0.3325810694E+00    0.3805936115E+00
    0.2100000000E+05    0.3160843423E+00    0.5183910377E-01    0.2266903142E+00    0.3346105722E+00    0.3827696140E+00
    0.2300000000E+05    0.3175879686E+00    0.4954174093E-01    0.2276449014E+00    0.3362516143E+00    0.3846834316E+00
    0.2500000000E+05    0.3188208669E+00    0.4754839838E-01    0.2284868651E+00    0.3376026965E+00    0.3863851605E+00
    0.2700000000E+05    0.3198473678E+00    0.4579678473E-01    0.2292366256E+00    0.3387323185E+00    0.3879123037E+00
    0.2900000000E+05    0.3207133770E+00    0.4424105114E-01    0.2299097587E+00    0.3396894159E+00    0.3892935931E+00
    0.3100000000E+05    0.3214524271E+00    0.4284664495E-01    0.2305183832E+00    0.3405097748E+00    0.3905514777E+00
    0.3300000000E+05    0.3220895187E+00    0.4158698812E-01    0.2310720908E+00    0.3412201072E+00    0.3917037972E+00
    0.3500000000E+05    0.3226436311E+00    0.4044126775E-01    0.2315785865E+00    0.3418407161E+00    0.3927649382E+00
    0.3700000000E+05    0.3231294057E+00    0.3939292704E-01    0.2320441416E+00    0.3423872826E+00    0.3937466543E+00
    0.3900000000E+05    0.3235583004E+00    0.3842861013E-01    0.2324739196E+00    0.3428720940E+00    0.3946586584E+00
    0.4100000000E+05    0.3239393981E+00    0.3753740863E-01    0.2328722163E+00    0.3433049029E+00    0.3955090597E+00
    0.4300000000E+05    0.3242799836E+00    0.3671031358E-01    0.2332426388E+00    0.3436935411E+00    0.3963046906E+00
    0.4500000000E+05    0.3245859613E+00    0.3593980980E-01    0.2335882415E+00    0.3440443649E+00    0.3970513560E+00
    0.4700000000E+05    0.3248621632E+00    0.3521957130E-01    0.2339116304E+00    0.3443625827E+00    0.3977540248E+00
    0.4900000000E+05    0.3251125785E+00    0.3454422910E-01    0.2342150444E+00    0.3446525008E+00    0.3984169795E+00
    0.1000000000E+05    0.2950802278E+00    0.7695091604E-01    0.2173952788E+00    0.3120207672E+00    0.3647722176E+00
    0.3000000000E+05    0.3210970438E+00    0.4352550006E-01    0.2302214844E+00    0.3401148420E+00    0.3899367535E+00
    0.5000000000E+05    0.3252291760E+00    0.3422193310E-01    0.2343598762E+00    0.3447879928E+00    0.3987347442E+00
    0.7000000000E+05    0.3267811782E+00    0.2930152393E-01    0.2365643986E+00    0.3466339017E+00    0.4036930313E+00
    0.9000000000E+05    0.3275688322E+00    0.2610985821E-01    0.2379728891E+00    0.3476213354E+00    0.4070123432E+00
    0.1100000000E+06    0.3280356771E+00    0.2381500108E-01    0.2389647805E+00    0.3482391297E+00    0.4094478197E+00
    0.1300000000E+06    0.3283398389E+00    0.2205825432E-01    0.2397073718E+00    0.3486645049E+00    0.4113403349E+00
    0.1500000000E+06    0.3285510062E+00    0.2065528009E-01    0.2402872780E+00    0.3489769139E+00    0.4128700343E+00
    0.1700000000E+06    0.3287044207E+00    0.1950002621E-01    0.2407543544E+00    0.3492172432E+00    0.4141425522E+00
    0.1900000000E+06    0.3288197201E+00    0.1852644841E-01    0.2411395531E+00    0.3494086819E+00    0.4152246006E+00
    0.2100000000E+06    0.3289086665E+00    0.1769092197E-01    0.2414632166E+00    0.3495653699E+00    0.4161607282E+00
    0.2300000000E+06    0.3289787106E+00    0.1696328623E-01    0.2417393228E+00    0.3496964274E+00    0.4169820082E+00
    0.2500000000E+06    0.3290347876E+00    0.1632191579E-01    0.2419778258E+00    0.3498080063E+00    0.4177108861E+00
    0.2700000000E+06    0.3290802881E+00    0.1575083636E-01    0.2421860261E+00    0.3499044110E+00    0.4183640482E+00
    0.2900000000E+06    0.3291176130E+00    0.1523795156E-01    0.2423694113E+00    0.3499887466E+00    0.4189542015E+00
    0.3100000000E+06    0.3291485066E+00    0.1477390694E-01    0.2425321935E+00    0.3500633113E+00    0.4194912221E+00
    0.3300000000E+06    0.3291742647E+00    0.1435133687E-01    0.2426776644E+00    0.3501298441E+00    0.4199829219E+00
    0.3500000000E+06    0.3291958680E+00    0.1396435026E-01    0.2428084372E+00    0.3501896864E+00    0.4204355755E+00
    0.3700000000E+06    0.3292140713E+00    0.1360817037E-01    0.2429266150E+00    0.3502438901E+00    0.4208542900E+00
    0.3900000000E+06    0.3292294641E+00    0.1327887685E-01    0.2430339114E+00    0.3502932926E+00    0.4212432724E+00
    0.4100000000E+06    0.3292425129E+00    0.1297321731E-01    0.2431317373E+00    0.3503385692E+00    0.4216060250E+00
    0.4300000000E+06    0.3292535910E+00    0.1268846741E-01    0.2432212664E+00    0.3503802706E+00    0.4219454906E+00
    0.4500000000E+06    0.3292630004E+00    0.1242232513E-01    0.2433034830E+00    0.3504188513E+00    0.4222641639E+00
    0.4700000000E+06    0.3292709878E+00    0.1217282996E-01    0.2433792199E+00    0.3504546894E+00    0.4225641755E+00
    0.4900000000E+06    0.3292777562E+00    0.1193830020E-01    0.2434491861E+00    0.3504881024E+00    0.4228473582E+00
    0.1000000000E+06    0.3278292997E+00    0.2487868690E-01    0.2385077242E+00    0.3479618676E+00    0.4083138545E+00
    0.3000000000E+06    0.3291337740E+00    0.1500032425E-01    0.2424531537E+00    0.3500271307E+00    0.4192288238E+00
    0.5000000000E+06    0.3292807371E+00    0.1182618574E-01    0.2434821988E+00    0.3505039851E+00    0.4229831431E+00
    0.7000000000E+06    0.3293053126E+00    0.1010263544E-01    0.2439498907E+00    0.3507421591E+00    0.4251084509E+00
    0.9000000000E+06    0.3292987159E+00    0.8977385671E-02    0.2442067921E+00    0.3508938321E+00    0.4265422393E+00
    0.1100000000E+07    0.3292818880E+00    0.8167574630E-02    0.2443615412E+00    0.3510027939E+00    0.4276030621E+00
    0.1300000000E+07    0.3292615780E+00    0.7548263762E-02    0.2444593098E+00    0.3510868827E+00    0.4284342331E+00
    0.1500000000E+07    0.3292403672E+00    0.7054494902E-02    0.2445223090E+00    0.3511549087E+00    0.4291114419E+00
    0.1700000000E+07    0.3292193318E+00    0.6648676234E-02    0.2445627299E+00    0.3512117991E+00    0.4296791046E+00
    0.1900000000E+07    0.3291989310E+00    0.6307328982E-02    0.2445878080E+00    0.3512605606E+00    0.4301653149E+00
    0.2100000000E+07    0.3291793487E+00    0.6014924784E-02    0.2446020963E+00    0.3513031506E+00    0.4305888707E+00
    0.2300000000E+07    0.3291606403E+00    0.5760724477E-02    0.2446085933E+00    0.3513409087E+00    0.4309629138E+00
    0.2500000000E+07    0.3291428000E+00    0.5537029984E-02    0.2446093466E+00    0.3513747888E+00    0.4312969606E+00
    0.2700000000E+07    0.3291257931E+00    0.5338158333E-02    0.2446057966E+00    0.3514054925E+00    0.4315981039E+00
    0.2900000000E+07    0.3291095722E+00    0.5159809657E-02    0.2445989817E+00    0.3514335499E+00    0.4318717595E+00
    0.3100000000E+07    0.3290940863E+00    0.4998661899E-02    0.2445896661E+00    0.3514593707E+00    0.4321221476E+00
    0.3300000000E+07    0.3290792842E+00    0.4852101951E-02    0.2445784223E+00    0.3514832775E+00    0.4323526155E+00
    0.3500000000E+07    0.3290651168E+00    0.4718042025E-02    0.2445656854E+00    0.3515055290E+00    0.4325658588E+00
    0.3700000000E+07    0.3290515385E+00    0.4594791050E-02    0.2445517907E+00    0.3515263353E+00    0.4327640775E+00
    0.3900000000E+07    0.3290385070E+00    0.4480962603E-02    0.2445369994E+00    0.3515458693E+00    0.4329490886E+00
    0.4100000000E+07    0.3290259835E+00    0.4375407698E-02    0.2445215168E+00    0.3515642752E+00    0.4331224084E+00
    0.4300000000E+07    0.3290139326E+00    0.4277164866E-02    0.2445055057E+00    0.3515816742E+00    0.4332853146E+00
    0.4500000000E+07    0.3290023221E+00    0.4185422504E-02    0.2444890963E+00    0.3515981691E+00    0.4334388929E+00
    0.4700000000E+07    0.3289911226E+00    0.4099490081E-02    0.2444723932E+00    0.3516138479E+00    0.4335840728E+00
    0.4900000000E+07    0.3289803073E+00    0.4018775831E-02    0.2444554809E+00    0.3516287866E+00    0.4337216560E+00
    0.1000000000E+07    0.3292910062E+00    0.8542887547E-02    0.2442933233E+00    0.3509522243E+00    0.4271080388E+00
    0.3000000000E+07    0.3291017407E+00    0.5077263120E-02    0.2445945970E+00    0.3514467180E+00    0.4319996353E+00
    0.5000000000E+07    0.3289750360E+00    0.3980213221E-02    0.2444469683E+00    0.3516359992E+00    0.4337878199E+00
    0.7000000000E+07    0.3288848698E+00    0.3389217538E-02    0.2442769110E+00    0.3517536336E+00    0.4348413517E+00
    0.9000000000E+07    0.3288151205E+00    0.3005287832E-02    0.2441182696E+00    0.3518389739E+00    0.4355739338E+00
    0.1100000000E+08    0.3287582887E+00    0.2729947524E-02    0.2439744931E+00    0.3519059230E+00    0.4361293832E+00
    0.1300000000E+08    0.3287103475E+00    0.2519931518E-02    0.2438443186E+00    0.3519609962E+00    0.4365736305E+00
    0.1500000000E+08    0.3286688946E+00    0.2352835462E-02    0.2437258350E+00    0.3520077684E+00    0.4369420644E+00
    0.1700000000E+08    0.3286323840E+00    0.2215734766E-02    0.2436172861E+00    0.3520484119E+00    0.4372557501E+00
    0.1900000000E+08    0.3285997631E+00    0.2100577941E-02    0.2435172040E+00    0.3520843454E+00    0.4375281830E+00
    0.2100000000E+08    0.3285702828E+00    0.2002051424E-02    0.2434243906E+00    0.3521165462E+00    0.4377684985E+00
    0.2300000000E+08    0.3285433915E+00    0.1916487227E-02    0.2433378696E+00    0.3521457161E+00    0.4379831516E+00
    0.2500000000E+08    0.3285186711E+00    0.1841260268E-02    0.2432568419E+00    0.3521723762E+00    0.4381768627E+00
    0.2700000000E+08    0.3284957971E+00    0.1774435351E-02    0.2431806477E+00    0.3521969238E+00    0.4383531822E+00
