  Pressure (Pa) 22mC5-400 (mol/kg) 2mC6-400 (mol/kg) 3mC6-400 (mol/kg) 23mC5-400 (mol/kg) C7-400 (mol/kg)
    0.1000000000E+01    0.5300867399E-03    0.3914981899E-02    0.1035363562E-02    0.2792319251E-03    0.1512210537E-01
    0.3000000000E+01    0.1574428224E-02    0.1117376365E-01    0.2939803802E-02    0.8293607355E-03    0.4294883833E-01
    0.5000000000E+01    0.2598336046E-02    0.1776826552E-01    0.4651292102E-02    0.1368731835E-02    0.6796982769E-01
    0.7000000000E+01    0.3602583721E-02    0.2379475449E-01    0.6198354477E-02    0.1897752408E-02    0.9059924350E-01
    0.9000000000E+01    0.4587904673E-02    0.2933113508E-01    0.7604128208E-02    0.2416808537E-02    0.1111730761E+00
    0.1100000000E+02    0.5554994836E-02    0.3444115276E-01    0.8887578934E-02    0.2926266569E-02    0.1299667854E+00
    0.1300000000E+02    0.6504515048E-02    0.3917749441E-01    0.1006440197E-01    0.3426474382E-02    0.1472083726E+00
    0.1500000000E+02    0.7437093270E-02    0.4358410868E-01    0.1114769949E-01    0.3917762542E-02    0.1630882025E+00
    0.1700000000E+02    0.8353326632E-02    0.4769796557E-01    0.1214849600E-01    0.4400445391E-02    0.1777664809E+00
    0.1900000000E+02    0.9253783330E-02    0.5155040694E-01    0.1307613549E-01    0.4874822038E-02    0.1913790158E+00
    0.2100000000E+02    0.1013900438E-01    0.5516819468E-01    0.1393859071E-01    0.5341177290E-02    0.2040417060E+00
    0.2300000000E+02    0.1100950526E-01    0.5857433241E-01    0.1474270656E-01    0.5799782502E-02    0.2158540716E+00
    0.2500000000E+02    0.1186577740E-01    0.6178871587E-01    0.1549439330E-01    0.6250896380E-02    0.2269020587E+00
    0.2700000000E+02    0.1270828961E-01    0.6482865222E-01    0.1619878136E-01    0.6694765718E-02    0.2372602859E+00
    0.2900000000E+02    0.1353748938E-01    0.6770927796E-01    0.1686034627E-01    0.7131626088E-02    0.2469938582E+00
    0.3100000000E+02    0.1435380409E-01    0.7044389801E-01    0.1748301034E-01    0.7561702477E-02    0.2561598426E+00
    0.3300000000E+02    0.1515764215E-01    0.7304426259E-01    0.1807022592E-01    0.7985209891E-02    0.2648084770E+00
    0.3500000000E+02    0.1594939408E-01    0.7552079497E-01    0.1862504401E-01    0.8402353904E-02    0.2729841666E+00
    0.3700000000E+02    0.1672943344E-01    0.7788277987E-01    0.1915017119E-01    0.8813331182E-02    0.2807263106E+00
    0.3900000000E+02    0.1749811781E-01    0.8013852038E-01    0.1964801711E-01    0.9218329970E-02    0.2880699921E+00
    0.4100000000E+02    0.1825578964E-01    0.8229546922E-01    0.2012073434E-01    0.9617530540E-02    0.2950465560E+00
    0.4300000000E+02    0.1900277702E-01    0.8436033922E-01    0.2057025191E-01    0.1001110562E-01    0.3016840972E+00
    0.4500000000E+02    0.1973939449E-01    0.8633919676E-01    0.2099830373E-01    0.1039922080E-01    0.3080078733E+00
    0.4700000000E+02    0.2046594369E-01    0.8823754118E-01    0.2140645283E-01    0.1078203487E-01    0.3140406561E+00
    0.4900000000E+02    0.2118271408E-01    0.9006037252E-01    0.2179611195E-01    0.1115970022E-01    0.3198030321E+00
    0.1000000000E+02    0.5073686505E-02    0.3193591755E-01    0.8260095194E-02    0.2672715154E-02    0.1207772121E+00
    0.3000000000E+02    0.1394723141E-01    0.6909407075E-01    0.1717631499E-01    0.7347498615E-02    0.2516445115E+00
    0.5000000000E+02    0.2153751948E-01    0.9094491125E-01    0.2198441260E-01    0.1134664807E-01    0.3225887173E+00
    0.7000000000E+02    0.2818225327E-01    0.1055916179E+00    0.2503468673E-01    0.1484794448E-01    0.3678235349E+00
    0.9000000000E+02    0.3410603742E-01    0.1160934157E+00    0.2716288689E-01    0.1796963342E-01    0.3995372182E+00
    0.1100000000E+03    0.3946461508E-01    0.1239287116E+00    0.2874344821E-01    0.2079371022E-01    0.4231999873E+00
    0.1300000000E+03    0.4436973631E-01    0.1299249350E+00    0.2997023638E-01    0.2337901055E-01    0.4416489548E+00
    0.1500000000E+03    0.4890390735E-01    0.1345913971E+00    0.3095417338E-01    0.2576897458E-01    0.4565101492E+00
    0.1700000000E+03    0.5312953575E-01    0.1382629048E+00    0.3176355820E-01    0.2799646123E-01    0.4687864511E+00
    0.1900000000E+03    0.5709481755E-01    0.1411703516E+00    0.3244288104E-01    0.3008684732E-01    0.4791322138E+00
    0.2100000000E+03    0.6083765065E-01    0.1434788799E+00    0.3302244438E-01    0.3206008781E-01    0.4879938427E+00
    0.2300000000E+03    0.6438830948E-01    0.1453100467E+00    0.3352364820E-01    0.3393212389E-01    0.4956870978E+00
    0.2500000000E+03    0.6777131806E-01    0.1467554371E+00    0.3396206525E-01    0.3571586909E-01    0.5024421196E+00
    0.2700000000E+03    0.7100679004E-01    0.1478854017E+00    0.3434931744E-01    0.3742191477E-01    0.5084309273E+00
    0.2900000000E+03    0.7411140590E-01    0.1487548731E+00    0.3469426689E-01    0.3905904462E-01    0.5137848928E+00
    0.3100000000E+03    0.7709913776E-01    0.1494073521E+00    0.3500379809E-01    0.4063461624E-01    0.5186062252E+00
    0.3300000000E+03    0.7998179532E-01    0.1498777124E+00    0.3528334659E-01    0.4215484864E-01    0.5229757426E+00
    0.3500000000E+03    0.8276944278E-01    0.1501942145E+00    0.3553726560E-01    0.4362504171E-01    0.5269582651E+00
    0.3700000000E+03    0.8547072136E-01    0.1503799804E+00    0.3576908580E-01    0.4504974604E-01    0.5306064418E+00
    0.3900000000E+03    0.8809310157E-01    0.1504540908E+00    0.3598170327E-01    0.4643289576E-01    0.5339635203E+00
    0.4100000000E+03    0.9064308271E-01    0.1504324139E+00    0.3617751773E-01    0.4777791358E-01    0.5370653864E+00
    0.4300000000E+03    0.9312635215E-01    0.1503282388E+00    0.3635853584E-01    0.4908779464E-01    0.5399420903E+00
    0.4500000000E+03    0.9554791362E-01    0.1501527659E+00    0.3652644959E-01    0.5036517410E-01    0.5426190047E+00
    0.4700000000E+03    0.9791219145E-01    0.1499154902E+00    0.3668269645E-01    0.5161238200E-01    0.5451177149E+00
    0.4900000000E+03    0.1002231159E+00    0.1496245046E+00    0.3682850616E-01    0.5283148819E-01    0.5474567119E+00
    0.1000000000E+03    0.3684816965E-01    0.1202827025E+00    0.2800684375E-01    0.1941476283E-01    0.4121587972E+00
    0.3000000000E+03    0.7561909896E-01    0.1491058815E+00    0.3485309101E-01    0.3985411268E-01    0.5162566580E+00
    0.5000000000E+03    0.1013596813E+00    0.1494610765E+00    0.3689783376E-01    0.5343108808E-01    0.5485713864E+00
    0.7000000000E+03    0.1219715612E+00    0.1446204494E+00    0.3792989891E-01    0.6430672787E-01    0.5653999971E+00
    0.9000000000E+03    0.1396759871E+00    0.1384789200E+00    0.3856444557E-01    0.7365086743E-01    0.5760375801E+00
    0.1100000000E+04    0.1554099369E+00    0.1321162499E+00    0.3899837237E-01    0.8195698267E-01    0.5834993005E+00
    0.1300000000E+04    0.1696621665E+00    0.1258990362E+00    0.3931568168E-01    0.8948247848E-01    0.5890868650E+00
    0.1500000000E+04    0.1827246302E+00    0.1199602694E+00    0.3955869990E-01    0.9638110514E-01    0.5934633887E+00
    0.1700000000E+04    0.1947893633E+00    0.1143441656E+00    0.3975123744E-01    0.1027539866E+00    0.5970057689E+00
    0.1900000000E+04    0.2059922452E+00    0.1090581093E+00    0.3990778671E-01    0.1086726711E+00    0.5999456762E+00
    0.2100000000E+04    0.2164350882E+00    0.1040935611E+00    0.4003770806E-01    0.1141907661E+00    0.6024341657E+00
    0.2300000000E+04    0.2261977393E+00    0.9943517801E-01    0.4014733433E-01    0.1193503127E+00    0.6045743777E+00
    0.2500000000E+04    0.2353451420E+00    0.9506501577E-01    0.4024111302E-01    0.1241855050E+00    0.6064393973E+00
    0.2700000000E+04    0.2439316705E+00    0.9096453132E-01    0.4032226493E-01    0.1287249729E+00    0.6080826156E+00
    0.2900000000E+04    0.2520039035E+00    0.8711554655E-01    0.4039318325E-01    0.1329932429E+00    0.6095440455E+00
    0.3100000000E+04    0.2596024643E+00    0.8350070192E-01    0.4045568550E-01    0.1370117070E+00    0.6108543312E+00
    0.3300000000E+04    0.2667632818E+00    0.8010365221E-01    0.4051117818E-01    0.1407992865E+00    0.6120373840E+00
    0.3500000000E+04    0.2735184806E+00    0.7690912982E-01    0.4056076771E-01    0.1443729011E+00    0.6131121664E+00
    0.3700000000E+04    0.2798970269E+00    0.7390293992E-01    0.4060533700E-01    0.1477478081E+00    0.6140939321E+00
    0.3900000000E+04    0.2859252106E+00    0.7107192107E-01    0.4064559965E-01    0.1509378569E+00    0.6149951068E+00
    0.4100000000E+04    0.2916270146E+00    0.6840388939E-01    0.4068213896E-01    0.1539556827E+00    0.6158259264E+00
    0.4300000000E+04    0.2970244043E+00    0.6588757600E-01    0.4071543662E-01    0.1568128588E+00    0.6165949082E+00
    0.4500000000E+04    0.3021375601E+00    0.6351256301E-01    0.4074589404E-01    0.1595200196E+00    0.6173092036E+00
    0.4700000000E+04    0.3069850693E+00    0.6126922080E-01    0.4077384857E-01    0.1620869605E+00    0.6179748670E+00
    0.4900000000E+04    0.3115840855E+00    0.5914864810E-01    0.4079958584E-01    0.1645227226E+00    0.6185970620E+00
    0.1000000000E+04    0.1477523518E+00    0.1352939476E+00    0.3879981309E-01    0.7791423389E-01    0.5800623278E+00
    0.3000000000E+04    0.2558600492E+00    0.8527990326E-01    0.4042539035E-01    0.1350324664E+00    0.6102164532E+00
    0.5000000000E+04    0.3137954113E+00    0.5813180388E-01    0.4081170054E-01    0.1656940485E+00    0.6188932694E+00
    0.7000000000E+04    0.3482473404E+00    0.4254937757E-01    0.4098138015E-01    0.1839583694E+00    0.6233429208E+00
    0.9000000000E+04    0.3701408624E+00    0.3294088223E-01    0.4107325193E-01    0.1955863261E+00    0.6261368186E+00
    0.1100000000E+05    0.3848619160E+00    0.2663402749E-01    0.4112845801E-01    0.2034204197E+00    0.6280903486E+00
    0.1300000000E+05    0.3952393812E+00    0.2227251856E-01    0.4116360786E-01    0.2089547476E+00    0.6295515214E+00
    0.1500000000E+05    0.4028467403E+00    0.1912348306E-01    0.4118669307E-01    0.2130209416E+00    0.6306961970E+00
    0.1700000000E+05    0.4086070299E+00    0.1676733343E-01    0.4120202681E-01    0.2161071891E+00    0.6316237000E+00
    0.1900000000E+05    0.4130880609E+00    0.1495126412E-01    0.4121213461E-01    0.2185140074E+00    0.6323947734E+00
    0.2100000000E+05    0.4166539469E+00    0.1351605599E-01    0.4121858821E-01    0.2204342402E+00    0.6330488613E+00
    0.2300000000E+05    0.4195467677E+00    0.1235751394E-01    0.4122241319E-01    0.2219961898E+00    0.6336128074E+00
    0.2500000000E+05    0.4219326038E+00    0.1140514872E-01    0.4122430453E-01    0.2232879426E+00    0.6341055828E+00
    0.2700000000E+05    0.4239285599E+00    0.1060987449E-01    0.4122474795E-01    0.2243716553E+00    0.6345410171E+00
    0.2900000000E+05    0.4256192151E+00    0.9936633360E-02    0.4122409168E-01    0.2252922544E+00    0.6349294571E+00
    0.3100000000E+05    0.4270669626E+00    0.9359821651E-02    0.4122259087E-01    0.2260829078E+00    0.6352788165E+00
    0.3300000000E+05    0.4283187017E+00    0.8860367137E-02    0.4122043588E-01    0.2267685666E+00    0.6355952635E+00
    0.3500000000E+05    0.4294102787E+00    0.8423810439E-02    0.4121777103E-01    0.2273683170E+00    0.6358836859E+00
    0.3700000000E+05    0.4303695057E+00    0.8039015028E-02    0.4121470718E-01    0.2278969795E+00    0.6361480129E+00
    0.3900000000E+05    0.4312182537E+00    0.7697280898E-02    0.4121133056E-01    0.2283662189E+00    0.6363914440E+00
    0.4100000000E+05    0.4319739326E+00    0.7391723601E-02    0.4120770887E-01    0.2287853282E+00    0.6366166139E+00
    0.4300000000E+05    0.4326505552E+00    0.7116831415E-02    0.4120389582E-01    0.2291617940E+00    0.6368257145E+00
    0.4500000000E+05    0.4332595145E+00    0.6868144413E-02    0.4119993426E-01    0.2295017084E+00    0.6370205862E+00
    0.4700000000E+05    0.4338101592E+00    0.6642018419E-02    0.4119585872E-01    0.2298100749E+00    0.6372027872E+00
    0.4900000000E+05    0.4343102259E+00    0.6435449045E-02    0.4119169709E-01    0.2300910380E+00    0.6373736465E+00
    0.1000000000E+05    0.3781812955E+00    0.2947955979E-01    0.4110410137E-01    0.1998632028E+00    0.6271910000E+00
    0.3000000000E+05    0.4263702185E+00    0.9637492660E-02    0.4122343368E-01    0.2257021043E+00    0.6351086017E+00
    0.5000000000E+05    0.4345433517E+00    0.6338700788E-02    0.4118959126E-01    0.2302223473E+00    0.6374551862E+00
    0.7000000000E+05    0.4376688870E+00    0.4999468699E-02    0.4114667518E-01    0.2320105368E+00    0.6386986249E+00
    0.9000000000E+05    0.4392807622E+00    0.4253958580E-02    0.4110604159E-01    0.2329656301E+00    0.6395022448E+00
    0.1100000000E+06    0.4402527281E+00    0.3767958986E-02    0.4106908539E-01    0.2335623678E+00    0.6400781865E+00
    0.1300000000E+06    0.4408979729E+00    0.3420188649E-02    0.4103561219E-01    0.2339728685E+00    0.6405181536E+00
    0.1500000000E+06    0.4413550949E+00    0.3155721570E-02    0.4100516641E-01    0.2342741952E+00    0.6408691533E+00
    0.1700000000E+06    0.4416944698E+00    0.2945859291E-02    0.4097730434E-01    0.2345059441E+00    0.6411581200E+00
    0.1900000000E+06    0.4419554810E+00    0.2774030130E-02    0.4095164751E-01    0.2346905412E+00    0.6414017548E+00
    0.2100000000E+06    0.4421618275E+00    0.2629932085E-02    0.4092788425E-01    0.2348416447E+00    0.6416110437E+00
    0.2300000000E+06    0.4423285957E+00    0.2506787685E-02    0.4090575962E-01    0.2349680555E+00    0.6417935539E+00
    0.2500000000E+06    0.4424658313E+00    0.2399934039E-02    0.4088506443E-01    0.2350757055E+00    0.6419546928E+00
    0.2700000000E+06    0.4425804738E+00    0.2306044674E-02    0.4086562585E-01    0.2351687425E+00    0.6420984430E+00
    0.2900000000E+06    0.4426774663E+00    0.2222674430E-02    0.4084729990E-01    0.2352501572E+00    0.6422278125E+00
    0.3100000000E+06    0.4427604220E+00    0.2147980280E-02    0.4082996562E-01    0.2353221624E+00    0.6423451223E+00
    0.3300000000E+06    0.4428320410E+00    0.2080543071E-02    0.4081352052E-01    0.2353864320E+00    0.6424521964E+00
    0.3500000000E+06    0.4428943808E+00    0.2019249777E-02    0.4079787711E-01    0.2354442569E+00    0.6425504913E+00
    0.3700000000E+06    0.4429490354E+00    0.1963213409E-02    0.4078296015E-01    0.2354966494E+00    0.6426411861E+00
    0.3900000000E+06    0.4429972581E+00    0.1911717132E-02    0.4076870447E-01    0.2355444153E+00    0.6427252475E+00
    0.4100000000E+06    0.4430400478E+00    0.1864174408E-02    0.4075505328E-01    0.2355882041E+00    0.6428034767E+00
    0.4300000000E+06    0.4430782096E+00    0.1820099987E-02    0.4074195683E-01    0.2356285462E+00    0.6428765442E+00
    0.4500000000E+06    0.4431123998E+00    0.1779088428E-02    0.4072937123E-01    0.2356658787E+00    0.6429450162E+00
    0.4700000000E+06    0.4431431581E+00    0.1740797946E-02    0.4071725764E-01    0.2357005656E+00    0.6430093745E+00
    0.4900000000E+06    0.4431709325E+00    0.1704938084E-02    0.4070558149E-01    0.2357329125E+00    0.6430700325E+00
    0.1000000000E+06    0.4398209026E+00    0.3988472009E-02    0.4108710346E-01    0.2332946389E+00    0.6398114225E+00
    0.3000000000E+06    0.4427205123E+00    0.2184339868E-02    0.4083851560E-01    0.2352872209E+00    0.6422878510E+00
    0.5000000000E+06    0.4431838203E+00    0.1687840513E-02    0.4069989767E-01    0.2357482909E+00    0.6430990872E+00
    0.7000000000E+06    0.4433502328E+00    0.1428390049E-02    0.4060316142E-01    0.2359790787E+00    0.6435514647E+00
    0.9000000000E+06    0.4434263926E+00    0.1262097149E-02    0.4052863431E-01    0.2361261763E+00    0.6438544396E+00
    0.1100000000E+07    0.4434647842E+00    0.1143748180E-02    0.4046792762E-01    0.2362318605E+00    0.6440776946E+00
    0.1300000000E+07    0.4434844557E+00    0.1053926736E-02    0.4041667160E-01    0.2363133907E+00    0.6442521967E+00
    0.1500000000E+07    0.4434938287E+00    0.9827141077E-03    0.4037229511E-01    0.2363793068E+00    0.6443941673E+00
    0.1700000000E+07    0.4434971300E+00    0.9244401130E-03    0.4033315509E-01    0.2364343915E+00    0.6445130693E+00
    0.1900000000E+07    0.4434966782E+00    0.8755953758E-03    0.4029813674E-01    0.2364815667E+00    0.6446148618E+00
    0.2100000000E+07    0.4434938307E+00    0.8338752269E-03    0.4026644839E-01    0.2365227361E+00    0.6447035184E+00
    0.2300000000E+07    0.4434894227E+00    0.7976948385E-03    0.4023750736E-01    0.2365592033E+00    0.6447818094E+00
    0.2500000000E+07    0.4434839884E+00    0.7659234961E-03    0.4021087217E-01    0.2365918972E+00    0.6448517366E+00
    0.2700000000E+07    0.4434778802E+00    0.7377297712E-03    0.4018620019E-01    0.2366215012E+00    0.6449147891E+00
    0.2900000000E+07    0.4434713363E+00    0.7124867194E-03    0.4016322016E-01    0.2366485316E+00    0.6449721025E+00
    0.3100000000E+07    0.4434645207E+00    0.6897113961E-03    0.4014171359E-01    0.2366733875E+00    0.6450245603E+00
    0.3300000000E+07    0.4434575481E+00    0.6690249063E-03    0.4012150188E-01    0.2366963834E+00    0.6450728627E+00
    0.3500000000E+07    0.4434504998E+00    0.6501252237E-03    0.4010243715E-01    0.2367177712E+00    0.6451175732E+00
    0.3700000000E+07    0.4434434335E+00    0.6327682187E-03    0.4008439554E-01    0.2367377556E+00    0.6451591511E+00
    0.3900000000E+07    0.4434363906E+00    0.6167541154E-03    0.4006727233E-01    0.2367565051E+00    0.6451979756E+00
    0.4100000000E+07    0.4434294008E+00    0.6019176326E-03    0.4005097809E-01    0.2367741602E+00    0.6452343631E+00
    0.4300000000E+07    0.4434224851E+00    0.5881206779E-03    0.4003543591E-01    0.2367908387E+00    0.6452685799E+00
    0.4500000000E+07    0.4434156583E+00    0.5752468502E-03    0.4002057913E-01    0.2368066408E+00    0.6453008524E+00
    0.4700000000E+07    0.4434089308E+00    0.5631972432E-03    0.4000634961E-01    0.2368216522E+00    0.6453313741E+00
    0.4900000000E+07    0.4434023093E+00    0.5518872001E-03    0.3999269631E-01    0.2368359468E+00    0.6453603122E+00
    0.1000000000E+07    0.4434487398E+00    0.1198467070E-02    0.4049688438E-01    0.2361828145E+00    0.6439735986E+00
    0.3000000000E+07    0.4434679543E+00    0.7008163440E-03    0.4015229467E-01    0.2366612100E+00    0.6449988909E+00
    0.5000000000E+07    0.4433990397E+00    0.5464863203E-03    0.3998607147E-01    0.2368428456E+00    0.6453742335E+00
    0.7000000000E+07    0.4433395055E+00    0.4639317199E-03    0.3987522623E-01    0.2369550884E+00    0.6455963914E+00
    0.9000000000E+07    0.4432898005E+00    0.4105211145E-03    0.3979188873E-01    0.2370361878E+00    0.6457515213E+00
    0.1100000000E+08    0.4432475621E+00    0.3723249919E-03    0.3972506800E-01    0.2370996148E+00    0.6458695718E+00
    0.1300000000E+08    0.4432109542E+00    0.3432526525E-03    0.3966928093E-01    0.2371516639E+00    0.6459642883E+00
    0.1500000000E+08    0.4431786911E+00    0.3201606247E-03    0.3962139196E-01    0.2371957796E+00    0.6460430597E+00
    0.1700000000E+08    0.4431498659E+00    0.3012401122E-03    0.3957943828E-01    0.2372340507E+00    0.6461102916E+00
    0.1900000000E+08    0.4431238226E+00    0.2853665979E-03    0.3954210899E-01    0.2372678381E+00    0.6461688109E+00
    0.2100000000E+08    0.4431000739E+00    0.2717992066E-03    0.3950848488E-01    0.2372980780E+00    0.6462205345E+00
    0.2300000000E+08    0.4430782490E+00    0.2600272377E-03    0.3947789633E-01    0.2373254415E+00    0.6462668185E+00
    0.2500000000E+08    0.4430580596E+00    0.2496856476E-03    0.3944984041E-01    0.2373504263E+00    0.6463086563E+00
    0.2700000000E+08    0.4430392775E+00    0.2405056205E-03    0.3942392970E-01    0.2373734110E+00    0.6463467961E+00
