  Pressure (Pa) 22mC5-400 (mol/kg) 2mC6-400 (mol/kg) 3mC6-400 (mol/kg) 23mC5-400 (mol/kg) C7-400 (mol/kg)
    0.1000000000E+01    0.5280574344E-03    0.7864693207E-02    0.1043284065E-02    0.2781634509E-03    0.6772062144E-02
    0.3000000000E+01    0.1556816897E-02    0.2262298344E-01    0.3004732079E-02    0.8200879306E-03    0.1950752861E-01
    0.5000000000E+01    0.2551126549E-02    0.3621395427E-01    0.4816349356E-02    0.1343874713E-02    0.3127448625E-01
    0.7000000000E+01    0.3513222656E-02    0.4876990841E-01    0.6495699206E-02    0.1850701047E-02    0.4218631039E-01
    0.9000000000E+01    0.4445143661E-02    0.6040353511E-01    0.8057666549E-02    0.2341640050E-02    0.5233909892E-01
    0.1100000000E+02    0.5348751936E-02    0.7121146475E-01    0.9514951987E-02    0.2817672154E-02    0.6181485798E-01
    0.1300000000E+02    0.6225752707E-02    0.8127707055E-01    0.1087846021E-01    0.3279695070E-02    0.7068400651E-01
    0.1500000000E+02    0.7077710565E-02    0.9067269809E-01    0.1215760821E-01    0.3728532475E-02    0.7900736386E-01
    0.1700000000E+02    0.7906063926E-02    0.9946145517E-01    0.1336057196E-01    0.4164941630E-02    0.8683774085E-01
    0.1900000000E+02    0.8712137721E-02    0.1076986608E+00    0.1449448553E-01    0.4589620053E-02    0.9422122390E-01
    0.2100000000E+02    0.9497154580E-02    0.1154330268E+00    0.1556560291E-01    0.5003211411E-02    0.1011982190E+00
    0.2300000000E+02    0.1026224470E-01    0.1227076290E+00    0.1657943056E-01    0.5406310710E-02    0.1078043066E+00
    0.2500000000E+02    0.1100845458E-01    0.1295607094E+00    0.1754083658E-01    0.5799468899E-02    0.1140709462E+00
    0.2700000000E+02    0.1173675479E-01    0.1360263447E+00    0.1845414125E-01    0.6183196953E-02    0.1200260604E+00
    0.2900000000E+02    0.1244804685E-01    0.1421350054E+00    0.1932319260E-01    0.6557969501E-02    0.1256945223E+00
    0.3100000000E+02    0.1314316943E-01    0.1479140256E+00    0.2015142966E-01    0.6924228074E-02    0.1310985642E+00
    0.3300000000E+02    0.1382290378E-01    0.1533880018E+00    0.2094193588E-01    0.7282383995E-02    0.1362581216E+00
    0.3500000000E+02    0.1448797873E-01    0.1585791305E+00    0.2169748428E-01    0.7632820975E-02    0.1411911252E+00
    0.3700000000E+02    0.1513907507E-01    0.1635074975E+00    0.2242057589E-01    0.7975897442E-02    0.1459137491E+00
    0.3900000000E+02    0.1577682955E-01    0.1681913253E+00    0.2311347266E-01    0.8311948634E-02    0.1504406224E+00
    0.4100000000E+02    0.1640183845E-01    0.1726471862E+00    0.2377822554E-01    0.8641288488E-02    0.1547850116E+00
    0.4300000000E+02    0.1701466081E-01    0.1768901871E+00    0.2441669884E-01    0.8964211341E-02    0.1589589769E+00
    0.4500000000E+02    0.1761582140E-01    0.1809341292E+00    0.2503059115E-01    0.9280993475E-02    0.1629735079E+00
    0.4700000000E+02    0.1820581332E-01    0.1847916473E+00    0.2562145357E-01    0.9591894511E-02    0.1668386410E+00
    0.4900000000E+02    0.1878510044E-01    0.1884743314E+00    0.2619070554E-01    0.9897158676E-02    0.1705635617E+00
    0.1000000000E+02    0.4900376835E-02    0.6590521907E-01    0.8798674823E-02    0.2581461527E-02    0.5715695985E-01
    0.3000000000E+02    0.1279757921E-01    0.1450641233E+00    0.1974221243E-01    0.6742136650E-02    0.1284282996E+00
    0.5000000000E+02    0.1907086720E-01    0.1902534734E+00    0.2646763862E-01    0.1004774933E-01    0.1723761025E+00
    0.7000000000E+02    0.2431788893E-01    0.2188350754E+00    0.3113678548E-01    0.1281295473E-01    0.2029814462E+00
    0.9000000000E+02    0.2886457168E-01    0.2380731317E+00    0.3463187035E-01    0.1520935914E-01    0.2259565141E+00
    0.1100000000E+03    0.3290575057E-01    0.2515594074E+00    0.3738451548E-01    0.1733955138E-01    0.2440990506E+00
    0.1300000000E+03    0.3656611631E-01    0.2612745227E+00    0.3963282526E-01    0.1926918905E-01    0.2589540551E+00
    0.1500000000E+03    0.3992978961E-01    0.2683986866E+00    0.4151991708E-01    0.2104256874E-01    0.2714511223E+00
    0.1700000000E+03    0.4305595620E-01    0.2736773187E+00    0.4313754841E-01    0.2269085776E-01    0.2821868326E+00
    0.1900000000E+03    0.4598770923E-01    0.2776031276E+00    0.4454758545E-01    0.2423674974E-01    0.2915638062E+00
    0.2100000000E+03    0.4875733069E-01    0.2805139132E+00    0.4579345946E-01    0.2569724547E-01    0.2998649521E+00
    0.2300000000E+03    0.5138959140E-01    0.2826483405E+00    0.4690668621E-01    0.2708539042E-01    0.3072957483E+00
    0.2500000000E+03    0.5390389281E-01    0.2841793330E+00    0.4791077558E-01    0.2841140259E-01    0.3140096107E+00
    0.2700000000E+03    0.5631570271E-01    0.2852348907E+00    0.4882368033E-01    0.2968342841E-01    0.3201237924E+00
    0.2900000000E+03    0.5863754500E-01    0.2859115193E+00    0.4965938733E-01    0.3090806402E-01    0.3257297212E+00
    0.3100000000E+03    0.6087969888E-01    0.2862831518E+00    0.5042898463E-01    0.3209072341E-01    0.3308999353E+00
    0.3300000000E+03    0.6305070345E-01    0.2864072264E+00    0.5114139674E-01    0.3323590415E-01    0.3356928661E+00
    0.3500000000E+03    0.6515772893E-01    0.2863289212E+00    0.5180390366E-01    0.3434738287E-01    0.3401562147E+00
    0.3700000000E+03    0.6720685437E-01    0.2860841630E+00    0.5242251484E-01    0.3542836153E-01    0.3443293877E+00
    0.3900000000E+03    0.6920327866E-01    0.2857018031E+00    0.5300224391E-01    0.3648157854E-01    0.3482452859E+00
    0.4100000000E+03    0.7115148311E-01    0.2852052149E+00    0.5354731377E-01    0.3750939434E-01    0.3519316414E+00
    0.4300000000E+03    0.7305535820E-01    0.2846134845E+00    0.5406131201E-01    0.3851385822E-01    0.3554120312E+00
    0.4500000000E+03    0.7491830362E-01    0.2839423086E+00    0.5454731048E-01    0.3949676094E-01    0.3587066567E+00
    0.4700000000E+03    0.7674330805E-01    0.2832046803E+00    0.5500795812E-01    0.4045967680E-01    0.3618329503E+00
    0.4900000000E+03    0.7853301330E-01    0.2824114180E+00    0.5544555415E-01    0.4140399739E-01    0.3648060533E+00
    0.1000000000E+03    0.3093935266E-01    0.2453863945E+00    0.3608313338E-01    0.1630299464E-01    0.2355159661E+00
    0.3000000000E+03    0.5976801340E-01    0.2861315404E+00    0.5005184813E-01    0.3150434074E-01    0.3283653551E+00
    0.5000000000E+03    0.7941537251E-01    0.2819968137E+00    0.5565634525E-01    0.4186957625E-01    0.3662393583E+00
    0.7000000000E+03    0.9566301697E-01    0.2723488857E+00    0.5903829383E-01    0.5044387909E-01    0.3893458680E+00
    0.9000000000E+03    0.1099901681E+00    0.2620198972E+00    0.6140739882E-01    0.5800645682E-01    0.4056710711E+00
    0.1100000000E+04    0.1230130783E+00    0.2520405505E+00    0.6320332635E-01    0.6488194043E-01    0.4181351404E+00
    0.1300000000E+04    0.1350531183E+00    0.2426488173E+00    0.6463349836E-01    0.7123961750E-01    0.4281225388E+00
    0.1500000000E+04    0.1463018082E+00    0.2338709486E+00    0.6581159585E-01    0.7718036794E-01    0.4363952571E+00
    0.1700000000E+04    0.1568840905E+00    0.2256724349E+00    0.6680636632E-01    0.8276999697E-01    0.4434158249E+00
    0.1900000000E+04    0.1668871093E+00    0.2180037667E+00    0.6766239413E-01    0.8805439726E-01    0.4494852134E+00
    0.2100000000E+04    0.1763749223E+00    0.2108151931E+00    0.6841014743E-01    0.9306729958E-01    0.4548097354E+00
    0.2300000000E+04    0.1853966853E+00    0.2040612726E+00    0.6907131377E-01    0.9783458511E-01    0.4595366654E+00
    0.2500000000E+04    0.1939915073E+00    0.1977018711E+00    0.6966184318E-01    0.1023768432E+00    0.4637746050E+00
    0.2700000000E+04    0.2021914761E+00    0.1917019358E+00    0.7019378463E-01    0.1067109656E+00    0.4676057998E+00
    0.2900000000E+04    0.2100236208E+00    0.1860308972E+00    0.7067644620E-01    0.1108511803E+00    0.4710939379E+00
    0.3100000000E+04    0.2175112256E+00    0.1806620149E+00    0.7111715654E-01    0.1148097435E+00    0.4742892773E+00
    0.3300000000E+04    0.2246747317E+00    0.1755717792E+00    0.7152178083E-01    0.1185974152E+00    0.4772321272E+00
    0.3500000000E+04    0.2315323726E+00    0.1707393973E+00    0.7189508011E-01    0.1222237932E+00    0.4799552770E+00
    0.3700000000E+04    0.2381006270E+00    0.1661463665E+00    0.7224096762E-01    0.1256975522E+00    0.4824857311E+00
    0.3900000000E+04    0.2443945505E+00    0.1617761226E+00    0.7256269540E-01    0.1290266180E+00    0.4848459751E+00
    0.4100000000E+04    0.2504280190E+00    0.1576137532E+00    0.7286299272E-01    0.1322182963E+00    0.4870549151E+00
    0.4300000000E+04    0.2562139126E+00    0.1536457622E+00    0.7314417034E-01    0.1352793686E+00    0.4891285876E+00
    0.4500000000E+04    0.2617642546E+00    0.1498598773E+00    0.7340820037E-01    0.1382161662E+00    0.4910807032E+00
    0.4700000000E+04    0.2670903191E+00    0.1462448905E+00    0.7365677805E-01    0.1410346265E+00    0.4929230676E+00
    0.4900000000E+04    0.2722027154E+00    0.1427905267E+00    0.7389137022E-01    0.1437403371E+00    0.4946659135E+00
    0.1000000000E+04    0.1166403761E+00    0.2569634910E+00    0.6236093562E-01    0.6151729677E-01    0.4122785940E+00
    0.3000000000E+04    0.2138091550E+00    0.1833102251E+00    0.7090164922E-01    0.1128524652E+00    0.4727254875E+00
    0.5000000000E+04    0.2746819383E+00    0.1411205949E+00    0.7400382730E-01    0.1450525706E+00    0.4955028503E+00
    0.7000000000E+04    0.3152137029E+00    0.1142085715E+00    0.7575669114E-01    0.1665184664E+00    0.5086845127E+00
    0.9000000000E+04    0.3430082320E+00    0.9599607653E-01    0.7692252903E-01    0.1812571861E+00    0.5176200170E+00
    0.1100000000E+05    0.3626440554E+00    0.8309485805E-01    0.7776944012E-01    0.1916836375E+00    0.5242182456E+00
    0.1300000000E+05    0.3769289365E+00    0.7359414182E-01    0.7842002101E-01    0.1992798042E+00    0.5293619175E+00
    0.1500000000E+05    0.3876082202E+00    0.6636040813E-01    0.7893952409E-01    0.2049674711E+00    0.5335251791E+00
    0.1700000000E+05    0.3957900518E+00    0.6069318483E-01    0.7936635518E-01    0.2093322207E+00    0.5369892887E+00
    0.1900000000E+05    0.4021959188E+00    0.5614345278E-01    0.7972480771E-01    0.2127555163E+00    0.5399333896E+00
    0.2100000000E+05    0.4073079160E+00    0.5241364015E-01    0.8003110665E-01    0.2154923831E+00    0.5424778828E+00
    0.2300000000E+05    0.4114563602E+00    0.4930051982E-01    0.8029655934E-01    0.2177176485E+00    0.5447071692E+00
    0.2500000000E+05    0.4148729476E+00    0.4666149221E-01    0.8052932065E-01    0.2195540069E+00    0.5466824555E+00
    0.2700000000E+05    0.4177237436E+00    0.4439404136E-01    0.8073544021E-01    0.2210894452E+00    0.5484493860E+00
    0.2900000000E+05    0.4201301408E+00    0.4242284695E-01    0.8091951326E-01    0.2223883158E+00    0.5500428069E+00
    0.3100000000E+05    0.4221824789E+00    0.4069147855E-01    0.8108510125E-01    0.2234985361E+00    0.5514898564E+00
    0.3300000000E+05    0.4239490904E+00    0.3915690889E-01    0.8123501268E-01    0.2244563711E+00    0.5528120355E+00
    0.3500000000E+05    0.4254824319E+00    0.3778580653E-01    0.8137149592E-01    0.2252896760E+00    0.5540266359E+00
    0.3700000000E+05    0.4268233181E+00    0.3655197834E-01    0.8149637499E-01    0.2260201371E+00    0.5551477478E+00
    0.3900000000E+05    0.4280038985E+00    0.3543457139E-01    0.8161114709E-01    0.2266648467E+00    0.5561869870E+00
    0.4100000000E+05    0.4290497832E+00    0.3441678667E-01    0.8171705415E-01    0.2272374288E+00    0.5571540292E+00
    0.4300000000E+05    0.4299815844E+00    0.3348494411E-01    0.8181513603E-01    0.2277488556E+00    0.5580570095E+00
    0.4500000000E+05    0.4308160500E+00    0.3262779285E-01    0.8190627086E-01    0.2282080478E+00    0.5589028255E+00
    0.4700000000E+05    0.4315669074E+00    0.3183599556E-01    0.8199120595E-01    0.2286223223E+00    0.5596973700E+00
    0.4900000000E+05    0.4322454999E+00    0.3110173807E-01    0.8207058170E-01    0.2289977290E+00    0.5604457130E+00
    0.1000000000E+05    0.3536390035E+00    0.8902492345E-01    0.7737626908E-01    0.1869002203E+00    0.5211424924E+00
    0.3000000000E+05    0.4211958638E+00    0.4153013757E-01    0.8100442731E-01    0.2229645115E+00    0.5507831714E+00
    0.5000000000E+05    0.4325607111E+00    0.3075408626E-01    0.8210836045E-01    0.2291724656E+00    0.5608039538E+00
    0.7000000000E+05    0.4367010531E+00    0.2565685139E-01    0.8267337673E-01    0.2314977063E+00    0.5663538104E+00
    0.9000000000E+05    0.4387543516E+00    0.2254130992E-01    0.8302225383E-01    0.2326865502E+00    0.5700233335E+00
    0.1100000000E+06    0.4399548992E+00    0.2037975567E-01    0.8326035846E-01    0.2334043927E+00    0.5726893696E+00
    0.1300000000E+06    0.4407323015E+00    0.1876338770E-01    0.8343337736E-01    0.2338849440E+00    0.5747439686E+00
    0.1500000000E+06    0.4412718203E+00    0.1749354295E-01    0.8356462631E-01    0.2342299643E+00    0.5763927769E+00
    0.1700000000E+06    0.4416654413E+00    0.1646046047E-01    0.8366735402E-01    0.2344904912E+00    0.5777556340E+00
    0.1900000000E+06    0.4419636481E+00    0.1559783129E-01    0.8374968891E-01    0.2346948291E+00    0.5789078193E+00
    0.2100000000E+06    0.4421963047E+00    0.1486287266E-01    0.8381691412E-01    0.2348599024E+00    0.5798993649E+00
    0.2300000000E+06    0.4423821370E+00    0.1422655184E-01    0.8387262179E-01    0.2349964402E+00    0.5807650206E+00
    0.2500000000E+06    0.4425334471E+00    0.1366836355E-01    0.8391934439E-01    0.2351115703E+00    0.5815297907E+00
    0.2700000000E+06    0.4426586310E+00    0.1317334789E-01    0.8395892125E-01    0.2352102127E+00    0.5822121977E+00
    0.2900000000E+06    0.4427636036E+00    0.1273029361E-01    0.8399272196E-01    0.2352958735E+00    0.5828263001E+00
    0.3100000000E+06    0.4428526458E+00    0.1233060671E-01    0.8402178818E-01    0.2353711193E+00    0.5833829907E+00
    0.3300000000E+06    0.4429289274E+00    0.1196757119E-01    0.8404692669E-01    0.2354378733E+00    0.5838908608E+00
    0.3500000000E+06    0.4429948433E+00    0.1163585046E-01    0.8406877234E-01    0.2354976056E+00    0.5843567916E+00
    0.3700000000E+06    0.4430522346E+00    0.1133114197E-01    0.8408783166E-01    0.2355514594E+00    0.5847863699E+00
    0.3900000000E+06    0.4431025385E+00    0.1104993224E-01    0.8410451380E-01    0.2356003380E+00    0.5851841863E+00
    0.4100000000E+06    0.4431468926E+00    0.1078931937E-01    0.8411915289E-01    0.2356449649E+00    0.5855540531E+00
    0.4300000000E+06    0.4431862081E+00    0.1054688217E-01    0.8413202450E-01    0.2356859265E+00    0.5858991668E+00
    0.4500000000E+06    0.4432212230E+00    0.1032058211E-01    0.8414335791E-01    0.2357237036E+00    0.5862222308E+00
    0.4700000000E+06    0.4432525414E+00    0.1010868863E-01    0.8415334542E-01    0.2357586941E+00    0.5865255495E+00
    0.4900000000E+06    0.4432806616E+00    0.9909721568E-02    0.8416214952E-01    0.2357912306E+00    0.5868111011E+00
    0.1000000000E+06    0.4394255422E+00    0.2137416192E-01    0.8315153703E-01    0.2330849836E+00    0.5714510024E+00
    0.3000000000E+06    0.4428098965E+00    0.1252548625E-01    0.8400779180E-01    0.2353346656E+00    0.5831112389E+00
    0.5000000000E+06    0.4432936549E+00    0.9814680131E-02    0.8416615179E-01    0.2358066678E+00    0.5869477576E+00
    0.7000000000E+06    0.4434573445E+00    0.8359124040E-02    0.8420878056E-01    0.2360360533E+00    0.5890627861E+00
    0.9000000000E+06    0.4435280277E+00    0.7413940030E-02    0.8421367911E-01    0.2361802702E+00    0.5904614424E+00
    0.1100000000E+07    0.4435610485E+00    0.6735952268E-02    0.8420297460E-01    0.2362831212E+00    0.5914795531E+00
    0.1300000000E+07    0.4435759339E+00    0.6218635565E-02    0.8418508757E-01    0.2363621234E+00    0.5922662681E+00
    0.1500000000E+07    0.4435811223E+00    0.5806888305E-02    0.8416378654E-01    0.2364258277E+00    0.5928995207E+00
    0.1700000000E+07    0.4435807644E+00    0.5468935751E-02    0.8414093672E-01    0.2364789775E+00    0.5934246218E+00
    0.1900000000E+07    0.4435770938E+00    0.5184984602E-02    0.8411752301E-01    0.2365244500E+00    0.5938699963E+00
    0.2100000000E+07    0.4435713937E+00    0.4941970904E-02    0.8409408655E-01    0.2365641100E+00    0.5942545229E+00
    0.2300000000E+07    0.4435644384E+00    0.4730874853E-02    0.8407093029E-01    0.2365992291E+00    0.5945913103E+00
    0.2500000000E+07    0.4435567133E+00    0.4545239764E-02    0.8404822318E-01    0.2366307105E+00    0.5948897915E+00
    0.2700000000E+07    0.4435485313E+00    0.4380304682E-02    0.8402605626E-01    0.2366592166E+00    0.5951569563E+00
    0.2900000000E+07    0.4435400989E+00    0.4232470992E-02    0.8400447407E-01    0.2366852471E+00    0.5953981123E+00
    0.3100000000E+07    0.4435315542E+00    0.4098960881E-02    0.8398349306E-01    0.2367091875E+00    0.5956173747E+00
    0.3300000000E+07    0.4435229909E+00    0.3977591046E-02    0.8396311258E-01    0.2367313411E+00    0.5958179910E+00
    0.3500000000E+07    0.4435144726E+00    0.3866618321E-02    0.8394332169E-01    0.2367519504E+00    0.5960025646E+00
    0.3700000000E+07    0.4435060425E+00    0.3764631665E-02    0.8392410334E-01    0.2367712126E+00    0.5961732111E+00
    0.3900000000E+07    0.4434977298E+00    0.3670474900E-02    0.8390543708E-01    0.2367892896E+00    0.5963316699E+00
    0.4100000000E+07    0.4434895536E+00    0.3583190354E-02    0.8388730077E-01    0.2368063163E+00    0.5964793874E+00
    0.4300000000E+07    0.4434815262E+00    0.3501977038E-02    0.8386967164E-01    0.2368224061E+00    0.5966175771E+00
    0.4500000000E+07    0.4434736549E+00    0.3426159119E-02    0.8385252700E-01    0.2368376549E+00    0.5967472665E+00
    0.4700000000E+07    0.4434659433E+00    0.3355161817E-02    0.8383584466E-01    0.2368521451E+00    0.5968693323E+00
    0.4900000000E+07    0.4434583925E+00    0.3288492752E-02    0.8381960323E-01    0.2368659475E+00    0.5969845278E+00
    0.1000000000E+07    0.4435476270E+00    0.7049947849E-02    0.8420958756E-01    0.2362354594E+00    0.5910063390E+00
    0.3000000000E+07    0.4435358339E+00    0.4164073795E-02    0.8399390815E-01    0.2366974580E+00    0.5955102599E+00
    0.5000000000E+07    0.4434546773E+00    0.3256646310E-02    0.8381164140E-01    0.2368726102E+00    0.5970397563E+00
    0.7000000000E+07    0.4433881778E+00    0.2769063681E-02    0.8367111999E-01    0.2369811634E+00    0.5979038237E+00
    0.9000000000E+07    0.4433338099E+00    0.2452821281E-02    0.8355734920E-01    0.2370597930E+00    0.5984867693E+00
    0.1100000000E+08    0.4432881578E+00    0.2226285638E-02    0.8346176879E-01    0.2371214121E+00    0.5989183987E+00
    0.1300000000E+08    0.4432489047E+00    0.2053650863E-02    0.8337931291E-01    0.2371720606E+00    0.5992569352E+00
    0.1500000000E+08    0.4432145100E+00    0.1916397581E-02    0.8330676846E-01    0.2372150480E+00    0.5995330773E+00
    0.1700000000E+08    0.4431839170E+00    0.1803852443E-02    0.8324197553E-01    0.2372523835E+00    0.5997648218E+00
    0.1900000000E+08    0.4431563750E+00    0.1709371544E-02    0.8318341341E-01    0.2372853780E+00    0.5999635458E+00
    0.2100000000E+08    0.4431313334E+00    0.1628573127E-02    0.8312997102E-01    0.2373149341E+00    0.6001368600E+00
    0.2300000000E+08    0.4431083775E+00    0.1558434155E-02    0.8308081178E-01    0.2373416997E+00    0.6002900845E+00
    0.2500000000E+08    0.4430871871E+00    0.1496792201E-02    0.8303528986E-01    0.2373661553E+00    0.6004270721E+00
    0.2700000000E+08    0.4430675103E+00    0.1442053850E-02    0.8299289613E-01    0.2373886673E+00    0.6005506948E+00
