  Pressure (Pa) 22mC5-400 (mol/kg) 2mC6-400 (mol/kg) 3mC6-400 (mol/kg) 23mC5-400 (mol/kg) C7-400 (mol/kg)
    0.1000000000E+01    0.5301610445E-03    0.3945726943E-02    0.4703423412E-02    0.1861806875E-03    0.5088379777E-02
    0.3000000000E+01    0.1575080705E-02    0.1142423324E-01    0.1359208999E-01    0.5531360889E-03    0.1470709334E-01
    0.5000000000E+01    0.2600105046E-02    0.1840098878E-01    0.2185312845E-01    0.9131085671E-03    0.2364979600E-01
    0.7000000000E+01    0.3605969010E-02    0.2492733482E-01    0.2955300590E-01    0.1266356044E-02    0.3198797414E-01
    0.9000000000E+01    0.4593370320E-02    0.3104759611E-01    0.3674904822E-01    0.1613123381E-02    0.3978328990E-01
    0.1100000000E+02    0.5562971842E-02    0.3680025519E-01    0.4349096325E-01    0.1953643207E-02    0.4708921738E-01
    0.1300000000E+02    0.6515403767E-02    0.4221889779E-01    0.4982206892E-01    0.2288136686E-02    0.5395236205E-01
    0.1500000000E+02    0.7451265625E-02    0.4733297953E-01    0.5578029100E-01    0.2616814221E-02    0.6041353276E-01
    0.1700000000E+02    0.8371128160E-02    0.5216845232E-01    0.6139897939E-01    0.2939876114E-02    0.6650861879E-01
    0.1900000000E+02    0.9275535059E-02    0.5674827944E-01    0.6670758032E-01    0.3257513173E-02    0.7226931212E-01
    0.2100000000E+02    0.1016500456E-01    0.6109286181E-01    0.7173219326E-01    0.3569907274E-02    0.7772370597E-01
    0.2300000000E+02    0.1104003096E-01    0.6522039281E-01    0.7649603499E-01    0.3877231891E-02    0.8289679355E-01
    0.2500000000E+02    0.1190108598E-01    0.6914715530E-01    0.8101982852E-01    0.4179652576E-02    0.8781088598E-01
    0.2700000000E+02    0.1274862007E-01    0.7288777146E-01    0.8532213049E-01    0.4477327421E-02    0.9248596430E-01
    0.2900000000E+02    0.1358306363E-01    0.7645541420E-01    0.8941960828E-01    0.4770407474E-02    0.9693997729E-01
    0.3100000000E+02    0.1440482810E-01    0.7986198662E-01    0.9332727560E-01    0.5059037137E-02    0.1011890947E+00
    0.3300000000E+02    0.1521430706E-01    0.8311827526E-01    0.9705869352E-01    0.5343354533E-02    0.1052479236E+00
    0.3500000000E+02    0.1601187712E-01    0.8623408137E-01    0.1006261430E+00    0.5623491848E-02    0.1091296935E+00
    0.3700000000E+02    0.1679789895E-01    0.8921833390E-01    0.1040407730E+00    0.5899575654E-02    0.1128464159E+00
    0.3900000000E+02    0.1757271803E-01    0.9207918711E-01    0.1073127289E+00    0.6171727207E-02    0.1164090225E+00
    0.4100000000E+02    0.1833666551E-01    0.9482410510E-01    0.1104512636E+00    0.6440062730E-02    0.1198274840E+00
    0.4300000000E+02    0.1909005896E-01    0.9745993543E-01    0.1134648339E+00    0.6704693673E-02    0.1231109145E+00
    0.4500000000E+02    0.1983320303E-01    0.9999297335E-01    0.1163611848E+00    0.6965726965E-02    0.1262676622E+00
    0.4700000000E+02    0.2056639017E-01    0.1024290181E+00    0.1191474236E+00    0.7223265241E-02    0.1293053884E+00
    0.4900000000E+02    0.2128990118E-01    0.1047734221E+00    0.1218300844E+00    0.7477407059E-02    0.1322311373E+00
    0.1000000000E+02    0.5080355926E-02    0.3396767180E-01    0.4017392720E-01    0.1784150150E-02    0.4349436697E-01
    0.3000000000E+02    0.1399550575E-01    0.7817813551E-01    0.9139628878E-01    0.4915269828E-02    0.9908920071E-01
    0.5000000000E+02    0.2164811287E-01    0.1059128201E+00    0.1231344724E+00    0.7603234032E-02    0.1336540682E+00
    0.7000000000E+02    0.2836466144E-01    0.1249142751E+00    0.1450196432E+00    0.9962627070E-02    0.1575660486E+00
    0.9000000000E+02    0.3436399489E-01    0.1386418299E+00    0.1611860401E+00    0.1207025780E-01    0.1752847276E+00
    0.1100000000E+03    0.3979883281E-01    0.1489103496E+00    0.1737141636E+00    0.1397972887E-01    0.1890568483E+00
    0.1300000000E+03    0.4477934012E-01    0.1567778050E+00    0.1837705821E+00    0.1572970789E-01    0.2001435745E+00
    0.1500000000E+03    0.4938721951E-01    0.1629083073E+00    0.1920629582E+00    0.1734887306E-01    0.2093107748E+00
    0.1700000000E+03    0.5368450948E-01    0.1677421369E+00    0.1990470926E+00    0.1885900087E-01    0.2170522624E+00
    0.1900000000E+03    0.5771928124E-01    0.1715836839E+00    0.2050307621E+00    0.2027696546E-01    0.2237018290E+00
    0.2100000000E+03    0.6152944496E-01    0.1746504983E+00    0.2102298804E+00    0.2161607450E-01    0.2294938794E+00
    0.2300000000E+03    0.6514536278E-01    0.1771023218E+00    0.2148007672E+00    0.2288698629E-01    0.2345982919E+00
    0.2500000000E+03    0.6859168583E-01    0.1790591073E+00    0.2188596300E+00    0.2409835448E-01    0.2391414799E+00
    0.2700000000E+03    0.7188867313E-01    0.1806126519E+00    0.2224948244E+00    0.2525729106E-01    0.2432196530E+00
    0.2900000000E+03    0.7505315629E-01    0.1818343549E+00    0.2257748448E+00    0.2636970488E-01    0.2469074669E+00
    0.3100000000E+03    0.7809925717E-01    0.1827805375E+00    0.2287536925E+00    0.2744055364E-01    0.2502638365E+00
    0.3300000000E+03    0.8103892971E-01    0.1834961789E+00    0.2314745778E+00    0.2847403397E-01    0.2533359483E+00
    0.3500000000E+03    0.8388237473E-01    0.1840175943E+00    0.2339725321E+00    0.2947372712E-01    0.2561620932E+00
    0.3700000000E+03    0.8663836142E-01    0.1843743904E+00    0.2362762898E+00    0.3044271178E-01    0.2587737077E+00
    0.3900000000E+03    0.8931447934E-01    0.1845909163E+00    0.2384096680E+00    0.3138365250E-01    0.2611968724E+00
    0.4100000000E+03    0.9191733806E-01    0.1846873551E+00    0.2403925948E+00    0.3229886982E-01    0.2634534288E+00
    0.4300000000E+03    0.9445272678E-01    0.1846805569E+00    0.2422418877E+00    0.3319039629E-01    0.2655618251E+00
    0.4500000000E+03    0.9692574311E-01    0.1845846806E+00    0.2439718494E+00    0.3406002164E-01    0.2675377650E+00
    0.4700000000E+03    0.9934089787E-01    0.1844116948E+00    0.2455947310E+00    0.3490932962E-01    0.2693947107E+00
    0.4900000000E+03    0.1017022009E+00    0.1841717722E+00    0.2471210942E+00    0.3573972810E-01    0.2711442784E+00
    0.1000000000E+03    0.3714429141E-01    0.1441302347E+00    0.1678176646E+00    0.1304706612E-01    0.1825698444E+00
    0.3000000000E+03    0.7659021197E-01    0.1823388448E+00    0.2272989966E+00    0.2691004666E-01    0.2486238960E+00
    0.5000000000E+03    0.1028637919E+00    0.1840294757E+00    0.2478509923E+00    0.3614823436E-01    0.2719819992E+00
    0.7000000000E+03    0.1239649670E+00    0.1792262897E+00    0.2590771274E+00    0.4357018304E-01    0.2849681449E+00
    0.9000000000E+03    0.1421640704E+00    0.1727841509E+00    0.2663892689E+00    0.4997303163E-01    0.2935532519E+00
    0.1100000000E+04    0.1584205798E+00    0.1660172773E+00    0.2716272636E+00    0.5569367603E-01    0.2997839641E+00
    0.1300000000E+04    0.1732334970E+00    0.1593632262E+00    0.2756112812E+00    0.6090732666E-01    0.3045791716E+00
    0.1500000000E+04    0.1868986713E+00    0.1529782262E+00    0.2787695143E+00    0.6571785855E-01    0.3084217017E+00
    0.1700000000E+04    0.1996084323E+00    0.1469139192E+00    0.2813502039E+00    0.7019279626E-01    0.3115931290E+00
    0.1900000000E+04    0.2114968080E+00    0.1411796697E+00    0.2835084693E+00    0.7437919221E-01    0.3142703754E+00
    0.2100000000E+04    0.2226624672E+00    0.1357671628E+00    0.2853468713E+00    0.7831168323E-01    0.3165710263E+00
    0.2300000000E+04    0.2331813607E+00    0.1306608806E+00    0.2869362808E+00    0.8201692971E-01    0.3185767362E+00
    0.2500000000E+04    0.2431141423E+00    0.1258427827E+00    0.2883274396E+00    0.8551622147E-01    0.3203462443E+00
    0.2700000000E+04    0.2525107483E+00    0.1212944421E+00    0.2895577535E+00    0.8882708621E-01    0.3219230479E+00
    0.2900000000E+04    0.2614133423E+00    0.1169980122E+00    0.2906554793E+00    0.9196432325E-01    0.3233401492E+00
    0.3100000000E+04    0.2698582722E+00    0.1129366361E+00    0.2916424099E+00    0.9494069094E-01    0.3246231088E+00
    0.3300000000E+04    0.2778774108E+00    0.1090945889E+00    0.2925356564E+00    0.9776737718E-01    0.3257920782E+00
    0.3500000000E+04    0.2854990961E+00    0.1054572909E+00    0.2933488642E+00    0.1004543296E+00    0.3268631914E+00
    0.3700000000E+04    0.2927488073E+00    0.1020112614E+00    0.2940930642E+00    0.1030104930E+00    0.3278495418E+00
    0.3900000000E+04    0.2996496609E+00    0.9874404707E-01    0.2947772823E+00    0.1054439831E+00    0.3287618834E+00
    0.4100000000E+04    0.3062227823E+00    0.9564414265E-01    0.2954089838E+00    0.1077622173E+00    0.3296091438E+00
    0.4300000000E+04    0.3124875892E+00    0.9270091198E-01    0.2959944032E+00    0.1099720141E+00    0.3303988053E+00
    0.4500000000E+04    0.3184620133E+00    0.8990451360E-01    0.2965387924E+00    0.1120796705E+00    0.3311371934E+00
    0.4700000000E+04    0.3241626748E+00    0.8724583207E-01    0.2970466110E+00    0.1140910237E+00    0.3318296979E+00
    0.4900000000E+04    0.3296050253E+00    0.8471641564E-01    0.2975216732E+00    0.1160115009E+00    0.3324809439E+00
    0.1000000000E+04    0.1504973939E+00    0.1694038127E+00    0.2692030544E+00    0.5290537247E-01    0.2968907990E+00
    0.3000000000E+04    0.2656909309E+00    0.1149389524E+00    0.2911616312E+00    0.9347188413E-01    0.3239970293E+00
    0.5000000000E+04    0.3322338718E+00    0.8349770814E-01    0.2977479648E+00    0.1169392550E+00    0.3327923648E+00
    0.7000000000E+04    0.3742782638E+00    0.6427962478E-01    0.3011545374E+00    0.1317874758E+00    0.3375895884E+00
    0.9000000000E+04    0.4021628144E+00    0.5180774411E-01    0.3032940711E+00    0.1416496069E+00    0.3407350742E+00
    0.1100000000E+05    0.4214659348E+00    0.4328625049E-01    0.3047839390E+00    0.1484874993E+00    0.3430092562E+00
    0.1300000000E+05    0.4353452702E+00    0.3720162816E-01    0.3058906453E+00    0.1534124157E+00    0.3447570580E+00
    0.1500000000E+05    0.4456580505E+00    0.3269172169E-01    0.3067500468E+00    0.1570783730E+00    0.3461577872E+00
    0.1700000000E+05    0.4535394889E+00    0.2924183626E-01    0.3074394083E+00    0.1598853687E+00    0.3473151675E+00
    0.1900000000E+05    0.4597095454E+00    0.2653134788E-01    0.3080062362E+00    0.1620872311E+00    0.3482939558E+00
    0.2100000000E+05    0.4646406077E+00    0.2435279109E-01    0.3084815035E+00    0.1638506009E+00    0.3491369706E+00
    0.2300000000E+05    0.4686522739E+00    0.2256732757E-01    0.3088863486E+00    0.1652882860E+00    0.3498738236E+00
    0.2500000000E+05    0.4719667773E+00    0.2107924250E-01    0.3092357381E+00    0.1664787742E+00    0.3505257448E+00
    0.2700000000E+05    0.4747424677E+00    0.1982079400E-01    0.3095405934E+00    0.1674780245E+00    0.3511084137E+00
    0.2900000000E+05    0.4770946567E+00    0.1874290874E-01    0.3098090878E+00    0.1683268119E+00    0.3516337006E+00
    0.3100000000E+05    0.4791089628E+00    0.1780929327E-01    0.3100474704E+00    0.1690554307E+00    0.3521107835E+00
    0.3300000000E+05    0.4808500741E+00    0.1699260479E-01    0.3102606084E+00    0.1696867839E+00    0.3525468884E+00
    0.3500000000E+05    0.4823676353E+00    0.1627189909E-01    0.3104523536E+00    0.1702384600E+00    0.3529477948E+00
    0.3700000000E+05    0.4837002885E+00    0.1563089169E-01    0.3106257974E+00    0.1707241584E+00    0.3533181890E+00
    0.3900000000E+05    0.4848784988E+00    0.1505674888E-01    0.3107834523E+00    0.1711546870E+00    0.3536619184E+00
    0.4100000000E+05    0.4859265654E+00    0.1453923159E-01    0.3109273828E+00    0.1715386722E+00    0.3539821751E+00
    0.4300000000E+05    0.4868640765E+00    0.1407007905E-01    0.3110593022E+00    0.1718830729E+00    0.3542816345E+00
    0.4500000000E+05    0.4877069765E+00    0.1364255808E-01    0.3111806454E+00    0.1721935576E+00    0.3545625578E+00
    0.4700000000E+05    0.4884683606E+00    0.1325112891E-01    0.3112926237E+00    0.1724747850E+00    0.3548268721E+00
    0.4900000000E+05    0.4891590718E+00    0.1289119420E-01    0.3113962676E+00    0.1727306157E+00    0.3550762310E+00
    0.1000000000E+05    0.4126496843E+00    0.4716821038E-01    0.3040991098E+00    0.1453630622E+00    0.3419539204E+00
    0.3000000000E+05    0.4781395915E+00    0.1825995122E-01    0.3099317114E+00    0.1687045659E+00    0.3518777770E+00
    0.5000000000E+05    0.4894808123E+00    0.1272181037E-01    0.3114452448E+00    0.1728500359E+00    0.3551957565E+00
    0.7000000000E+05    0.4937735200E+00    0.1031704045E-01    0.3121470497E+00    0.1744646518E+00    0.3570641837E+00
    0.9000000000E+05    0.4959664115E+00    0.8920973704E-02    0.3125447137E+00    0.1753147638E+00    0.3583239960E+00
    0.1100000000E+06    0.4972791148E+00    0.7984548206E-02    0.3127943719E+00    0.1758396806E+00    0.3592571240E+00
    0.1300000000E+06    0.4981458147E+00    0.7300621309E-02    0.3129608456E+00    0.1761972933E+00    0.3599895396E+00
    0.1500000000E+06    0.4987573548E+00    0.6772512766E-02    0.3130760516E+00    0.1764576911E+00    0.3605875129E+00
    0.1700000000E+06    0.4992100467E+00    0.6348471467E-02    0.3131575652E+00    0.1766566056E+00    0.3610898412E+00
    0.1900000000E+06    0.4995574985E+00    0.5998016110E-02    0.3132158651E+00    0.1768141322E+00    0.3615210301E+00
    0.2100000000E+06    0.4998318164E+00    0.5701882465E-02    0.3132575822E+00    0.1769424329E+00    0.3618974642E+00
    0.2300000000E+06    0.5000533544E+00    0.5447219542E-02    0.3132871120E+00    0.1770492998E+00    0.3622305937E+00
    0.2500000000E+06    0.5002356164E+00    0.5225080443E-02    0.3133074780E+00    0.1771399584E+00    0.3625287099E+00
    0.2700000000E+06    0.5003879009E+00    0.5029017047E-02    0.3133208242E+00    0.1772180454E+00    0.3627979933E+00
    0.2900000000E+06    0.5005168125E+00    0.4854247398E-02    0.3133287099E+00    0.1772861720E+00    0.3630431643E+00
    0.3100000000E+06    0.5006271664E+00    0.4697139050E-02    0.3133322939E+00    0.1773462625E+00    0.3632679032E+00
    0.3300000000E+06    0.5007225536E+00    0.4554875778E-02    0.3133324528E+00    0.1773997677E+00    0.3634751301E+00
    0.3500000000E+06    0.5008057043E+00    0.4425235399E-02    0.3133298609E+00    0.1774478025E+00    0.3636671982E+00
    0.3700000000E+06    0.5008787301E+00    0.4306437393E-02    0.3133250435E+00    0.1774912385E+00    0.3638460291E+00
    0.3900000000E+06    0.5009432888E+00    0.4197035792E-02    0.3133184152E+00    0.1775307677E+00    0.3640132109E+00
    0.4100000000E+06    0.5010006996E+00    0.4095842249E-02    0.3133103066E+00    0.1775669464E+00    0.3641700699E+00
    0.4300000000E+06    0.5010520245E+00    0.4001869713E-02    0.3133009837E+00    0.1776002274E+00    0.3643177244E+00
    0.4500000000E+06    0.5010981282E+00    0.3914290485E-02    0.3132906626E+00    0.1776309835E+00    0.3644571252E+00
    0.4700000000E+06    0.5011397210E+00    0.3832404504E-02    0.3132795199E+00    0.1776595242E+00    0.3645890871E+00
    0.4900000000E+06    0.5011773922E+00    0.3755615031E-02    0.3132677013E+00    0.1776861087E+00    0.3647143133E+00
    0.1000000000E+06    0.4966969124E+00    0.8412160340E-02    0.3126828604E+00    0.1756048580E+00    0.3588215091E+00
    0.3000000000E+06    0.5005740610E+00    0.4773677684E-02    0.3133309793E+00    0.1773171219E+00    0.3631578900E+00
    0.5000000000E+06    0.5011949143E+00    0.3718968527E-02    0.3132615769E+00    0.1776987373E+00    0.3647745946E+00
    0.7000000000E+06    0.5014252008E+00    0.3160266535E-02    0.3131240910E+00    0.1778875122E+00    0.3657400600E+00
    0.9000000000E+06    0.5015363410E+00    0.2799742621E-02    0.3129818894E+00    0.1780072030E+00    0.3664182217E+00
    0.1100000000E+07    0.5015970907E+00    0.2542079462E-02    0.3128470795E+00    0.1780929794E+00    0.3669365476E+00
    0.1300000000E+07    0.5016324715E+00    0.2345946663E-02    0.3127218618E+00    0.1781590733E+00    0.3673538542E+00
    0.1500000000E+07    0.5016536105E+00    0.2190100622E-02    0.3126059758E+00    0.1782124851E+00    0.3677018904E+00
    0.1700000000E+07    0.5016661391E+00    0.2062344310E-02    0.3124985472E+00    0.1782571188E+00    0.3679996498E+00
    0.1900000000E+07    0.5016731778E+00    0.1955104086E-02    0.3123986183E+00    0.1782953521E+00    0.3682593549E+00
    0.2100000000E+07    0.5016765762E+00    0.1863393400E-02    0.3123053046E+00    0.1783287303E+00    0.3684893132E+00
    0.2300000000E+07    0.5016774887E+00    0.1783776014E-02    0.3122178319E+00    0.1783583101E+00    0.3686954161E+00
    0.2500000000E+07    0.5016766661E+00    0.1713796011E-02    0.3121355356E+00    0.1783848430E+00    0.3688819865E+00
    0.2700000000E+07    0.5016746128E+00    0.1651644825E-02    0.3120578485E+00    0.1784088815E+00    0.3690522862E+00
    0.2900000000E+07    0.5016716774E+00    0.1595956929E-02    0.3119842861E+00    0.1784308426E+00    0.3692088339E+00
    0.3100000000E+07    0.5016681061E+00    0.1545679239E-02    0.3119144334E+00    0.1784510486E+00    0.3693536140E+00
    0.3300000000E+07    0.5016640758E+00    0.1499984721E-02    0.3118479330E+00    0.1784697531E+00    0.3694882159E+00
    0.3500000000E+07    0.5016597163E+00    0.1458213527E-02    0.3117844756E+00    0.1784871593E+00    0.3696139319E+00
    0.3700000000E+07    0.5016551233E+00    0.1419831860E-02    0.3117237923E+00    0.1785034324E+00    0.3697318264E+00
    0.3900000000E+07    0.5016503687E+00    0.1384402575E-02    0.3116656479E+00    0.1785187081E+00    0.3698427857E+00
    0.4100000000E+07    0.5016455069E+00    0.1351563759E-02    0.3116098355E+00    0.1785330996E+00    0.3699475557E+00
    0.4300000000E+07    0.5016405791E+00    0.1321012843E-02    0.3115561724E+00    0.1785467020E+00    0.3700467698E+00
    0.4500000000E+07    0.5016356170E+00    0.1292494634E-02    0.3115044967E+00    0.1785595960E+00    0.3701409702E+00
    0.4700000000E+07    0.5016306449E+00    0.1265792175E-02    0.3114546639E+00    0.1785718507E+00    0.3702306242E+00
    0.4900000000E+07    0.5016256815E+00    0.1240719671E-02    0.3114065449E+00    0.1785835256E+00    0.3703161379E+00
    0.1000000000E+07    0.5015709554E+00    0.2661319641E-02    0.3129133256E+00    0.1780531900E+00    0.3666927838E+00
    0.3000000000E+07    0.5016699589E+00    0.1570198001E-02    0.3119489196E+00    0.1784411478E+00    0.3692825876E+00
    0.5000000000E+07    0.5016232076E+00    0.1228743726E-02    0.3113830912E+00    0.1785891621E+00    0.3703574547E+00
    0.7000000000E+07    0.5015762865E+00    0.1045430001E-02    0.3109811592E+00    0.1786810507E+00    0.3710329752E+00
    0.9000000000E+07    0.5015354289E+00    0.9265593555E-03    0.3106683394E+00    0.1787476696E+00    0.3715234405E+00
    0.1100000000E+08    0.5015000367E+00    0.8414078489E-03    0.3104117621E+00    0.1787999075E+00    0.3719074480E+00
    0.1300000000E+08    0.5014690326E+00    0.7765108981E-03    0.3101940125E+00    0.1788428638E+00    0.3722224508E+00
    0.1500000000E+08    0.5014415254E+00    0.7249076789E-03    0.3100047266E+00    0.1788793350E+00    0.3724891731E+00
    0.1700000000E+08    0.5014168390E+00    0.6825875363E-03    0.3098372258E+00    0.1789110197E+00    0.3727202640E+00
    0.1900000000E+08    0.5013944646E+00    0.6470543416E-03    0.3096869489E+00    0.1789390270E+00    0.3729240017E+00
    0.2100000000E+08    0.5013740143E+00    0.6166620140E-03    0.3095506397E+00    0.1789641206E+00    0.3731060944E+00
    0.2300000000E+08    0.5013551878E+00    0.5902749534E-03    0.3094258908E+00    0.1789868489E+00    0.3732706414E+00
    0.2500000000E+08    0.5013377489E+00    0.5670808598E-03    0.3093108714E+00    0.1790076188E+00    0.3734206846E+00
    0.2700000000E+08    0.5013215086E+00    0.5464811750E-03    0.3092041560E+00    0.1790267407E+00    0.3735585419E+00
