  Pressure (Pa) 22mC5-400 (mol/kg) 2mC6-400 (mol/kg) 3mC6-400 (mol/kg) 23mC5-400 (mol/kg) C7-400 (mol/kg)
    0.1000000000E+01    0.5308804969E-03    0.1582213776E-02    0.1571722078E-02    0.8389498723E-03    0.8501728109E-02
    0.3000000000E+01    0.1581404169E-02    0.4602534595E-02    0.4563302024E-02    0.2499103939E-02    0.2468756574E-01
    0.5000000000E+01    0.2617263518E-02    0.7445474055E-02    0.7368423646E-02    0.4136100425E-02    0.3986940458E-01
    0.7000000000E+01    0.3638829452E-02    0.1012683072E-01    0.1000424637E-01    0.5750524975E-02    0.5413949842E-01
    0.9000000000E+01    0.4646460121E-02    0.1266051258E-01    0.1248587904E-01    0.7342943087E-02    0.6757908501E-01
    0.1100000000E+02    0.5640501453E-02    0.1505881424E-01    0.1482667763E-01    0.8913900971E-02    0.8025998472E-01
    0.1300000000E+02    0.6621287682E-02    0.1733264679E-01    0.1703849256E-01    0.1046392636E-01    0.9224592863E-01
    0.1500000000E+02    0.7589141829E-02    0.1949172938E-01    0.1913187529E-01    0.1199352931E-01    0.1035936679E+00
    0.1700000000E+02    0.8544376176E-02    0.2154474978E-01    0.2111625178E-01    0.1350320289E-01    0.1143539054E+00
    0.1900000000E+02    0.9487292709E-02    0.2349949967E-01    0.2300006884E-01    0.1499342393E-01    0.1245720819E+00
    0.2100000000E+02    0.1041818353E-01    0.2536298905E-01    0.2479091827E-01    0.1646465366E-01    0.1342890426E+00
    0.2300000000E+02    0.1133733129E-01    0.2714154358E-01    0.2649564254E-01    0.1791733837E-01    0.1435416052E+00
    0.2500000000E+02    0.1224500951E-01    0.2884088763E-01    0.2812042513E-01    0.1935190997E-01    0.1523630447E+00
    0.2700000000E+02    0.1314148302E-01    0.3046621550E-01    0.2967086821E-01    0.2076878660E-01    0.1607835112E+00
    0.2900000000E+02    0.1402700825E-01    0.3202225268E-01    0.3115205942E-01    0.2216837317E-01    0.1688303885E+00
    0.3100000000E+02    0.1490183357E-01    0.3351330879E-01    0.3256862981E-01    0.2355106187E-01    0.1765286053E+00
    0.3300000000E+02    0.1576619963E-01    0.3494332340E-01    0.3392480399E-01    0.2491723269E-01    0.1839009048E+00
    0.3500000000E+02    0.1662033964E-01    0.3631590596E-01    0.3522444387E-01    0.2626725386E-01    0.1909680798E+00
    0.3700000000E+02    0.1746447965E-01    0.3763437057E-01    0.3647108688E-01    0.2760148232E-01    0.1977491780E+00
    0.3900000000E+02    0.1829883885E-01    0.3890176643E-01    0.3766797937E-01    0.2892026416E-01    0.2042616816E+00
    0.4100000000E+02    0.1912362978E-01    0.4012090457E-01    0.3881810607E-01    0.3022393502E-01    0.2105216655E+00
    0.4300000000E+02    0.1993905864E-01    0.4129438135E-01    0.3992421597E-01    0.3151282050E-01    0.2165439366E+00
    0.4500000000E+02    0.2074532550E-01    0.4242459924E-01    0.4098884521E-01    0.3278723648E-01    0.2223421565E+00
    0.4700000000E+02    0.2154262452E-01    0.4351378517E-01    0.4201433733E-01    0.3404748956E-01    0.2279289508E+00
    0.4900000000E+02    0.2233114416E-01    0.4456400681E-01    0.4300286128E-01    0.3529387735E-01    0.2333160057E+00
    0.1000000000E+02    0.5145158296E-02    0.1387587397E-01    0.1367310926E-01    0.8131071150E-02    0.7401021190E-01
    0.3000000000E+02    0.1446574318E-01    0.3277564897E-01    0.3186814920E-01    0.2286180573E-01    0.1727216097E+00
    0.5000000000E+02    0.2272216911E-01    0.4507511223E-01    0.4348389421E-01    0.3591196239E-01    0.2359380472E+00
    0.7000000000E+02    0.3012360934E-01    0.5365415688E-01    0.5158136084E-01    0.4761183217E-01    0.2801434750E+00
    0.9000000000E+02    0.3682599255E-01    0.5988491434E-01    0.5757113346E-01    0.5820763843E-01    0.3129421365E+00
    0.1100000000E+03    0.4294800479E-01    0.6452037392E-01    0.6219507716E-01    0.6788680051E-01    0.3383375005E+00
    0.1300000000E+03    0.4858164752E-01    0.6801588407E-01    0.6588139489E-01    0.7679460325E-01    0.3586427593E+00
    0.1500000000E+03    0.5379939471E-01    0.7066667915E-01    0.6889497297E-01    0.8504549711E-01    0.3752903287E+00
    0.1700000000E+03    0.5865916121E-01    0.7267434920E-01    0.7140870748E-01    0.9273094277E-01    0.3892161307E+00
    0.1900000000E+03    0.6320782515E-01    0.7418209749E-01    0.7354039399E-01    0.9992497287E-01    0.4010584669E+00
    0.2100000000E+03    0.6748377261E-01    0.7529485520E-01    0.7537314977E-01    0.1066882100E+00    0.4112681838E+00
    0.2300000000E+03    0.7151876729E-01    0.7609144496E-01    0.7696735982E-01    0.1130708190E+00    0.4201731533E+00
    0.2500000000E+03    0.7533934546E-01    0.7663229226E-01    0.7836799071E-01    0.1191147095E+00    0.4280177749E+00
    0.2700000000E+03    0.7896787098E-01    0.7696450829E-01    0.7960924353E-01    0.1248552022E+00    0.4349881216E+00
    0.2900000000E+03    0.8242334364E-01    0.7712535078E-01    0.8071761262E-01    0.1303223049E+00    0.4412284806E+00
    0.3100000000E+03    0.8572202550E-01    0.7714464570E-01    0.8171395409E-01    0.1355417020E+00    0.4468525454E+00
    0.3300000000E+03    0.8887793150E-01    0.7704652184E-01    0.8261491973E-01    0.1405355288E+00    0.4519511793E+00
    0.3500000000E+03    0.9190321740E-01    0.7685067854E-01    0.8343397281E-01    0.1453229846E+00    0.4565979187E+00
    0.3700000000E+03    0.9480848953E-01    0.7657332841E-01    0.8418212181E-01    0.1499208216E+00    0.4608529501E+00
    0.3900000000E+03    0.9760305396E-01    0.7622790935E-01    0.8486845963E-01    0.1543437385E+00    0.4647660350E+00
    0.4100000000E+03    0.1002951187E+00    0.7582562947E-01    0.8550056602E-01    0.1586046995E+00    0.4683786939E+00
    0.4300000000E+03    0.1028919587E+00    0.7537588945E-01    0.8608481219E-01    0.1627151955E+00    0.4717258601E+00
    0.4500000000E+03    0.1054000520E+00    0.7488661321E-01    0.8662659436E-01    0.1666854586E+00    0.4748371496E+00
    0.4700000000E+03    0.1078251921E+00    0.7436450952E-01    0.8713051493E-01    0.1705246397E+00    0.4777378450E+00
    0.4900000000E+03    0.1101725815E+00    0.7381528080E-01    0.8760052442E-01    0.1742409563E+00    0.4804496686E+00
    0.1000000000E+03    0.3995326641E-01    0.6236873253E-01    0.6002203833E-01    0.6315188512E-01    0.3263935217E+00
    0.3000000000E+03    0.8409135980E-01    0.7715106683E-01    0.8122866108E-01    0.1329615079E+00    0.4441114091E+00
    0.5000000000E+03    0.1113186035E+00    0.7353204337E-01    0.8782389697E-01    0.1760553842E+00    0.4817407213E+00
    0.7000000000E+03    0.1310867944E+00    0.6730632678E-01    0.9113687153E-01    0.2073620241E+00    0.5010965409E+00
    0.9000000000E+03    0.1464669736E+00    0.6110910010E-01    0.9315558452E-01    0.2317324221E+00    0.5131487327E+00
    0.1100000000E+04    0.1588822122E+00    0.5552572659E-01    0.9452390711E-01    0.2514146756E+00    0.5214847683E+00
    0.1300000000E+04    0.1691383221E+00    0.5064447442E-01    0.9551654094E-01    0.2676819354E+00    0.5276489813E+00
    0.1500000000E+04    0.1777504422E+00    0.4641600313E-01    0.9627141653E-01    0.2813482361E+00    0.5324234018E+00
    0.1700000000E+04    0.1850738804E+00    0.4275707770E-01    0.9686576256E-01    0.2929751484E+00    0.5362494620E+00
    0.1900000000E+04    0.1913661215E+00    0.3958335674E-01    0.9734634906E-01    0.3029697119E+00    0.5393965875E+00
    0.2100000000E+04    0.1968201635E+00    0.3681942152E-01    0.9774323243E-01    0.3116370851E+00    0.5420392295E+00
    0.2300000000E+04    0.2015842286E+00    0.3440094735E-01    0.9807664876E-01    0.3192116758E+00    0.5442956977E+00
    0.2500000000E+04    0.2057742729E+00    0.3227416058E-01    0.9836074364E-01    0.3258769001E+00    0.5462492784E+00
    0.2700000000E+04    0.2094823559E+00    0.3039447059E-01    0.9860571580E-01    0.3317784040E+00    0.5479604318E+00
    0.2900000000E+04    0.2127824644E+00    0.2872498220E-01    0.9881911160E-01    0.3370332623E+00    0.5494741930E+00
    0.3100000000E+04    0.2157346860E+00    0.2723513780E-01    0.9900663941E-01    0.3417365750E+00    0.5508248499E+00
    0.3300000000E+04    0.2183882723E+00    0.2589955976E-01    0.9917270020E-01    0.3459663055E+00    0.5520390054E+00
    0.3500000000E+04    0.2207839266E+00    0.2469709427E-01    0.9932074359E-01    0.3497868977E+00    0.5531376411E+00
    0.3700000000E+04    0.2229555398E+00    0.2361003357E-01    0.9945351309E-01    0.3532520197E+00    0.5541375457E+00
    0.3900000000E+04    0.2249315251E+00    0.2262348775E-01    0.9957321898E-01    0.3564066730E+00    0.5550523253E+00
    0.4100000000E+04    0.2267358543E+00    0.2172487864E-01    0.9968166249E-01    0.3592888318E+00    0.5558931334E+00
    0.4300000000E+04    0.2283888717E+00    0.2090353190E-01    0.9978032673E-01    0.3619307291E+00    0.5566692063E+00
    0.4500000000E+04    0.2299079376E+00    0.2015034774E-01    0.9987044428E-01    0.3643598758E+00    0.5573882640E+00
    0.4700000000E+04    0.2313079430E+00    0.1945753419E-01    0.9995304821E-01    0.3665998730E+00    0.5580568131E+00
    0.4900000000E+04    0.2326017223E+00    0.1881839039E-01    0.1000290111E+00    0.3686710662E+00    0.5586803796E+00
    0.1000000000E+04    0.1529856985E+00    0.5822980468E-01    0.9389920551E-01    0.2420655448E+00    0.5176587812E+00
    0.3000000000E+04    0.2142987588E+00    0.2795929986E-01    0.9891580813E-01    0.3394486349E+00    0.5501680947E+00
    0.5000000000E+04    0.2332123092E+00    0.1851710479E-01    0.1000647384E+00    0.3696489614E+00    0.5589767983E+00
    0.7000000000E+04    0.2418872673E+00    0.1425300963E-01    0.1005635367E+00    0.3835803228E+00    0.5633983259E+00
    0.9000000000E+04    0.2467484525E+00    0.1185635928E-01    0.1008332497E+00    0.3914345054E+00    0.5661499738E+00
    0.1100000000E+05    0.2498210876E+00    0.1031766645E-01    0.1009962583E+00    0.3964303115E+00    0.5680666158E+00
    0.1300000000E+05    0.2519245272E+00    0.9239623783E-02    0.1011013337E+00    0.3998725073E+00    0.5694980267E+00
    0.1500000000E+05    0.2534481899E+00    0.8436912079E-02    0.1011717240E+00    0.4023824397E+00    0.5706189912E+00
    0.1700000000E+05    0.2545992243E+00    0.7812073335E-02    0.1012198888E+00    0.4042912966E+00    0.5715275413E+00
    0.1900000000E+05    0.2554973823E+00    0.7309088713E-02    0.1012530852E+00    0.4057909298E+00    0.5722833605E+00
    0.2100000000E+05    0.2562164639E+00    0.6893479716E-02    0.1012758111E+00    0.4069998198E+00    0.5729250885E+00
    0.2300000000E+05    0.2568043146E+00    0.6542845660E-02    0.1012909926E+00    0.4079949416E+00    0.5734789666E+00
    0.2500000000E+05    0.2572932559E+00    0.6241981184E-02    0.1013006083E+00    0.4088284065E+00    0.5739635129E+00
    0.2700000000E+05    0.2577058781E+00    0.5980185384E-02    0.1013060390E+00    0.4095367158E+00    0.5743922121E+00
    0.2900000000E+05    0.2580584294E+00    0.5749696054E-02    0.1013082736E+00    0.4101461800E+00    0.5747751450E+00
    0.3100000000E+05    0.2583628850E+00    0.5544736184E-02    0.1013080369E+00    0.4106762336E+00    0.5751200168E+00
    0.3300000000E+05    0.2586282588E+00    0.5360910408E-02    0.1013058694E+00    0.4111415378E+00    0.5754328308E+00
    0.3500000000E+05    0.2588614614E+00    0.5194810040E-02    0.1013021815E+00    0.4115533578E+00    0.5757183425E+00
    0.3700000000E+05    0.2590678770E+00    0.5043747038E-02    0.1012972887E+00    0.4119204903E+00    0.5759803736E+00
    0.3900000000E+05    0.2592517612E+00    0.4905570196E-02    0.1012914370E+00    0.4122499038E+00    0.5762220357E+00
    0.4100000000E+05    0.2594165203E+00    0.4778535293E-02    0.1012848198E+00    0.4125471890E+00    0.5764458906E+00
    0.4300000000E+05    0.2595649126E+00    0.4661211496E-02    0.1012775912E+00    0.4128168830E+00    0.5766540698E+00
    0.4500000000E+05    0.2596991946E+00    0.4552412698E-02    0.1012698743E+00    0.4130627061E+00    0.5768483626E+00
    0.4700000000E+05    0.2598212294E+00    0.4451146324E-02    0.1012617689E+00    0.4132877375E+00    0.5770302841E+00
    0.4900000000E+05    0.2599325692E+00    0.4356574602E-02    0.1012533559E+00    0.4134945478E+00    0.5772011265E+00
    0.1000000000E+05    0.2484422186E+00    0.1101201633E-01    0.1009241559E+00    0.3941844679E+00    0.5671847999E+00
    0.3000000000E+05    0.2582160482E+00    0.5644326623E-02    0.1013084268E+00    0.4104201238E+00    0.5749519296E+00
    0.5000000000E+05    0.2599846439E+00    0.4311572313E-02    0.1012490552E+00    0.4135918096E+00    0.5772827463E+00
    0.7000000000E+05    0.2606929614E+00    0.3635025161E-02    0.1011578729E+00    0.4149610839E+00    0.5785359049E+00
    0.9000000000E+05    0.2610636565E+00    0.3206694138E-02    0.1010686592E+00    0.4157342068E+00    0.5793568853E+00
    0.1100000000E+06    0.2612862932E+00    0.2903792691E-02    0.1009865100E+00    0.4162359168E+00    0.5799526607E+00
    0.1300000000E+06    0.2614316896E+00    0.2674756717E-02    0.1009116512E+00    0.4165906292E+00    0.5804130313E+00
    0.1500000000E+06    0.2615320936E+00    0.2493594422E-02    0.1008433312E+00    0.4168564310E+00    0.5807842188E+00
    0.1700000000E+06    0.2616042056E+00    0.2345575870E-02    0.1007806795E+00    0.4170641634E+00    0.5810928219E+00
    0.1900000000E+06    0.2616574975E+00    0.2221639061E-02    0.1007229099E+00    0.4172317603E+00    0.5813554054E+00
    0.2100000000E+06    0.2616977188E+00    0.2115858554E-02    0.1006693566E+00    0.4173703834E+00    0.5815829134E+00
    0.2300000000E+06    0.2617285481E+00    0.2024172794E-02    0.1006194662E+00    0.4174873564E+00    0.5817829162E+00
    0.2500000000E+06    0.2617524405E+00    0.1943691156E-02    0.1005727798E+00    0.4175876918E+00    0.5819608463E+00
    0.2700000000E+06    0.2617710919E+00    0.1872292216E-02    0.1005289157E+00    0.4176749412E+00    0.5821207214E+00
    0.2900000000E+06    0.2617857076E+00    0.1808378742E-02    0.1004875541E+00    0.4177516946E+00    0.5822655882E+00
    0.3100000000E+06    0.2617971656E+00    0.1750721873E-02    0.1004484256E+00    0.4178198878E+00    0.5823978068E+00
    0.3300000000E+06    0.2618061189E+00    0.1698358470E-02    0.1004113010E+00    0.4178809981E+00    0.5825192388E+00
    0.3500000000E+06    0.2618130618E+00    0.1650521425E-02    0.1003759845E+00    0.4179361736E+00    0.5826313765E+00
    0.3700000000E+06    0.2618183743E+00    0.1606591102E-02    0.1003423072E+00    0.4179863212E+00    0.5827354325E+00
    0.3900000000E+06    0.2618223531E+00    0.1566060733E-02    0.1003101227E+00    0.4180321669E+00    0.5828324042E+00
    0.4100000000E+06    0.2618252321E+00    0.1528511250E-02    0.1002793033E+00    0.4180742999E+00    0.5829231213E+00
    0.4300000000E+06    0.2618271981E+00    0.1493592668E-02    0.1002497369E+00    0.4181132030E+00    0.5830082803E+00
    0.4500000000E+06    0.2618284018E+00    0.1461010077E-02    0.1002213246E+00    0.4181492766E+00    0.5830884715E+00
    0.4700000000E+06    0.2618289656E+00    0.1430512964E-02    0.1001939790E+00    0.4181828552E+00    0.5831641988E+00
    0.4900000000E+06    0.2618289899E+00    0.1401886962E-02    0.1001676219E+00    0.4182142209E+00    0.5832358956E+00
    0.1000000000E+06    0.2611876897E+00    0.3043665187E-02    0.1010266451E+00    0.4160088776E+00    0.5796758290E+00
    0.3000000000E+06    0.2617917861E+00    0.1778833713E-02    0.1004677259E+00    0.4177867599E+00    0.5823331522E+00
    0.5000000000E+06    0.2618288262E+00    0.1388216905E-02    0.1001547920E+00    0.4182291503E+00    0.5832703519E+00
    0.7000000000E+06    0.2618113003E+00    0.1179225762E-02    0.9993648786E-01    0.4184544677E+00    0.5838172469E+00
    0.9000000000E+06    0.2617832664E+00    0.1043954185E-02    0.9976838822E-01    0.4185992003E+00    0.5841959809E+00
    0.1100000000E+07    0.2617538341E+00    0.9471748665E-03    0.9963152054E-01    0.4187036534E+00    0.5844825626E+00
    0.1300000000E+07    0.2617254450E+00    0.8734853226E-03    0.9951600099E-01    0.4187844765E+00    0.5847115351E+00
    0.1500000000E+07    0.2616987530E+00    0.8149349011E-03    0.9941601539E-01    0.4188499660E+00    0.5849013376E+00
    0.1700000000E+07    0.2616738503E+00    0.7669476809E-03    0.9932784941E-01    0.4189047899E+00    0.5850629049E+00
    0.1900000000E+07    0.2616506441E+00    0.7266781797E-03    0.9924898372E-01    0.4189518095E+00    0.5852032235E+00
    0.2100000000E+07    0.2616289866E+00    0.6922512563E-03    0.9917762986E-01    0.4189928935E+00    0.5853270131E+00
    0.2300000000E+07    0.2616087227E+00    0.6623740564E-03    0.9911247183E-01    0.4190293241E+00    0.5854376037E+00
    0.2500000000E+07    0.2615897072E+00    0.6361222716E-03    0.9905251281E-01    0.4190620165E+00    0.5855374277E+00
    0.2700000000E+07    0.2615718098E+00    0.6128151175E-03    0.9899697941E-01    0.4190916445E+00    0.5856283129E+00
    0.2900000000E+07    0.2615549159E+00    0.5919385453E-03    0.9894525942E-01    0.4191187181E+00    0.5857116659E+00
    0.3100000000E+07    0.2615389254E+00    0.5730961264E-03    0.9889685986E-01    0.4191436317E+00    0.5857885911E+00
    0.3300000000E+07    0.2615237510E+00    0.5559765437E-03    0.9885137782E-01    0.4191666963E+00    0.5858599704E+00
    0.3500000000E+07    0.2615093168E+00    0.5403314356E-03    0.9880847974E-01    0.4191881614E+00    0.5859265193E+00
    0.3700000000E+07    0.2614955562E+00    0.5259599072E-03    0.9876788634E-01    0.4192082297E+00    0.5859888251E+00
    0.3900000000E+07    0.2614824109E+00    0.5126974613E-03    0.9872936143E-01    0.4192270683E+00    0.5860473763E+00
    0.4100000000E+07    0.2614698294E+00    0.5004079290E-03    0.9869270344E-01    0.4192448163E+00    0.5861025827E+00
    0.4300000000E+07    0.2614577664E+00    0.4889774870E-03    0.9865773899E-01    0.4192615908E+00    0.5861547917E+00
    0.4500000000E+07    0.2614461817E+00    0.4783101496E-03    0.9862431783E-01    0.4192774912E+00    0.5862043001E+00
    0.4700000000E+07    0.2614350392E+00    0.4683243257E-03    0.9859230892E-01    0.4192926026E+00    0.5862513635E+00
    0.4900000000E+07    0.2614243070E+00    0.4589501551E-03    0.9856159725E-01    0.4193069984E+00    0.5862962034E+00
    0.1000000000E+07    0.2617685046E+00    0.9919684270E-03    0.9969679903E-01    0.4186551330E+00    0.5843480914E+00
    0.3000000000E+07    0.2615468134E+00    0.5822842196E-03    0.9892067161E-01    0.4191314238E+00    0.5857508724E+00
    0.5000000000E+07    0.2614190857E+00    0.4544732937E-03    0.9854669571E-01    0.4193139482E+00    0.5863178508E+00
    0.7000000000E+07    0.2613305595E+00    0.3860106777E-03    0.9829739597E-01    0.4194272134E+00    0.5866702220E+00
    0.9000000000E+07    0.2612628419E+00    0.3416870755E-03    0.9810998963E-01    0.4195092777E+00    0.5869243047E+00
    0.1100000000E+08    0.2612080067E+00    0.3099756977E-03    0.9795973451E-01    0.4195735897E+00    0.5871222671E+00
    0.1300000000E+08    0.2611619313E+00    0.2858315532E-03    0.9783429239E-01    0.4196264487E+00    0.5872840505E+00
    0.1500000000E+08    0.2611221996E+00    0.2666492968E-03    0.9772660954E-01    0.4196713086E+00    0.5874206274E+00
    0.1700000000E+08    0.2610872742E+00    0.2509291411E-03    0.9763227121E-01    0.4197102670E+00    0.5875386655E+00
    0.1900000000E+08    0.2610561166E+00    0.2377383790E-03    0.9754832943E-01    0.4197446928E+00    0.5876425126E+00
    0.2100000000E+08    0.2610279921E+00    0.2264623508E-03    0.9747271725E-01    0.4197755285E+00    0.5877351576E+00
    0.2300000000E+08    0.2610023620E+00    0.2166772700E-03    0.9740392912E-01    0.4198034507E+00    0.5878187415E+00
    0.2500000000E+08    0.2609788193E+00    0.2080801648E-03    0.9734083428E-01    0.4198289612E+00    0.5878948492E+00
    0.2700000000E+08    0.2609570494E+00    0.2004478944E-03    0.9728256178E-01    0.4198524428E+00    0.5879646862E+00
