  Pressure (Pa) 22mC5-400 (mol/kg) 2mC6-400 (mol/kg) 3mC6-400 (mol/kg) 23mC5-400 (mol/kg) C7-400 (mol/kg)
    0.1000000000E+01    0.5297513928E-03    0.4699613041E-02    0.1554224857E-02    0.1860368937E-03    0.1345201635E-01
    0.3000000000E+01    0.1571494863E-02    0.1342087574E-01    0.4419316905E-02    0.5518773996E-03    0.3825942060E-01
    0.5000000000E+01    0.2590413175E-02    0.2135078722E-01    0.7001244025E-02    0.9097065469E-03    0.6062672874E-01
    0.7000000000E+01    0.3587477928E-02    0.2860127744E-01    0.9341118639E-02    0.1259865316E-02    0.8090768508E-01
    0.9000000000E+01    0.4563604061E-02    0.3526338982E-01    0.1147240985E-01    0.1602674803E-02    0.9939031785E-01
    0.1100000000E+02    0.5519653987E-02    0.4141197779E-01    0.1342264435E-01    0.1938437672E-02    0.1163115564E+00
    0.1300000000E+02    0.6456441364E-02    0.4710918765E-01    0.1521467211E-01    0.2267439479E-02    0.1318681098E+00
    0.1500000000E+02    0.7374734548E-02    0.5240707825E-01    0.1686762161E-01    0.2589949881E-02    0.1462246779E+00
    0.1700000000E+02    0.8275259748E-02    0.5734961675E-01    0.1839762991E-01    0.2906223745E-02    0.1595202267E+00
    0.1900000000E+02    0.9158703929E-02    0.6197421727E-01    0.1981840711E-01    0.3216502165E-02    0.1718728424E+00
    0.2100000000E+02    0.1002571747E-01    0.6631293987E-01    0.2114167759E-01    0.3521013396E-02    0.1833835247E+00
    0.2300000000E+02    0.1087691659E-01    0.7039343441E-01    0.2237752818E-01    0.3819973710E-02    0.1941391811E+00
    0.2500000000E+02    0.1171288563E-01    0.7423969031E-01    0.2353468549E-01    0.4113588186E-02    0.2042150122E+00
    0.2700000000E+02    0.1253417910E-01    0.7787263735E-01    0.2462073861E-01    0.4402051437E-02    0.2136764267E+00
    0.2900000000E+02    0.1334132361E-01    0.8131063100E-01    0.2564231940E-01    0.4685548280E-02    0.2225805928E+00
    0.3100000000E+02    0.1413481961E-01    0.8456984731E-01    0.2660524948E-01    0.4964254358E-02    0.2309777024E+00
    0.3300000000E+02    0.1491514303E-01    0.8766460665E-01    0.2751466088E-01    0.5238336710E-02    0.2389120093E+00
    0.3500000000E+02    0.1568274682E-01    0.9060764061E-01    0.2837509571E-01    0.5507954302E-02    0.2464226867E+00
    0.3700000000E+02    0.1643806229E-01    0.9341031366E-01    0.2919058898E-01    0.5773258517E-02    0.2535445405E+00
    0.3900000000E+02    0.1718150048E-01    0.9608280819E-01    0.2996473790E-01    0.6034393611E-02    0.2603086045E+00
    0.4100000000E+02    0.1791345329E-01    0.9863427977E-01    0.3070075992E-01    0.6291497137E-02    0.2667426415E+00
    0.4300000000E+02    0.1863429466E-01    0.1010729883E+00    0.3140154197E-01    0.6544700333E-02    0.2728715658E+00
    0.4500000000E+02    0.1934438156E-01    0.1034064090E+00    0.3206968201E-01    0.6794128491E-02    0.2787178018E+00
    0.4700000000E+02    0.2004405501E-01    0.1056413274E+00    0.3270752457E-01    0.7039901296E-02    0.2843015898E+00
    0.4900000000E+02    0.2073364092E-01    0.1077839200E+00    0.3331719114E-01    0.7282133140E-02    0.2896412472E+00
    0.1000000000E+02    0.5044086596E-02    0.3839772663E-01    0.1246863393E-01    0.1771418831E-02    0.1080329816E+00
    0.3000000000E+02    0.1373974737E-01    0.8296165118E-01    0.2613078013E-01    0.4825489529E-02    0.2268396355E+00
    0.5000000000E+02    0.2107474899E-01    0.1088223752E+00    0.3361206689E-01    0.7401955576E-02    0.2922247814E+00
    0.7000000000E+02    0.2743631922E-01    0.1258842076E+00    0.3841439871E-01    0.9636723159E-02    0.3343963217E+00
    0.9000000000E+02    0.3307221931E-01    0.1379359447E+00    0.4179833569E-01    0.1161675290E-01    0.3642468753E+00
    0.1100000000E+03    0.3814912593E-01    0.1468094791E+00    0.4433341859E-01    0.1340054792E-01    0.3867061165E+00
    0.1300000000E+03    0.4278377903E-01    0.1535231898E+00    0.4631649551E-01    0.1502908498E-01    0.4043476069E+00
    0.1500000000E+03    0.4706069584E-01    0.1586974178E+00    0.4791837093E-01    0.1653203125E-01    0.4186545206E+00
    0.1700000000E+03    0.5104278333E-01    0.1627350893E+00    0.4924474321E-01    0.1793146888E-01    0.4305461228E+00
    0.1900000000E+03    0.5477797728E-01    0.1659106474E+00    0.5036477934E-01    0.1924422511E-01    0.4406248889E+00
    0.2100000000E+03    0.5830355041E-01    0.1684180030E+00    0.5132578936E-01    0.2048338440E-01    0.4493035332E+00
    0.2300000000E+03    0.6164899711E-01    0.1703982327E+00    0.5216131750E-01    0.2165930086E-01    0.4568751172E+00
    0.2500000000E+03    0.6483801803E-01    0.1719564620E+00    0.5289586623E-01    0.2278029484E-01    0.4635540214E+00
    0.2700000000E+03    0.6788991846E-01    0.1731726126E+00    0.5354778765E-01    0.2385314383E-01    0.4695010445E+00
    0.2900000000E+03    0.7082061451E-01    0.1741084893E+00    0.5413112425E-01    0.2488343556E-01    0.4748393993E+00
    0.3100000000E+03    0.7364337064E-01    0.1748125953E+00    0.5465682107E-01    0.2587582691E-01    0.4796652538E+00
    0.3300000000E+03    0.7636934949E-01    0.1753234875E+00    0.5513354728E-01    0.2683423692E-01    0.4840548834E+00
    0.3500000000E+03    0.7900802795E-01    0.1756721645E+00    0.5556826724E-01    0.2776199286E-01    0.4880696462E+00
    0.3700000000E+03    0.8156751634E-01    0.1758838012E+00    0.5596664631E-01    0.2866194222E-01    0.4917595218E+00
    0.3900000000E+03    0.8405480627E-01    0.1759790279E+00    0.5633334499E-01    0.2953653976E-01    0.4951656787E+00
    0.4100000000E+03    0.8647596537E-01    0.1759748884E+00    0.5667223582E-01    0.3038791587E-01    0.4983223692E+00
    0.4300000000E+03    0.8883629187E-01    0.1758855678E+00    0.5698656591E-01    0.3121793079E-01    0.5012583497E+00
    0.4500000000E+03    0.9114043842E-01    0.1757229511E+00    0.5727908039E-01    0.3202821813E-01    0.5039979617E+00
    0.4700000000E+03    0.9339251219E-01    0.1754970575E+00    0.5755211745E-01    0.3282021999E-01    0.5065619639E+00
    0.4900000000E+03    0.9559615653E-01    0.1752163804E+00    0.5780768238E-01    0.3359521562E-01    0.5089681810E+00
    0.1000000000E+03    0.3567233310E-01    0.1426938669E+00    0.4314939408E-01    0.1253029670E-01    0.3762046566E+00
    0.3000000000E+03    0.7224474357E-01    0.1744869025E+00    0.5440059013E-01    0.2538410845E-01    0.4773112224E+00
    0.5000000000E+03    0.9668084610E-01    0.1750578027E+00    0.5792946300E-01    0.3397669722E-01    0.5101170161E+00
    0.7000000000E+03    0.1164620115E+00    0.1703017124E+00    0.5976540742E-01    0.4093468441E-01    0.5276429366E+00
    0.9000000000E+03    0.1336404066E+00    0.1642443392E+00    0.6091996647E-01    0.4697864695E-01    0.5389202901E+00
    0.1100000000E+04    0.1490764119E+00    0.1579547949E+00    0.6172403282E-01    0.5241070214E-01    0.5469385150E+00
    0.1300000000E+04    0.1632165704E+00    0.1517839428E+00    0.6232118296E-01    0.5738764944E-01    0.5530082033E+00
    0.1500000000E+04    0.1763253641E+00    0.1458551681E+00    0.6278477812E-01    0.6200235555E-01    0.5578053197E+00
    0.1700000000E+04    0.1885744643E+00    0.1402082055E+00    0.6315658224E-01    0.6631509487E-01    0.5617180522E+00
    0.1900000000E+04    0.2000831924E+00    0.1348493306E+00    0.6346228180E-01    0.7036775857E-01    0.5649871201E+00
    0.2100000000E+04    0.2109390746E+00    0.1297709947E+00    0.6371862188E-01    0.7419107265E-01    0.5677706796E+00
    0.2300000000E+04    0.2212091941E+00    0.1249601115E+00    0.6393702678E-01    0.7780858497E-01    0.5701774441E+00
    0.2500000000E+04    0.2309468766E+00    0.1204017216E+00    0.6412558123E-01    0.8123901295E-01    0.5722849058E+00
    0.2700000000E+04    0.2401958296E+00    0.1160806437E+00    0.6429018134E-01    0.8449769742E-01    0.5741499769E+00
    0.2900000000E+04    0.2489928122E+00    0.1119822081E+00    0.6443523684E-01    0.8759754001E-01    0.5758155132E+00
    0.3100000000E+04    0.2573694145E+00    0.1080925580E+00    0.6456411717E-01    0.9054962811E-01    0.5773144798E+00
    0.3300000000E+04    0.2653532775E+00    0.1043987464E+00    0.6467944476E-01    0.9336366327E-01    0.5786727008E+00
    0.3500000000E+04    0.2729689503E+00    0.1008887361E+00    0.6478329366E-01    0.9604826210E-01    0.5799107315E+00
    0.3700000000E+04    0.2802385045E+00    0.9755135614E-01    0.6487732744E-01    0.9861117204E-01    0.5810451627E+00
    0.3900000000E+04    0.2871819845E+00    0.9437624222E-01    0.6496289717E-01    0.1010594293E+00    0.5820895523E+00
    0.4100000000E+04    0.2938177416E+00    0.9135377176E-01    0.6504111242E-01    0.1033994763E+00    0.5830551025E+00
    0.4300000000E+04    0.3001626883E+00    0.8847500159E-01    0.6511289347E-01    0.1056372508E+00    0.5839511603E+00
    0.4500000000E+04    0.3062324940E+00    0.8573160977E-01    0.6517901061E-01    0.1077782546E+00    0.5847855955E+00
    0.4700000000E+04    0.3120417378E+00    0.8311584274E-01    0.6524011375E-01    0.1098276072E+00    0.5855650868E+00
    0.4900000000E+04    0.3176040312E+00    0.8062046773E-01    0.6529675543E-01    0.1117900885E+00    0.5862953448E+00
    0.1000000000E+04    0.1415424119E+00    0.1610984250E+00    0.6135445139E-01    0.4975929569E-01    0.5432333735E+00
    0.3000000000E+04    0.2532318523E+00    0.1100121157E+00    0.6450152018E-01    0.8909141857E-01    0.5765840616E+00
    0.5000000000E+04    0.3202965851E+00    0.7941579882E-01    0.6532355370E-01    0.1127401621E+00    0.5866435744E+00
    0.7000000000E+04    0.3638924760E+00    0.6022055037E-01    0.6571089111E-01    0.1281327644E+00    0.5919222874E+00
    0.9000000000E+04    0.3933835757E+00    0.4758633062E-01    0.6593536753E-01    0.1385592906E+00    0.5952859623E+00
    0.1100000000E+05    0.4140730083E+00    0.3890537912E-01    0.6608034826E-01    0.1458845028E+00    0.5976622364E+00
    0.1300000000E+05    0.4290821172E+00    0.3270791160E-01    0.6618041755E-01    0.1512067189E+00    0.5994532652E+00
    0.1500000000E+05    0.4403003609E+00    0.2813281779E-01    0.6625261784E-01    0.1551911894E+00    0.6008647720E+00
    0.1700000000E+05    0.4489070615E+00    0.2465609778E-01    0.6630635202E-01    0.1582533703E+00    0.6020140714E+00
    0.1900000000E+05    0.4556616815E+00    0.2194714200E-01    0.6634724231E-01    0.1606609537E+00    0.6029734590E+00
    0.2100000000E+05    0.4610681929E+00    0.1979026129E-01    0.6637885943E-01    0.1625916731E+00    0.6037901716E+00
    0.2300000000E+05    0.4654704536E+00    0.1804040278E-01    0.6640358031E-01    0.1641668610E+00    0.6044965208E+00
    0.2500000000E+05    0.4691090928E+00    0.1659731759E-01    0.6642304801E-01    0.1654714712E+00    0.6051154400E+00
    0.2700000000E+05    0.4721563973E+00    0.1539000643E-01    0.6643843398E-01    0.1665663628E+00    0.6056637093E+00
    0.2900000000E+05    0.4747382899E+00    0.1436707191E-01    0.6645059525E-01    0.1674960425E+00    0.6061539233E+00
    0.3100000000E+05    0.4769485295E+00    0.1349056835E-01    0.6646017270E-01    0.1682936678E+00    0.6065957421E+00
    0.3300000000E+05    0.4788581052E+00    0.1273198173E-01    0.6646765469E-01    0.1689843582E+00    0.6069967149E+00
    0.3500000000E+05    0.4805215848E+00    0.1206954103E-01    0.6647341943E-01    0.1695874344E+00    0.6073628372E+00
    0.3700000000E+05    0.4819814926E+00    0.1148638196E-01    0.6647776405E-01    0.1701179618E+00    0.6076989392E+00
    0.3900000000E+05    0.4832713829E+00    0.1096926870E-01    0.6648092495E-01    0.1705878356E+00    0.6080089616E+00
    0.4100000000E+05    0.4844180354E+00    0.1050768837E-01    0.6648309229E-01    0.1710065551E+00    0.6082961553E+00
    0.4300000000E+05    0.4854430460E+00    0.1009319909E-01    0.6648442061E-01    0.1713817858E+00    0.6085632298E+00
    0.4500000000E+05    0.4863639972E+00    0.9718953770E-02    0.6648503661E-01    0.1717197729E+00    0.6088124633E+00
    0.4700000000E+05    0.4871953306E+00    0.9379347349E-02    0.6648504502E-01    0.1720256492E+00    0.6090457876E+00
    0.4900000000E+05    0.4879490041E+00    0.9069752326E-02    0.6648453303E-01    0.1723036678E+00    0.6092648529E+00
    0.1000000000E+05    0.4045961653E+00    0.4286230934E-01    0.6601502971E-01    0.1425278240E+00    0.5965657129E+00
    0.3000000000E+05    0.4758849819E+00    0.1391248285E-01    0.6645567343E-01    0.1679096339E+00    0.6063803683E+00
    0.5000000000E+05    0.4882999021E+00    0.8924979893E-02    0.6648410520E-01    0.1724333635E+00    0.6093694898E+00
    0.7000000000E+05    0.4929691255E+00    0.6940153416E-02    0.6646095147E-01    0.1741806893E+00    0.6109729149E+00
    0.9000000000E+05    0.4953433662E+00    0.5855732132E-02    0.6642601161E-01    0.1750947373E+00    0.6120176285E+00
    0.1100000000E+06    0.4967605599E+00    0.5158947526E-02    0.6638875568E-01    0.1756564980E+00    0.6127709220E+00
    0.1300000000E+06    0.4976947503E+00    0.4665788450E-02    0.6635208834E-01    0.1760379102E+00    0.6133491733E+00
    0.1500000000E+06    0.4983534482E+00    0.4293902562E-02    0.6631696080E-01    0.1763149381E+00    0.6138123667E+00
    0.1700000000E+06    0.4988410246E+00    0.4000731066E-02    0.6628363972E-01    0.1765261551E+00    0.6141950255E+00
    0.1900000000E+06    0.4992154153E+00    0.3761937171E-02    0.6625213204E-01    0.1766931821E+00    0.6145186368E+00
    0.2100000000E+06    0.4995112418E+00    0.3562520196E-02    0.6622234572E-01    0.1768290682E+00    0.6147973808E+00
    0.2300000000E+06    0.4997504139E+00    0.3392684703E-02    0.6619415513E-01    0.1769421543E+00    0.6150410520E+00
    0.2500000000E+06    0.4999474472E+00    0.3245735072E-02    0.6616742865E-01    0.1770380224E+00    0.6152566677E+00
    0.2700000000E+06    0.5001123256E+00    0.3116921752E-02    0.6614204014E-01    0.1771205511E+00    0.6154494076E+00
    0.2900000000E+06    0.5002521339E+00    0.3002770903E-02    0.6611787344E-01    0.1771925209E+00    0.6156231922E+00
    0.3100000000E+06    0.5003720346E+00    0.2900675614E-02    0.6609482349E-01    0.1772559785E+00    0.6157810524E+00
    0.3300000000E+06    0.5004758751E+00    0.2808636329E-02    0.6607279616E-01    0.1773124652E+00    0.6159253740E+00
    0.3500000000E+06    0.5005665799E+00    0.2725090232E-02    0.6605170743E-01    0.1773631643E+00    0.6160580655E+00
    0.3700000000E+06    0.5006464103E+00    0.2648795722E-02    0.6603148235E-01    0.1774090005E+00    0.6161806742E+00
    0.3900000000E+06    0.5007171414E+00    0.2578752153E-02    0.6601205405E-01    0.1774507068E+00    0.6162944705E+00
    0.4100000000E+06    0.5007801857E+00    0.2514142797E-02    0.6599336272E-01    0.1774888725E+00    0.6164005087E+00
    0.4300000000E+06    0.5008366805E+00    0.2454293477E-02    0.6597535480E-01    0.1775239772E+00    0.6164996722E+00
    0.4500000000E+06    0.5008875517E+00    0.2398642046E-02    0.6595798216E-01    0.1775564151E+00    0.6165927078E+00
    0.4700000000E+06    0.5009335604E+00    0.2346715489E-02    0.6594120146E-01    0.1775865134E+00    0.6166802522E+00
    0.4900000000E+06    0.5009753379E+00    0.2298112503E-02    0.6592497356E-01    0.1776145466E+00    0.6167628515E+00
    0.1000000000E+06    0.4961323830E+00    0.5474031114E-02    0.6640741975E-01    0.1754054641E+00    0.6124215135E+00
    0.3000000000E+06    0.5003143068E+00    0.2950353189E-02    0.6610621500E-01    0.1772252075E+00    0.6157039509E+00
    0.5000000000E+06    0.5009948084E+00    0.2274948182E-02    0.6591705569E-01    0.1776278625E+00    0.6168024469E+00
    0.7000000000E+06    0.5012540387E+00    0.1924072391E-02    0.6578065725E-01    0.1778268492E+00    0.6174216618E+00
    0.9000000000E+06    0.5013833056E+00    0.1699697065E-02    0.6567378560E-01    0.1779529369E+00    0.6178394724E+00
    0.1100000000E+07    0.5014568686E+00    0.1540192712E-02    0.6558579789E-01    0.1780432362E+00    0.6181491100E+00
    0.1300000000E+07    0.5015019714E+00    0.1419213151E-02    0.6551094742E-01    0.1781127625E+00    0.6183922558E+00
    0.1500000000E+07    0.5015308387E+00    0.1323334362E-02    0.6544577606E-01    0.1781689034E+00    0.6185908465E+00
    0.1700000000E+07    0.5015497168E+00    0.1244894790E-02    0.6538803895E-01    0.1782157796E+00    0.6187577292E+00
    0.1900000000E+07    0.5015621021E+00    0.1179157776E-02    0.6533619496E-01    0.1782559014E+00    0.6189010214E+00
    0.2100000000E+07    0.5015700894E+00    0.1123015086E-02    0.6528913959E-01    0.1782909009E+00    0.6190261513E+00
    0.2300000000E+07    0.5015750010E+00    0.1074330530E-02    0.6524605380E-01    0.1783218936E+00    0.6191369139E+00
    0.2500000000E+07    0.5015777071E+00    0.1031580668E-02    0.6520631320E-01    0.1783496734E+00    0.6192360574E+00
    0.2700000000E+07    0.5015788001E+00    0.9936456632E-03    0.6516943066E-01    0.1783748237E+00    0.6193256308E+00
    0.2900000000E+07    0.5015786946E+00    0.9596813114E-03    0.6513501879E-01    0.1783977850E+00    0.6194071995E+00
    0.3100000000E+07    0.5015776879E+00    0.9290374412E-03    0.6510276429E-01    0.1784188975E+00    0.6194819841E+00
    0.3300000000E+07    0.5015759970E+00    0.9012040416E-03    0.6507241021E-01    0.1784384289E+00    0.6195509531E+00
    0.3500000000E+07    0.5015737836E+00    0.8757746244E-03    0.6504374313E-01    0.1784565938E+00    0.6196148872E+00
    0.3700000000E+07    0.5015711694E+00    0.8524206571E-03    0.6501658381E-01    0.1784735664E+00    0.6196744241E+00
    0.3900000000E+07    0.5015682475E+00    0.8308733192E-03    0.6499078027E-01    0.1784894901E+00    0.6197300907E+00
    0.4100000000E+07    0.5015650899E+00    0.8109102216E-03    0.6496620252E-01    0.1785044841E+00    0.6197823272E+00
    0.4300000000E+07    0.5015617525E+00    0.7923455696E-03    0.6494273847E-01    0.1785186489E+00    0.6198315049E+00
    0.4500000000E+07    0.5015582796E+00    0.7750227603E-03    0.6492029080E-01    0.1785320695E+00    0.6198779393E+00
    0.4700000000E+07    0.5015547059E+00    0.7588087324E-03    0.6489877447E-01    0.1785448187E+00    0.6199219010E+00
    0.4900000000E+07    0.5015510592E+00    0.7435895994E-03    0.6487811472E-01    0.1785569593E+00    0.6199636235E+00
    0.1000000000E+07    0.5014248129E+00    0.1613923881E-02    0.6562786314E-01    0.1780013569E+00    0.6180045420E+00
    0.3000000000E+07    0.5015782888E+00    0.9439789817E-03    0.6511863908E-01    0.1784085542E+00    0.6194453742E+00
    0.5000000000E+07    0.5015492157E+00    0.7363219157E-03    0.6486808511E-01    0.1785628187E+00    0.6199837094E+00
    0.7000000000E+07    0.5015120602E+00    0.6252227634E-03    0.6469981340E-01    0.1786581616E+00    0.6203055548E+00
    0.9000000000E+07    0.5014776726E+00    0.5533322456E-03    0.6457278952E-01    0.1787270695E+00    0.6205317962E+00
    0.1100000000E+08    0.5014469951E+00    0.5019128083E-03    0.6447066554E-01    0.1787809757E+00    0.6207048110E+00
    0.1300000000E+08    0.5014196360E+00    0.4627708707E-03    0.6438523620E-01    0.1788252219E+00    0.6208441661E+00
    0.1500000000E+08    0.5013950629E+00    0.4316772652E-03    0.6431178957E-01    0.1788627315E+00    0.6209604293E+00
    0.1700000000E+08    0.5013728089E+00    0.4061982522E-03    0.6424736673E-01    0.1788952771E+00    0.6210599254E+00
    0.1900000000E+08    0.5013524964E+00    0.3848206629E-03    0.6418998666E-01    0.1789240141E+00    0.6211467263E+00
    0.2100000000E+08    0.5013338251E+00    0.3665474845E-03    0.6413825747E-01    0.1789497373E+00    0.6212236003E+00
    0.2300000000E+08    0.5013165555E+00    0.3506914056E-03    0.6409116349E-01    0.1789730165E+00    0.6212925113E+00
    0.2500000000E+08    0.5013004950E+00    0.3367611095E-03    0.6404794078E-01    0.1789942742E+00    0.6213549008E+00
    0.2700000000E+08    0.5012854872E+00    0.3243947717E-03    0.6400800013E-01    0.1790138322E+00    0.6214118567E+00
