  Pressure (Pa) 22mC5-400 (mol/kg) 2mC6-400 (mol/kg) 3mC6-400 (mol/kg) 23mC5-400 (mol/kg) C7-400 (mol/kg)
    0.1000000000E+01    0.1059736930E-02    0.3174312255E-02    0.3685655071E-02    0.5582342918E-03    0.1708786545E-02
    0.3000000000E+01    0.3145008348E-02    0.9288064258E-02    0.1080361953E-01    0.1656697965E-02    0.5009420472E-02
    0.5000000000E+01    0.5186199639E-02    0.1510639617E-01    0.1760357552E-01    0.2731956795E-02    0.8163255536E-02
    0.7000000000E+01    0.7185051529E-02    0.2064893520E-01    0.2410734373E-01    0.3784927021E-02    0.1118035036E-01
    0.9000000000E+01    0.9143211319E-02    0.2593359553E-01    0.3033477219E-01    0.4816475713E-02    0.1406985491E-01
    0.1100000000E+02    0.1106223911E-01    0.3097676355E-01    0.3630395502E-01    0.5827424047E-02    0.1684011119E-01
    0.1300000000E+02    0.1294361355E-01    0.3579345927E-01    0.4203142263E-01    0.6818550323E-02    0.1949874084E-01
    0.1500000000E+02    0.1478873709E-01    0.4039747753E-01    0.4753230769E-01    0.7790592749E-02    0.2205272155E-01
    0.1700000000E+02    0.1659894089E-01    0.4480151189E-01    0.5282049035E-01    0.8744252003E-02    0.2450845390E-01
    0.1900000000E+02    0.1837548933E-01    0.4901726358E-01    0.5790872568E-01    0.9680193610E-02    0.2687182012E-01
    0.2100000000E+02    0.2011958413E-01    0.5305553770E-01    0.6280875591E-01    0.1059905013E-01    0.2914823572E-01
    0.2300000000E+02    0.2183236828E-01    0.5692632828E-01    0.6753140941E-01    0.1150142321E-01    0.3134269506E-01
    0.2500000000E+02    0.2351492957E-01    0.6063889374E-01    0.7208668825E-01    0.1238788544E-01    0.3345981176E-01
    0.2700000000E+02    0.2516830394E-01    0.6420182406E-01    0.7648384595E-01    0.1325898210E-01    0.3550385442E-01
    0.2900000000E+02    0.2679347853E-01    0.6762310055E-01    0.8073145654E-01    0.1411523281E-01    0.3747877848E-01
    0.3100000000E+02    0.2839139455E-01    0.7091014935E-01    0.8483747606E-01    0.1495713302E-01    0.3938825455E-01
    0.3300000000E+02    0.2996294997E-01    0.7406988924E-01    0.8880929759E-01    0.1578515540E-01    0.4123569374E-01
    0.3500000000E+02    0.3150900199E-01    0.7710877466E-01    0.9265380039E-01    0.1659975117E-01    0.4302427031E-01
    0.3700000000E+02    0.3303036932E-01    0.8003283425E-01    0.9637739404E-01    0.1740135130E-01    0.4475694200E-01
    0.3900000000E+02    0.3452783438E-01    0.8284770571E-01    0.9998605805E-01    0.1819036764E-01    0.4643646827E-01
    0.4100000000E+02    0.3600214528E-01    0.8555866715E-01    0.1034853776E+00    0.1896719400E-01    0.4806542678E-01
    0.4300000000E+02    0.3745401771E-01    0.8817066554E-01    0.1068805755E+00    0.1973220712E-01    0.4964622817E-01
    0.4500000000E+02    0.3888413670E-01    0.9068834239E-01    0.1101765417E+00    0.2048576760E-01    0.5118112948E-01
    0.4700000000E+02    0.4029315827E-01    0.9311605712E-01    0.1133778590E+00    0.2122822076E-01    0.5267224625E-01
    0.4900000000E+02    0.4168171092E-01    0.9545790826E-01    0.1164888274E+00    0.2195989745E-01    0.5412156354E-01
    0.1000000000E+02    0.1010752246E-01    0.2848439705E-01    0.3335057656E-01    0.5324475310E-02    0.1546939679E-01
    0.3000000000E+02    0.2759578675E-01    0.6928295962E-01    0.8280169052E-01    0.1453794667E-01    0.3844147852E-01
    0.5000000000E+02    0.4236850066E-01    0.9659784923E-01    0.1180117026E+00    0.2232179425E-01    0.5483113451E-01
    0.7000000000E+02    0.5516370714E-01    0.1157145328E+00    0.1445871549E+00    0.2906452049E-01    0.6722576413E-01
    0.9000000000E+02    0.6646504352E-01    0.1294966837E+00    0.1655051358E+00    0.3502071992E-01    0.7700023330E-01
    0.1100000000E+03    0.7660349678E-01    0.1396323444E+00    0.1824982689E+00    0.4036463557E-01    0.8495523028E-01
    0.1300000000E+03    0.8581380249E-01    0.1471803303E+00    0.1966464183E+00    0.4521984428E-01    0.9159011268E-01
    0.1500000000E+03    0.9426746986E-01    0.1528372948E+00    0.2086594119E+00    0.4967663978E-01    0.9723333323E-01
    0.1700000000E+03    0.1020930224E+00    0.1570793599E+00    0.2190241457E+00    0.5380268706E-01    0.1021103308E+00
    0.1900000000E+03    0.1093888903E+00    0.1602421674E+00    0.2280864528E+00    0.5764980865E-01    0.1063813292E+00
    0.2100000000E+03    0.1162318967E+00    0.1625685035E+00    0.2360992222E+00    0.6125845210E-01    0.1101635628E+00
    0.2300000000E+03    0.1226830064E+00    0.1642378528E+00    0.2432519896E+00    0.6466071596E-01    0.1135449497E+00
    0.2500000000E+03    0.1287913169E+00    0.1653853994E+00    0.2496898417E+00    0.6788245104E-01    0.1165928296E+00
    0.2700000000E+03    0.1345968922E+00    0.1661146160E+00    0.2555258939E+00    0.7094475211E-01    0.1193597342E+00
    0.2900000000E+03    0.1401328140E+00    0.1665058256E+00    0.2608497605E+00    0.7386503764E-01    0.1218873053E+00
    0.3100000000E+03    0.1454266919E+00    0.1666221576E+00    0.2657334494E+00    0.7665784520E-01    0.1242090225E+00
    0.3300000000E+03    0.1505017942E+00    0.1665137741E+00    0.2702355531E+00    0.7933542650E-01    0.1263521437E+00
    0.3500000000E+03    0.1553779059E+00    0.1662209243E+00    0.2744042878E+00    0.8190819921E-01    0.1283391121E+00
    0.3700000000E+03    0.1600719878E+00    0.1657761850E+00    0.2782797345E+00    0.8438509413E-01    0.1301885946E+00
    0.3900000000E+03    0.1645986902E+00    0.1652061294E+00    0.2818955178E+00    0.8677382540E-01    0.1319162599E+00
    0.4100000000E+03    0.1689707563E+00    0.1645325860E+00    0.2852800817E+00    0.8908110290E-01    0.1335353698E+00
    0.4300000000E+03    0.1731993422E+00    0.1637735982E+00    0.2884576706E+00    0.9131280100E-01    0.1350572342E+00
    0.4500000000E+03    0.1772942739E+00    0.1629441659E+00    0.2914490939E+00    0.9347409373E-01    0.1364915659E+00
    0.4700000000E+03    0.1812642554E+00    0.1620568218E+00    0.2942723269E+00    0.9556956411E-01    0.1378467590E+00
    0.4900000000E+03    0.1851170368E+00    0.1611220857E+00    0.2969429884E+00    0.9760329320E-01    0.1391301113E+00
    0.1000000000E+03    0.7166317138E-01    0.1349433761E+00    0.1744137511E+00    0.3776054836E-01    0.8116884621E-01
    0.3000000000E+03    0.1428084636E+00    0.1665949527E+00    0.2633426909E+00    0.7527656274E-01    0.1230720648E+00
    0.5000000000E+03    0.1870016735E+00    0.1606397724E+00    0.2982254373E+00    0.9859816106E-01    0.1397468724E+00
    0.7000000000E+03    0.2199019255E+00    0.1500482932E+00    0.3184204745E+00    0.1159704977E+00    0.1495065439E+00
    0.9000000000E+03    0.2460041512E+00    0.1395295755E+00    0.3321129001E+00    0.1297604519E+00    0.1561833737E+00
    0.1100000000E+04    0.2673630261E+00    0.1300334561E+00    0.3422329879E+00    0.1410500067E+00    0.1611564302E+00
    0.1300000000E+04    0.2851690872E+00    0.1216835869E+00    0.3501314939E+00    0.1504661698E+00    0.1650643251E+00
    0.1500000000E+04    0.3002092766E+00    0.1143907804E+00    0.3565320733E+00    0.1584234657E+00    0.1682506053E+00
    0.1700000000E+04    0.3130445228E+00    0.1080179757E+00    0.3618634046E+00    0.1652174270E+00    0.1709195522E+00
    0.1900000000E+04    0.3240930849E+00    0.1024295417E+00    0.3663984298E+00    0.1710684682E+00    0.1732016885E+00
    0.2100000000E+04    0.3336759006E+00    0.9750542095E-01    0.3703206516E+00    0.1761457545E+00    0.1751850515E+00
    0.2300000000E+04    0.3420441051E+00    0.9314367334E-01    0.3737588031E+00    0.1805816876E+00    0.1769315905E+00
    0.2500000000E+04    0.3493970812E+00    0.8925920033E-01    0.3768063362E+00    0.1844814071E+00    0.1784864047E+00
    0.2700000000E+04    0.3558949511E+00    0.8578140490E-01    0.3795330237E+00    0.1879293670E+00    0.1798832567E+00
    0.2900000000E+04    0.3616675495E+00    0.8265177661E-01    0.3819921980E+00    0.1909940603E+00    0.1811480194E+00
    0.3100000000E+04    0.3668210398E+00    0.7982173367E-01    0.3842254466E+00    0.1937315039E+00    0.1823009170E+00
    0.3300000000E+04    0.3714428873E+00    0.7725080286E-01    0.3862657599E+00    0.1961878571E+00    0.1833580298E+00
    0.3500000000E+04    0.3756056511E+00    0.7490512490E-01    0.3881397015E+00    0.1984014203E+00    0.1843323342E+00
    0.3700000000E+04    0.3793699121E+00    0.7275624258E-01    0.3898689419E+00    0.2004041771E+00    0.1852344388E+00
    0.3900000000E+04    0.3827865542E+00    0.7078012344E-01    0.3914713661E+00    0.2022229963E+00    0.1860731169E+00
    0.4100000000E+04    0.3858985579E+00    0.6895637274E-01    0.3929618874E+00    0.2038805780E+00    0.1868556984E+00
    0.4300000000E+04    0.3887424220E+00    0.6726759901E-01    0.3943530569E+00    0.2053962022E+00    0.1875883641E+00
    0.4500000000E+04    0.3913492970E+00    0.6569890140E-01    0.3956555264E+00    0.2067863269E+00    0.1882763690E+00
    0.4700000000E+04    0.3937458964E+00    0.6423745400E-01    0.3968784040E+00    0.2080650683E+00    0.1889242146E+00
    0.4900000000E+04    0.3959552326E+00    0.6287216755E-01    0.3980295321E+00    0.2092445892E+00    0.1895357836E+00
    0.1000000000E+04    0.2571894379E+00    0.1346375028E+00    0.3375141168E+00    0.1356719254E+00    0.1588331167E+00
    0.3000000000E+04    0.3643158277E+00    0.8120200758E-01    0.3831348288E+00    0.1924005983E+00    0.1817373632E+00
    0.5000000000E+04    0.3969960059E+00    0.6222252507E-01    0.3985803493E+00    0.2098004875E+00    0.1898290350E+00
    0.7000000000E+04    0.4116273579E+00    0.5250146275E-01    0.4070862544E+00    0.2176380438E+00    0.1944145351E+00
    0.9000000000E+04    0.4196678681E+00    0.4643177884E-01    0.4126684731E+00    0.2219734086E+00    0.1974941948E+00
    0.1100000000E+05    0.4246740670E+00    0.4218771418E-01    0.4166923107E+00    0.2246913909E+00    0.1997585870E+00
    0.1300000000E+05    0.4280610832E+00    0.3900121887E-01    0.4197690397E+00    0.2265434788E+00    0.2015207688E+00
    0.1500000000E+05    0.4304917020E+00    0.3649055616E-01    0.4222192252E+00    0.2278823792E+00    0.2029466967E+00
    0.1700000000E+05    0.4323140915E+00    0.3444279536E-01    0.4242294660E+00    0.2288937750E+00    0.2041339112E+00
    0.1900000000E+05    0.4337273752E+00    0.3272877086E-01    0.4259167827E+00    0.2296840990E+00    0.2051441249E+00
    0.2100000000E+05    0.4348531359E+00    0.3126499745E-01    0.4273587951E+00    0.2303184866E+00    0.2060186075E+00
    0.2300000000E+05    0.4357695644E+00    0.2999477692E-01    0.4286092954E+00    0.2308389244E+00    0.2067861791E+00
    0.2500000000E+05    0.4365291095E+00    0.2887804762E-01    0.4297068996E+00    0.2312736431E+00    0.2074676781E+00
    0.2700000000E+05    0.4371682012E+00    0.2788557218E-01    0.4306801442E+00    0.2316422986E+00    0.2080786089E+00
    0.2900000000E+05    0.4377128963E+00    0.2699543119E-01    0.4315506349E+00    0.2319589840E+00    0.2086307865E+00
    0.3100000000E+05    0.4381823043E+00    0.2619081440E-01    0.4323350708E+00    0.2322340604E+00    0.2091333995E+00
    0.3300000000E+05    0.4385907449E+00    0.2545857740E-01    0.4330465896E+00    0.2324753114E+00    0.2095937198E+00
    0.3500000000E+05    0.4389491523E+00    0.2478826852E-01    0.4336956879E+00    0.2326886953E+00    0.2100175909E+00
    0.3700000000E+05    0.4392660146E+00    0.2417145485E-01    0.4342908667E+00    0.2328788490E+00    0.2104097710E+00
    0.3900000000E+05    0.4395480179E+00    0.2360124422E-01    0.4348390937E+00    0.2330494344E+00    0.2107741812E+00
    0.4100000000E+05    0.4398004982E+00    0.2307193908E-01    0.4353461413E+00    0.2332033816E+00    0.2111140867E+00
    0.4300000000E+05    0.4400277640E+00    0.2257878127E-01    0.4358168378E+00    0.2333430623E+00    0.2114322322E+00
    0.4500000000E+05    0.4402333310E+00    0.2211776066E-01    0.4362552570E+00    0.2334704171E+00    0.2117309446E+00
    0.4700000000E+05    0.4404200956E+00    0.2168546951E-01    0.4366648628E+00    0.2335870486E+00    0.2120122122E+00
    0.4900000000E+05    0.4405904647E+00    0.2127899025E-01    0.4370486222E+00    0.2336942924E+00    0.2122777454E+00
    0.1000000000E+05    0.4224355904E+00    0.4414281704E-01    0.4148271937E+00    0.2234737136E+00    0.1987037959E+00
    0.3000000000E+05    0.4379560232E+00    0.2658332653E-01    0.4319527175E+00    0.2321011867E+00    0.2088877957E+00
    0.5000000000E+05    0.4406701443E+00    0.2108463040E-01    0.4372316228E+00    0.2337447515E+00    0.2124050825E+00
    0.7000000000E+05    0.4417553082E+00    0.1809117902E-01    0.4400035365E+00    0.2344580056E+00    0.2143994976E+00
    0.9000000000E+05    0.4423272694E+00    0.1612887898E-01    0.4417631220E+00    0.2348653770E+00    0.2157465340E+00
    0.1100000000E+06    0.4426748243E+00    0.1471143337E-01    0.4429985431E+00    0.2351333121E+00    0.2167440984E+00
    0.1300000000E+06    0.4429052256E+00    0.1362398806E-01    0.4439224084E+00    0.2353254068E+00    0.2175263282E+00
    0.1500000000E+06    0.4430671915E+00    0.1275463150E-01    0.4446438840E+00    0.2354713661E+00    0.2181641101E+00
    0.1700000000E+06    0.4431859397E+00    0.1203845618E-01    0.4452254334E+00    0.2355869957E+00    0.2186990626E+00
    0.1900000000E+06    0.4432757844E+00    0.1143483216E-01    0.4457056646E+00    0.2356815162E+00    0.2191575215E+00
    0.2100000000E+06    0.4433454297E+00    0.1091683048E-01    0.4461098657E+00    0.2357606883E+00    0.2195571150E+00
    0.2300000000E+06    0.4434004581E+00    0.1046579049E-01    0.4464553667E+00    0.2358283078E+00    0.2199101717E+00
    0.2500000000E+06    0.4434446068E+00    0.1006831123E-01    0.4467544833E+00    0.2358869846E+00    0.2202256221E+00
    0.2700000000E+06    0.4434804659E+00    0.9714482864E-02    0.4470162331E+00    0.2359385767E+00    0.2205101242E+00
    0.2900000000E+06    0.4435098840E+00    0.9396795621E-02    0.4472473856E+00    0.2359844454E+00    0.2207687635E+00
    0.3100000000E+06    0.4435342132E+00    0.9109439051E-02    0.4474531317E+00    0.2360256133E+00    0.2210055037E+00
    0.3300000000E+06    0.4435544636E+00    0.8847836527E-02    0.4476375246E+00    0.2360628646E+00    0.2212234897E+00
    0.3500000000E+06    0.4435714036E+00    0.8608326886E-02    0.4478037804E+00    0.2360968119E+00    0.2214252545E+00
    0.3700000000E+06    0.4435856275E+00    0.8387941182E-02    0.4479544860E+00    0.2361279412E+00    0.2216128661E+00
    0.3900000000E+06    0.4435976011E+00    0.8184242660E-02    0.4480917487E+00    0.2361566437E+00    0.2217880327E+00
    0.4100000000E+06    0.4436076943E+00    0.7995209802E-02    0.4482173033E+00    0.2361832383E+00    0.2219521804E+00
    0.4300000000E+06    0.4436162043E+00    0.7819149374E-02    0.4483325926E+00    0.2362079877E+00    0.2221065109E+00
    0.4500000000E+06    0.4436233721E+00    0.7654630770E-02    0.4484388270E+00    0.2362311107E+00    0.2222520456E+00
    0.4700000000E+06    0.4436293948E+00    0.7500435746E-02    0.4485370302E+00    0.2362527910E+00    0.2223896591E+00
    0.4900000000E+06    0.4436344353E+00    0.7355519450E-02    0.4486280744E+00    0.2362731843E+00    0.2225201061E+00
    0.1000000000E+06    0.4425203173E+00    0.1536895912E-01    0.4424295530E+00    0.2350116053E+00    0.2162784888E+00
    0.3000000000E+06    0.4435226150E+00    0.9249636664E-02    0.4473531585E+00    0.2360055633E+00    0.2208896580E+00
    0.5000000000E+06    0.4436366305E+00    0.7286254062E-02    0.4486711498E+00    0.2362829406E+00    0.2225828502E+00
    0.7000000000E+06    0.4436522942E+00    0.6222298362E-02    0.4492926804E+00    0.2364344735E+00    0.2235830394E+00
    0.9000000000E+06    0.4436429785E+00    0.5528583768E-02    0.4496495418E+00    0.2365366414E+00    0.2242798599E+00
    0.1100000000E+07    0.4436256852E+00    0.5029779833E-02    0.4498762955E+00    0.2366130595E+00    0.2248089917E+00
    0.1300000000E+07    0.4436058776E+00    0.4648556559E-02    0.4500293236E+00    0.2366738435E+00    0.2252327180E+00
    0.1500000000E+07    0.4435856189E+00    0.4344754831E-02    0.4501365910E+00    0.2367241903E+00    0.2255845061E+00
    0.1700000000E+07    0.4435657485E+00    0.4095155706E-02    0.4502135921E+00    0.2367671016E+00    0.2258842964E+00
    0.1900000000E+07    0.4435466076E+00    0.3885268204E-02    0.4502696146E+00    0.2368044596E+00    0.2261448743E+00
    0.2100000000E+07    0.4435283179E+00    0.3705514278E-02    0.4503105649E+00    0.2368375184E+00    0.2263749009E+00
    0.2300000000E+07    0.4435109013E+00    0.3549273378E-02    0.4503403753E+00    0.2368671542E+00    0.2265805003E+00
    0.2500000000E+07    0.4434943331E+00    0.3411801858E-02    0.4503617626E+00    0.2368940021E+00    0.2267661535E+00
    0.2700000000E+07    0.4434785687E+00    0.3289599153E-02    0.4503766607E+00    0.2369185365E+00    0.2269352330E+00
    0.2900000000E+07    0.4434635557E+00    0.3180017532E-02    0.4503864819E+00    0.2369411213E+00    0.2270903370E+00
    0.3100000000E+07    0.4434492405E+00    0.3081011971E-02    0.4503922794E+00    0.2369620411E+00    0.2272335077E+00
    0.3300000000E+07    0.4434355714E+00    0.2990974280E-02    0.4503948532E+00    0.2369815229E+00    0.2273663777E+00
    0.3500000000E+07    0.4434224998E+00    0.2908619860E-02    0.4503948205E+00    0.2369997504E+00    0.2274902717E+00
    0.3700000000E+07    0.4434099810E+00    0.2832908420E-02    0.4503926642E+00    0.2370168744E+00    0.2276062788E+00
    0.3900000000E+07    0.4433979741E+00    0.2762987233E-02    0.4503887667E+00    0.2370330203E+00    0.2277153044E+00
    0.4100000000E+07    0.4433864417E+00    0.2698149723E-02    0.4503834340E+00    0.2370482930E+00    0.2278181091E+00
    0.4300000000E+07    0.4433753501E+00    0.2637804717E-02    0.4503769136E+00    0.2370627819E+00    0.2279153378E+00
    0.4500000000E+07    0.4433646685E+00    0.2581453257E-02    0.4503694067E+00    0.2370765631E+00    0.2280075417E+00
    0.4700000000E+07    0.4433543691E+00    0.2528670866E-02    0.4503610790E+00    0.2370897023E+00    0.2280951955E+00
    0.4900000000E+07    0.4433444266E+00    0.2479093820E-02    0.4503520672E+00    0.2371022563E+00    0.2281787106E+00
    0.1000000000E+07    0.4436348630E+00    0.5260908786E-02    0.4497746834E+00    0.2365772689E+00    0.2245605300E+00
    0.3000000000E+07    0.4434563142E+00    0.3129301966E-02    0.4503898287E+00    0.2369517740E+00    0.2271633037E+00
    0.5000000000E+07    0.4433395819E+00    0.2455407554E-02    0.4503473411E+00    0.2371083297E+00    0.2282190302E+00
    0.7000000000E+07    0.4432568137E+00    0.2092387148E-02    0.4502364057E+00    0.2372084069E+00    0.2288753843E+00
    0.9000000000E+07    0.4431928875E+00    0.1856518281E-02    0.4501174886E+00    0.2372820726E+00    0.2293486651E+00
    0.1100000000E+08    0.4431408474E+00    0.1687324254E-02    0.4500030036E+00    0.2373403848E+00    0.2297173973E+00
    0.1300000000E+08    0.4430969744E+00    0.1558241120E-02    0.4498957058E+00    0.2373886491E+00    0.2300187324E+00
    0.1500000000E+08    0.4430590554E+00    0.1455514197E-02    0.4497958021E+00    0.2374298233E+00    0.2302731154E+00
    0.1700000000E+08    0.4430256682E+00    0.1371208793E-02    0.4497027783E+00    0.2374657256E+00    0.2304929700E+00
    0.1900000000E+08    0.4429958455E+00    0.1300381774E-02    0.4496159514E+00    0.2374975538E+00    0.2306863972E+00
    0.2100000000E+08    0.4429688997E+00    0.1239770749E-02    0.4495346482E+00    0.2375261390E+00    0.2308589654E+00
    0.2300000000E+08    0.4429443246E+00    0.1187123512E-02    0.4494582596E+00    0.2375520814E+00    0.2310146627E+00
    0.2500000000E+08    0.4429217365E+00    0.1140828091E-02    0.4493862520E+00    0.2375758285E+00    0.2311564415E+00
    0.2700000000E+08    0.4429008382E+00    0.1099696052E-02    0.4493181636E+00    0.2375977231E+00    0.2312865466E+00
