  Pressure (Pa) 22mC5-400 (mol/kg) 2mC6-400 (mol/kg) 3mC6-400 (mol/kg) 23mC5-400 (mol/kg) C7-400 (mol/kg)
    0.1000000000E+01    0.1058920791E-02    0.3954687312E-02    0.2098467194E-02    0.5578045760E-03    0.5107893900E-02
    0.3000000000E+01    0.3137884649E-02    0.1149780979E-01    0.6108607516E-02    0.1652947154E-02    0.1487103063E-01
    0.5000000000E+01    0.5166999317E-02    0.1858788266E-01    0.9888399710E-02    0.2721847266E-02    0.2407591004E-01
    0.7000000000E+01    0.7148519763E-02    0.2526301293E-01    0.1345798152E-01    0.3765691861E-02    0.3277126707E-01
    0.9000000000E+01    0.9084562366E-02    0.3155708044E-01    0.1683518669E-01    0.4785594946E-02    0.4100026484E-01
    0.1100000000E+02    0.1097711549E-01    0.3750031706E-01    0.2003586629E-01    0.5782603149E-02    0.4880127149E-01
    0.1300000000E+02    0.1282804910E-01    0.4311979228E-01    0.2307415774E-01    0.6757700779E-02    0.5620851032E-01
    0.1500000000E+02    0.1463912353E-01    0.4843982247E-01    0.2596271103E-01    0.7711814447E-02    0.6325260687E-01
    0.1700000000E+02    0.1641199746E-01    0.5348231751E-01    0.2871288010E-01    0.8645817259E-02    0.6996105142E-01
    0.1900000000E+02    0.1814823525E-01    0.5826707583E-01    0.3133488526E-01    0.9560532670E-02    0.7635859186E-01
    0.2100000000E+02    0.1984931358E-01    0.6281203657E-01    0.3383795184E-01    0.1045673799E-01    0.8246756879E-01
    0.2300000000E+02    0.2151662760E-01    0.6713349608E-01    0.3623042887E-01    0.1133516762E-01    0.8830820261E-01
    0.2500000000E+02    0.2315149650E-01    0.7124629449E-01    0.3851989122E-01    0.1219651598E-01    0.9389884040E-01
    0.2700000000E+02    0.2475516871E-01    0.7516397717E-01    0.4071322765E-01    0.1304144023E-01    0.9925616901E-01
    0.2900000000E+02    0.2632882660E-01    0.7889893491E-01    0.4281671720E-01    0.1387056278E-01    0.1043953997E+00
    0.3100000000E+02    0.2787359086E-01    0.8246252607E-01    0.4483609549E-01    0.1468447356E-01    0.1093304284E+00
    0.3300000000E+02    0.2939052451E-01    0.8586518332E-01    0.4677661258E-01    0.1548373216E-01    0.1140739761E+00
    0.3500000000E+02    0.3088063661E-01    0.8911650737E-01    0.4864308357E-01    0.1626886974E-01    0.1186377105E+00
    0.3700000000E+02    0.3234488565E-01    0.9222534925E-01    0.5043993299E-01    0.1704039087E-01    0.1230323543E+00
    0.3900000000E+02    0.3378418278E-01    0.9519988307E-01    0.5217123381E-01    0.1779877520E-01    0.1272677787E+00
    0.4100000000E+02    0.3519939468E-01    0.9804767019E-01    0.5384074191E-01    0.1854447895E-01    0.1313530874E+00
    0.4300000000E+02    0.3659134629E-01    0.1007757163E+00    0.5545192655E-01    0.1927793639E-01    0.1352966901E+00
    0.4500000000E+02    0.3796082333E-01    0.1033905221E+00    0.5700799736E-01    0.1999956114E-01    0.1391063678E+00
    0.4700000000E+02    0.3930857466E-01    0.1058981285E+00    0.5851192831E-01    0.2070974741E-01    0.1427893309E+00
    0.4900000000E+02    0.4063531438E-01    0.1083041569E+00    0.5996647917E-01    0.2140887113E-01    0.1463522709E+00
    0.1000000000E+02    0.1003615557E-01    0.3457079178E-01    0.1845667127E-01    0.5286897984E-02    0.4495203782E-01
    0.3000000000E+02    0.2710475269E-01    0.8070147873E-01    0.4383658137E-01    0.1427938398E-01    0.1068876182E+00
    0.5000000000E+02    0.4129101906E-01    0.1094707303E+00    0.6067604563E-01    0.2175439727E-01    0.1480906930E+00
    0.7000000000E+02    0.5345214537E-01    0.1285690199E+00    0.7281045917E-01    0.2816317578E-01    0.1778567976E+00
    0.9000000000E+02    0.6412439733E-01    0.1417445210E+00    0.8205705999E-01    0.3378802990E-01    0.2005942179E+00
    0.1100000000E+03    0.7366175433E-01    0.1510503556E+00    0.8939244263E-01    0.3881531475E-01    0.2186740634E+00
    0.1300000000E+03    0.8230813683E-01    0.1577062762E+00    0.9539055525E-01    0.4337344844E-01    0.2334910284E+00
    0.1500000000E+03    0.9023765686E-01    0.1624816904E+00    0.1004120976E+00    0.4755409939E-01    0.2459223426E+00
    0.1700000000E+03    0.9757831068E-01    0.1658848749E+00    0.1046958961E+00    0.5142465827E-01    0.2565493106E+00
    0.1900000000E+03    0.1044265726E+00    0.1682641732E+00    0.1084068329E+00    0.5503592050E-01    0.2657735787E+00
    0.2100000000E+03    0.1108567355E+00    0.1698655869E+00    0.1116627067E+00    0.5842700335E-01    0.2738823264E+00
    0.2300000000E+03    0.1169270876E+00    0.1708672316E+00    0.1145501176E+00    0.6162859781E-01    0.2810868388E+00
    0.2500000000E+03    0.1226841150E+00    0.1714008163E+00    0.1171342895E+00    0.6466518100E-01    0.2875463703E+00
    0.2700000000E+03    0.1281654326E+00    0.1715655062E+00    0.1194653772E+00    0.6755655912E-01    0.2933834739E+00
    0.2900000000E+03    0.1334018729E+00    0.1714371361E+00    0.1215826481E+00    0.7031896728E-01    0.2986941717E+00
    0.3100000000E+03    0.1384190038E+00    0.1710744918E+00    0.1235173337E+00    0.7296586873E-01    0.3035548914E+00
    0.3300000000E+03    0.1432382517E+00    0.1705236894E+00    0.1252946217E+00    0.7550854594E-01    0.3080273155E+00
    0.3500000000E+03    0.1478777443E+00    0.1698212874E+00    0.1269350778E+00    0.7795654444E-01    0.3121618442E+00
    0.3700000000E+03    0.1523529529E+00    0.1689965391E+00    0.1284556805E+00    0.8031801094E-01    0.3160001156E+00
    0.3900000000E+03    0.1566771873E+00    0.1680730460E+00    0.1298705862E+00    0.8259995421E-01    0.3195768720E+00
    0.4100000000E+03    0.1608619832E+00    0.1670699905E+00    0.1311917053E+00    0.8480844865E-01    0.3229213630E+00
    0.4300000000E+03    0.1649174070E+00    0.1660030657E+00    0.1324291401E+00    0.8694879498E-01    0.3260584154E+00
    0.4500000000E+03    0.1688522986E+00    0.1648851848E+00    0.1335915232E+00    0.8902564817E-01    0.3290092587E+00
    0.4700000000E+03    0.1726744673E+00    0.1637270287E+00    0.1346862820E+00    0.9104312038E-01    0.3317921706E+00
    0.4900000000E+03    0.1763908497E+00    0.1625374722E+00    0.1357198471E+00    0.9300486431E-01    0.3344229856E+00
    0.1000000000E+03    0.6901769136E-01    0.1467912138E+00    0.8592125062E-01    0.3636728880E-01    0.2101133247E+00
    0.3000000000E+03    0.1359364268E+00    0.1712819605E+00    0.1225711171E+00    0.7165610588E-01    0.3011766241E+00
    0.5000000000E+03    0.1782113325E+00    0.1619332822E+00    0.1362154604E+00    0.9396587107E-01    0.3356857387E+00
    0.7000000000E+03    0.2102776894E+00    0.1494647100E+00    0.1439584539E+00    0.1108976820E+00    0.3555298912E+00
    0.9000000000E+03    0.2361299440E+00    0.1377062380E+00    0.1491382647E+00    0.1245549171E+00    0.3689500159E+00
    0.1100000000E+04    0.2575758299E+00    0.1272945928E+00    0.1529258438E+00    0.1358894963E+00    0.3788554292E+00
    0.1300000000E+04    0.2756649986E+00    0.1182231232E+00    0.1558550153E+00    0.1454541926E+00    0.3865798891E+00
    0.1500000000E+04    0.2910982450E+00    0.1103403637E+00    0.1582095597E+00    0.1536181183E+00    0.3928359902E+00
    0.1700000000E+04    0.3043823560E+00    0.1034753897E+00    0.1601565358E+00    0.1606482525E+00    0.3980451593E+00
    0.1900000000E+04    0.3159014077E+00    0.9747179660E-01    0.1618017366E+00    0.1667469724E+00    0.4024754050E+00
    0.2100000000E+04    0.3259549848E+00    0.9219538625E-01    0.1632159414E+00    0.1720721696E+00    0.4063067418E+00
    0.2300000000E+04    0.3347812226E+00    0.8753378935E-01    0.1644485807E+00    0.1767493767E+00    0.4096653514E+00
    0.2500000000E+04    0.3425719562E+00    0.8339377514E-01    0.1655353866E+00    0.1808797403E+00    0.4126427636E+00
    0.2700000000E+04    0.3494833059E+00    0.7969817368E-01    0.1665029315E+00    0.1845455930E+00    0.4153072676E+00
    0.2900000000E+04    0.3556433881E+00    0.7638304256E-01    0.1673714501E+00    0.1878145124E+00    0.4177110265E+00
    0.3100000000E+04    0.3611580943E+00    0.7339524959E-01    0.1681566644E+00    0.1907423639E+00    0.4198946895E+00
    0.3300000000E+04    0.3661155090E+00    0.7069047730E-01    0.1688710036E+00    0.1933756270E+00    0.4218904825E+00
    0.3500000000E+04    0.3705893363E+00    0.6823160085E-01    0.1695244429E+00    0.1957532004E+00    0.4237243386E+00
    0.3700000000E+04    0.3746415868E+00    0.6598737845E-01    0.1701250944E+00    0.1979078172E+00    0.4254174018E+00
    0.3900000000E+04    0.3783247032E+00    0.6393139624E-01    0.1706796329E+00    0.1998671646E+00    0.4269871130E+00
    0.4100000000E+04    0.3816832543E+00    0.6204121793E-01    0.1711936081E+00    0.2016547775E+00    0.4284480082E+00
    0.4300000000E+04    0.3847552952E+00    0.6029769804E-01    0.1716716775E+00    0.2032907541E+00    0.4298123149E+00
    0.4500000000E+04    0.3875734639E+00    0.5868442559E-01    0.1721177830E+00    0.2047923347E+00    0.4310904055E+00
    0.4700000000E+04    0.3901658720E+00    0.5718727198E-01    0.1725352868E+00    0.2061743716E+00    0.4322911456E+00
    0.4900000000E+04    0.3925568315E+00    0.5579402196E-01    0.1729270763E+00    0.2074497114E+00    0.4334221656E+00
    0.1000000000E+04    0.2473270882E+00    0.1323263738E+00    0.1511643404E+00    0.1304722035E+00    0.3742379190E+00
    0.3000000000E+04    0.3584755348E+00    0.7485118456E-01    0.1677736276E+00    0.1893179700E+00    0.4188281871E+00
    0.5000000000E+04    0.3936834754E+00    0.5513299117E-01    0.1731141215E+00    0.2080509147E+00    0.4339636309E+00
    0.7000000000E+04    0.4095271605E+00    0.4541327332E-01    0.1759644947E+00    0.2165282651E+00    0.4423539142E+00
    0.9000000000E+04    0.4182148173E+00    0.3953977717E-01    0.1777909714E+00    0.2212053112E+00    0.4479023797E+00
    0.1100000000E+05    0.4236029059E+00    0.3553781633E-01    0.1790816160E+00    0.2241249937E+00    0.4519333566E+00
    0.1300000000E+05    0.4272334050E+00    0.3259350771E-01    0.1800514711E+00    0.2261057161E+00    0.4550395901E+00
    0.1500000000E+05    0.4298287499E+00    0.3031073877E-01    0.1808118374E+00    0.2275316627E+00    0.4575321415E+00
    0.1700000000E+05    0.4317678728E+00    0.2847286191E-01    0.1814267773E+00    0.2286047560E+00    0.4595923095E+00
    0.1900000000E+05    0.4332670018E+00    0.2695077373E-01    0.1819360695E+00    0.2294404598E+00    0.4613339799E+00
    0.2100000000E+05    0.4344578285E+00    0.2566234265E-01    0.1823658649E+00    0.2301092478E+00    0.4628328375E+00
    0.2300000000E+05    0.4354248246E+00    0.2455256974E-01    0.1827341397E+00    0.2306564241E+00    0.4641414424E+00
    0.2500000000E+05    0.4362245073E+00    0.2358307644E-01    0.1830537021E+00    0.2311123689E+00    0.4652976082E+00
    0.2700000000E+05    0.4368960369E+00    0.2272616284E-01    0.1833339508E+00    0.2314981802E+00    0.4663293417E+00
    0.2900000000E+05    0.4374673577E+00    0.2196126661E-01    0.1835819554E+00    0.2318289487E+00    0.4672578963E+00
    0.3100000000E+05    0.4379589185E+00    0.2127275716E-01    0.1838031460E+00    0.2321157435E+00    0.4680997369E+00
    0.3300000000E+05    0.4383860113E+00    0.2064850917E-01    0.1840017695E+00    0.2323668619E+00    0.4688678474E+00
    0.3500000000E+05    0.4387602901E+00    0.2007895008E-01    0.1841811999E+00    0.2325886426E+00    0.4695726258E+00
    0.3700000000E+05    0.4390907851E+00    0.1955640616E-01    0.1843441551E+00    0.2327860092E+00    0.4702225129E+00
    0.3900000000E+05    0.4393845977E+00    0.1907464250E-01    0.1844928513E+00    0.2329628431E+00    0.4708244434E+00
    0.4100000000E+05    0.4396473859E+00    0.1862853247E-01    0.1846291151E+00    0.2331222446E+00    0.4713841755E+00
    0.4300000000E+05    0.4398837116E+00    0.1821381565E-01    0.1847544674E+00    0.2332667196E+00    0.4719065370E+00
    0.4500000000E+05    0.4400972918E+00    0.1782691751E-01    0.1848701850E+00    0.2333983148E+00    0.4723956102E+00
    0.4700000000E+05    0.4402911848E+00    0.1746481307E-01    0.1849773489E+00    0.2335187188E+00    0.4728548747E+00
    0.4900000000E+05    0.4404679290E+00    0.1712492235E-01    0.1850768809E+00    0.2336293364E+00    0.4732873173E+00
    0.1000000000E+05    0.4211964092E+00    0.3737015565E-01    0.1784863224E+00    0.2228185668E+00    0.4500610179E+00
    0.3000000000E+05    0.4377220523E+00    0.2160829058E-01    0.1836956135E+00    0.2319772705E+00    0.4676887749E+00
    0.5000000000E+05    0.4405505478E+00    0.1696260222E-01    0.1851240366E+00    0.2336813511E+00    0.4734943006E+00
    0.7000000000E+05    0.4416730243E+00    0.1447817107E-01    0.1858103893E+00    0.2344143547E+00    0.4767008163E+00
    0.9000000000E+05    0.4422626584E+00    0.1286431435E-01    0.1862121841E+00    0.2348310811E+00    0.4788255699E+00
    0.1100000000E+06    0.4426203920E+00    0.1170523852E-01    0.1864729911E+00    0.2351044044E+00    0.4803753183E+00
    0.1300000000E+06    0.4428574054E+00    0.1081960661E-01    0.1866532977E+00    0.2352999989E+00    0.4815751436E+00
    0.1500000000E+06    0.4430240286E+00    0.1011375650E-01    0.1867832550E+00    0.2354484230E+00    0.4825426907E+00
    0.1700000000E+06    0.4431462521E+00    0.9533690150E-02    0.1868796484E+00    0.2355658917E+00    0.4833463890E+00
    0.1900000000E+06    0.4432388039E+00    0.9045760087E-02    0.1869525872E+00    0.2356618446E+00    0.4840291880E+00
    0.2100000000E+06    0.4433106283E+00    0.8627745426E-02    0.1870085305E+00    0.2357421696E+00    0.4846196289E+00
    0.2300000000E+06    0.4433674572E+00    0.8264293324E-02    0.1870517996E+00    0.2358107415E+00    0.4851375417E+00
    0.2500000000E+06    0.4434131246E+00    0.7944405433E-02    0.1870853941E+00    0.2358702216E+00    0.4855972044E+00
    0.2700000000E+06    0.4434502870E+00    0.7659965747E-02    0.1871114604E+00    0.2359225029E+00    0.4860092034E+00
    0.2900000000E+06    0.4434808395E+00    0.7404835099E-02    0.1871315737E+00    0.2359689714E+00    0.4863815824E+00
    0.3100000000E+06    0.4435061679E+00    0.7174271140E-02    0.1871469151E+00    0.2360106676E+00    0.4867205813E+00
    0.3300000000E+06    0.4435273073E+00    0.6964543865E-02    0.1871583864E+00    0.2360483890E+00    0.4870311280E+00
    0.3500000000E+06    0.4435450453E+00    0.6772673208E-02    0.1871666876E+00    0.2360827581E+00    0.4873171752E+00
    0.3700000000E+06    0.4435599909E+00    0.6596245341E-02    0.1871723693E+00    0.2361142688E+00    0.4875819364E+00
    0.3900000000E+06    0.4435726216E+00    0.6433281215E-02    0.1871758703E+00    0.2361433187E+00    0.4878280560E+00
    0.4100000000E+06    0.4435833166E+00    0.6282140608E-02    0.1871775439E+00    0.2361702313E+00    0.4880577336E+00
    0.4300000000E+06    0.4435923806E+00    0.6141450885E-02    0.1871776776E+00    0.2361952734E+00    0.4882728160E+00
    0.4500000000E+06    0.4436000606E+00    0.6010053273E-02    0.1871765070E+00    0.2362186671E+00    0.4884748679E+00
    0.4700000000E+06    0.4436065591E+00    0.5886961762E-02    0.1871742272E+00    0.2362405987E+00    0.4886652247E+00
    0.4900000000E+06    0.4436120431E+00    0.5771331289E-02    0.1871710004E+00    0.2362612263E+00    0.4888450349E+00
    0.1000000000E+06    0.4424614017E+00    0.1224223876E-01    0.1863553914E+00    0.2349803243E+00    0.4796546237E+00
    0.3000000000E+06    0.4434940852E+00    0.7286735594E-02    0.1871397790E+00    0.2359903615E+00    0.4865549201E+00
    0.5000000000E+06    0.4436144491E+00    0.5716082150E-02    0.1871690754E+00    0.2362710939E+00    0.4889313008E+00
    0.7000000000E+06    0.4436332701E+00    0.4868960486E-02    0.1871045517E+00    0.2364242939E+00    0.4902864087E+00
    0.9000000000E+06    0.4436259547E+00    0.4318231904E-02    0.1870201668E+00    0.2365275172E+00    0.4912072274E+00
    0.1100000000E+07    0.4436100845E+00    0.3923066244E-02    0.1869332860E+00    0.2366046855E+00    0.4918930431E+00
    0.1300000000E+07    0.4435913608E+00    0.3621540026E-02    0.1868490394E+00    0.2366660406E+00    0.4924336275E+00
    0.1500000000E+07    0.4435719662E+00    0.3381566488E-02    0.1867689595E+00    0.2367168422E+00    0.4928764888E+00
    0.1700000000E+07    0.4435528071E+00    0.3184626121E-02    0.1866933483E+00    0.2367601277E+00    0.4932495705E+00
    0.1900000000E+07    0.4435342658E+00    0.3019177294E-02    0.1866220621E+00    0.2367978009E+00    0.4935705901E+00
    0.2100000000E+07    0.4435164915E+00    0.2877600524E-02    0.1865548026E+00    0.2368311305E+00    0.4938514318E+00
    0.2300000000E+07    0.4434995243E+00    0.2754634519E-02    0.1864912324E+00    0.2368610023E+00    0.4941004237E+00
    0.2500000000E+07    0.4434833530E+00    0.2646512976E-02    0.1864310212E+00    0.2368880584E+00    0.4943236111E+00
    0.2700000000E+07    0.4434679427E+00    0.2550458808E-02    0.1863738631E+00    0.2369127785E+00    0.4945255099E+00
    0.2900000000E+07    0.4434532483E+00    0.2464373038E-02    0.1863194822E+00    0.2369355303E+00    0.4947095758E+00
    0.3100000000E+07    0.4434392220E+00    0.2386635557E-02    0.1862676324E+00    0.2369566014E+00    0.4948785079E+00
    0.3300000000E+07    0.4434258165E+00    0.2315973095E-02    0.1862180951E+00    0.2369762211E+00    0.4950344511E+00
    0.3500000000E+07    0.4434129868E+00    0.2251369154E-02    0.1861706766E+00    0.2369945752E+00    0.4951791364E+00
    0.3700000000E+07    0.4434006912E+00    0.2192000984E-02    0.1861252051E+00    0.2370118159E+00    0.4953139794E+00
    0.3900000000E+07    0.4433888909E+00    0.2137194499E-02    0.1860815279E+00    0.2370280697E+00    0.4954401513E+00
    0.4100000000E+07    0.4433775508E+00    0.2086391401E-02    0.1860395087E+00    0.2370434429E+00    0.4955586314E+00
    0.4300000000E+07    0.4433666387E+00    0.2039124775E-02    0.1859990260E+00    0.2370580254E+00    0.4956702465E+00
    0.4500000000E+07    0.4433561252E+00    0.1995000695E-02    0.1859599708E+00    0.2370718943E+00    0.4957757000E+00
    0.4700000000E+07    0.4433459837E+00    0.1953684166E-02    0.1859222450E+00    0.2370851157E+00    0.4958755956E+00
    0.4900000000E+07    0.4433361899E+00    0.1914888240E-02    0.1858857601E+00    0.2370977472E+00    0.4959704546E+00
    0.1000000000E+07    0.4436186039E+00    0.4106084366E-02    0.1869765847E+00    0.2365685479E+00    0.4915724782E+00
    0.3000000000E+07    0.4434461546E+00    0.2424547254E-02    0.1862932552E+00    0.2369462604E+00    0.4947957884E+00
    0.5000000000E+07    0.4433314164E+00    0.1896356834E-02    0.1858679578E+00    0.2371038577E+00    0.4960161392E+00
    0.7000000000E+07    0.4432497519E+00    0.1612679796E-02    0.1855611587E+00    0.2372045079E+00    0.4967497239E+00
    0.9000000000E+07    0.4431865580E+00    0.1428730309E-02    0.1853205493E+00    0.2372785519E+00    0.4972671134E+00
    0.1100000000E+08    0.4431350520E+00    0.1296975866E-02    0.1851222754E+00    0.2373371385E+00    0.4976637005E+00
    0.1300000000E+08    0.4430915924E+00    0.1196576176E-02    0.1849534685E+00    0.2373856141E+00    0.4979836937E+00
    0.1500000000E+08    0.4430540063E+00    0.1116755259E-02    0.1848063851E+00    0.2374269578E+00    0.4982510342E+00
    0.1700000000E+08    0.4430208955E+00    0.1051303767E-02    0.1846759969E+00    0.2374630000E+00    0.4984800815E+00
    0.1900000000E+08    0.4429913072E+00    0.9963570931E-03    0.1845588505E+00    0.2374949464E+00    0.4986800956E+00
    0.2100000000E+08    0.4429645638E+00    0.9493667488E-03    0.1844524700E+00    0.2375236332E+00    0.4988573817E+00
    0.2300000000E+08    0.4429401658E+00    0.9085746443E-03    0.1843550184E+00    0.2375496642E+00    0.4990164181E+00
    0.2500000000E+08    0.4429177348E+00    0.8727232710E-03    0.1842650947E+00    0.2375734895E+00    0.4991604953E+00
    0.2700000000E+08    0.4428969771E+00    0.8408860636E-03    0.1841816055E+00    0.2375954538E+00    0.4992920989E+00
