  Pressure (Pa) 22mC5-400 (mol/kg) 2mC6-400 (mol/kg) 3mC6-400 (mol/kg) 23mC5-400 (mol/kg) C7-400 (mol/kg)
    0.1000000000E+01    0.1060458905E-02    0.3156839104E-02    0.5226964627E-02    0.9310237627E-04    0.5089293637E-02
    0.3000000000E+01    0.3151350778E-02    0.9141292493E-02    0.1510992520E-01    0.2766726513E-03    0.1471449843E-01
    0.5000000000E+01    0.5203402350E-02    0.1472508754E-01    0.2430031208E-01    0.4568350628E-03    0.2366836484E-01
    0.7000000000E+01    0.7217985563E-02    0.1994857802E-01    0.3287046299E-01    0.6337099706E-03    0.3202090821E-01
    0.9000000000E+01    0.9196406245E-02    0.2484668541E-01    0.4088291345E-01    0.8074119348E-03    0.3983266349E-01
    0.1100000000E+02    0.1113990809E-01    0.2944979496E-01    0.4839200602E-01    0.9780500647E-03    0.4715624091E-01
    0.1300000000E+02    0.1304967633E-01    0.3378447943E-01    0.5544519236E-01    0.1145728342E-02    0.5403758486E-01
    0.1500000000E+02    0.1492684119E-01    0.3787408809E-01    0.6208409448E-01    0.1310545922E-02    0.6051699992E-01
    0.1700000000E+02    0.1677248104E-01    0.4173922919E-01    0.6834537558E-01    0.1472597412E-02    0.6662999295E-01
    0.1900000000E+02    0.1858762541E-01    0.4539816791E-01    0.7426145914E-01    0.1631973133E-02    0.7240796839E-01
    0.2100000000E+02    0.2037325769E-01    0.4886715650E-01    0.7986112629E-01    0.1788759362E-02    0.7787880609E-01
    0.2300000000E+02    0.2213031779E-01    0.5216070975E-01    0.8517001490E-01    0.1943038558E-02    0.8306734384E-01
    0.2500000000E+02    0.2385970448E-01    0.5529183607E-01    0.9021103861E-01    0.2094889572E-02    0.8799578281E-01
    0.2700000000E+02    0.2556227766E-01    0.5827223240E-01    0.9500474054E-01    0.2244387848E-02    0.9268402962E-01
    0.2900000000E+02    0.2723886049E-01    0.6111244928E-01    0.9956959322E-01    0.2391605601E-02    0.9714998650E-01
    0.3100000000E+02    0.2889024131E-01    0.6382203139E-01    0.1039222540E+00    0.2536611998E-02    0.1014097984E+00
    0.3300000000E+02    0.3051717551E-01    0.6640963769E-01    0.1080777836E+00    0.2679473312E-02    0.1054780643E+00
    0.3500000000E+02    0.3212038726E-01    0.6888314454E-01    0.1120498337E+00    0.2820253076E-02    0.1093680189E+00
    0.3700000000E+02    0.3370057109E-01    0.7124973460E-01    0.1158508084E+00    0.2959012226E-02    0.1130916890E+00
    0.3900000000E+02    0.3525839347E-01    0.7351597365E-01    0.1194920046E+00    0.3095809234E-02    0.1166600288E+00
    0.4100000000E+02    0.3679449415E-01    0.7568787736E-01    0.1229837333E+00    0.3230700229E-02    0.1200830376E+00
    0.4300000000E+02    0.3830948759E-01    0.7777096943E-01    0.1263354250E+00    0.3363739121E-02    0.1233698623E+00
    0.4500000000E+02    0.3980396416E-01    0.7977033236E-01    0.1295557228E+00    0.3494977706E-02    0.1265288864E+00
    0.4700000000E+02    0.4127849131E-01    0.8169065202E-01    0.1326525627E+00    0.3624465771E-02    0.1295678090E+00
    0.4900000000E+02    0.4273361475E-01    0.8353625677E-01    0.1356332452E+00    0.3752251194E-02    0.1324937132E+00
    0.1000000000E+02    0.1017244661E-01    0.2718337224E-01    0.4469726572E-01    0.8931073637E-03    0.4355245970E-01
    0.3000000000E+02    0.2806765319E-01    0.6248300902E-01    0.1017714712E+00    0.2464381011E-02    0.9930471416E-01
    0.5000000000E+02    0.4345406490E-01    0.8443230450E-01    0.1370821507E+00    0.3815519876E-02    0.1339163435E+00
    0.7000000000E+02    0.5696206156E-01    0.9926118280E-01    0.1613443375E+00    0.5001830512E-02    0.1577771178E+00
    0.9000000000E+02    0.6901998418E-01    0.1097769113E+00    0.1791875768E+00    0.6060894852E-02    0.1753813035E+00
    0.1100000000E+03    0.7992981475E-01    0.1174610112E+00    0.1929493312E+00    0.7019209133E-02    0.1890006452E+00
    0.1300000000E+03    0.8991107826E-01    0.1231809370E+00    0.2039422612E+00    0.7896035282E-02    0.1999123232E+00
    0.1500000000E+03    0.9912754479E-01    0.1274829889E+00    0.2129630075E+00    0.8705743465E-02    0.2088922988E+00
    0.1700000000E+03    0.1077041295E+00    0.1307301850E+00    0.2205245462E+00    0.9459294754E-02    0.2164407742E+00
    0.1900000000E+03    0.1157379582E+00    0.1331738755E+00    0.2269730008E+00    0.1016521195E-01    0.2228956161E+00
    0.2100000000E+03    0.1233058282E+00    0.1349938400E+00    0.2325509205E+00    0.1083023414E-01    0.2284938383E+00
    0.2300000000E+03    0.1304693684E+00    0.1363221002E+00    0.2374336727E+00    0.1145976951E-01    0.2334069851E+00
    0.2500000000E+03    0.1372786909E+00    0.1372577450E+00    0.2417514259E+00    0.1205821562E-01    0.2377625193E+00
    0.2700000000E+03    0.1437750250E+00    0.1378765262E+00    0.2456029866E+00    0.1262919061E-01    0.2416572921E+00
    0.2900000000E+03    0.1499926531E+00    0.1382372726E+00    0.2490648162E+00    0.1317570304E-01    0.2451663277E+00
    0.3100000000E+03    0.1559603558E+00    0.1383862963E+00    0.2521970869E+00    0.1370027865E-01    0.2483487264E+00
    0.3300000000E+03    0.1617025064E+00    0.1383604924E+00    0.2550478565E+00    0.1420505644E-01    0.2512517360E+00
    0.3500000000E+03    0.1672399108E+00    0.1381895634E+00    0.2576560118E+00    0.1469186234E-01    0.2539136256E+00
    0.3700000000E+03    0.1725904597E+00    0.1378976452E+00    0.2600533876E+00    0.1516226649E-01    0.2563657546E+00
    0.3900000000E+03    0.1777696414E+00    0.1375045142E+00    0.2622663197E+00    0.1561762815E-01    0.2586340899E+00
    0.4100000000E+03    0.1827909475E+00    0.1370264961E+00    0.2643168004E+00    0.1605913140E-01    0.2607403365E+00
    0.4300000000E+03    0.1876661985E+00    0.1364771588E+00    0.2662233530E+00    0.1648781365E-01    0.2627027926E+00
    0.4500000000E+03    0.1924058068E+00    0.1358678476E+00    0.2680017004E+00    0.1690458873E-01    0.2645370045E+00
    0.4700000000E+03    0.1970189899E+00    0.1352081012E+00    0.2696652838E+00    0.1731026561E-01    0.2662562746E+00
    0.4900000000E+03    0.2015139464E+00    0.1345059801E+00    0.2712256691E+00    0.1770556382E-01    0.2678720596E+00
    0.1000000000E+03    0.7460313195E-01    0.1139088413E+00    0.1864805196E+00    0.6551305125E-02    0.1825936436E+00
    0.3000000000E+03    0.1530061294E+00    0.1383357527E+00    0.2506688982E+00    0.1344059115E-01    0.2467951643E+00
    0.5000000000E+03    0.2037194091E+00    0.1341412088E+00    0.2719703446E+00    0.1789952450E-01    0.2686442998E+00
    0.7000000000E+03    0.2430498621E+00    0.1258302953E+00    0.2832923732E+00    0.2135919576E-01    0.2804898235E+00
    0.9000000000E+03    0.2756696074E+00    0.1171330521E+00    0.2905188298E+00    0.2422965261E-01    0.2881797796E+00
    0.1100000000E+04    0.3036051685E+00    0.1089325782E+00    0.2956132739E+00    0.2668875050E-01    0.2936833019E+00
    0.1300000000E+04    0.3279622104E+00    0.1014419250E+00    0.2994375613E+00    0.2883352511E-01    0.2978715777E+00
    0.1500000000E+04    0.3494401623E+00    0.9467665476E-01    0.3024357402E+00    0.3072536056E-01    0.3011967436E+00
    0.1700000000E+04    0.3685279670E+00    0.8858958266E-01    0.3048623099E+00    0.3240717036E-01    0.3039197026E+00
    0.1900000000E+04    0.3855914791E+00    0.8311564287E-01    0.3068747050E+00    0.3391106771E-01    0.3062028902E+00
    0.2100000000E+04    0.4009174101E+00    0.7818810151E-01    0.3085760881E+00    0.3526222200E-01    0.3081533967E+00
    0.2300000000E+04    0.4147376518E+00    0.7374447094E-01    0.3100371732E+00    0.3648099304E-01    0.3098450572E+00
    0.2500000000E+04    0.4272438857E+00    0.6972842346E-01    0.3113082218E+00    0.3758421271E-01    0.3113306447E+00
    0.2700000000E+04    0.4385970012E+00    0.6609008835E-01    0.3124260392E+00    0.3858601114E-01    0.3126490106E+00
    0.2900000000E+04    0.4489335461E+00    0.6278570083E-01    0.3134182592E+00    0.3949838251E-01    0.3138294751E+00
    0.3100000000E+04    0.4583703731E+00    0.5977701612E-01    0.3143060740E+00    0.4033159256E-01    0.3148946354E+00
    0.3300000000E+04    0.4670081261E+00    0.5703066899E-01    0.3151060362E+00    0.4109448435E-01    0.3158622251E+00
    0.3500000000E+04    0.4749339393E+00    0.5451755651E-01    0.3158312811E+00    0.4179471507E-01    0.3167463819E+00
    0.3700000000E+04    0.4822235802E+00    0.5221227521E-01    0.3164923794E+00    0.4243894395E-01    0.3175585335E+00
    0.3900000000E+04    0.4889431816E+00    0.5009262204E-01    0.3170979429E+00    0.4303298422E-01    0.3183080299E+00
    0.4100000000E+04    0.4951506617E+00    0.4813915895E-01    0.3176550660E+00    0.4358192775E-01    0.3190026057E+00
    0.4300000000E+04    0.5008969011E+00    0.4633483616E-01    0.3181696505E+00    0.4409024827E-01    0.3196487213E+00
    0.4500000000E+04    0.5062267262E+00    0.4466466799E-01    0.3186466506E+00    0.4456188774E-01    0.3202518207E+00
    0.4700000000E+04    0.5111797368E+00    0.4311545465E-01    0.3190902585E+00    0.4500032890E-01    0.3208165282E+00
    0.4900000000E+04    0.5157910054E+00    0.4167554376E-01    0.3195040478E+00    0.4540865676E-01    0.3213468003E+00
    0.1000000000E+04    0.2901407091E+00    0.1129500179E+00    0.2932645340E+00    0.2550340719E-01    0.2911362306E+00
    0.3000000000E+04    0.4537577890E+00    0.6124658786E-01    0.3138740905E+00    0.3992429971E-01    0.3143752631E+00
    0.5000000000E+04    0.5179783569E+00    0.4099330758E-01    0.3197007361E+00    0.4560239650E-01    0.3216001068E+00
    0.7000000000E+04    0.5497360070E+00    0.3113072095E-01    0.3226269324E+00    0.4841997997E-01    0.3254822650E+00
    0.9000000000E+04    0.5679302653E+00    0.2547973135E-01    0.3244275259E+00    0.5004032566E-01    0.3280110418E+00
    0.1100000000E+05    0.5794666642E+00    0.2185805513E-01    0.3256613288E+00    0.5107191856E-01    0.3298338227E+00
    0.1300000000E+05    0.5873321703E+00    0.1934527529E-01    0.3265654709E+00    0.5177827811E-01    0.3312328784E+00
    0.1500000000E+05    0.5929917453E+00    0.1749749083E-01    0.3272592527E+00    0.5228880814E-01    0.3323536665E+00
    0.1700000000E+05    0.5972358043E+00    0.1607769131E-01    0.3278097970E+00    0.5267341715E-01    0.3332798412E+00
    0.1900000000E+05    0.6005236426E+00    0.1494893885E-01    0.3282579996E+00    0.5297278103E-01    0.3340634225E+00
    0.2100000000E+05    0.6031383636E+00    0.1402699981E-01    0.3286303122E+00    0.5321200575E-01    0.3347387113E+00
    0.2300000000E+05    0.6052630267E+00    0.1325736291E-01    0.3289446605E+00    0.5340734783E-01    0.3353293815E+00
    0.2500000000E+05    0.6070207785E+00    0.1260324434E-01    0.3292136556E+00    0.5356975881E-01    0.3358523820E+00
    0.2700000000E+05    0.6084972574E+00    0.1203893826E-01    0.3294464465E+00    0.5370686567E-01    0.3363202164E+00
    0.2900000000E+05    0.6097537223E+00    0.1154593931E-01    0.3296498436E+00    0.5382413222E-01    0.3367423436E+00
    0.3100000000E+05    0.6108350692E+00    0.1111058237E-01    0.3298290276E+00    0.5392556890E-01    0.3371260729E+00
    0.3300000000E+05    0.6117749028E+00    0.1072255185E-01    0.3299880149E+00    0.5401418213E-01    0.3374771563E+00
    0.3500000000E+05    0.6125988450E+00    0.1037390942E-01    0.3301299696E+00    0.5409226770E-01    0.3378001930E+00
    0.3700000000E+05    0.6133267523E+00    0.1005844190E-01    0.3302574210E+00    0.5416160763E-01    0.3380989117E+00
    0.3900000000E+05    0.6139742380E+00    0.9771212948E-02    0.3303724161E+00    0.5422360536E-01    0.3383763728E+00
    0.4100000000E+05    0.6145537393E+00    0.9508247881E-02    0.3304766306E+00    0.5427938062E-01    0.3386351156E+00
    0.4300000000E+05    0.6150752793E+00    0.9266307784E-02    0.3305714503E+00    0.5432983732E-01    0.3388772681E+00
    0.4500000000E+05    0.6155470221E+00    0.9042724686E-02    0.3306580314E+00    0.5437571285E-01    0.3391046289E+00
    0.4700000000E+05    0.6159756808E+00    0.8835279358E-02    0.3307373468E+00    0.5441761461E-01    0.3393187310E+00
    0.4900000000E+05    0.6163668245E+00    0.8642109382E-02    0.3308102213E+00    0.5445604731E-01    0.3395208900E+00
    0.1000000000E+05    0.5742922731E+00    0.2348908888E-01    0.3250964252E+00    0.5060868867E-01    0.3289883943E+00
    0.3000000000E+05    0.6103139659E+00    0.1132176549E-01    0.3297421882E+00    0.5387662188E-01    0.3369386175E+00
    0.5000000000E+05    0.6165498140E+00    0.8550375622E-02    0.3308444672E+00    0.5447409760E-01    0.3396178523E+00
    0.7000000000E+05    0.6190514922E+00    0.7184713028E-02    0.3313180429E+00    0.5472686266E-01    0.3411394536E+00
    0.9000000000E+05    0.6203885784E+00    0.6331324176E-02    0.3315649829E+00    0.5486907985E-01    0.3421729208E+00
    0.1100000000E+06    0.6212173681E+00    0.5731904364E-02    0.3317053606E+00    0.5496171159E-01    0.3429432313E+00
    0.1300000000E+06    0.6217800086E+00    0.5280399851E-02    0.3317878119E+00    0.5502767468E-01    0.3435511935E+00
    0.1500000000E+06    0.6221862408E+00    0.4924097312E-02    0.3318357501E+00    0.5507754774E-01    0.3440499930E+00
    0.1700000000E+06    0.6224928967E+00    0.4633400812E-02    0.3318617922E+00    0.5511690945E-01    0.3444708549E+00
    0.1900000000E+06    0.6227323131E+00    0.4390220801E-02    0.3318733021E+00    0.5514899142E-01    0.3448335553E+00
    0.2100000000E+06    0.6229242275E+00    0.4182784449E-02    0.3318748415E+00    0.5517580130E-01    0.3451513508E+00
    0.2300000000E+06    0.6230813616E+00    0.4003050313E-02    0.3318693690E+00    0.5519865585E-01    0.3454335291E+00
    0.2500000000E+06    0.6232122793E+00    0.3845310422E-02    0.3318588752E+00    0.5521845692E-01    0.3456868308E+00
    0.2700000000E+06    0.6233229552E+00    0.3705384278E-02    0.3318447394E+00    0.5523584443E-01    0.3459162922E+00
    0.2900000000E+06    0.6234176824E+00    0.3580129394E-02    0.3318279410E+00    0.5525128600E-01    0.3461257680E+00
    0.3100000000E+06    0.6234996245E+00    0.3467131099E-02    0.3318091897E+00    0.5526513196E-01    0.3463182695E+00
    0.3300000000E+06    0.6235711637E+00    0.3364498763E-02    0.3317890083E+00    0.5527765045E-01    0.3464961910E+00
    0.3500000000E+06    0.6236341272E+00    0.3270727781E-02    0.3317677878E+00    0.5528905049E-01    0.3466614655E+00
    0.3700000000E+06    0.6236899399E+00    0.3184603590E-02    0.3317458239E+00    0.5529949771E-01    0.3468156741E+00
    0.3900000000E+06    0.6237397292E+00    0.3105133385E-02    0.3317233426E+00    0.5530912521E-01    0.3469601262E+00
    0.4100000000E+06    0.6237843984E+00    0.3031496524E-02    0.3317005179E+00    0.5531804131E-01    0.3470959167E+00
    0.4300000000E+06    0.6238246797E+00    0.2963007875E-02    0.3316774847E+00    0.5532633519E-01    0.3472239707E+00
    0.4500000000E+06    0.6238611731E+00    0.2899090284E-02    0.3316543484E+00    0.5533408101E-01    0.3473450756E+00
    0.4700000000E+06    0.6238943744E+00    0.2839253590E-02    0.3316311913E+00    0.5534134099E-01    0.3474599076E+00
    0.4900000000E+06    0.6239246971E+00    0.2783078431E-02    0.3316080778E+00    0.5534816780E-01    0.3475690506E+00
    0.1000000000E+06    0.6208466682E+00    0.6008339277E-02    0.3316445791E+00    0.5491972495E-01    0.3425830654E+00
    0.3000000000E+06    0.6234600875E+00    0.3522226751E-02    0.3318187732E+00    0.5525839006E-01    0.3462239785E+00
    0.5000000000E+06    0.6239388897E+00    0.2756249062E-02    0.3315965538E+00    0.5535143307E-01    0.3476216502E+00
    0.7000000000E+06    0.6241326505E+00    0.2345741084E-02    0.3313760125E+00    0.5540209454E-01    0.3484696121E+00
    0.9000000000E+06    0.6242346156E+00    0.2079623545E-02    0.3311795067E+00    0.5543620322E-01    0.3490717197E+00
    0.1100000000E+07    0.6242960264E+00    0.1888983655E-02    0.3310055447E+00    0.5546169456E-01    0.3495356839E+00
    0.1300000000E+07    0.6243361725E+00    0.1743667896E-02    0.3308503252E+00    0.5548195969E-01    0.3499116537E+00
    0.1500000000E+07    0.6243638868E+00    0.1628098064E-02    0.3307104693E+00    0.5549873837E-01    0.3502268957E+00
    0.1700000000E+07    0.6243837631E+00    0.1533300962E-02    0.3305832983E+00    0.5551303456E-01    0.3504978210E+00
    0.1900000000E+07    0.6243984152E+00    0.1453692493E-02    0.3304667279E+00    0.5552547738E-01    0.3507350456E+00
    0.2100000000E+07    0.6244094341E+00    0.1385590244E-02    0.3303591283E+00    0.5553648590E-01    0.3509458175E+00
    0.2300000000E+07    0.6244178398E+00    0.1326453684E-02    0.3302592098E+00    0.5554635266E-01    0.3511352981E+00
    0.2500000000E+07    0.6244243143E+00    0.1274465429E-02    0.3301659383E+00    0.5555528972E-01    0.3513072879E+00
    0.2700000000E+07    0.6244293292E+00    0.1228286191E-02    0.3300784736E+00    0.5556345547E-01    0.3514646643E+00
    0.2900000000E+07    0.6244332203E+00    0.1186904192E-02    0.3299961247E+00    0.5557097130E-01    0.3516096559E+00
    0.3100000000E+07    0.6244362322E+00    0.1149538795E-02    0.3299183169E+00    0.5557793220E-01    0.3517440230E+00
    0.3300000000E+07    0.6244385471E+00    0.1115576694E-02    0.3298445670E+00    0.5558441387E-01    0.3518691796E+00
    0.3500000000E+07    0.6244403029E+00    0.1084528412E-02    0.3297744655E+00    0.5559047761E-01    0.3519862779E+00
    0.3700000000E+07    0.6244416058E+00    0.1055997867E-02    0.3297076620E+00    0.5559617369E-01    0.3520962687E+00
    0.3900000000E+07    0.6244425385E+00    0.1029660621E-02    0.3296438545E+00    0.5560154391E-01    0.3521999459E+00
    0.4100000000E+07    0.6244431665E+00    0.1005248015E-02    0.3295827807E+00    0.5560662331E-01    0.3522979786E+00
    0.4300000000E+07    0.6244435419E+00    0.9825354082E-03    0.3295242117E+00    0.5561144163E-01    0.3523909360E+00
    0.4500000000E+07    0.6244437068E+00    0.9613333025E-03    0.3294679463E+00    0.5561602427E-01    0.3524793063E+00
    0.4700000000E+07    0.6244436954E+00    0.9414805726E-03    0.3294138067E+00    0.5562039310E-01    0.3525635110E+00
    0.4900000000E+07    0.6244435357E+00    0.9228392204E-03    0.3293616352E+00    0.5562456710E-01    0.3526439168E+00
    0.1000000000E+07    0.6242688151E+00    0.1977247802E-02    0.3310899455E+00    0.5544975766E-01    0.3493170729E+00
    0.3000000000E+07    0.6244348236E+00    0.1167761084E-02    0.3299566853E+00    0.5557451600E-01    0.3516780721E+00
    0.5000000000E+07    0.6244434076E+00    0.9139349816E-03    0.3293362429E+00    0.5562658630E-01    0.3526827969E+00
    0.7000000000E+07    0.6244369849E+00    0.7776294285E-03    0.3289043577E+00    0.5565984982E-01    0.3533213107E+00
    0.9000000000E+07    0.6244278262E+00    0.6892341661E-03    0.3285717725E+00    0.5568432470E-01    0.3537881408E+00
    0.1100000000E+08    0.6244184351E+00    0.6259110909E-03    0.3283008194E+00    0.5570369288E-01    0.3541554488E+00
    0.1300000000E+08    0.6244094610E+00    0.5776494636E-03    0.3280719627E+00    0.5571972021E-01    0.3544578851E+00
    0.1500000000E+08    0.6244010624E+00    0.5392734885E-03    0.3278737339E+00    0.5573339073E-01    0.3547147334E+00
    0.1700000000E+08    0.6243932467E+00    0.5078008398E-03    0.3276988135E+00    0.5574530923E-01    0.3549378175E+00
    0.1900000000E+08    0.6243859743E+00    0.4813753360E-03    0.3275422389E+00    0.5575587404E-01    0.3551349045E+00
    0.2100000000E+08    0.6243791931E+00    0.4587728885E-03    0.3274004878E+00    0.5576536145E-01    0.3553113672E+00
    0.2300000000E+08    0.6243728515E+00    0.4391490114E-03    0.3272709683E+00    0.5577397096E-01    0.3554710748E+00
    0.2500000000E+08    0.6243669023E+00    0.4218996348E-03    0.3271517168E+00    0.5578185135E-01    0.3556169050E+00
    0.2700000000E+08    0.6243613036E+00    0.4065796369E-03    0.3270412094E+00    0.5578911651E-01    0.3557510556E+00
