  Pressure (Pa) 22mC5-400 (mol/kg) 2mC6-400 (mol/kg) 3mC6-400 (mol/kg) 23mC5-400 (mol/kg) C7-400 (mol/kg)
    0.1000000000E+01    0.1057584903E-02    0.5540584622E-02    0.3152535068E-02    0.3714007557E-03    0.1705229914E-02
    0.3000000000E+01    0.3126292745E-02    0.1613076325E-01    0.9204134949E-02    0.1097895411E-02    0.4979170834E-02
    0.5000000000E+01    0.5135932880E-02    0.2611105562E-01    0.1494128218E-01    0.1803658825E-02    0.8083731227E-02
    0.7000000000E+01    0.7089733947E-02    0.3553017077E-01    0.2038947488E-01    0.2489824030E-02    0.1103262743E-01
    0.9000000000E+01    0.8990684745E-02    0.4443176323E-01    0.2557148722E-01    0.3157439899E-02    0.1383811148E-01
    0.1100000000E+02    0.1084155637E-01    0.5285507626E-01    0.3050772540E-01    0.3807478908E-02    0.1651116244E-01
    0.1300000000E+02    0.1264492190E-01    0.6083548861E-01    0.3521652924E-01    0.4440844056E-02    0.1906164839E-01
    0.1500000000E+02    0.1440317403E-01    0.6840498143E-01    0.3971442861E-01    0.5058375030E-02    0.2149846430E-01
    0.1700000000E+02    0.1611854076E-01    0.7559253867E-01    0.4401636263E-01    0.5660853738E-02    0.2382964974E-01
    0.1900000000E+02    0.1779309956E-01    0.8242449175E-01    0.4813586756E-01    0.6249009254E-02    0.2606248995E-01
    0.2100000000E+02    0.1942879001E-01    0.8892481754E-01    0.5208523873E-01    0.6823522268E-02    0.2820360282E-01
    0.2300000000E+02    0.2102742521E-01    0.9511539682E-01    0.5587567041E-01    0.7385029090E-02    0.3025901408E-01
    0.2500000000E+02    0.2259070210E-01    0.1010162392E+00    0.5951737719E-01    0.7934125259E-02    0.3223422254E-01
    0.2700000000E+02    0.2412021072E-01    0.1066456794E+00    0.6301969950E-01    0.8471368806E-02    0.3413425684E-01
    0.2900000000E+02    0.2561744263E-01    0.1120205497E+00    0.6639119590E-01    0.8997283203E-02    0.3596372502E-01
    0.3100000000E+02    0.2708379855E-01    0.1171563309E+00    0.6963972372E-01    0.9512360039E-02    0.3772685791E-01
    0.3300000000E+02    0.2852059524E-01    0.1220672853E+00    0.7277251001E-01    0.1001706145E-01    0.3942754727E-01
    0.3500000000E+02    0.2992907184E-01    0.1267665748E+00    0.7579621395E-01    0.1051182232E-01    0.4106937932E-01
    0.3700000000E+02    0.3131039558E-01    0.1312663651E+00    0.7871698199E-01    0.1099705230E-01    0.4265566443E-01
    0.3900000000E+02    0.3266566700E-01    0.1355779178E+00    0.8154049668E-01    0.1147313764E-01    0.4418946334E-01
    0.4100000000E+02    0.3399592473E-01    0.1397116736E+00    0.8427201997E-01    0.1194044287E-01    0.4567361047E-01
    0.4300000000E+02    0.3530214987E-01    0.1436773251E+00    0.8691643174E-01    0.1239931233E-01    0.4711073462E-01
    0.4500000000E+02    0.3658526996E-01    0.1474838829E+00    0.8947826419E-01    0.1285007155E-01    0.4850327749E-01
    0.4700000000E+02    0.3784616270E-01    0.1511397345E+00    0.9196173250E-01    0.1329302857E-01    0.4985351017E-01
    0.4900000000E+02    0.3908565924E-01    0.1546526971E+00    0.9437076237E-01    0.1372847512E-01    0.5116354789E-01
    0.1000000000E+02    0.9922215210E-02    0.4870090875E-01    0.2806913662E-01    0.3484598521E-02    0.1519055003E-01
    0.3000000000E+02    0.2635439590E-01    0.1146174080E+00    0.6803036519E-01    0.9256146769E-02    0.3685333261E-01
    0.5000000000E+02    0.3969763174E-01    0.1563578937E+00    0.9554851663E-01    0.1394346894E-01    0.5180411536E-01
    0.7000000000E+02    0.5098494782E-01    0.1844952952E+00    0.1159653615E+00    0.1790912085E-01    0.6292010129E-01
    0.9000000000E+02    0.6081912344E-01    0.2042694337E+00    0.1319089199E+00    0.2136466731E-01    0.7161789170E-01
    0.1100000000E+03    0.6957790344E-01    0.2185684635E+00    0.1448305201E+00    0.2444269568E-01    0.7868037898E-01
    0.1300000000E+03    0.7751142076E-01    0.2291108672E+00    0.1556012560E+00    0.2723100518E-01    0.8457778943E-01
    0.1500000000E+03    0.8479273467E-01    0.2369801510E+00    0.1647779701E+00    0.2979034345E-01    0.8961091805E-01
    0.1700000000E+03    0.9154593879E-01    0.2428912855E+00    0.1727346558E+00    0.3216427138E-01    0.9398192263E-01
    0.1900000000E+03    0.9786269927E-01    0.2473337263E+00    0.1797327049E+00    0.3438496762E-01    0.9783218703E-01
    0.2100000000E+03    0.1038124485E+00    0.2506528695E+00    0.1859608987E+00    0.3647680640E-01    0.1012638857E+00
    0.2300000000E+03    0.1094489183E+00    0.2530987401E+00    0.1915593741E+00    0.3845865074E-01    0.1043529123E+00
    0.2500000000E+03    0.1148144697E+00    0.2548562951E+00    0.1966346147E+00    0.4034537199E-01    0.1071569703E+00
    0.2700000000E+03    0.1199430446E+00    0.2560649371E+00    0.2012691729E+00    0.4214888618E-01    0.1097208215E+00
    0.2900000000E+03    0.1248622311E+00    0.2568314561E+00    0.2055281746E+00    0.4387887876E-01    0.1120797993E+00
    0.3100000000E+03    0.1295947389E+00    0.2572388337E+00    0.2094637898E+00    0.4554332264E-01    0.1142622245E+00
    0.3300000000E+03    0.1341594755E+00    0.2573523689E+00    0.2131183788E+00    0.4714885589E-01    0.1162911058E+00
    0.3500000000E+03    0.1385723441E+00    0.2572240243E+00    0.2165267532E+00    0.4870106193E-01    0.1181853620E+00
    0.3700000000E+03    0.1428468455E+00    0.2568955661E+00    0.2197178309E+00    0.5020468065E-01    0.1199607178E+00
    0.3900000000E+03    0.1469945372E+00    0.2564008680E+00    0.2227158681E+00    0.5166376981E-01    0.1216303698E+00
    0.4100000000E+03    0.1510253898E+00    0.2557676254E+00    0.2255413901E+00    0.5308182997E-01    0.1232054911E+00
    0.4300000000E+03    0.1549480654E+00    0.2550186492E+00    0.2282119044E+00    0.5446190233E-01    0.1246956167E+00
    0.4500000000E+03    0.1587701386E+00    0.2541728521E+00    0.2307424534E+00    0.5580664626E-01    0.1261089434E+00
    0.4700000000E+03    0.1624982727E+00    0.2532460094E+00    0.2331460478E+00    0.5711840119E-01    0.1274525646E+00
    0.4900000000E+03    0.1661383624E+00    0.2522513519E+00    0.2354340109E+00    0.5839923667E-01    0.1287326566E+00
    0.1000000000E+03    0.6531505400E-01    0.2119766353E+00    0.1386834727E+00    0.2294459390E-01    0.7531901193E-01
    0.3000000000E+03    0.1272505595E+00    0.2570755999E+00    0.2075335581E+00    0.4471885180E-01    0.1131915347E+00
    0.5000000000E+03    0.1679270514E+00    0.2517321482E+00    0.2365377763E+00    0.5902864271E-01    0.1293505958E+00
    0.7000000000E+03    0.2000943977E+00    0.2397366117E+00    0.2544064814E+00    0.7035015994E-01    0.1393922922E+00
    0.9000000000E+03    0.2270816273E+00    0.2271026004E+00    0.2671323014E+00    0.7985215986E-01    0.1465916485E+00
    0.1100000000E+04    0.2503281996E+00    0.2151802803E+00    0.2769201010E+00    0.8803997029E-01    0.1521592566E+00
    0.1300000000E+04    0.2706397850E+00    0.2042816737E+00    0.2848165606E+00    0.9519640991E-01    0.1566720525E+00
    0.1500000000E+04    0.2885447081E+00    0.1944241993E+00    0.2913983554E+00    0.1015069417E+00    0.1604489883E+00
    0.1700000000E+04    0.3044261063E+00    0.1855350002E+00    0.2970160666E+00    0.1071060737E+00    0.1636845554E+00
    0.1900000000E+04    0.3185800880E+00    0.1775170514E+00    0.3018982899E+00    0.1120977750E+00    0.1665059203E+00
    0.2100000000E+04    0.3312448419E+00    0.1702723827E+00    0.3062021102E+00    0.1165656917E+00    0.1690006876E+00
    0.2300000000E+04    0.3426168678E+00    0.1637102350E+00    0.3100399669E+00    0.1205788427E+00    0.1712317081E+00
    0.2500000000E+04    0.3528609294E+00    0.1577494904E+00    0.3134950130E+00    0.1241951106E+00    0.1732455622E+00
    0.2700000000E+04    0.3621166786E+00    0.1523188487E+00    0.3166304094E+00    0.1274635649E+00    0.1750777014E+00
    0.2900000000E+04    0.3705033746E+00    0.1473561363E+00    0.3194952124E+00    0.1304261176E+00    0.1767557117E+00
    0.3100000000E+04    0.3781234254E+00    0.1428073297E+00    0.3221282499E+00    0.1331187647E+00    0.1783014655E+00
    0.3300000000E+04    0.3850651502E+00    0.1386255364E+00    0.3245607557E+00    0.1355725551E+00    0.1797325866E+00
    0.3500000000E+04    0.3914049921E+00    0.1347700397E+00    0.3268182109E+00    0.1378143675E+00    0.1810634749E+00
    0.3700000000E+04    0.3972093246E+00    0.1312054414E+00    0.3289216603E+00    0.1398675432E+00    0.1823060410E+00
    0.3900000000E+04    0.4025359449E+00    0.1279009121E+00    0.3308886757E+00    0.1417524108E+00    0.1834702439E+00
    0.4100000000E+04    0.4074353192E+00    0.1248295444E+00    0.3327340714E+00    0.1434867232E+00    0.1845644909E+00
    0.4300000000E+04    0.4119516276E+00    0.1219677984E+00    0.3344704456E+00    0.1450860241E+00    0.1855959410E+00
    0.4500000000E+04    0.4161236454E+00    0.1192950294E+00    0.3361085966E+00    0.1465639577E+00    0.1865707378E+00
    0.4700000000E+04    0.4199854891E+00    0.1167930847E+00    0.3376578452E+00    0.1479325304E+00    0.1874941906E+00
    0.4900000000E+04    0.4235672486E+00    0.1144459616E+00    0.3391262890E+00    0.1492023334E+00    0.1883709172E+00
    0.1000000000E+04    0.2391132067E+00    0.2210218439E+00    0.2723124637E+00    0.8408952612E-01    0.1495348242E+00
    0.3000000000E+04    0.3744034087E+00    0.1450330811E+00    0.3208385964E+00    0.1318041327E+00    0.1775439333E+00
    0.5000000000E+04    0.4252615332E+00    0.1133259725E+00    0.3398324559E+00    0.1498031659E+00    0.1887930407E+00
    0.7000000000E+04    0.4494854332E+00    0.9637103300E-01    0.3510417129E+00    0.1584099902E+00    0.1955421291E+00
    0.9000000000E+04    0.4630022727E+00    0.8566508061E-01    0.3587346167E+00    0.1632337319E+00    0.2002349860E+00
    0.1100000000E+05    0.4714097621E+00    0.7815702225E-01    0.3644636055E+00    0.1662484743E+00    0.2037689012E+00
    0.1300000000E+05    0.4770582262E+00    0.7251403621E-01    0.3689567825E+00    0.1682842197E+00    0.2065678453E+00
    0.1500000000E+05    0.4810749834E+00    0.6806412623E-01    0.3726096678E+00    0.1697396367E+00    0.2088635910E+00
    0.1700000000E+05    0.4840579058E+00    0.6443074974E-01    0.3756590708E+00    0.1708264692E+00    0.2107956892E+00
    0.1900000000E+05    0.4863496770E+00    0.6138540120E-01    0.3782570098E+00    0.1716662680E+00    0.2124541814E+00
    0.2100000000E+05    0.4881591629E+00    0.5878057195E-01    0.3805063404E+00    0.1723332354E+00    0.2139002762E+00
    0.2300000000E+05    0.4896201526E+00    0.5651625901E-01    0.3824795799E+00    0.1728749794E+00    0.2151773170E+00
    0.2500000000E+05    0.4908219252E+00    0.5452192657E-01    0.3842295799E+00    0.1733233226E+00    0.2163170223E+00
    0.2700000000E+05    0.4918261327E+00    0.5274617561E-01    0.3857959258E+00    0.1737002783E+00    0.2173432412E+00
    0.2900000000E+05    0.4926766047E+00    0.5115051918E-01    0.3872089535E+00    0.1740215235E+00    0.2182743173E+00
    0.3100000000E+05    0.4934052869E+00    0.4970546794E-01    0.3884923682E+00    0.1742985055E+00    0.2191246347E+00
    0.3300000000E+05    0.4940359724E+00    0.4838797735E-01    0.3896650070E+00    0.1745397656E+00    0.2199056622E+00
    0.3500000000E+05    0.4945867206E+00    0.4717973000E-01    0.3907420594E+00    0.1747517991E+00    0.2206266772E+00
    0.3700000000E+05    0.4950714698E+00    0.4606594811E-01    0.3917359317E+00    0.1749396285E+00    0.2212952806E+00
    0.3900000000E+05    0.4955011382E+00    0.4503455281E-01    0.3926568735E+00    0.1751071956E+00    0.2219177706E+00
    0.4100000000E+05    0.4958843925E+00    0.4407555632E-01    0.3935134384E+00    0.1752576356E+00    0.2224994187E+00
    0.4300000000E+05    0.4962281944E+00    0.4318061432E-01    0.3943128305E+00    0.1753934718E+00    0.2230446766E+00
    0.4500000000E+05    0.4965381970E+00    0.4234269066E-01    0.3950611674E+00    0.1755167571E+00    0.2235573352E+00
    0.4700000000E+05    0.4968190354E+00    0.4155580258E-01    0.3957636828E+00    0.1756291783E+00    0.2240406461E+00
    0.4900000000E+05    0.4970745445E+00    0.4081482434E-01    0.3964248852E+00    0.1757321338E+00    0.2244974173E+00
    0.1000000000E+05    0.4676558297E+00    0.8161706542E-01    0.3617880469E+00    0.1649005593E+00    0.2021139425E+00
    0.3000000000E+05    0.4930545246E+00    0.5041073595E-01    0.3878655875E+00    0.1741649573E+00    0.2187087954E+00
    0.5000000000E+05    0.4971938213E+00    0.4046014560E-01    0.3967412359E+00    0.1757804348E+00    0.2247166258E+00
    0.7000000000E+05    0.4988045898E+00    0.3496436728E-01    0.4016222649E+00    0.1764530613E+00    0.2281609054E+00
    0.9000000000E+05    0.4996448913E+00    0.3132462301E-01    0.4048191899E+00    0.1768282113E+00    0.2304936728E+00
    0.1100000000E+06    0.5001544603E+00    0.2867535398E-01    0.4071187561E+00    0.1770711749E+00    0.2322205990E+00
    0.1300000000E+06    0.5004932345E+00    0.2663074607E-01    0.4088732730E+00    0.1772434922E+00    0.2335722824E+00
    0.1500000000E+06    0.5007328715E+00    0.2498832441E-01    0.4102674700E+00    0.1773733832E+00    0.2346715473E+00
    0.1700000000E+06    0.5009101156E+00    0.2362990709E-01    0.4114088452E+00    0.1774756567E+00    0.2355908762E+00
    0.1900000000E+06    0.5010456883E+00    0.2248111357E-01    0.4123647902E+00    0.1775588581E+00    0.2363762923E+00
    0.2100000000E+06    0.5011521329E+00    0.2149241354E-01    0.4131799885E+00    0.1776282796E+00    0.2370586730E+00
    0.2300000000E+06    0.5012374708E+00    0.2062934349E-01    0.4138853942E+00    0.1776873833E+00    0.2376596448E+00
    0.2500000000E+06    0.5013070614E+00    0.1986706391E-01    0.4145032189E+00    0.1777385351E+00    0.2381948876E+00
    0.2700000000E+06    0.5013646164E+00    0.1918714685E-01    0.4150498696E+00    0.1777834106E+00    0.2386760973E+00
    0.2900000000E+06    0.5014127838E+00    0.1857558684E-01    0.4155377625E+00    0.1778232322E+00    0.2391122083E+00
    0.3100000000E+06    0.5014535016E+00    0.1802151910E-01    0.4159764897E+00    0.1778589145E+00    0.2395101842E+00
    0.3300000000E+06    0.5014882187E+00    0.1751636542E-01    0.4163735941E+00    0.1778911563E+00    0.2398755477E+00
    0.3500000000E+06    0.5015180393E+00    0.1705324848E-01    0.4167350992E+00    0.1779205021E+00    0.2402127458E+00
    0.3700000000E+06    0.5015438182E+00    0.1662658001E-01    0.4170658807E+00    0.1779473826E+00    0.2405254065E+00
    0.3900000000E+06    0.5015662275E+00    0.1623176491E-01    0.4173699332E+00    0.1779721438E+00    0.2408165247E+00
    0.4100000000E+06    0.5015858021E+00    0.1586498450E-01    0.4176505641E+00    0.1779950668E+00    0.2410885988E+00
    0.4300000000E+06    0.5016029724E+00    0.1552303513E-01    0.4179105384E+00    0.1780163832E+00    0.2413437326E+00
    0.4500000000E+06    0.5016180890E+00    0.1520320595E-01    0.4181521879E+00    0.1780362850E+00    0.2415837124E+00
    0.4700000000E+06    0.5016314395E+00    0.1490318529E-01    0.4183774941E+00    0.1780549337E+00    0.2418100668E+00
    0.4900000000E+06    0.5016432624E+00    0.1462098786E-01    0.4185881536E+00    0.1780724654E+00    0.2420241128E+00
    0.1000000000E+06    0.4999278707E+00    0.2990647674E-01    0.4060534796E+00    0.1769611879E+00    0.2314148423E+00
    0.3000000000E+06    0.5014339739E+00    0.1829194827E-01    0.4157627595E+00    0.1778415429E+00    0.2393155891E+00
    0.5000000000E+06    0.5016486644E+00    0.1448602739E-01    0.4186884555E+00    0.1780808495E+00    0.2421268832E+00
    0.7000000000E+06    0.5017110127E+00    0.1240649509E-01    0.4201931660E+00    0.1782108302E+00    0.2437476993E+00
    0.9000000000E+06    0.5017299500E+00    0.1104402523E-01    0.4211296183E+00    0.1782982617E+00    0.2448554547E+00
    0.1100000000E+07    0.5017321933E+00    0.1006112637E-01    0.4217745944E+00    0.1783635797E+00    0.2456834511E+00
    0.1300000000E+07    0.5017270170E+00    0.9308087658E-02    0.4222479048E+00    0.1784154991E+00    0.2463376814E+00
    0.1500000000E+07    0.5017183106E+00    0.8706840952E-02    0.4226106974E+00    0.1784584852E+00    0.2468745651E+00
    0.1700000000E+07    0.5017079087E+00    0.8212107263E-02    0.4228977526E+00    0.1784951127E+00    0.2473274294E+00
    0.1900000000E+07    0.5016967463E+00    0.7795556822E-02    0.4231304423E+00    0.1785269940E+00    0.2477174750E+00
    0.2100000000E+07    0.5016853247E+00    0.7438425778E-02    0.4233226837E+00    0.1785552027E+00    0.2480589594E+00
    0.2300000000E+07    0.5016739205E+00    0.7127721460E-02    0.4234839603E+00    0.1785804881E+00    0.2483618960E+00
    0.2500000000E+07    0.5016626881E+00    0.6854120581E-02    0.4236209735E+00    0.1786033932E+00    0.2486335655E+00
    0.2700000000E+07    0.5016517122E+00    0.6610734014E-02    0.4237386026E+00    0.1786243236E+00    0.2488794154E+00
    0.2900000000E+07    0.5016410372E+00    0.6392344995E-02    0.4238404904E+00    0.1786435899E+00    0.2491036195E+00
    0.3100000000E+07    0.5016306833E+00    0.6194920106E-02    0.4239294147E+00    0.1786614354E+00    0.2493094411E+00
    0.3300000000E+07    0.5016206562E+00    0.6015284560E-02    0.4240075329E+00    0.1786780539E+00    0.2494994764E+00
    0.3500000000E+07    0.5016109531E+00    0.5850900262E-02    0.4240765473E+00    0.1786936021E+00    0.2496758221E+00
    0.3700000000E+07    0.5016015658E+00    0.5699710249E-02    0.4241378202E+00    0.1787082089E+00    0.2498401941E+00
    0.3900000000E+07    0.5015924834E+00    0.5560027249E-02    0.4241924549E+00    0.1787219812E+00    0.2499940131E+00
    0.4100000000E+07    0.5015836934E+00    0.5430452277E-02    0.4242413554E+00    0.1787350087E+00    0.2501384679E+00
    0.4300000000E+07    0.5015751826E+00    0.5309814143E-02    0.4242852691E+00    0.1787473675E+00    0.2502745621E+00
    0.4500000000E+07    0.5015669376E+00    0.5197123798E-02    0.4243248200E+00    0.1787591226E+00    0.2504031508E+00
    0.4700000000E+07    0.5015589454E+00    0.5091539405E-02    0.4243605329E+00    0.1787703301E+00    0.2505249673E+00
    0.4900000000E+07    0.5015511934E+00    0.4992339264E-02    0.4243928526E+00    0.1787810384E+00    0.2506406457E+00
    0.1000000000E+07    0.5017323846E+00    0.1051690630E-01    0.4214790579E+00    0.1783329948E+00    0.2452961348E+00
    0.3000000000E+07    0.5016358195E+00    0.6291227588E-02    0.4238864258E+00    0.1786526772E+00    0.2492086525E+00
    0.5000000000E+07    0.5015474037E+00    0.4944935290E-02    0.4244078608E+00    0.1787862190E+00    0.2506963581E+00
    0.7000000000E+07    0.5014816161E+00    0.4217651280E-02    0.4245981495E+00    0.1788715843E+00    0.2515909672E+00
    0.9000000000E+07    0.5014297781E+00    0.3744344060E-02    0.4246733273E+00    0.1789344236E+00    0.2522217907E+00
    0.1100000000E+08    0.5013871096E+00    0.3404464008E-02    0.4246969776E+00    0.1789841680E+00    0.2527051638E+00
    0.1300000000E+08    0.5013508834E+00    0.3144955523E-02    0.4246942860E+00    0.1790253425E+00    0.2530950443E+00
    0.1500000000E+08    0.5013194200E+00    0.2938308429E-02    0.4246770459E+00    0.1790604697E+00    0.2534206635E+00
    0.1700000000E+08    0.5012916171E+00    0.2768636178E-02    0.4246514092E+00    0.1790911002E+00    0.2536995553E+00
    0.1900000000E+08    0.5012667137E+00    0.2626033559E-02    0.4246208351E+00    0.1791182556E+00    0.2539430273E+00
    0.2100000000E+08    0.5012441634E+00    0.2503958838E-02    0.4245873766E+00    0.1791426448E+00    0.2541587777E+00
    0.2300000000E+08    0.5012235603E+00    0.2397893318E-02    0.4245523019E+00    0.1791647795E+00    0.2543522740E+00
    0.2500000000E+08    0.5012045952E+00    0.2304601251E-02    0.4245164178E+00    0.1791850417E+00    0.2545275327E+00
    0.2700000000E+08    0.5011870269E+00    0.2221696056E-02    0.4244802479E+00    0.1792037236E+00    0.2546875876E+00
