  Pressure (Pa) 22mC5-400 (mol/kg) 2mC6-400 (mol/kg) 3mC6-400 (mol/kg) 23mC5-400 (mol/kg) C7-400 (mol/kg)
    0.1000000000E+01    0.1059589075E-02    0.3153734216E-02    0.5224198928E-03    0.6511825557E-03    0.1017322735E-01
    0.3000000000E+01    0.3143711558E-02    0.9114722755E-02    0.1508682703E-02    0.1932018048E-02    0.2938422719E-01
    0.5000000000E+01    0.5182687827E-02    0.1465476150E-01    0.2424060060E-02    0.3185126631E-02    0.4722098105E-01
    0.7000000000E+01    0.7178338481E-02    0.1981697905E-01    0.3276125419E-02    0.4411626291E-02    0.6383009416E-01
    0.9000000000E+01    0.9132384400E-02    0.2463862144E-01    0.4071403689E-02    0.5612573787E-02    0.7933788963E-01
    0.1100000000E+02    0.1104645352E-01    0.2915203721E-01    0.4815546964E-02    0.6788968810E-02    0.9385380595E-01
    0.1300000000E+02    0.1292208709E-01    0.3338546988E-01    0.5513476037E-02    0.7941757807E-02    0.1074731333E+00
    0.1500000000E+02    0.1476074534E-01    0.3736370038E-01    0.6169495224E-02    0.9071837506E-02    0.1202792339E+00
    0.1700000000E+02    0.1656381285E-01    0.4110857174E-01    0.6787386202E-02    0.1018005816E-01    0.1323453569E+00
    0.1900000000E+02    0.1833260336E-01    0.4463942036E-01    0.7370485200E-02    0.1126722652E-01    0.1437361308E+00
    0.2100000000E+02    0.2006836430E-01    0.4797343286E-01    0.7921746883E-02    0.1233410865E-01    0.1545087995E+00
    0.2300000000E+02    0.2177228097E-01    0.5112594314E-01    0.8443797544E-02    0.1338143242E-01    0.1647142511E+00
    0.2500000000E+02    0.2344548034E-01    0.5411068095E-01    0.8938979630E-02    0.1440988993E-01    0.1743978790E+00
    0.2700000000E+02    0.2508903467E-01    0.5693998108E-01    0.9409389198E-02    0.1542013965E-01    0.1836003069E+00
    0.2900000000E+02    0.2670396481E-01    0.5962496033E-01    0.9856907597E-02    0.1641280850E-01    0.1923580014E+00
    0.3100000000E+02    0.2829124326E-01    0.6217566778E-01    0.1028322837E-01    0.1738849369E-01    0.2007037926E+00
    0.3300000000E+02    0.2985179700E-01    0.6460121314E-01    0.1068988019E-01    0.1834776451E-01    0.2086673184E+00
    0.3500000000E+02    0.3138651021E-01    0.6690987673E-01    0.1107824657E-01    0.1929116394E-01    0.2162754048E+00
    0.3700000000E+02    0.3289622667E-01    0.6910920420E-01    0.1144958270E-01    0.2021921017E-01    0.2235523931E+00
    0.3900000000E+02    0.3438175212E-01    0.7120608826E-01    0.1180503010E-01    0.2113239801E-01    0.2305204227E+00
    0.4100000000E+02    0.3584385633E-01    0.7320683970E-01    0.1214562925E-01    0.2203120021E-01    0.2371996755E+00
    0.4300000000E+02    0.3728327520E-01    0.7511724911E-01    0.1247233055E-01    0.2291606869E-01    0.2436085886E+00
    0.4500000000E+02    0.3870071252E-01    0.7694264078E-01    0.1278600397E-01    0.2378743568E-01    0.2497640403E+00
    0.4700000000E+02    0.4009684179E-01    0.7868791997E-01    0.1308744734E-01    0.2464571481E-01    0.2556815116E+00
    0.4900000000E+02    0.4147230785E-01    0.8035761439E-01    0.1337739379E-01    0.2549130208E-01    0.2613752295E+00
    0.1000000000E+02    0.1009431777E-01    0.2693200440E-01    0.4449543972E-02    0.6203780000E-02    0.8671357368E-01
    0.3000000000E+02    0.2750100153E-01    0.6091650803E-01    0.1007261852E-01    0.1690273784E-01    0.1965804625E+00
    0.5000000000E+02    0.4215248621E-01    0.8116543808E-01    0.1351826868E-01    0.2590945544E-01    0.2641423149E+00
    0.7000000000E+02    0.5480843589E-01    0.9422030841E-01    0.1587055015E-01    0.3369046137E-01    0.3104231590E+00
    0.9000000000E+02    0.6596312085E-01    0.1030047848E+00    0.1759213690E-01    0.4054931151E-01    0.3444069046E+00
    0.1100000000E+03    0.7595286092E-01    0.1090466706E+00    0.1891475400E-01    0.4669256392E-01    0.3705983422E+00
    0.1300000000E+03    0.8501504683E-01    0.1132298692E+00    0.1996778067E-01    0.5226602184E-01    0.3915155392E+00
    0.1500000000E+03    0.9332244655E-01    0.1161035142E+00    0.2082939111E-01    0.5737580080E-01    0.4086817049E+00
    0.1700000000E+03    0.1010041011E+00    0.1180271794E+00    0.2154974834E-01    0.6210116088E-01    0.4230753517E+00
    0.1900000000E+03    0.1081585639E+00    0.1192460287E+00    0.2216260264E-01    0.6650263722E-01    0.4353555630E+00
    0.2100000000E+03    0.1148625758E+00    0.1199326671E+00    0.2269154806E-01    0.7062736790E-01    0.4459835926E+00
    0.2300000000E+03    0.1211769178E+00    0.1202118267E+00    0.2315360824E-01    0.7451268823E-01    0.4552926054E+00
    0.2500000000E+03    0.1271504607E+00    0.1201756155E+00    0.2356139635E-01    0.7818861809E-01    0.4635297135E+00
    0.2700000000E+03    0.1328230311E+00    0.1198932995E+00    0.2392447112E-01    0.8167962201E-01    0.4708823859E+00
    0.2900000000E+03    0.1382274797E+00    0.1194177822E+00    0.2425021882E-01    0.8500587970E-01    0.4774956354E+00
    0.3100000000E+03    0.1433912012E+00    0.1187900126E+00    0.2454444443E-01    0.8818421952E-01    0.4834835479E+00
    0.3300000000E+03    0.1483372693E+00    0.1180420549E+00    0.2481177849E-01    0.9122881547E-01    0.4889372209E+00
    0.3500000000E+03    0.1530852955E+00    0.1171992701E+00    0.2505596363E-01    0.9415171497E-01    0.4939303580E+00
    0.3700000000E+03    0.1576520890E+00    0.1162818941E+00    0.2528006048E-01    0.9696324392E-01    0.4985232925E+00
    0.3900000000E+03    0.1620521685E+00    0.1153061975E+00    0.2548659837E-01    0.9967232124E-01    0.5027659344E+00
    0.4100000000E+03    0.1662981640E+00    0.1142853508E+00    0.2567768751E-01    0.1022867058E+00    0.5066999632E+00
    0.4300000000E+03    0.1704011362E+00    0.1132300764E+00    0.2585510357E-01    0.1048131921E+00    0.5103604857E+00
    0.4500000000E+03    0.1743708310E+00    0.1121491479E+00    0.2602035245E-01    0.1072577674E+00    0.5137773033E+00
    0.4700000000E+03    0.1782158857E+00    0.1110497744E+00    0.2617472045E-01    0.1096257376E+00    0.5169758958E+00
    0.4900000000E+03    0.1819439965E+00    0.1099379005E+00    0.2631931346E-01    0.1119218306E+00    0.5199781902E+00
    0.1000000000E+03    0.7108694034E-01    0.1063030038E+00    0.1829363153E-01    0.4370014979E-01    0.3582882277E+00
    0.3000000000E+03    0.1408378991E+00    0.1191207458E+00    0.2440095878E-01    0.8661259814E-01    0.4805616012E+00
    0.5000000000E+03    0.1837663801E+00    0.1093788470E+00    0.2638824840E-01    0.1130442637E+00    0.5214117592E+00
    0.7000000000E+03    0.2154290853E+00    0.9836284462E-01    0.2742992241E-01    0.1325515307E+00    0.5432796762E+00
    0.9000000000E+03    0.2403109311E+00    0.8851486526E-01    0.2808702728E-01    0.1478896168E+00    0.5573287177E+00
    0.1100000000E+04    0.2604839474E+00    0.8009447377E-01    0.2854545620E-01    0.1603315370E+00    0.5672926465E+00
    0.1300000000E+04    0.2771571065E+00    0.7296090800E-01    0.2888632050E-01    0.1706201753E+00    0.5748143931E+00
    0.1500000000E+04    0.2911301798E+00    0.6691029486E-01    0.2915119159E-01    0.1792470730E+00    0.5807425437E+00
    0.1700000000E+04    0.3029708604E+00    0.6175293257E-01    0.2936378116E-01    0.1865612162E+00    0.5855646296E+00
    0.1900000000E+04    0.3130993838E+00    0.5732915284E-01    0.2953869197E-01    0.1928210035E+00    0.5895829432E+00
    0.2100000000E+04    0.3218353674E+00    0.5350896419E-01    0.2968545263E-01    0.1982230106E+00    0.5929960085E+00
    0.2300000000E+04    0.3294265739E+00    0.5018770204E-01    0.2981056871E-01    0.2029196551E+00    0.5959401964E+00
    0.2500000000E+04    0.3360678757E+00    0.4728125662E-01    0.2991864665E-01    0.2070308446E+00    0.5985126315E+00
    0.2700000000E+04    0.3419143717E+00    0.4472187959E-01    0.3001304744E-01    0.2106520340E+00    0.6007845750E+00
    0.2900000000E+04    0.3470907633E+00    0.4245476050E-01    0.3009628569E-01    0.2138599869E+00    0.6028096293E+00
    0.3100000000E+04    0.3516982187E+00    0.4043531401E-01    0.3017028343E-01    0.2167169928E+00    0.6046289766E+00
    0.3300000000E+04    0.3558194858E+00    0.3862705699E-01    0.3023653696E-01    0.2192740105E+00    0.6062748378E+00
    0.3500000000E+04    0.3595227561E+00    0.3699995353E-01    0.3029622998E-01    0.2215730430E+00    0.6077728254E+00
    0.3700000000E+04    0.3628646191E+00    0.3552912457E-01    0.3035031211E-01    0.2236489536E+00    0.6091435840E+00
    0.3900000000E+04    0.3658923427E+00    0.3419383885E-01    0.3039955474E-01    0.2255308691E+00    0.6104039601E+00
    0.4100000000E+04    0.3686456518E+00    0.3297672068E-01    0.3044459145E-01    0.2272432725E+00    0.6115678526E+00
    0.4300000000E+04    0.3711581244E+00    0.3186312483E-01    0.3048594788E-01    0.2288068629E+00    0.6126468419E+00
    0.4500000000E+04    0.3734582979E+00    0.3084064072E-01    0.3052406398E-01    0.2302392351E+00    0.6136506632E+00
    0.4700000000E+04    0.3755705502E+00    0.2989869700E-01    0.3055931106E-01    0.2315554228E+00    0.6145875663E+00
    0.4900000000E+04    0.3775158079E+00    0.2902824438E-01    0.3059200480E-01    0.2327683333E+00    0.6154645944E+00
    0.1000000000E+04    0.2508977196E+00    0.8413178212E-01    0.2833466516E-01    0.1544183283E+00    0.5626917469E+00
    0.3000000000E+04    0.3494600550E+00    0.4141652687E-01    0.3013433766E-01    0.2153289387E+00    0.6037428243E+00
    0.5000000000E+04    0.3784315525E+00    0.2861735153E-01    0.3060748016E-01    0.2333396000E+00    0.6158825805E+00
    0.7000000000E+04    0.3912686512E+00    0.2274032493E-01    0.3083186049E-01    0.2413729610E+00    0.6222027825E+00
    0.9000000000E+04    0.3983029083E+00    0.1935143526E-01    0.3096285233E-01    0.2458063327E+00    0.6262190814E+00
    0.1100000000E+05    0.4026809355E+00    0.1711990399E-01    0.3104815931E-01    0.2485862232E+00    0.6290542896E+00
    0.1300000000E+05    0.4056445658E+00    0.1552056365E-01    0.3110759337E-01    0.2504825422E+00    0.6311909975E+00
    0.1500000000E+05    0.4077732331E+00    0.1430602335E-01    0.3115092928E-01    0.2518553494E+00    0.6328749124E+00
    0.1700000000E+05    0.4093708046E+00    0.1334450171E-01    0.3118356733E-01    0.2528939129E+00    0.6342458526E+00
    0.1900000000E+05    0.4106109585E+00    0.1255919411E-01    0.3120874122E-01    0.2537066724E+00    0.6353899328E+00
    0.2100000000E+05    0.4115997368E+00    0.1190216619E-01    0.3122850792E-01    0.2543600011E+00    0.6363634365E+00
    0.2300000000E+05    0.4124053558E+00    0.1134185150E-01    0.3124423902E-01    0.2548967040E+00    0.6372048918E+00
    0.2500000000E+05    0.4130735952E+00    0.1085654588E-01    0.3125688434E-01    0.2553455806E+00    0.6379416704E+00
    0.2700000000E+05    0.4136362711E+00    0.1043078899E-01    0.3126712234E-01    0.2557266982E+00    0.6385938191E+00
    0.2900000000E+05    0.4141161550E+00    0.1005323869E-01    0.3127545036E-01    0.2560544567E+00    0.6391763988E+00
    0.3100000000E+05    0.4145299578E+00    0.9715364257E-02    0.3128224110E-01    0.2563394517E+00    0.6397009715E+00
    0.3300000000E+05    0.4148902100E+00    0.9410611367E-02    0.3128777914E-01    0.2565896492E+00    0.6401765791E+00
    0.3500000000E+05    0.4152064862E+00    0.9133850639E-02    0.3129228541E-01    0.2568111525E+00    0.6406104080E+00
    0.3700000000E+05    0.4154862237E+00    0.8881002850E-02    0.3129593388E-01    0.2570087152E+00    0.6410082508E+00
    0.3900000000E+05    0.4157352844E+00    0.8648777789E-02    0.3129886327E-01    0.2571860944E+00    0.6413748354E+00
    0.4100000000E+05    0.4159583494E+00    0.8434488228E-02    0.3130118550E-01    0.2573462983E+00    0.6417140640E+00
    0.4300000000E+05    0.4161592007E+00    0.8235914793E-02    0.3130299172E-01    0.2574917641E+00    0.6420291895E+00
    0.4500000000E+05    0.4163409260E+00    0.8051206072E-02    0.3130435688E-01    0.2576244870E+00    0.6423229480E+00
    0.4700000000E+05    0.4165060704E+00    0.7878803604E-02    0.3130534312E-01    0.2577461164E+00    0.6425976596E+00
    0.4900000000E+05    0.4166567502E+00    0.7717384761E-02    0.3130600232E-01    0.2578580271E+00    0.6428553065E+00
    0.1000000000E+05    0.4007231973E+00    0.1813353564E-01    0.3100963288E-01    0.2473405350E+00    0.6277460846E+00
    0.3000000000E+05    0.4143304522E+00    0.9879790433E-02    0.3127901837E-01    0.2562017506E+00    0.6394453208E+00
    0.5000000000E+05    0.4167272316E+00    0.7640434305E-02    0.3130622319E-01    0.2579107065E+00    0.6429782729E+00
    0.7000000000E+05    0.4176876242E+00    0.6473314893E-02    0.3130111030E-01    0.2586571905E+00    0.6448531306E+00
    0.9000000000E+05    0.4181938280E+00    0.5725266704E-02    0.3128764061E-01    0.2590853185E+00    0.6460627389E+00
    0.1100000000E+06    0.4185010524E+00    0.5192556558E-02    0.3127178720E-01    0.2593677366E+00    0.6469273016E+00
    0.1300000000E+06    0.4187042976E+00    0.4787943806E-02    0.3125551863E-01    0.2595706632E+00    0.6475857427E+00
    0.1500000000E+06    0.4188467806E+00    0.4466911535E-02    0.3123956756E-01    0.2597251185E+00    0.6481093948E+00
    0.1700000000E+06    0.4189508933E+00    0.4204019060E-02    0.3122421104E-01    0.2598476471E+00    0.6485391570E+00
    0.1900000000E+06    0.4190293535E+00    0.3983519659E-02    0.3120953986E-01    0.2599479190E+00    0.6489003917E+00
    0.2100000000E+06    0.4190898969E+00    0.3795069487E-02    0.3119556437E-01    0.2600319856E+00    0.6492097775E+00
    0.2300000000E+06    0.4191374859E+00    0.3631552949E-02    0.3118225997E-01    0.2601038403E+00    0.6494787966E+00
    0.2500000000E+06    0.4191754422E+00    0.3487891273E-02    0.3116958775E-01    0.2601662321E+00    0.6497156483E+00
    0.2700000000E+06    0.4192060675E+00    0.3360348389E-02    0.3115750423E-01    0.2602211199E+00    0.6499263669E+00
    0.2900000000E+06    0.4192310043E+00    0.3246105881E-02    0.3114596591E-01    0.2602699409E+00    0.6501155060E+00
    0.3100000000E+06    0.4192514532E+00    0.3142991769E-02    0.3113493141E-01    0.2603137755E+00    0.6502865759E+00
    0.3300000000E+06    0.4192683107E+00    0.3049301322E-02    0.3112436234E-01    0.2603534526E+00    0.6504423327E+00
    0.3500000000E+06    0.4192822587E+00    0.2963675125E-02    0.3111422354E-01    0.2603896205E+00    0.6505849750E+00
    0.3700000000E+06    0.4192938239E+00    0.2885013933E-02    0.3110448304E-01    0.2604227939E+00    0.6507162810E+00
    0.3900000000E+06    0.4193034189E+00    0.2812417891E-02    0.3109511188E-01    0.2604533872E+00    0.6508377071E+00
    0.4100000000E+06    0.4193113713E+00    0.2745142256E-02    0.3108608384E-01    0.2604817384E+00    0.6509504589E+00
    0.4300000000E+06    0.4193179438E+00    0.2682564592E-02    0.3107737520E-01    0.2605081263E+00    0.6510555447E+00
    0.4500000000E+06    0.4193233492E+00    0.2624160066E-02    0.3106896445E-01    0.2605327829E+00    0.6511538147E+00
    0.4700000000E+06    0.4193277619E+00    0.2569482590E-02    0.3106083210E-01    0.2605559034E+00    0.6512459920E+00
    0.4900000000E+06    0.4193313252E+00    0.2518150236E-02    0.3105296042E-01    0.2605776530E+00    0.6513326962E+00
    0.1000000000E+06    0.4183645388E+00    0.5438905053E-02    0.3127984399E-01    0.2592393638E+00    0.6465271700E+00
    0.3000000000E+06    0.4192417278E+00    0.3193273624E-02    0.3114038816E-01    0.2602924248E+00    0.6502031123E+00
    0.5000000000E+06    0.4193328265E+00    0.2493633810E-02    0.3104911723E-01    0.2605880586E+00    0.6513741656E+00
    0.7000000000E+06    0.4193387616E+00    0.2118586663E-02    0.3098269613E-01    0.2607496947E+00    0.6520141977E+00
    0.9000000000E+06    0.4193239523E+00    0.1875630704E-02    0.3093042863E-01    0.2608586511E+00    0.6524360240E+00
    0.1100000000E+07    0.4193030570E+00    0.1701730033E-02    0.3088728638E-01    0.2609401050E+00    0.6527426899E+00
    0.1300000000E+07    0.4192806594E+00    0.1569282107E-02    0.3085052262E-01    0.2610048559E+00    0.6529795995E+00
    0.1500000000E+07    0.4192584185E+00    0.1464025847E-02    0.3081847324E-01    0.2610584561E+00    0.6531703573E+00
    0.1700000000E+07    0.4192369615E+00    0.1377748478E-02    0.3079005310E-01    0.2611041137E+00    0.6533286394E+00
    0.1900000000E+07    0.4192165074E+00    0.1305340785E-02    0.3076451485E-01    0.2611438408E+00    0.6534630040E+00
    0.2100000000E+07    0.4191971026E+00    0.1243434768E-02    0.3074132155E-01    0.2611789782E+00    0.6535791250E+00
    0.2300000000E+07    0.4191787193E+00    0.1189707715E-02    0.3072007427E-01    0.2612104621E+00    0.6536809367E+00
    0.2500000000E+07    0.4191612996E+00    0.1142498711E-02    0.3070046842E-01    0.2612389715E+00    0.6537712676E+00
    0.2700000000E+07    0.4191447747E+00    0.1100584239E-02    0.3068226606E-01    0.2612650135E+00    0.6538522120E+00
    0.2900000000E+07    0.4191290749E+00    0.1063040326E-02    0.3066527775E-01    0.2612889767E+00    0.6539253595E+00
    0.3100000000E+07    0.4191141338E+00    0.1029154334E-02    0.3064935016E-01    0.2613111653E+00    0.6539919418E+00
    0.3300000000E+07    0.4190998896E+00    0.9983665793E-03    0.3063435742E-01    0.2613318215E+00    0.6540529309E+00
    0.3500000000E+07    0.4190862860E+00    0.9702305213E-03    0.3062019491E-01    0.2613511416E+00    0.6541091061E+00
    0.3700000000E+07    0.4190732722E+00    0.9443849410E-03    0.3060677472E-01    0.2613692866E+00    0.6541611002E+00
    0.3900000000E+07    0.4190608023E+00    0.9205340464E-03    0.3059402226E-01    0.2613863902E+00    0.6542094338E+00
    0.4100000000E+07    0.4190488349E+00    0.8984329737E-03    0.3058187371E-01    0.2614025645E+00    0.6542545397E+00
    0.4300000000E+07    0.4190373329E+00    0.8778770326E-03    0.3057027399E-01    0.2614179048E+00    0.6542967812E+00
    0.4500000000E+07    0.4190262628E+00    0.8586936047E-03    0.3055917530E-01    0.2614324922E+00    0.6543364658E+00
    0.4700000000E+07    0.4190155945E+00    0.8407359538E-03    0.3054853580E-01    0.2614463968E+00    0.6543738560E+00
    0.4900000000E+07    0.4190053006E+00    0.8238784377E-03    0.3053831875E-01    0.2614596793E+00    0.6544091774E+00
    0.1000000000E+07    0.4193138711E+00    0.1782225981E-02    0.3090792278E-01    0.2609019617E+00    0.6526001763E+00
    0.3000000000E+07    0.4191215135E+00    0.1045678117E-02    0.3065718979E-01    0.2613002764E+00    0.6539594053E+00
    0.5000000000E+07    0.4190002863E+00    0.8158277955E-03    0.3053335834E-01    0.2614661041E+00    0.6544261243E+00
    0.7000000000E+07    0.4189147405E+00    0.6927207437E-03    0.3045010179E-01    0.2615718759E+00    0.6546924721E+00
    0.9000000000E+07    0.4188487666E+00    0.6130306818E-03    0.3038721929E-01    0.2616496220E+00    0.6548736809E+00
    0.1100000000E+08    0.4187950889E+00    0.5560239808E-03    0.3033664684E-01    0.2617111001E+00    0.6550088130E+00
    0.1300000000E+08    0.4187498438E+00    0.5126260874E-03    0.3029433256E-01    0.2617619439E+00    0.6551154567E+00
    0.1500000000E+08    0.4187107398E+00    0.4781508741E-03    0.3025794798E-01    0.2618052907E+00    0.6552029200E+00
    0.1700000000E+08    0.4186763074E+00    0.4499008678E-03    0.3022603015E-01    0.2618430672E+00    0.6552766787E+00
    0.1900000000E+08    0.4186455481E+00    0.4261986205E-03    0.3019759925E-01    0.2618765418E+00    0.6553402060E+00
    0.2100000000E+08    0.4186177529E+00    0.4059387452E-03    0.3017196662E-01    0.2619065938E+00    0.6553958323E+00
    0.2300000000E+08    0.4185923999E+00    0.3883591585E-03    0.3014862964E-01    0.2619338580E+00    0.6554451913E+00
    0.2500000000E+08    0.4185690939E+00    0.3729150637E-03    0.3012721018E-01    0.2619588075E+00    0.6554894696E+00
    0.2700000000E+08    0.4185475287E+00    0.3592052366E-03    0.3010741655E-01    0.2619818045E+00    0.6555295538E+00
