  Pressure (Pa) 22mC5-400 (mol/kg) 2mC6-400 (mol/kg) 3mC6-400 (mol/kg) 23mC5-400 (mol/kg) C7-400 (mol/kg)
    0.1000000000E+01    0.1060696294E-02    0.2370603212E-02    0.3141014720E-02    0.4656161534E-03    0.6796143792E-02
    0.3000000000E+01    0.3153422332E-02    0.6880624251E-02    0.9106303795E-02    0.1384273198E-02    0.1970627193E-01
    0.5000000000E+01    0.5208983301E-02    0.1110706762E-01    0.1468436977E-01    0.2286626840E-02    0.3178233150E-01
    0.7000000000E+01    0.7228597552E-02    0.1507621157E-01    0.1991256156E-01    0.3173211467E-02    0.4310464942E-01
    0.9000000000E+01    0.9213429126E-02    0.1881107293E-01    0.2482354846E-01    0.4044537646E-02    0.5374349566E-01
    0.1100000000E+02    0.1116459076E-01    0.2233190488E-01    0.2944603193E-01    0.4901093445E-02    0.6376061232E-01
    0.1300000000E+02    0.1308314668E-01    0.2565660582E-01    0.3380533124E-01    0.5743345659E-02    0.7321047169E-01
    0.1500000000E+02    0.1497011527E-01    0.2880105755E-01    0.3792386836E-01    0.6571740966E-02    0.8214131795E-01
    0.1700000000E+02    0.1682647147E-01    0.3177940637E-01    0.4182157165E-01    0.7386707004E-02    0.9059603455E-01
    0.1900000000E+02    0.1865314912E-01    0.3460429828E-01    0.4551621388E-01    0.8188653379E-02    0.9861287044E-01
    0.2100000000E+02    0.2045104310E-01    0.3728707659E-01    0.4902369665E-01    0.8977972611E-02    0.1062260513E+00
    0.2300000000E+02    0.2222101136E-01    0.3983794898E-01    0.5235829092E-01    0.9755041020E-02    0.1134662964E+00
    0.2500000000E+02    0.2396387681E-01    0.4226612919E-01    0.5553284134E-01    0.1052021956E-01    0.1203612578E+00
    0.2700000000E+02    0.2568042910E-01    0.4457995789E-01    0.5855894055E-01    0.1127385460E-01    0.1269358947E+00
    0.2900000000E+02    0.2737142630E-01    0.4678700618E-01    0.6144707853E-01    0.1201627865E-01    0.1332127948E+00
    0.3100000000E+02    0.2903759646E-01    0.4889416448E-01    0.6420677106E-01    0.1274781108E-01    0.1392124502E+00
    0.3300000000E+02    0.3067963913E-01    0.5090771935E-01    0.6684667056E-01    0.1346875871E-01    0.1449534959E+00
    0.3500000000E+02    0.3229822670E-01    0.5283341992E-01    0.6937466216E-01    0.1417941648E-01    0.1504529158E+00
    0.3700000000E+02    0.3389400573E-01    0.5467653569E-01    0.7179794722E-01    0.1488006802E-01    0.1557262231E+00
    0.3900000000E+02    0.3546759822E-01    0.5644190693E-01    0.7412311607E-01    0.1557098615E-01    0.1607876160E+00
    0.4100000000E+02    0.3701960273E-01    0.5813398872E-01    0.7635621177E-01    0.1625243343E-01    0.1656501149E+00
    0.4300000000E+02    0.3855059551E-01    0.5975688965E-01    0.7850278593E-01    0.1692466263E-01    0.1703256828E+00
    0.4500000000E+02    0.4006113152E-01    0.6131440586E-01    0.8056794788E-01    0.1758791718E-01    0.1748253307E+00
    0.4700000000E+02    0.4155174543E-01    0.6281005108E-01    0.8255640805E-01    0.1824243161E-01    0.1791592111E+00
    0.4900000000E+02    0.4302295255E-01    0.6424708318E-01    0.8447251627E-01    0.1888843196E-01    0.1833367001E+00
    0.1000000000E+02    0.1019315107E-01    0.2059707301E-01    0.2716919752E-01    0.4474632184E-02    0.5882620843E-01
    0.3000000000E+02    0.2820757039E-01    0.4785266534E-01    0.6284242066E-01    0.1238338686E-01    0.1362460725E+00
    0.5000000000E+02    0.4375143451E-01    0.6494457331E-01    0.8540470758E-01    0.1920830777E-01    0.1853695339E+00
    0.7000000000E+02    0.5741411254E-01    0.7644879729E-01    0.1010825044E+00    0.2520791835E-01    0.2196106211E+00
    0.9000000000E+02    0.6960497010E-01    0.8451186874E-01    0.1126786700E+00    0.3056179076E-01    0.2450143096E+00
    0.1100000000E+03    0.8061764859E-01    0.9029510161E-01    0.1216457507E+00    0.3539873765E-01    0.2647166818E+00
    0.1300000000E+03    0.9066858894E-01    0.9448981762E-01    0.1288140385E+00    0.3981370857E-01    0.2805122456E+00
    0.1500000000E+03    0.9992109033E-01    0.9753645725E-01    0.1346937895E+00    0.4387834240E-01    0.2935049643E+00
    0.1700000000E+03    0.1085008721E+00    0.9973012437E-01    0.1396165797E+00    0.4764779314E-01    0.3044129564E+00
    0.1900000000E+03    0.1165064492E+00    0.1012763596E+00    0.1438076475E+00    0.5116528092E-01    0.3137245354E+00
    0.2100000000E+03    0.1240162347E+00    0.1023227873E+00    0.1474256251E+00    0.5446520746E-01    0.3217839605E+00
    0.2300000000E+03    0.1310935158E+00    0.1029781109E+00    0.1505856362E+00    0.5757533898E-01    0.3288413206E+00
    0.2500000000E+03    0.1377900132E+00    0.1033240427E+00    0.1533733705E+00    0.6051836738E-01    0.3350829479E+00
    0.2700000000E+03    0.1441484737E+00    0.1034230809E+00    0.1558540036E+00    0.6331304760E-01    0.3406507065E+00
    0.2900000000E+03    0.1502045901E+00    0.1033237400E+00    0.1580780444E+00    0.6597503990E-01    0.3456546433E+00
    0.3100000000E+03    0.1559884446E+00    0.1030641626E+00    0.1600852800E+00    0.6851754300E-01    0.3501815290E+00
    0.3300000000E+03    0.1615256084E+00    0.1026746706E+00    0.1619075060E+00    0.7095177655E-01    0.3543007720E+00
    0.3500000000E+03    0.1668379899E+00    0.1021796036E+00    0.1635704580E+00    0.7328735322E-01    0.3580686052E+00
    0.3700000000E+03    0.1719444968E+00    0.1015986661E+00    0.1650952052E+00    0.7553256904E-01    0.3615311092E+00
    0.3900000000E+03    0.1768615572E+00    0.1009479306E+00    0.1664991746E+00    0.7769463219E-01    0.3647264339E+00
    0.4100000000E+03    0.1816035347E+00    0.1002405947E+00    0.1677969143E+00    0.7977984512E-01    0.3676864567E+00
    0.4300000000E+03    0.1861830622E+00    0.9948755906E-01    0.1690006717E+00    0.8179375076E-01    0.3704380381E+00
    0.4500000000E+03    0.1906113108E+00    0.9869787396E-01    0.1701208366E+00    0.8374125082E-01    0.3730039858E+00
    0.4700000000E+03    0.1948982103E+00    0.9787908810E-01    0.1711662850E+00    0.8562670234E-01    0.3754038016E+00
    0.4900000000E+03    0.1990526300E+00    0.9703752282E-01    0.1721446485E+00    0.8745399692E-01    0.3776542689E+00
    0.1000000000E+03    0.7524357900E-01    0.8763760931E-01    0.1174290502E+00    0.3303829847E-01    0.2554446434E+00
    0.3000000000E+03    0.1531288572E+00    0.1032119269E+00    0.1591066141E+00    0.6726048480E-01    0.3479730285E+00
    0.5000000000E+03    0.2010826787E+00    0.9660989231E-01    0.1726107716E+00    0.8834694060E-01    0.3787281146E+00
    0.7000000000E+03    0.2362950435E+00    0.8777805639E-01    0.1796264476E+00    0.1038399789E+00    0.3950433837E+00
    0.9000000000E+03    0.2639392114E+00    0.7948542239E-01    0.1840206892E+00    0.1160096016E+00    0.4054517982E+00
    0.1100000000E+04    0.2863869257E+00    0.7221143610E-01    0.1870696439E+00    0.1258966034E+00    0.4127949459E+00
    0.1300000000E+04    0.3049967660E+00    0.6594708713E-01    0.1893271608E+00    0.1340972506E+00    0.4183162547E+00
    0.1500000000E+04    0.3206527233E+00    0.6057096201E-01    0.1910756347E+00    0.1409995865E+00    0.4226545805E+00
    0.1700000000E+04    0.3339751059E+00    0.5594742385E-01    0.1924753836E+00    0.1468759616E+00    0.4261752235E+00
    0.1900000000E+04    0.3454200348E+00    0.5195356960E-01    0.1936247250E+00    0.1519266815E+00    0.4291037392E+00
    0.2100000000E+04    0.3553333689E+00    0.4848511985E-01    0.1945875734E+00    0.1563036634E+00    0.4315877096E+00
    0.2300000000E+04    0.3639830865E+00    0.4545579653E-01    0.1954074202E+00    0.1601246402E+00    0.4337281813E+00
    0.2500000000E+04    0.3715802209E+00    0.4279488244E-01    0.1961149687E+00    0.1634823463E+00    0.4355969127E+00
    0.2700000000E+04    0.3782931266E+00    0.4044454030E-01    0.1967325605E+00    0.1664507770E+00    0.4372464176E+00
    0.2900000000E+04    0.3842575734E+00    0.3835739830E-01    0.1972768709E+00    0.1690896175E+00    0.4387161058E+00
    0.3100000000E+04    0.3895840871E+00    0.3649452595E-01    0.1977606172E+00    0.1714474653E+00    0.4400361924E+00
    0.3300000000E+04    0.3943633986E+00    0.3482378985E-01    0.1981936804E+00    0.1735642219E+00    0.4412302739E+00
    0.3500000000E+04    0.3986705568E+00    0.3331853694E-01    0.1985838626E+00    0.1754728983E+00    0.4423170755E+00
    0.3700000000E+04    0.4025680730E+00    0.3195654622E-01    0.1989374130E+00    0.1772009961E+00    0.4433116672E+00
    0.3900000000E+04    0.4061083534E+00    0.3071919541E-01    0.1992594001E+00    0.1787715751E+00    0.4442263292E+00
    0.4100000000E+04    0.4093355976E+00    0.2959079762E-01    0.1995539809E+00    0.1802040880E+00    0.4450711804E+00
    0.4300000000E+04    0.4122872951E+00    0.2855807175E-01    0.1998245999E+00    0.1815150372E+00    0.4458546419E+00
    0.4500000000E+04    0.4149954131E+00    0.2760971834E-01    0.2000741367E+00    0.1827184967E+00    0.4465837855E+00
    0.4700000000E+04    0.4174873467E+00    0.2673607817E-01    0.2003050190E+00    0.1838265300E+00    0.4472645981E+00
    0.4900000000E+04    0.4197866841E+00    0.2592885639E-01    0.2005193086E+00    0.1848495260E+00    0.4479021864E+00
    0.1000000000E+04    0.2757128046E+00    0.7571692343E-01    0.1856694870E+00    0.1211946220E+00    0.4094083164E+00
    0.3000000000E+04    0.3869944910E+00    0.3740007917E-01    0.1975256408E+00    0.1703009914E+00    0.4393932430E+00
    0.5000000000E+04    0.4208706147E+00    0.2554787731E-01    0.2006207922E+00    0.1853319917E+00    0.4482061663E+00
    0.7000000000E+04    0.4361748943E+00    0.2011144311E-01    0.2020981282E+00    0.1921635801E+00    0.4528152172E+00
    0.9000000000E+04    0.4446588512E+00    0.1699961672E-01    0.2029700228E+00    0.1959751073E+00    0.4557640306E+00
    0.1100000000E+05    0.4499805056E+00    0.1496718839E-01    0.2035455357E+00    0.1983820264E+00    0.4578611107E+00
    0.1300000000E+05    0.4536035622E+00    0.1352144419E-01    0.2039527551E+00    0.2000320513E+00    0.4594534126E+00
    0.1500000000E+05    0.4562174896E+00    0.1243069702E-01    0.2042548611E+00    0.2012309197E+00    0.4607175799E+00
    0.1700000000E+05    0.4581863912E+00    0.1157198687E-01    0.2044867887E+00    0.2021404347E+00    0.4617542137E+00
    0.1900000000E+05    0.4597194983E+00    0.1087397063E-01    0.2046694911E+00    0.2028537800E+00    0.4626253590E+00
    0.2100000000E+05    0.4609451130E+00    0.1029233139E-01    0.2048163255E+00    0.2034282238E+00    0.4633716365E+00
    0.2300000000E+05    0.4619460652E+00    0.9798020355E-02    0.2049362219E+00    0.2039008216E+00    0.4640209063E+00
    0.2500000000E+05    0.4627781087E+00    0.9371153336E-02    0.2050353822E+00    0.2042965731E+00    0.4645930021E+00
    0.2700000000E+05    0.4634800917E+00    0.8997625821E-02    0.2051182510E+00    0.2046329386E+00    0.4651024820E+00
    0.2900000000E+05    0.4640798808E+00    0.8667130906E-02    0.2051880975E+00    0.2049224716E+00    0.4655603076E+00
    0.3100000000E+05    0.4645979667E+00    0.8371944690E-02    0.2052473808E+00    0.2051744254E+00    0.4659749134E+00
    0.3300000000E+05    0.4650497415E+00    0.8106152727E-02    0.2052979859E+00    0.2053957670E+00    0.4663529107E+00
    0.3500000000E+05    0.4654469851E+00    0.7865140790E-02    0.2053413820E+00    0.2055918414E+00    0.4666995665E+00
    0.3700000000E+05    0.4657988609E+00    0.7645249880E-02    0.2053787309E+00    0.2057668167E+00    0.4670191360E+00
    0.3900000000E+05    0.4661126015E+00    0.7443536551E-02    0.2054109635E+00    0.2059239902E+00    0.4673151005E+00
    0.4100000000E+05    0.4663939891E+00    0.7257602679E-02    0.2054388336E+00    0.2060660051E+00    0.4675903400E+00
    0.4300000000E+05    0.4666477010E+00    0.7085472146E-02    0.2054629586E+00    0.2061950041E+00    0.4678472607E+00
    0.4500000000E+05    0.4668775597E+00    0.6925499920E-02    0.2054838485E+00    0.2063127432E+00    0.4680878914E+00
    0.4700000000E+05    0.4670867193E+00    0.6776303962E-02    0.2055019279E+00    0.2064206745E+00    0.4683139561E+00
    0.4900000000E+05    0.4672778050E+00    0.6636713479E-02    0.2055175536E+00    0.2065200099E+00    0.4685269312E+00
    0.1000000000E+05    0.4475965460E+00    0.1588839216E-01    0.2032845868E+00    0.1973017683E+00    0.4568915432E+00
    0.3000000000E+05    0.4643480755E+00    0.8515529316E-02    0.2052189304E+00    0.2050526660E+00    0.4657725635E+00
    0.5000000000E+05    0.4673672723E+00    0.6570202188E-02    0.2055245423E+00    0.2065667789E+00    0.4686289148E+00
    0.7000000000E+05    0.4685933613E+00    0.5563804509E-02    0.2055888234E+00    0.2072301187E+00    0.4702148158E+00
    0.9000000000E+05    0.4692475174E+00    0.4920751235E-02    0.2055798146E+00    0.2076110312E+00    0.4712758249E+00
    0.1100000000E+06    0.4696494026E+00    0.4463519902E-02    0.2055426120E+00    0.2078624610E+00    0.4720577934E+00
    0.1300000000E+06    0.4699186483E+00    0.4116534059E-02    0.2054936060E+00    0.2080431860E+00    0.4726694450E+00
    0.1500000000E+06    0.4701099254E+00    0.3841362461E-02    0.2054398088E+00    0.2081807732E+00    0.4731675617E+00
    0.1700000000E+06    0.4702516787E+00    0.3616091894E-02    0.2053845236E+00    0.2082899363E+00    0.4735852047E+00
    0.1900000000E+06    0.4703601285E+00    0.3427180111E-02    0.2053293945E+00    0.2083792797E+00    0.4739431670E+00
    0.2100000000E+06    0.4704451793E+00    0.3265741302E-02    0.2052752573E+00    0.2084541898E+00    0.4742553025E+00
    0.2300000000E+06    0.4705132093E+00    0.3125667909E-02    0.2052225299E+00    0.2085182220E+00    0.4745312654E+00
    0.2500000000E+06    0.4705685038E+00    0.3002603371E-02    0.2051714051E+00    0.2085738244E+00    0.4747780294E+00
    0.2700000000E+06    0.4706140444E+00    0.2893344429E-02    0.2051219513E+00    0.2086227418E+00    0.4750007820E+00
    0.2900000000E+06    0.4706519664E+00    0.2795475514E-02    0.2050741677E+00    0.2086662542E+00    0.4752034786E+00
    0.3100000000E+06    0.4706838372E+00    0.2707135639E-02    0.2050280146E+00    0.2087053240E+00    0.4753891976E+00
    0.3300000000E+06    0.4707108315E+00    0.2626864506E-02    0.2049834322E+00    0.2087406898E+00    0.4755603789E+00
    0.3500000000E+06    0.4707338466E+00    0.2553497830E-02    0.2049403500E+00    0.2087729290E+00    0.4757189859E+00
    0.3700000000E+06    0.4707535783E+00    0.2486094293E-02    0.2048986941E+00    0.2088025001E+00    0.4758666203E+00
    0.3900000000E+06    0.4707705743E+00    0.2423883410E-02    0.2048583900E+00    0.2088297724E+00    0.4760046045E+00
    0.4100000000E+06    0.4707852708E+00    0.2366227566E-02    0.2048193651E+00    0.2088550472E+00    0.4761340420E+00
    0.4300000000E+06    0.4707980195E+00    0.2312593896E-02    0.2047815499E+00    0.2088785726E+00    0.4762558625E+00
    0.4500000000E+06    0.4708091067E+00    0.2262533122E-02    0.2047448784E+00    0.2089005554E+00    0.4763708559E+00
    0.4700000000E+06    0.4708187673E+00    0.2215663388E-02    0.2047092886E+00    0.2089211696E+00    0.4764796987E+00
    0.4900000000E+06    0.4708271963E+00    0.2171657769E-02    0.2046747223E+00    0.2089405624E+00    0.4765829742E+00
    0.1000000000E+06    0.4694702164E+00    0.4674901257E-02    0.2055633798E+00    0.2077481598E+00    0.4716931371E+00
    0.3000000000E+06    0.4706685771E+00    0.2750213691E-02    0.2050508907E+00    0.2086862939E+00    0.4752982950E+00
    0.5000000000E+06    0.4708310008E+00    0.2150639410E-02    0.2046578058E+00    0.2089498407E+00    0.4766326852E+00
    0.7000000000E+06    0.4708706166E+00    0.1828991937E-02    0.2043618578E+00    0.2090939965E+00    0.4774286387E+00
    0.9000000000E+06    0.4708762591E+00    0.1620488928E-02    0.2041251252E+00    0.2091912113E+00    0.4779876590E+00
    0.1100000000E+07    0.4708694907E+00    0.1471163512E-02    0.2039277480E+00    0.2092639161E+00    0.4784149983E+00
    0.1300000000E+07    0.4708576454E+00    0.1357376900E-02    0.2037583767E+00    0.2093217326E+00    0.4787591464E+00
    0.1500000000E+07    0.4708437105E+00    0.1266911831E-02    0.2036099558E+00    0.2093696081E+00    0.4790462566E+00
    0.1700000000E+07    0.4708290400E+00    0.1192730274E-02    0.2034778057E+00    0.2094104011E+00    0.4792919678E+00
    0.1900000000E+07    0.4708142874E+00    0.1130452507E-02    0.2033586634E+00    0.2094459047E+00    0.4795063413E+00
    0.2100000000E+07    0.4707997767E+00    0.1077190603E-02    0.2032501629E+00    0.2094773140E+00    0.4796962149E+00
    0.2300000000E+07    0.4707856670E+00    0.1030952406E-02    0.2031505333E+00    0.2095054636E+00    0.4798664374E+00
    0.2500000000E+07    0.4707720307E+00    0.9903130242E-03    0.2030584142E+00    0.2095309588E+00    0.4800205672E+00
    0.2700000000E+07    0.4707588939E+00    0.9542225708E-03    0.2029727375E+00    0.2095542517E+00    0.4801612889E+00
    0.2900000000E+07    0.4707462575E+00    0.9218880212E-03    0.2028926492E+00    0.2095756889E+00    0.4802906762E+00
    0.3100000000E+07    0.4707341086E+00    0.8926976147E-03    0.2028174556E+00    0.2095955416E+00    0.4804103627E+00
    0.3300000000E+07    0.4707224274E+00    0.8661707979E-03    0.2027465851E+00    0.2096140261E+00    0.4805216571E+00
    0.3500000000E+07    0.4707111908E+00    0.8419240980E-03    0.2026795617E+00    0.2096313172E+00    0.4806256237E+00
    0.3700000000E+07    0.4707003743E+00    0.8196472583E-03    0.2026159839E+00    0.2096475588E+00    0.4807231390E+00
    0.3900000000E+07    0.4706899539E+00    0.7990861774E-03    0.2025555106E+00    0.2096628700E+00    0.4808149332E+00
    0.4100000000E+07    0.4706799060E+00    0.7800304713E-03    0.2024978491E+00    0.2096773511E+00    0.4809016207E+00
    0.4300000000E+07    0.4706702085E+00    0.7623042461E-03    0.2024427465E+00    0.2096910868E+00    0.4809837234E+00
    0.4500000000E+07    0.4706608405E+00    0.7457591469E-03    0.2023899828E+00    0.2097041498E+00    0.4810616880E+00
    0.4700000000E+07    0.4706517823E+00    0.7302690457E-03    0.2023393652E+00    0.2097166025E+00    0.4811358998E+00
    0.4900000000E+07    0.4706430158E+00    0.7157259317E-03    0.2022907242E+00    0.2097284992E+00    0.4812066933E+00
    0.1000000000E+07    0.4708738106E+00    0.1540293678E-02    0.2040223601E+00    0.2092298664E+00    0.4782140115E+00
    0.3000000000E+07    0.4707401233E+00    0.9069324490E-03    0.2028544788E+00    0.2095857987E+00    0.4803516437E+00
    0.5000000000E+07    0.4706387366E+00    0.7087798891E-03    0.2022670972E+00    0.2097342540E+00    0.4812409010E+00
    0.7000000000E+07    0.4705649866E+00    0.6025043950E-03    0.2018694767E+00    0.2098290316E+00    0.4818004755E+00
    0.9000000000E+07    0.4705073737E+00    0.5336435461E-03    0.2015679451E+00    0.2098987376E+00    0.4822070815E+00
    0.1100000000E+08    0.4704601621E+00    0.4843468342E-03    0.2013247619E+00    0.2099538814E+00    0.4825256080E+00
    0.1300000000E+08    0.4704201850E+00    0.4467954847E-03    0.2011208582E+00    0.2099995015E+00    0.4827870028E+00
    0.1500000000E+08    0.4703855241E+00    0.4169493470E-03    0.2009452328E+00    0.2100384050E+00    0.4830084024E+00
    0.1700000000E+08    0.4703549325E+00    0.3924815815E-03    0.2007909537E+00    0.2100723166E+00    0.4832002720E+00
    0.1900000000E+08    0.4703275553E+00    0.3719445735E-03    0.2006533671E+00    0.2101023719E+00    0.4833694640E+00
    0.2100000000E+08    0.4703027810E+00    0.3543840126E-03    0.2005291957E+00    0.2101293585E+00    0.4835207051E+00
    0.2300000000E+08    0.4702801573E+00    0.3391417401E-03    0.2004160438E+00    0.2101538451E+00    0.4836573913E+00
    0.2500000000E+08    0.4702593405E+00    0.3257471027E-03    0.2003121064E+00    0.2101762555E+00    0.4837820430E+00
    0.2700000000E+08    0.4702400629E+00    0.3138533795E-03    0.2002159894E+00    0.2101969144E+00    0.4838965816E+00
