  Pressure (Pa) 22mC5-400 (mol/kg) 2mC6-400 (mol/kg) 3mC6-400 (mol/kg) 23mC5-400 (mol/kg) C7-400 (mol/kg)
    0.1000000000E+01    0.1061275524E-02    0.2362217433E-02    0.4689045576E-02    0.9317403760E-04    0.8454851727E-02
    0.3000000000E+01    0.3158532416E-02    0.6811691319E-02    0.1347237351E-01    0.2773028691E-03    0.2429713361E-01
    0.5000000000E+01    0.5222900893E-02    0.1093164540E-01    0.2154447089E-01    0.4585461468E-03    0.3886275222E-01
    0.7000000000E+01    0.7255349816E-02    0.1476033285E-01    0.2898981612E-01    0.6369888654E-03    0.5230311416E-01
    0.9000000000E+01    0.9256809121E-02    0.1833010164E-01    0.3587996146E-01    0.8127126052E-03    0.6474647689E-01
    0.1100000000E+02    0.1122817176E-01    0.2166849825E-01    0.4227591734E-01    0.9857957025E-03    0.7630221664E-01
    0.1300000000E+02    0.1317029555E-01    0.2479913314E-01    0.4823002740E-01    0.1156313410E-02    0.8706418526E-01
    0.1500000000E+02    0.1508400488E-01    0.2774236558E-01    0.5378745699E-01    0.1324338051E-02    0.9711337503E-01
    0.1700000000E+02    0.1697009233E-01    0.3051585045E-01    0.5898738490E-01    0.1489939156E-02    0.1065200526E+00
    0.1900000000E+02    0.1882932024E-01    0.3313497822E-01    0.6386396519E-01    0.1653183603E-02    0.1153454810E+00
    0.2100000000E+02    0.2066242209E-01    0.3561323169E-01    0.6844710926E-01    0.1814135741E-02    0.1236433207E+00
    0.2300000000E+02    0.2247010392E-01    0.3796247726E-01    0.7276312611E-01    0.1972857509E-02    0.1314607757E+00
    0.2500000000E+02    0.2425304559E-01    0.4019320428E-01    0.7683525004E-01    0.2129408550E-02    0.1388395392E+00
    0.2700000000E+02    0.2601190199E-01    0.4231472304E-01    0.8068407807E-01    0.2283846317E-02    0.1458165767E+00
    0.2900000000E+02    0.2774730416E-01    0.4433532936E-01    0.8432793477E-01    0.2436226173E-02    0.1524247799E+00
    0.3100000000E+02    0.2945986045E-01    0.4626244226E-01    0.8778317803E-01    0.2586601485E-02    0.1586935144E+00
    0.3300000000E+02    0.3115015744E-01    0.4810271977E-01    0.9106445674E-01    0.2735023717E-02    0.1646490814E+00
    0.3500000000E+02    0.3281876101E-01    0.4986215658E-01    0.9418492896E-01    0.2881542513E-02    0.1703151085E+00
    0.3700000000E+02    0.3446621719E-01    0.5154616711E-01    0.9715644740E-01    0.3026205776E-02    0.1757128823E+00
    0.3900000000E+02    0.3609305305E-01    0.5315965614E-01    0.9998971791E-01    0.3169059747E-02    0.1808616322E+00
    0.4100000000E+02    0.3769977753E-01    0.5470707939E-01    0.1026944354E+00    0.3310149075E-02    0.1857787741E+00
    0.4300000000E+02    0.3928688220E-01    0.5619249550E-01    0.1052794006E+00    0.3449516888E-02    0.1904801202E+00
    0.4500000000E+02    0.4085484205E-01    0.5761961093E-01    0.1077526217E+00    0.3587204856E-02    0.1949800600E+00
    0.4700000000E+02    0.4240411611E-01    0.5899181878E-01    0.1101214014E+00    0.3723253253E-02    0.1992917173E+00
    0.4900000000E+02    0.4393514822E-01    0.6031223253E-01    0.1123924134E+00    0.3857701015E-02    0.2034270876E+00
    0.1000000000E+02    0.1024619811E-01    0.2002666235E-01    0.3913625756E-01    0.8995794604E-03    0.7062910421E-01
    0.3000000000E+02    0.2860640088E-01    0.4531013975E-01    0.8607818020E-01    0.2511661137E-02    0.1555998700E+00
    0.5000000000E+02    0.4469395821E-01    0.6095392046E-01    0.1134931867E+00    0.3924336475E-02    0.2054321347E+00
    0.7000000000E+02    0.5900977862E-01    0.7165555745E-01    0.1316165669E+00    0.5181550871E-02    0.2385089618E+00
    0.9000000000E+02    0.7191270806E-01    0.7938576196E-01    0.1445661583E+00    0.6314787345E-02    0.2622366663E+00
    0.1100000000E+03    0.8366694269E-01    0.8515030790E-01    0.1543259040E+00    0.7347225554E-02    0.2801885044E+00
    0.1300000000E+03    0.9447158940E-01    0.8953138266E-01    0.1619729259E+00    0.8296334905E-02    0.2943071238E+00
    0.1500000000E+03    0.1044797615E+00    0.9289617007E-01    0.1681441863E+00    0.9175549701E-02    0.3057428782E+00
    0.1700000000E+03    0.1138112969E+00    0.9549084527E-01    0.1732413885E+00    0.9995384869E-02    0.3152222179E+00
    0.1900000000E+03    0.1225614575E+00    0.9748808789E-01    0.1775309260E+00    0.1076419913E-01    0.3232275381E+00
    0.2100000000E+03    0.1308070200E+00    0.9901328691E-01    0.1811967386E+00    0.1148872936E-01    0.3300923634E+00
    0.2300000000E+03    0.1386106300E+00    0.1001600064E+00    0.1843701145E+00    0.1217447257E-01    0.3360550609E+00
    0.2500000000E+03    0.1460239725E+00    0.1009996164E+00    0.1871473955E+00    0.1282596408E-01    0.3412907756E+00
    0.2700000000E+03    0.1530901192E+00    0.1015875556E+00    0.1896009609E+00    0.1344698346E-01    0.3459312598E+00
    0.2900000000E+03    0.1598452922E+00    0.1019675497E+00    0.1917862980E+00    0.1404070927E-01    0.3500776455E+00
    0.3100000000E+03    0.1663202083E+00    0.1021745393E+00    0.1937466975E+00    0.1460983698E-01    0.3538089346E+00
    0.3300000000E+03    0.1725411150E+00    0.1022367609E+00    0.1955164577E+00    0.1515666991E-01    0.3571877972E+00
    0.3500000000E+03    0.1785305991E+00    0.1021772596E+00    0.1971231244E+00    0.1568319017E-01    0.3602646275E+00
    0.3700000000E+03    0.1843082240E+00    0.1020150078E+00    0.1985890898E+00    0.1619111455E-01    0.3630804418E+00
    0.3900000000E+03    0.1898910368E+00    0.1017657459E+00    0.1999327547E+00    0.1668193904E-01    0.3656689865E+00
    0.4100000000E+03    0.1952939756E+00    0.1014426240E+00    0.2011693886E+00    0.1715697455E-01    0.3680582988E+00
    0.4300000000E+03    0.2005301989E+00    0.1010566961E+00    0.2023117749E+00    0.1761737586E-01    0.3702718796E+00
    0.4500000000E+03    0.2056113545E+00    0.1006173069E+00    0.2033707021E+00    0.1806416513E-01    0.3723295858E+00
    0.4700000000E+03    0.2105478004E+00    0.1001323965E+00    0.2043553424E+00    0.1849825139E-01    0.3742483193E+00
    0.4900000000E+03    0.2153487876E+00    0.9960874232E-01    0.2052735465E+00    0.1892044648E-01    0.3760425634E+00
    0.1000000000E+03    0.7791970499E-01    0.8247070235E-01    0.1497635579E+00    0.6842403586E-02    0.2717881720E+00
    0.3000000000E+03    0.1631160476E+00    0.1020907682E+00    0.1927922906E+00    0.1432819566E-01    0.3519909318E+00
    0.5000000000E+03    0.2177011103E+00    0.9933423515E-01    0.2057098851E+00    0.1912731531E-01    0.3768969729E+00
    0.7000000000E+03    0.2592639759E+00    0.9285402189E-01    0.2121845490E+00    0.2278327805E-01    0.3897369567E+00
    0.9000000000E+03    0.2931455398E+00    0.8588101907E-01    0.2161423501E+00    0.2576479982E-01    0.3977853040E+00
    0.1100000000E+04    0.3217165766E+00    0.7925235963E-01    0.2188374989E+00    0.2827994278E-01    0.4033936599E+00
    0.1300000000E+04    0.3462852947E+00    0.7319411453E-01    0.2208026062E+00    0.3044351949E-01    0.4075715240E+00
    0.1500000000E+04    0.3676823351E+00    0.6773980494E-01    0.2223047567E+00    0.3232843353E-01    0.4108302829E+00
    0.1700000000E+04    0.3864868458E+00    0.6285731606E-01    0.2234935323E+00    0.3398552006E-01    0.4134591204E+00
    0.1900000000E+04    0.4031288451E+00    0.5849354054E-01    0.2244596169E+00    0.3545252878E-01    0.4156349855E+00
    0.2100000000E+04    0.4179415169E+00    0.5459141074E-01    0.2252613754E+00    0.3675871275E-01    0.4174727854E+00
    0.2300000000E+04    0.4311906824E+00    0.5109652053E-01    0.2259381722E+00    0.3792741419E-01    0.4190506911E+00
    0.2500000000E+04    0.4430928279E+00    0.4795951048E-01    0.2265175764E+00    0.3897764614E-01    0.4204239086E+00
    0.2700000000E+04    0.4538269111E+00    0.4513665682E-01    0.2270195044E+00    0.3992512812E-01    0.4216326431E+00
    0.2900000000E+04    0.4635425343E+00    0.4258969853E-01    0.2274587227E+00    0.4078300316E-01    0.4227069381E+00
    0.3100000000E+04    0.4723658604E+00    0.4028536239E-01    0.2278464241E+00    0.4156235677E-01    0.4236697396E+00
    0.3300000000E+04    0.4804040435E+00    0.3819479528E-01    0.2281912557E+00    0.4227260566E-01    0.4245389054E+00
    0.3500000000E+04    0.4877486389E+00    0.3629299848E-01    0.2285000089E+00    0.4292179689E-01    0.4253285622E+00
    0.3700000000E+04    0.4944782799E+00    0.3455830445E-01    0.2287780961E+00    0.4351684279E-01    0.4260500463E+00
    0.3900000000E+04    0.5006608137E+00    0.3297191095E-01    0.2290298863E+00    0.4406370838E-01    0.4267125712E+00
    0.4100000000E+04    0.5063550263E+00    0.3151747457E-01    0.2292589471E+00    0.4456756277E-01    0.4273237098E+00
    0.4300000000E+04    0.5116120497E+00    0.3018076048E-01    0.2294682215E+00    0.4503290264E-01    0.4278897501E+00
    0.4500000000E+04    0.5164765190E+00    0.2894934266E-01    0.2296601604E+00    0.4546365387E-01    0.4284159608E+00
    0.4700000000E+04    0.5209875304E+00    0.2781234835E-01    0.2298368217E+00    0.4586325563E-01    0.4289067937E+00
    0.4900000000E+04    0.5251794386E+00    0.2676024058E-01    0.2299999468E+00    0.4623473040E-01    0.4293660386E+00
    0.1000000000E+04    0.3079978112E+00    0.8250246279E-01    0.2176053880E+00    0.2707215020E-01    0.4008144026E+00
    0.3000000000E+04    0.4680586360E+00    0.4140910283E-01    0.2276584223E+00    0.4118187136E-01    0.4232010585E+00
    0.5000000000E+04    0.5271653351E+00    0.2626335803E-01    0.2300769057E+00    0.4641076538E-01    0.4295848491E+00
    0.7000000000E+04    0.5558501729E+00    0.1920799642E-01    0.2311720729E+00    0.4895821257E-01    0.4328925651E+00
    0.9000000000E+04    0.5722166789E+00    0.1529274051E-01    0.2317895262E+00    0.5041779616E-01    0.4350015748E+00
    0.1100000000E+05    0.5826081888E+00    0.1284639355E-01    0.2321796100E+00    0.5134865087E-01    0.4365003004E+00
    0.1300000000E+05    0.5897175383E+00    0.1118484937E-01    0.2324437024E+00    0.5198845610E-01    0.4376390157E+00
    0.1500000000E+05    0.5948544760E+00    0.9985292213E-02    0.2326308443E+00    0.5245297334E-01    0.4385443658E+00
    0.1700000000E+05    0.5987234074E+00    0.9078327197E-02    0.2327676877E+00    0.5280454866E-01    0.4392881657E+00
    0.1900000000E+05    0.6017334372E+00    0.8367508369E-02    0.2328699661E+00    0.5307944372E-01    0.4399145702E+00
    0.2100000000E+05    0.6041369733E+00    0.7794270892E-02    0.2329475608E+00    0.5330006422E-01    0.4404524232E+00
    0.2300000000E+05    0.6060975181E+00    0.7321154469E-02    0.2330069843E+00    0.5348094590E-01    0.4409214765E+00
    0.2500000000E+05    0.6077253083E+00    0.6923150623E-02    0.2330526979E+00    0.5363190416E-01    0.4413357762E+00
    0.2700000000E+05    0.6090971946E+00    0.6582955590E-02    0.2330878563E+00    0.5375979252E-01    0.4417056248E+00
    0.2900000000E+05    0.6102682920E+00    0.6288227993E-02    0.2331147492E+00    0.5386953396E-01    0.4420387766E+00
    0.3100000000E+05    0.6112791001E+00    0.6029933845E-02    0.2331350769E+00    0.5396475183E-01    0.4423411967E+00
    0.3300000000E+05    0.6121600113E+00    0.5801309546E-02    0.2331501258E+00    0.5404816970E-01    0.4426175612E+00
    0.3500000000E+05    0.6129342577E+00    0.5597190640E-02    0.2331608857E+00    0.5412187291E-01    0.4428715955E+00
    0.3700000000E+05    0.6136198885E+00    0.5413564771E-02    0.2331681294E+00    0.5418748429E-01    0.4431063104E+00
    0.3900000000E+05    0.6142311299E+00    0.5247266378E-02    0.2331724677E+00    0.5424628510E-01    0.4433241700E+00
    0.4100000000E+05    0.6147793406E+00    0.5095763498E-02    0.2331743893E+00    0.5429930009E-01    0.4435272135E+00
    0.4300000000E+05    0.6152736953E+00    0.4957005866E-02    0.2331742888E+00    0.5434735838E-01    0.4437171458E+00
    0.4500000000E+05    0.6157216826E+00    0.4829314757E-02    0.2331724879E+00    0.5439113789E-01    0.4438954048E+00
    0.4700000000E+05    0.6161294736E+00    0.4711301767E-02    0.2331692511E+00    0.5443119823E-01    0.4440632136E+00
    0.4900000000E+05    0.6165021974E+00    0.4601808056E-02    0.2331647973E+00    0.5446800533E-01    0.4442216200E+00
    0.1000000000E+05    0.5779437163E+00    0.1394120302E-01    0.2320048399E+00    0.5093029260E-01    0.4358073527E+00
    0.3000000000E+05    0.6107916362E+00    0.6154993452E-02    0.2331256452E+00    0.5391877062E-01    0.4421935102E+00
    0.5000000000E+05    0.6166767800E+00    0.4549944995E-02    0.2331621723E+00    0.5448531365E-01    0.4442975847E+00
    0.7000000000E+05    0.6190785521E+00    0.3787828853E-02    0.2330772159E+00    0.5472925738E-01    0.4454892801E+00
    0.9000000000E+05    0.6203757493E+00    0.3320612340E-02    0.2329688890E+00    0.5486794912E-01    0.4462993481E+00
    0.1100000000E+06    0.6211856875E+00    0.2996210572E-02    0.2328589376E+00    0.5495891305E-01    0.4469042857E+00
    0.1300000000E+06    0.6217385516E+00    0.2753735167E-02    0.2327533781E+00    0.5502401018E-01    0.4473827897E+00
    0.1500000000E+06    0.6221394675E+00    0.2563435751E-02    0.2326537970E+00    0.5507341159E-01    0.4477762744E+00
    0.1700000000E+06    0.6224432017E+00    0.2408814258E-02    0.2325603392E+00    0.5511251352E-01    0.4481090230E+00
    0.1900000000E+06    0.6226810652E+00    0.2279880426E-02    0.2324726645E+00    0.5514445688E-01    0.4483964072E+00
    0.2100000000E+06    0.6228722450E+00    0.2170179643E-02    0.2323902883E+00    0.5517120065E-01    0.4486487300E+00
    0.2300000000E+06    0.6230291494E+00    0.2075328686E-02    0.2323127104E+00    0.5519403388E-01    0.4488732116E+00
    0.2500000000E+06    0.6231601559E+00    0.1992231056E-02    0.2322394616E+00    0.5521384190E-01    0.4490750943E+00
    0.2700000000E+06    0.6232711233E+00    0.1918627861E-02    0.2321701191E+00    0.5523125439E-01    0.4492582973E+00
    0.2900000000E+06    0.6233662714E+00    0.1852826781E-02    0.2321043080E+00    0.5524673246E-01    0.4494258219E+00
    0.3100000000E+06    0.6234487160E+00    0.1793531173E-02    0.2320416985E+00    0.5526062221E-01    0.4495800148E+00
    0.3300000000E+06    0.6235208073E+00    0.1739728317E-02    0.2319820009E+00    0.5527318894E-01    0.4497227430E+00
    0.3500000000E+06    0.6235843512E+00    0.1690614023E-02    0.2319249607E+00    0.5528463978E-01    0.4498555149E+00
    0.3700000000E+06    0.6236407581E+00    0.1645540365E-02    0.2318703536E+00    0.5529513907E-01    0.4499795658E+00
    0.3900000000E+06    0.6236911454E+00    0.1603978622E-02    0.2318179816E+00    0.5530481902E-01    0.4500959190E+00
    0.4100000000E+06    0.6237364098E+00    0.1565492424E-02    0.2317676692E+00    0.5531378735E-01    0.4502054311E+00
    0.4300000000E+06    0.6237772788E+00    0.1529717959E-02    0.2317192601E+00    0.5532213283E-01    0.4503088264E+00
    0.4500000000E+06    0.6238143493E+00    0.1496349130E-02    0.2316726151E+00    0.5532992933E-01    0.4504067220E+00
    0.4700000000E+06    0.6238481150E+00    0.1465126275E-02    0.2316276094E+00    0.5533723891E-01    0.4504996480E+00
    0.4900000000E+06    0.6238789883E+00    0.1435827466E-02    0.2315841307E+00    0.5534411412E-01    0.4505880629E+00
    0.1000000000E+06    0.6208228052E+00    0.3145448549E-02    0.2329135741E+00    0.5491761826E-01    0.4466212814E+00
    0.3000000000E+06    0.6234089198E+00    0.1822434721E-02    0.2320726220E+00    0.5525385771E-01    0.4495044585E+00
    0.5000000000E+06    0.6238934508E+00    0.1421838844E-02    0.2315629320E+00    0.5534740311E-01    0.4506307055E+00
    0.7000000000E+06    0.6240918497E+00    0.1208157038E-02    0.2311991202E+00    0.5539847270E-01    0.4513211608E+00
    0.9000000000E+06    0.6241972721E+00    0.1069973857E-02    0.2309155426E+00    0.5543288589E-01    0.4518150049E+00
    0.1100000000E+07    0.6242613461E+00    0.9711393651E-03    0.2306828249E+00    0.5545861191E-01    0.4521976407E+00
    0.1300000000E+07    0.6243036169E+00    0.8958883244E-03    0.2304852926E+00    0.5547906432E-01    0.4525090626E+00
    0.1500000000E+07    0.6243330757E+00    0.8360935853E-03    0.2303135830E+00    0.5549599680E-01    0.4527711213E+00
    0.1700000000E+07    0.6243544174E+00    0.7870811458E-03    0.2301616497E+00    0.5551042220E-01    0.4529970220E+00
    0.1900000000E+07    0.6243703236E+00    0.7459458239E-03    0.2300253578E+00    0.5552297562E-01    0.4531953374E+00
    0.2100000000E+07    0.6243824320E+00    0.7107736500E-03    0.2299017530E+00    0.5553408021E-01    0.4533719390E+00
    0.2300000000E+07    0.6243917961E+00    0.6802452084E-03    0.2297886495E+00    0.5554403149E-01    0.4535310192E+00
    0.2500000000E+07    0.6243991226E+00    0.6534172839E-03    0.2296843847E+00    0.5555304368E-01    0.4536756732E+00
    0.2700000000E+07    0.6244049017E+00    0.6295951951E-03    0.2295876634E+00    0.5556127682E-01    0.4538082495E+00
    0.2900000000E+07    0.6244094835E+00    0.6082544044E-03    0.2294974572E+00    0.5556885356E-01    0.4539305709E+00
    0.3100000000E+07    0.6244131239E+00    0.5889903885E-03    0.2294129356E+00    0.5557586989E-01    0.4540440801E+00
    0.3300000000E+07    0.6244160141E+00    0.5714854639E-03    0.2293334178E+00    0.5558240229E-01    0.4541499376E+00
    0.3500000000E+07    0.6244182993E+00    0.5554861794E-03    0.2292583393E+00    0.5558851270E-01    0.4542490910E+00
    0.3700000000E+07    0.6244200914E+00    0.5407875134E-03    0.2291872261E+00    0.5559425193E-01    0.4543423233E+00
    0.3900000000E+07    0.6244214783E+00    0.5272215795E-03    0.2291196769E+00    0.5559966219E-01    0.4544302892E+00
    0.4100000000E+07    0.6244225294E+00    0.5146493959E-03    0.2290553485E+00    0.5560477890E-01    0.4545135412E+00
    0.4300000000E+07    0.6244233004E+00    0.5029547801E-03    0.2289939451E+00    0.5560963209E-01    0.4545925500E+00
    0.4500000000E+07    0.6244238362E+00    0.4920397506E-03    0.2289352102E+00    0.5561424742E-01    0.4546677198E+00
    0.4700000000E+07    0.6244241735E+00    0.4818210147E-03    0.2288789196E+00    0.5561864699E-01    0.4547393998E+00
    0.4900000000E+07    0.6244243426E+00    0.4722272501E-03    0.2288248766E+00    0.5562284997E-01    0.4548078943E+00
    0.1000000000E+07    0.6242328836E+00    0.1016882645E-02    0.2307940073E+00    0.5544656474E-01    0.4520171206E+00
    0.3000000000E+07    0.6244114082E+00    0.5983843848E-03    0.2294545314E+00    0.5557242661E-01    0.4539883488E+00
    0.5000000000E+07    0.6244243720E+00    0.4676451842E-03    0.2287986427E+00    0.5562488306E-01    0.4548410314E+00
    0.7000000000E+07    0.6244203983E+00    0.3975445470E-03    0.2283586772E+00    0.5565836236E-01    0.4553867458E+00
    0.9000000000E+07    0.6244128692E+00    0.3521273663E-03    0.2280267090E+00    0.5568298072E-01    0.4557874364E+00
    0.1100000000E+08    0.6244046680E+00    0.3196149171E-03    0.2277598608E+00    0.5570245358E-01    0.4561036401E+00
    0.1300000000E+08    0.6243966147E+00    0.2948491390E-03    0.2275366448E+00    0.5571856184E-01    0.4563645740E+00
    0.1500000000E+08    0.6243889577E+00    0.2751650823E-03    0.2273447331E+00    0.5573229750E-01    0.4565865597E+00
    0.1700000000E+08    0.6243817569E+00    0.2590280492E-03    0.2271763892E+00    0.5574426996E-01    0.4567796346E+00
    0.1900000000E+08    0.6243750057E+00    0.2454832963E-03    0.2270264359E+00    0.5575488047E-01    0.4569504084E+00
    0.2100000000E+08    0.6243686742E+00    0.2339014511E-03    0.2268912369E+00    0.5576440728E-01    0.4571034624E+00
    0.2300000000E+08    0.6243627262E+00    0.2238484649E-03    0.2267681393E+00    0.5577305124E-01    0.4572421016E+00
    0.2500000000E+08    0.6243571253E+00    0.2150139523E-03    0.2266551482E+00    0.5578096210E-01    0.4573687879E+00
    0.2700000000E+08    0.6243518380E+00    0.2071692609E-03    0.2265507252E+00    0.5578825449E-01    0.4574854039E+00
