  Pressure (Pa) 22mC5-400 (mol/kg) 2mC6-400 (mol/kg) 3mC6-400 (mol/kg) 23mC5-400 (mol/kg) C7-400 (mol/kg)
    0.1000000000E+01    0.1056394090E-02    0.7084916447E-02    0.2611137437E-02    0.9274567367E-04    0.5084723487E-02
    0.3000000000E+01    0.3116025715E-02    0.2041556720E-01    0.7535991415E-02    0.2735727270E-03    0.1467750821E-01
    0.5000000000E+01    0.5108585071E-02    0.3273195365E-01    0.1210264632E-01    0.4485143941E-03    0.2357569037E-01
    0.7000000000E+01    0.7038286715E-02    0.4414353977E-01    0.1635105777E-01    0.6179404464E-03    0.3185664402E-01
    0.9000000000E+01    0.8908985085E-02    0.5474434786E-01    0.2031537540E-01    0.7821890619E-03    0.3958650796E-01
    0.1100000000E+02    0.1072421271E-01    0.6461562476E-01    0.2402496497E-01    0.9415701771E-03    0.4682216266E-01
    0.1300000000E+02    0.1248721361E-01    0.7382796909E-01    0.2750522151E-01    0.1096368418E-02    0.5361280328E-01
    0.1500000000E+02    0.1420097264E-01    0.8244304317E-01    0.3077822176E-01    0.1246845673E-02    0.6000120185E-01
    0.1700000000E+02    0.1586824122E-01    0.9051496190E-01    0.3386325183E-01    0.1393243351E-02    0.6602472806E-01
    0.1900000000E+02    0.1749156010E-01    0.9809142787E-01    0.3677723698E-01    0.1535784378E-02    0.7171618099E-01
    0.2100000000E+02    0.1907327950E-01    0.1052146656E+00    0.3953509427E-01    0.1674674964E-02    0.7710447135E-01
    0.2300000000E+02    0.2061557690E-01    0.1119221957E+00    0.4215002360E-01    0.1810106164E-02    0.8221518474E-01
    0.2500000000E+02    0.2212047289E-01    0.1182474795E+00    0.4463374946E-01    0.1942255270E-02    0.8707104955E-01
    0.2700000000E+02    0.2358984536E-01    0.1242204603E+00    0.4699672284E-01    0.2071287050E-02    0.9169232772E-01
    0.2900000000E+02    0.2502544201E-01    0.1298680185E+00    0.4924829078E-01    0.2197354855E-02    0.9609714292E-01
    0.3100000000E+02    0.2642889174E-01    0.1352143579E+00    0.5139683943E-01    0.2320601608E-02    0.1003017575E+00
    0.3300000000E+02    0.2780171468E-01    0.1402813342E+00    0.5344991539E-01    0.2441160694E-02    0.1043208074E+00
    0.3500000000E+02    0.2914533137E-01    0.1450887356E+00    0.5541432902E-01    0.2559156756E-02    0.1081675020E+00
    0.3700000000E+02    0.3046107086E-01    0.1496545239E+00    0.5729624281E-01    0.2674706412E-02    0.1118537957E+00
    0.3900000000E+02    0.3175017820E-01    0.1539950425E+00    0.5910124732E-01    0.2787918909E-02    0.1153905342E+00
    0.4100000000E+02    0.3301382100E-01    0.1581251960E+00    0.6083442657E-01    0.2898896701E-02    0.1187875820E+00
    0.4300000000E+02    0.3425309559E-01    0.1620586062E+00    0.6250041470E-01    0.3007735985E-02    0.1220539313E+00
    0.4500000000E+02    0.3546903239E-01    0.1658077487E+00    0.6410344509E-01    0.3114527180E-02    0.1251977977E+00
    0.4700000000E+02    0.3666260098E-01    0.1693840713E+00    0.6564739320E-01    0.3219355363E-02    0.1282267031E+00
    0.4900000000E+02    0.3783471456E-01    0.1727980986E+00    0.6713581401E-01    0.3322300665E-02    0.1311475480E+00
    0.1000000000E+02    0.9823323589E-02    0.5976653757E-01    0.2220033927E-01    0.8624697064E-03    0.4326287276E-01
    0.3000000000E+02    0.2573108779E-01    0.1325774230E+00    0.5033495247E-01    0.2259322313E-02    0.9822352493E-01
    0.5000000000E+02    0.3841299672E-01    0.1744473108E+00    0.6786023312E-01    0.3373091015E-02    0.1325694501E+00
    0.7000000000E+02    0.4903735330E-01    0.2009004102E+00    0.8010152428E-01    0.4306289293E-02    0.1566315589E+00
    0.9000000000E+02    0.5824944649E-01    0.2185916531E+00    0.8928937216E-01    0.5115541428E-02    0.1747418402E+00
    0.1100000000E+03    0.6643821195E-01    0.2308589110E+00    0.9653228885E-01    0.5834978208E-02    0.1890554296E+00
    0.1300000000E+03    0.7385392821E-01    0.2395596773E+00    0.1024480593E+00    0.6486563557E-02    0.2007746211E+00
    0.1500000000E+03    0.8066606309E-01    0.2458075352E+00    0.1074106143E+00    0.7085170165E-02    0.2106278467E+00
    0.1700000000E+03    0.8699414171E-01    0.2503087081E+00    0.1116608713E+00    0.7641288035E-02    0.2190848687E+00
    0.1900000000E+03    0.9292532633E-01    0.2535312706E+00    0.1153618344E+00    0.8162567109E-02    0.2264638209E+00
    0.2100000000E+03    0.9852497256E-01    0.2557966877E+00    0.1186282228E+00    0.8654743583E-02    0.2329888014E+00
    0.2300000000E+03    0.1038432524E+00    0.2573323037E+00    0.1215434314E+00    0.9122221112E-02    0.2388228608E+00
    0.2500000000E+03    0.1089194666E+00    0.2583029004E+00    0.1241697484E+00    0.9568449237E-02    0.2440878883E+00
    0.2700000000E+03    0.1137849424E+00    0.2588304368E+00    0.1265547797E+00    0.9996177712E-02    0.2488771189E+00
    0.2900000000E+03    0.1184650357E+00    0.2590068152E+00    0.1287356345E+00    0.1040763218E-01    0.2532632909E+00
    0.3100000000E+03    0.1229805470E+00    0.2589023798E+00    0.1307417402E+00    0.1080463846E-01    0.2573041312E+00
    0.3300000000E+03    0.1273487446E+00    0.2585717146E+00    0.1325967851E+00    0.1118871235E-01    0.2610461448E+00
    0.3500000000E+03    0.1315841185E+00    0.2580576892E+00    0.1343200915E+00    0.1156112577E-01    0.2645272952E+00
    0.3700000000E+03    0.1356989438E+00    0.2573943343E+00    0.1359276076E+00    0.1192295627E-01    0.2677789395E+00
    0.3900000000E+03    0.1397037103E+00    0.2566089233E+00    0.1374326353E+00    0.1227512465E-01    0.2708272513E+00
    0.4100000000E+03    0.1436074522E+00    0.2557235011E+00    0.1388463750E+00    0.1261842395E-01    0.2736942855E+00
    0.4300000000E+03    0.1474180062E+00    0.2547560233E+00    0.1401783387E+00    0.1295354212E-01    0.2763987852E+00
    0.4500000000E+03    0.1511422151E+00    0.2537212161E+00    0.1414366675E+00    0.1328107982E-01    0.2789568032E+00
    0.4700000000E+03    0.1547860893E+00    0.2526312318E+00    0.1426283785E+00    0.1360156468E-01    0.2813821857E+00
    0.4900000000E+03    0.1583549379E+00    0.2514961554E+00    0.1437595594E+00    0.1391546276E-01    0.2836869530E+00
    0.1000000000E+03    0.6245371233E-01    0.2252639819E+00    0.9310770751E-01    0.5484904231E-02    0.1822832599E+00
    0.3000000000E+03    0.1207422120E+00    0.2589859726E+00    0.1297589343E+00    0.1060784021E-01    0.2553237437E+00
    0.5000000000E+03    0.1601127213E+00    0.2509143927E+00    0.1443041380E+00    0.1407007288E-01    0.2847974387E+00
    0.7000000000E+03    0.1922395959E+00    0.2383540556E+00    0.1530127696E+00    0.1689635748E-01    0.3026429485E+00
    0.9000000000E+03    0.2200905887E+00    0.2257360505E+00    0.1590804944E+00    0.1934721361E-01    0.3151859383E+00
    0.1100000000E+04    0.2449048038E+00    0.2139275604E+00    0.1636621137E+00    0.2153140766E-01    0.3247262574E+00
    0.1300000000E+04    0.2673397602E+00    0.2030767524E+00    0.1672996610E+00    0.2350664912E-01    0.3323488328E+00
    0.1500000000E+04    0.2878011527E+00    0.1931508113E+00    0.1702889291E+00    0.2530854106E-01    0.3386482975E+00
    0.1700000000E+04    0.3065674100E+00    0.1840714421E+00    0.1728081439E+00    0.2696151576E-01    0.3439843268E+00
    0.1900000000E+04    0.3238452296E+00    0.1757540330E+00    0.1749725277E+00    0.2848371026E-01    0.3485902659E+00
    0.2100000000E+04    0.3397972713E+00    0.1681192746E+00    0.1768606082E+00    0.2988939760E-01    0.3526256612E+00
    0.2300000000E+04    0.3545571396E+00    0.1610960907E+00    0.1785281495E+00    0.3119030195E-01    0.3562041498E+00
    0.2500000000E+04    0.3682380238E+00    0.1546217410E+00    0.1800160770E+00    0.3239635695E-01    0.3594093653E+00
    0.2700000000E+04    0.3809379561E+00    0.1486410606E+00    0.1813552489E+00    0.3351616706E-01    0.3623045353E+00
    0.2900000000E+04    0.3927431725E+00    0.1431055166E+00    0.1825694634E+00    0.3455730240E-01    0.3649385448E+00
    0.3100000000E+04    0.4037303639E+00    0.1379723080E+00    0.1836774296E+00    0.3552649616E-01    0.3673499165E+00
    0.3300000000E+04    0.4139682544E+00    0.1332035757E+00    0.1846940997E+00    0.3642978296E-01    0.3695695080E+00
    0.3500000000E+04    0.4235187599E+00    0.1287657292E+00    0.1856315959E+00    0.3727260039E-01    0.3716223905E+00
    0.3700000000E+04    0.4324378735E+00    0.1246288778E+00    0.1864998703E+00    0.3805986662E-01    0.3735291902E+00
    0.3900000000E+04    0.4407763701E+00    0.1207663518E+00    0.1873071843E+00    0.3879604210E-01    0.3753070638E+00
    0.4100000000E+04    0.4485803848E+00    0.1171542956E+00    0.1880604649E+00    0.3948518022E-01    0.3769704235E+00
    0.4300000000E+04    0.4558919000E+00    0.1137713228E+00    0.1887655712E+00    0.4013097004E-01    0.3785314830E+00
    0.4500000000E+04    0.4627491651E+00    0.1105982203E+00    0.1894274994E+00    0.4073677303E-01    0.3800006755E+00
    0.4700000000E+04    0.4691870636E+00    0.1076176938E+00    0.1900505410E+00    0.4130565520E-01    0.3813869777E+00
    0.4900000000E+04    0.4752374365E+00    0.1048141483E+00    0.1906384066E+00    0.4184041552E-01    0.3826981640E+00
    0.1000000000E+04    0.2328280197E+00    0.2197142093E+00    0.1615150076E+00    0.2046831855E-01    0.3202473545E+00
    0.3000000000E+04    0.3983345545E+00    0.1404910940E+00    0.1831357174E+00    0.3505049977E-01    0.3661699774E+00
    0.5000000000E+04    0.4781264911E+00    0.1034742869E+00    0.1909201736E+00    0.4209580794E-01    0.3833277400E+00
    0.7000000000E+04    0.5214055414E+00    0.8319155003E-01    0.1953095947E+00    0.4592606575E-01    0.3932401486E+00
    0.9000000000E+04    0.5471775155E+00    0.7068410654E-01    0.1982280831E+00    0.4821283293E-01    0.3999614463E+00
    0.1100000000E+05    0.5637425784E+00    0.6225977651E-01    0.2003491014E+00    0.4968684816E-01    0.4049300860E+00
    0.1300000000E+05    0.5750539915E+00    0.5619812347E-01    0.2019797590E+00    0.5069647403E-01    0.4088089242E+00
    0.1500000000E+05    0.5831568188E+00    0.5161258883E-01    0.2032832278E+00    0.5142208498E-01    0.4119532818E+00
    0.1700000000E+05    0.5891879372E+00    0.4800717689E-01    0.2043554334E+00    0.5196404494E-01    0.4145737017E+00
    0.1900000000E+05    0.5938188925E+00    0.4508514405E-01    0.2052570050E+00    0.5238169371E-01    0.4168042216E+00
    0.2100000000E+05    0.5974670635E+00    0.4265889788E-01    0.2060284140E+00    0.5271194766E-01    0.4187349187E+00
    0.2300000000E+05    0.6004032075E+00    0.4060430198E-01    0.2066978556E+00    0.5297877859E-01    0.4204289460E+00
    0.2500000000E+05    0.6028094635E+00    0.3883600251E-01    0.2072856602E+00    0.5319832895E-01    0.4219321145E+00
    0.2700000000E+05    0.6048122244E+00    0.3729337614E-01    0.2078069086E+00    0.5338181243E-01    0.4232786009E+00
    0.2900000000E+05    0.6065015839E+00    0.3593215302E-01    0.2082730558E+00    0.5353723090E-01    0.4244945079E+00
    0.3100000000E+05    0.6079432787E+00    0.3471922208E-01    0.2086929807E+00    0.5367042947E-01    0.4256001737E+00
    0.3300000000E+05    0.6091862663E+00    0.3362929728E-01    0.2090736854E+00    0.5378576626E-01    0.4266117204E+00
    0.3500000000E+05    0.6102676736E+00    0.3264271286E-01    0.2094207769E+00    0.5388655015E-01    0.4275421201E+00
    0.3700000000E+05    0.6112161124E+00    0.3174392606E-01    0.2097388045E+00    0.5397533417E-01    0.4284019486E+00
    0.3900000000E+05    0.6120539522E+00    0.3092047603E-01    0.2100315036E+00    0.5405411680E-01    0.4291999290E+00
    0.4100000000E+05    0.6127989098E+00    0.3016224460E-01    0.2103019732E+00    0.5412448281E-01    0.4299433313E+00
    0.4300000000E+05    0.6134651820E+00    0.2946092141E-01    0.2105528091E+00    0.5418770375E-01    0.4306382710E+00
    0.4500000000E+05    0.6140642666E+00    0.2880961018E-01    0.2107862038E+00    0.5424481072E-01    0.4312899358E+00
    0.4700000000E+05    0.6146055659E+00    0.2820253447E-01    0.2110040238E+00    0.5429664803E-01    0.4319027603E+00
    0.4900000000E+05    0.6150968371E+00    0.2763481461E-01    0.2112078693E+00    0.5434391319E-01    0.4324805613E+00
    0.1000000000E+05    0.5563010128E+00    0.6609676687E-01    0.1993642605E+00    0.4902413310E-01    0.4026131491E+00
    0.3000000000E+05    0.6072500041E+00    0.3530888472E-01    0.2084883209E+00    0.5360630644E-01    0.4250600288E+00
    0.5000000000E+05    0.6153257719E+00    0.2736439047E-01    0.2113049905E+00    0.5436601664E-01    0.4327573787E+00
    0.7000000000E+05    0.6183920657E+00    0.2327514496E-01    0.2127671255E+00    0.5466860410E-01    0.4370661649E+00
    0.9000000000E+05    0.6199751150E+00    0.2065918824E-01    0.2136823709E+00    0.5483253673E-01    0.4399404292E+00
    0.1100000000E+06    0.6209332056E+00    0.1879420160E-01    0.2143154860E+00    0.5493658875E-01    0.4420447995E+00
    0.1300000000E+06    0.6215723264E+00    0.1737477003E-01    0.2147817656E+00    0.5500930907E-01    0.4436777052E+00
    0.1500000000E+06    0.6220276188E+00    0.1624596443E-01    0.2151403015E+00    0.5506351796E-01    0.4449962856E+00
    0.1700000000E+06    0.6223676680E+00    0.1531947763E-01    0.2154248125E+00    0.5510583166E-01    0.4460924360E+00
    0.1900000000E+06    0.6226308667E+00    0.1454070065E-01    0.2156560719E+00    0.5514001647E-01    0.4470240712E+00
    0.2100000000E+06    0.6228403343E+00    0.1387375988E-01    0.2158476366E+00    0.5516837873E-01    0.4478298011E+00
    0.2300000000E+06    0.6230108039E+00    0.1329396317E-01    0.2160087612E+00    0.5519241288E-01    0.4485365199E+00
    0.2500000000E+06    0.6231520976E+00    0.1278367067E-01    0.2161459964E+00    0.5521313194E-01    0.4491636329E+00
    0.2700000000E+06    0.6232710103E+00    0.1232989216E-01    0.2162641187E+00    0.5523124829E-01    0.4497255525E+00
    0.2900000000E+06    0.6233723888E+00    0.1192281671E-01    0.2163666987E+00    0.5524727852E-01    0.4502332453E+00
    0.3100000000E+06    0.6234597817E+00    0.1155487449E-01    0.2164564626E+00    0.5526160695E-01    0.4506952288E+00
    0.3300000000E+06    0.6235358455E+00    0.1122011694E-01    0.2165355299E+00    0.5527452600E-01    0.4511182364E+00
    0.3500000000E+06    0.6236026073E+00    0.1091379469E-01    0.2166055751E+00    0.5528626236E-01    0.4515076734E+00
    0.3700000000E+06    0.6236616408E+00    0.1063206281E-01    0.2166679392E+00    0.5529699480E-01    0.4518679376E+00
    0.3900000000E+06    0.6237141856E+00    0.1037177012E-01    0.2167237095E+00    0.5530686634E-01    0.4522026502E+00
    0.4100000000E+06    0.6237612311E+00    0.1013030569E-01    0.2167737777E+00    0.5531599294E-01    0.4525148245E+00
    0.4300000000E+06    0.6238035768E+00    0.9905485002E-02    0.2168188815E+00    0.5532446970E-01    0.4528069920E+00
    0.4500000000E+06    0.6238418751E+00    0.9695464156E-02    0.2168596375E+00    0.5533237545E-01    0.4530812978E+00
    0.4700000000E+06    0.6238766640E+00    0.9498674301E-02    0.2168965646E+00    0.5533977613E-01    0.4533395739E+00
    0.4900000000E+06    0.6239083909E+00    0.9313770914E-02    0.2169301029E+00    0.5534672740E-01    0.4535833955E+00
    0.1000000000E+06    0.6205070248E+00    0.1965706768E-01    0.2140250809E+00    0.5488970134E-01    0.4410654432E+00
    0.3000000000E+06    0.6234176501E+00    0.1173435803E-01    0.2164130382E+00    0.5525463539E-01    0.4504694942E+00
    0.5000000000E+06    0.6239232257E+00    0.9225407864E-02    0.2169457210E+00    0.5535004958E-01    0.4537003193E+00
    0.7000000000E+06    0.6241247593E+00    0.7869224468E-02    0.2171478712E+00    0.5540140047E-01    0.4555317701E+00
    0.9000000000E+06    0.6242300425E+00    0.6986014549E-02    0.2172338142E+00    0.5543580391E-01    0.4567692928E+00
    0.1100000000E+07    0.6242931839E+00    0.6351433544E-02    0.2172671053E+00    0.5546144925E-01    0.4576863323E+00
    0.1300000000E+07    0.6243343521E+00    0.5866708662E-02    0.2172730951E+00    0.5548180552E-01    0.4584058990E+00
    0.1500000000E+07    0.6243627236E+00    0.5480597917E-02    0.2172637393E+00    0.5549864295E-01    0.4589929750E+00
    0.1700000000E+07    0.6243830497E+00    0.5163495031E-02    0.2172453231E+00    0.5551297944E-01    0.4594857079E+00
    0.1900000000E+07    0.6243980246E+00    0.4896932094E-02    0.2172214107E+00    0.5552545129E-01    0.4599082375E+00
    0.2100000000E+07    0.6244092841E+00    0.4668707315E-02    0.2171941385E+00    0.5553648150E-01    0.4602767241E+00
    0.2300000000E+07    0.6244178747E+00    0.4470389336E-02    0.2171648408E+00    0.5554636499E-01    0.4606024714E+00
    0.2500000000E+07    0.6244244949E+00    0.4295938749E-02    0.2171343777E+00    0.5555531528E-01    0.4608936693E+00
    0.2700000000E+07    0.6244296272E+00    0.4140899872E-02    0.2171033164E+00    0.5556349174E-01    0.4611564247E+00
    0.2900000000E+07    0.6244336145E+00    0.4001903290E-02    0.2170720376E+00    0.5557101638E-01    0.4613954033E+00
    0.3100000000E+07    0.6244367067E+00    0.3876347083E-02    0.2170407990E+00    0.5557798466E-01    0.4616142425E+00
    0.3300000000E+07    0.6244390894E+00    0.3762185493E-02    0.2170097766E+00    0.5558447260E-01    0.4618158288E+00
    0.3500000000E+07    0.6244409032E+00    0.3657784674E-02    0.2169790896E+00    0.5559054172E-01    0.4620024880E+00
    0.3700000000E+07    0.6244422563E+00    0.3561821715E-02    0.2169488185E+00    0.5559624249E-01    0.4621761189E+00
    0.3900000000E+07    0.6244432328E+00    0.3473212385E-02    0.2169190163E+00    0.5560161682E-01    0.4623382907E+00
    0.4100000000E+07    0.6244438995E+00    0.3391058409E-02    0.2168897163E+00    0.5560669987E-01    0.4624903135E+00
    0.4300000000E+07    0.6244443092E+00    0.3314608321E-02    0.2168609382E+00    0.5561152144E-01    0.4626332916E+00
    0.4500000000E+07    0.6244445048E+00    0.3243227955E-02    0.2168326913E+00    0.5561610700E-01    0.4627681638E+00
    0.4700000000E+07    0.6244445210E+00    0.3176377875E-02    0.2168049781E+00    0.5562047847E-01    0.4628957343E+00
    0.4900000000E+07    0.6244443864E+00    0.3113595903E-02    0.2167777956E+00    0.5562465488E-01    0.4630166969E+00
    0.1000000000E+07    0.6242652308E+00    0.6645427783E-02    0.2172549916E+00    0.5544944631E-01    0.4572582321E+00
    0.3000000000E+07    0.6244352597E+00    0.3937584087E-02    0.2170564007E+00    0.5557456493E-01    0.4615071448E+00
    0.5000000000E+07    0.6244442700E+00    0.3083603723E-02    0.2167644015E+00    0.5562667521E-01    0.4630748916E+00
    0.7000000000E+07    0.6244380064E+00    0.2624197923E-02    0.2165218508E+00    0.5565995446E-01    0.4640037123E+00
    0.9000000000E+07    0.6244289372E+00    0.2326000754E-02    0.2163189474E+00    0.5568443859E-01    0.4646521742E+00
    0.1100000000E+08    0.6244196074E+00    0.2112267327E-02    0.2161452003E+00    0.5570381334E-01    0.4651453837E+00
    0.1300000000E+08    0.6244106801E+00    0.1949312255E-02    0.2159933809E+00    0.5571984580E-01    0.4655408600E+00
    0.1500000000E+08    0.6244023196E+00    0.1819703737E-02    0.2158585618E+00    0.5573352059E-01    0.4658695510E+00
    0.1700000000E+08    0.6243945362E+00    0.1713390963E-02    0.2157372844E+00    0.5574544277E-01    0.4661499169E+00
    0.1900000000E+08    0.6243872919E+00    0.1624115307E-02    0.2156270423E+00    0.5575601083E-01    0.4663938057E+00
    0.2100000000E+08    0.6243805359E+00    0.1547747828E-02    0.2155259649E+00    0.5576550116E-01    0.4666092506E+00
    0.2300000000E+08    0.6243742171E+00    0.1481439134E-02    0.2154326212E+00    0.5577411334E-01    0.4668019361E+00
    0.2500000000E+08    0.6243682887E+00    0.1423150505E-02    0.2153458918E+00    0.5578199619E-01    0.4669760247E+00
    0.2700000000E+08    0.6243627092E+00    0.1371379350E-02    0.2152648853E+00    0.5578926364E-01    0.4671346511E+00
